 LCModel (Version 6.3-1L) Copyright: S.W. Provencher.          Ref.: Magn. Reson. Med. 30:672-679 (1993).                
 Slice#1 Row#8 Col#8  PD_05_press_1_raw_act
 Data of: Institute of Biomedical Engineering, Bogazici University, Istanbul
 05-January-2018  17:28
 36 lines in following concentration table = NCONC+1
    Conc.  %SD /Cr+PCr  Metabolite                                         
  131.049  98%   0.196 Ala                                                 
   98.380 139%   0.147 Asp                                                 
  426.594  52%   0.640 Cr                                                  
  240.444  96%   0.360 PCr                                                 
   59.408 140% 8.9E-02 GABA                                                
   70.225 119%   0.105 Glc                                                 
  670.532  39%   1.005 Gln                                                 
 1.01E+03  29%   1.513 Glu                                                 
  285.602   8%   0.428 GPC                                                 
    0.000 999%   0.000 PCh                                                 
  356.636  24%   0.535 GSH                                                 
  806.846  32%   1.210 Ins                                                 
    0.000 999%   0.000 Lac                                                 
 1.18E+03   6%   1.770 NAA                                                 
    0.000 999%   0.000 NAAG                                                
   43.238  51% 6.5E-02 Scyllo                                              
  140.782  93%   0.211 Tau                                                 
   45.436 227% 6.8E-02 -CrCH2                                              
  285.602   8%   0.428 GPC+PCh                                             
 1.18E+03   6%   1.770 NAA+NAAG                                            
  667.038  10%   1.000 Cr+PCr                                              
 1.68E+03  24%   2.518 Glu+Gln                                             
 3.77E+03   9%   5.656 Lip13a                                              
    0.000 999%   0.000 Lip13b                                              
  761.540  26%   1.142 Lip09                                               
    0.000 999%   0.000 MM09                                                
  948.573  27%   1.422 Lip20                                               
  565.039  47%   0.847 MM20                                                
    0.000 999%   0.000 MM12                                                
    0.000 999%   0.000 MM14                                                
   62.391 279% 9.4E-02 MM17                                                
 3.77E+03   9%   5.656 Lip13a+Lip13b                                       
 3.77E+03   9%   5.656 MM14+Lip13a+Lip13b+MM12                             
  761.540  26%   1.142 MM09+Lip09                                          
 1.51E+03  20%   2.269 MM20+Lip20                                          
   6 lines in following misc. output table
  FWHM = 0.054 ppm    S/N =   5                                            
  Data shift = 0.000 ppm                                                   
  Ph: -34 deg       2.3 deg/ppm                                            
  alphaB,S = 8.5E+01,   9.3E+01                                            
   14 spline knots.   Ns = 6(1)                                            
   2 inflections.     1 extrema                                            
  498 points on ppm-axis = NY
      4.000000     3.992357     3.984714     3.977070     3.969427     3.961784     3.954141     3.946497     3.938854     3.931211
      3.923568     3.915925     3.908281     3.900638     3.892995     3.885352     3.877708     3.870065     3.862422     3.854779
      3.847136     3.839492     3.831849     3.824206     3.816563     3.808919     3.801276     3.793633     3.785990     3.778347
      3.770703     3.763060     3.755417     3.747774     3.740130     3.732487     3.724844     3.717201     3.709558     3.701914
      3.694271     3.686628     3.678985     3.671341     3.663698     3.656055     3.648412     3.640769     3.633125     3.625482
      3.617839     3.610196     3.602552     3.594909     3.587266     3.579623     3.571980     3.564336     3.556693     3.549050
      3.541407     3.533763     3.526120     3.518477     3.510834     3.503191     3.495547     3.487904     3.480261     3.472618
      3.464974     3.457331     3.449688     3.442045     3.434402     3.426758     3.419115     3.411472     3.403829     3.396185
      3.388542     3.380899     3.373256     3.365613     3.357969     3.350326     3.342683     3.335040     3.327396     3.319753
      3.312110     3.304467     3.296824     3.289180     3.281537     3.273894     3.266251     3.258607     3.250964     3.243321
      3.235678     3.228034     3.220391     3.212748     3.205105     3.197462     3.189818     3.182175     3.174532     3.166889
      3.159245     3.151602     3.143959     3.136316     3.128673     3.121029     3.113386     3.105743     3.098100     3.090456
      3.082813     3.075170     3.067527     3.059884     3.052240     3.044597     3.036954     3.029311     3.021667     3.014024
      3.006381     2.998738     2.991095     2.983451     2.975808     2.968165     2.960522     2.952878     2.945235     2.937592
      2.929949     2.922306     2.914662     2.907019     2.899376     2.891733     2.884089     2.876446     2.868803     2.861160
      2.853517     2.845873     2.838230     2.830587     2.822944     2.815300     2.807657     2.800014     2.792371     2.784728
      2.777084     2.769441     2.761798     2.754155     2.746511     2.738868     2.731225     2.723582     2.715939     2.708295
      2.700652     2.693009     2.685366     2.677722     2.670079     2.662436     2.654793     2.647150     2.639506     2.631863
      2.624220     2.616577     2.608933     2.601290     2.593647     2.586004     2.578361     2.570717     2.563074     2.555431
      2.547788     2.540144     2.532501     2.524858     2.517215     2.509572     2.501928     2.494285     2.486642     2.478999
      2.471355     2.463712     2.456069     2.448426     2.440783     2.433139     2.425496     2.417853     2.410210     2.402566
      2.394923     2.387280     2.379637     2.371994     2.364350     2.356707     2.349064     2.341421     2.333777     2.326134
      2.318491     2.310848     2.303205     2.295561     2.287918     2.280275     2.272632     2.264988     2.257345     2.249702
      2.242059     2.234416     2.226772     2.219129     2.211486     2.203843     2.196199     2.188556     2.180913     2.173270
      2.165627     2.157983     2.150340     2.142697     2.135054     2.127410     2.119767     2.112124     2.104481     2.096838
      2.089194     2.081551     2.073908     2.066265     2.058621     2.050978     2.043335     2.035692     2.028049     2.020405
      2.012762     2.005119     1.997476     1.989833     1.982190     1.974546     1.966903     1.959260     1.951617     1.943974
      1.936331     1.928688     1.921045     1.913402     1.905759     1.898115     1.890472     1.882829     1.875186     1.867543
      1.859900     1.852257     1.844614     1.836971     1.829327     1.821684     1.814041     1.806398     1.798755     1.791112
      1.783469     1.775826     1.768183     1.760540     1.752896     1.745253     1.737610     1.729967     1.722324     1.714681
      1.707038     1.699395     1.691752     1.684108     1.676465     1.668822     1.661179     1.653536     1.645893     1.638250
      1.630607     1.622964     1.615321     1.607677     1.600034     1.592391     1.584748     1.577105     1.569462     1.561819
      1.554176     1.546533     1.538890     1.531246     1.523603     1.515960     1.508317     1.500674     1.493031     1.485388
      1.477745     1.470102     1.462458     1.454815     1.447172     1.439529     1.431886     1.424243     1.416600     1.408957
      1.401314     1.393671     1.386027     1.378384     1.370741     1.363098     1.355455     1.347812     1.340169     1.332526
      1.324883     1.317240     1.309596     1.301953     1.294310     1.286667     1.279024     1.271381     1.263738     1.256095
      1.248452     1.240808     1.233165     1.225522     1.217879     1.210236     1.202593     1.194950     1.187307     1.179664
      1.172021     1.164377     1.156734     1.149091     1.141448     1.133805     1.126162     1.118519     1.110876     1.103233
      1.095590     1.087946     1.080303     1.072660     1.065017     1.057374     1.049731     1.042088     1.034445     1.026802
      1.019158     1.011515     1.003872     0.996229     0.988586     0.980943     0.973300     0.965657     0.958014     0.950371
      0.942727     0.935084     0.927441     0.919798     0.912155     0.904512     0.896869     0.889226     0.881583     0.873940
      0.866296     0.858653     0.851010     0.843367     0.835724     0.828081     0.820438     0.812795     0.805152     0.797508
      0.789865     0.782222     0.774579     0.766936     0.759293     0.751650     0.744007     0.736364     0.728721     0.721077
      0.713434     0.705791     0.698148     0.690505     0.682862     0.675219     0.667576     0.659933     0.652290     0.644646
      0.637003     0.629360     0.621717     0.614074     0.606431     0.598788     0.591145     0.583502     0.575858     0.568215
      0.560572     0.552929     0.545286     0.537643     0.530000     0.522357     0.514714     0.507071     0.499427     0.491784
      0.484141     0.476498     0.468855     0.461212     0.453569     0.445925     0.438282     0.430639     0.422996     0.415353
      0.407710     0.400067     0.392424     0.384780     0.377137     0.369494     0.361851     0.354208     0.346565     0.338922
      0.331278     0.323635     0.315992     0.308349     0.300706     0.293063     0.285420     0.277777     0.270133     0.262490
      0.254847     0.247204     0.239561     0.231918     0.224275     0.216631     0.208988     0.201345
 NY phased data points follow
   1.18172E+00 -1.24780E+00  1.89345E-01 -1.12406E+00  5.79429E-01  4.28718E+00  2.95192E+00  1.32343E+01  1.34100E+01  1.42579E+01
   1.48380E+01  1.63389E+01  7.47189E+00  1.69179E+01  4.78325E+00  9.76666E+00  2.09251E+00  1.97790E+00  4.79784E+00  5.63495E+00
   2.29815E-01  9.83009E+00  4.60220E+00  4.44171E+00  1.80331E+00  2.56326E-01 -9.76202E-01  4.83194E+00  4.94650E+00  7.94704E+00
   1.29669E+01  8.50826E+00  8.50713E+00  8.86997E+00  4.39096E+00  9.31150E+00 -2.21584E+00  1.84141E+00  3.74474E+00 -3.64043E+00
   6.68378E-01 -4.42589E-01  3.42188E-01  1.24641E+01 -7.04421E-01  6.94033E+00  6.63805E+00  1.10256E+01  5.60612E+00  8.33867E+00
   8.36696E+00  4.42241E+00  8.68252E+00  5.97399E+00  5.55592E+00 -1.33025E+00  2.54426E+00  3.31199E+00  4.97857E+00 -7.41234E-01
   3.68297E+00 -3.69350E+00  3.10839E+00  3.83273E+00  1.78641E-01 -3.77581E-01 -2.99270E-01 -1.70758E+00 -9.55297E-01 -2.55806E+00
  -2.35054E+00 -4.45203E+00 -2.00807E+00  9.28116E-01  2.57834E+00 -5.58421E+00  5.69518E+00  2.19151E+00  1.86580E+00  8.01573E+00
  -6.46056E+00  6.07785E-01 -7.08060E-01 -1.57972E+00 -8.78907E-01 -7.31627E-01 -1.92698E+00  7.50556E+00  2.78166E+00  3.75628E+00
   5.09593E+00 -2.43371E+00  7.94285E-01  4.06285E+00 -4.87722E-01  2.44272E+00 -1.31935E+00 -2.92109E-01  5.01410E+00  4.70471E+00
   1.16771E+01  2.45516E+01  2.10480E+01  3.03958E+01  2.68593E+01  1.82071E+01  1.84368E+01  1.20166E+01  7.99629E+00  9.37199E+00
   3.01516E+00 -9.64900E-01  7.06110E+00  7.11636E+00  5.21285E+00 -1.96642E-02 -2.91460E+00 -2.06726E+00  2.37837E+00 -1.09244E+00
  -4.15525E+00 -5.01878E+00 -2.51497E+00  1.10506E+01  1.32815E+01  1.50189E+01  2.57460E+01  2.30047E+01  2.23297E+01  2.17726E+01
   8.58391E+00  8.00787E+00  5.44387E+00  1.46502E+00  5.96928E+00 -4.54924E+00  6.42256E+00  3.91322E+00 -2.15349E+00 -2.90388E+00
   5.12022E-01  2.73054E+00 -5.45085E+00  6.88372E-01  7.61543E+00 -3.16913E+00 -4.54266E-01  1.26409E+00 -2.00158E+00 -5.55338E-02
   5.50913E+00 -4.17011E+00  6.27644E-01  2.15651E+00 -2.42193E+00 -3.31790E+00  3.13765E+00  3.62963E+00  1.02999E+00 -4.19184E+00
  -1.22249E+00 -7.34450E+00 -3.35328E+00  2.71950E+00  1.54311E+00 -3.25943E+00  5.77650E-01  3.18538E+00 -3.48677E+00  6.31647E-01
  -2.32787E+00 -7.64991E+00 -6.16757E+00 -7.12333E+00 -9.20103E+00 -5.17183E+00 -1.08818E+01 -9.29848E+00 -3.65341E+00 -5.03371E+00
  -1.11442E+01 -4.10993E+00 -1.25280E+01 -9.20441E+00 -6.27217E+00 -6.99085E+00 -9.80849E+00 -4.43489E-01  2.69055E+00 -5.03353E+00
  -5.92314E+00 -1.40988E+00 -9.02411E+00  2.49565E+00 -1.70522E+00 -5.77417E+00 -7.83521E+00 -1.50366E+00 -8.69289E+00 -7.54146E+00
  -5.82520E+00  1.40735E+00  5.58382E-01  3.53896E+00  3.97904E+00  6.49727E+00 -8.57195E-01  3.70693E+00 -5.53748E+00 -3.95191E+00
  -1.83549E+00 -3.81341E+00 -1.10715E+00  5.57899E+00  4.75743E+00  1.37161E+01  8.32870E+00  7.53977E+00  4.63914E+00  3.00370E+00
  -2.52128E+00 -6.37923E+00  3.51129E-01  3.64245E+00  4.22793E+00  3.77714E+00  5.54834E+00 -2.29443E+00  1.81760E+00  4.70226E+00
   1.07578E+01  1.56489E+00  6.58907E+00  8.26306E+00  5.02244E+00  5.22030E+00  4.00457E+00  1.42244E+00  1.00785E+01  3.56933E-01
   2.87775E+00  1.00783E+00  3.42105E+00 -1.27579E+00  6.74065E+00  1.95980E+00  1.05229E+01  7.24804E+00  1.84502E+00  2.60515E+00
   4.40927E+00  7.40946E+00  3.31929E+00 -4.02667E+00  7.96024E+00  1.37967E+01  1.63556E+01  2.49626E+01  2.79018E+01  3.82091E+01
   4.66833E+01  5.23467E+01  3.77262E+01  2.71780E+01  1.95409E+01  1.47505E+01  9.74269E+00  1.32642E+01  8.85501E+00  7.54317E+00
   4.52019E+00  4.26679E+00  8.12340E-01 -1.64718E+00 -4.93310E+00 -7.09140E-01 -1.00327E+01 -8.01386E-01 -2.68538E+00 -9.15396E+00
  -8.14896E+00 -2.40188E+00  1.96150E+00  2.49564E+00 -3.96821E+00  1.28959E+00  9.33519E-01 -1.82925E-01  3.38914E+00 -2.47418E+00
   1.58637E-01  1.17273E+00 -4.04245E+00 -1.98963E+00  1.64881E+00 -4.82618E+00  4.26793E+00  4.36995E+00  5.88070E-02  3.07863E+00
   2.01277E+00 -3.62172E-01  5.34152E-02  4.87516E+00  1.16713E+01 -2.65515E+00  8.44997E+00 -1.85017E+00 -4.54618E+00 -4.37740E+00
   4.82387E+00 -2.53975E+00 -1.82611E+00  2.41480E+00 -6.34934E+00 -1.61389E+00 -1.98499E+00 -3.78478E+00 -6.10336E+00 -4.33804E+00
  -4.28626E+00 -4.96229E+00 -7.44725E+00 -3.02523E-01 -3.22684E+00 -9.26339E+00 -2.22333E-01 -7.54994E+00 -7.24136E+00 -1.00684E+01
  -4.17956E+00 -3.07450E+00 -1.73983E+00 -4.10349E+00 -3.87040E+00  1.01352E+01 -1.93459E+00  4.60330E-01  8.69212E+00  8.57888E+00
   1.11671E+01  7.69328E+00  1.46999E+01  2.12667E+01  1.25424E+01  1.19948E+01  1.05235E+01  2.07213E+01  2.78589E+01  2.82256E+01
   1.90030E+01  2.64814E+01  3.23549E+01  2.68266E+01  2.98444E+01  1.63795E+01  1.61768E+01  1.44829E+01  1.65514E+01  1.44646E+01
   6.50248E+00  1.07809E+01  1.06227E+01  1.44959E+01  1.86820E+01  1.57259E+01  1.81634E+01  1.63548E+01  1.21899E+01  1.32935E+01
   1.13042E+01  9.62848E+00  9.78940E+00  4.67122E+00  3.93701E+00  2.37577E+00  4.69071E+00  4.85678E-01  3.36712E+00  1.60380E+00
   2.14128E+00  2.20084E+00  1.39573E+00 -3.23494E-01  4.38380E-01  1.63117E+00 -2.00146E+00 -4.62210E+00 -1.20575E+01 -7.49287E+00
  -1.34526E+00 -4.35277E-01 -1.78160E+00 -7.71936E+00 -3.35152E+00 -1.97518E+00 -5.82599E+00 -3.29701E+00 -1.41416E+00 -9.29267E-01
  -7.20335E+00 -1.71239E+00 -5.38192E+00 -6.11777E-01  3.84019E+00  2.39373E+00  6.83295E+00  5.01634E+00  8.22404E+00  6.97486E+00
   6.22396E-01  1.34081E+01  1.20295E+01  1.11647E+01 -2.31904E-01  3.98304E+00  8.46621E+00  2.85225E-01  1.78773E+00  2.60012E-01
   7.82686E+00  2.44865E+00  2.42967E+00  2.47731E-01  2.31291E+00  9.17864E+00  5.44009E+00  7.72044E-01  1.28211E+00  3.04521E+00
  -1.20493E+00  4.56541E+00  5.89887E+00  5.78484E-01  5.48778E+00  9.81591E+00  9.66922E+00  1.25730E+00  3.96862E+00  3.65900E+00
   2.13199E+00  4.32640E+00 -2.54365E+00  3.52068E+00  1.11785E+00 -2.14451E+00 -1.35708E+00  5.94590E+00 -9.57866E-01 -2.72525E+00
  -2.40093E+00 -1.78826E+00  7.77838E-01 -6.08440E+00 -2.52574E+00 -3.12608E+00 -2.35352E+00  3.36546E+00  3.35246E-01 -4.40021E+00
  -1.52610E+00  5.99680E+00  6.23561E+00  3.54661E+00  1.67293E+00  2.42422E-01  3.02735E+00  5.67481E-01 -5.45035E-01 -2.99118E+00
   6.34830E-01  2.22204E+00  2.00093E+00  4.23141E+00 -5.33887E+00  4.13371E+00  9.79168E+00  4.27759E+00  4.16995E+00 -2.59687E+00
  -3.77122E+00 -9.13213E+00 -5.64886E-01  3.29481E+00 -2.14692E+00 -3.87973E+00  2.04991E+00  2.81174E-01 -4.93854E+00  1.86196E+00
   5.35498E+00 -9.85809E-02 -2.01710E-02  2.97880E+00 -5.48095E-01  3.72502E-01  1.21010E+00 -1.61493E+00
 NY points of the fit to the data follow
   1.29350E+00  1.18146E+00  1.31896E+00  1.79579E+00  2.76196E+00  4.35292E+00  6.60438E+00  9.26996E+00  1.18982E+01  1.39564E+01
   1.49797E+01  1.47122E+01  1.32217E+01  1.09328E+01  8.43481E+00  6.18498E+00  4.38860E+00  3.10973E+00  2.26126E+00  1.92865E+00
   2.00203E+00  2.11587E+00  2.05495E+00  1.80458E+00  1.66722E+00  1.93331E+00  2.77440E+00  4.29850E+00  6.41479E+00  8.70465E+00
   1.04763E+01  1.11413E+01  1.05247E+01  8.90830E+00  6.75831E+00  4.46862E+00  2.37570E+00  8.74768E-01  2.59421E-01  2.34335E-01
   5.36232E-01  1.15426E+00  2.09245E+00  3.28925E+00  4.57795E+00  5.77336E+00  6.62500E+00  6.90080E+00  6.48534E+00  5.39843E+00
   3.94233E+00  2.52996E+00  1.39474E+00  5.62903E-01  7.82494E-02  3.58327E-02  4.00277E-01  9.53972E-01  1.48923E+00  1.87186E+00
   1.99145E+00  1.80917E+00  1.38372E+00  8.72122E-01  4.40509E-01  1.70791E-01  8.44903E-02  1.86836E-01  4.37633E-01  7.64703E-01
   1.12764E+00  1.46343E+00  1.71120E+00  1.82135E+00  1.77592E+00  1.59421E+00  1.30655E+00  9.71573E-01  6.44277E-01  3.95299E-01
   3.43232E-01  5.08410E-01  7.87861E-01  1.06216E+00  1.22787E+00  1.18879E+00  9.06358E-01  4.21448E-01 -1.33416E-01 -5.79099E-01
  -7.93559E-01 -7.92094E-01 -6.77526E-01 -5.08829E-01 -2.55785E-01  7.92521E-02  5.37053E-01  1.69506E+00  4.39982E+00  8.77462E+00
   1.43063E+01  2.00616E+01  2.48285E+01  2.72844E+01  2.65614E+01  2.29333E+01  1.77517E+01  1.25292E+01  8.05758E+00  4.38908E+00
   1.45503E+00 -2.93663E-01 -7.85400E-01 -8.98996E-01 -9.33045E-01 -9.51539E-01 -9.57767E-01 -9.52177E-01 -9.13329E-01 -7.74814E-01
  -3.10205E-01  1.14800E+00  4.06830E+00  8.28153E+00  1.31846E+01  1.79110E+01  2.14237E+01  2.27538E+01  2.15368E+01  1.83582E+01
   1.43637E+01  1.04801E+01  6.99579E+00  3.80651E+00  1.04635E+00 -6.45399E-01 -1.39208E+00 -1.58194E+00 -1.31565E+00 -7.52534E-01
  -9.52805E-02  5.04955E-01  9.45052E-01  1.14446E+00  1.13650E+00  9.98281E-01  7.79448E-01  5.36301E-01  3.11207E-01  1.17952E-01
  -2.33381E-02 -1.33237E-01 -2.10203E-01 -2.48544E-01 -2.57854E-01 -2.90036E-01 -3.92162E-01 -5.72668E-01 -8.09203E-01 -1.03271E+00
  -1.17591E+00 -1.19770E+00 -1.10382E+00 -9.63374E-01 -8.73195E-01 -9.08766E-01 -1.07442E+00 -1.30615E+00 -1.54942E+00 -1.81297E+00
  -2.11353E+00 -2.46017E+00 -2.81028E+00 -3.09676E+00 -3.31628E+00 -3.47252E+00 -3.55203E+00 -3.55700E+00 -3.52786E+00 -3.52852E+00
  -3.59005E+00 -3.69476E+00 -3.78834E+00 -3.82835E+00 -3.79697E+00 -3.61018E+00 -3.13475E+00 -2.35309E+00 -1.39500E+00 -5.08978E-01
   9.46430E-02  2.84441E-01  9.18924E-03 -6.51200E-01 -1.51194E+00 -2.35310E+00 -2.91419E+00 -2.98190E+00 -2.45237E+00 -1.35676E+00
   1.15873E-01  1.63080E+00  2.83959E+00  3.48124E+00  3.31596E+00  2.22266E+00  3.62131E-01 -1.84402E+00 -3.89766E+00 -5.28542E+00
  -5.49997E+00 -4.37785E+00 -2.22748E+00  3.48505E-01  2.70555E+00  4.25330E+00  4.59672E+00  3.62163E+00  1.57580E+00 -8.35169E-01
  -2.86987E+00 -4.12771E+00 -4.36370E+00 -3.52086E+00 -1.80660E+00  1.13149E-01  1.65270E+00  2.60055E+00  3.00828E+00  2.99579E+00
   2.62534E+00  2.10547E+00  1.79493E+00  1.84234E+00  2.12474E+00  2.52154E+00  2.95579E+00  3.28722E+00  3.35331E+00  3.04645E+00
   2.43501E+00  1.73184E+00  1.15095E+00  8.27567E-01  7.62699E-01  9.39192E-01  1.29419E+00  1.67064E+00  2.01238E+00  2.40102E+00
   2.89946E+00  3.41077E+00  3.93576E+00  4.61714E+00  6.31748E+00  1.01818E+01  1.64287E+01  2.44050E+01  3.28604E+01  4.00955E+01
   4.41470E+01  4.36648E+01  3.89575E+01  3.18891E+01  2.45248E+01  1.79713E+01  1.23079E+01  7.53760E+00  4.49322E+00  3.21111E+00
   2.53021E+00  2.11442E+00  1.89612E+00  1.79314E+00  1.72321E+00  1.64234E+00  1.51535E+00  1.33311E+00  1.10595E+00  8.53765E-01
   5.96707E-01  3.65706E-01  1.83620E-01  4.91101E-02 -4.66782E-02 -1.13174E-01 -1.62019E-01 -2.02126E-01 -2.40408E-01 -2.81225E-01
  -3.22286E-01 -3.62600E-01 -4.02054E-01 -4.38506E-01 -4.69378E-01 -4.94477E-01 -5.15313E-01 -5.32160E-01 -5.44799E-01 -5.54647E-01
  -5.63102E-01 -5.70442E-01 -5.77804E-01 -5.85999E-01 -5.95667E-01 -6.07122E-01 -6.20265E-01 -6.34657E-01 -6.49781E-01 -6.65128E-01
  -6.80112E-01 -6.93729E-01 -7.04977E-01 -7.12803E-01 -7.15766E-01 -7.12080E-01 -6.99422E-01 -6.74429E-01 -6.31828E-01 -5.62017E-01
  -4.43304E-01 -2.37257E-01  4.34983E-02  3.27359E-01  5.30499E-01  5.78548E-01  4.17480E-01  3.34449E-02 -5.13231E-01 -1.04547E+00
  -1.34401E+00 -1.27833E+00 -8.24335E-01 -1.44111E-02  1.10265E+00  2.43548E+00  3.78211E+00  5.00804E+00  6.12730E+00  7.21587E+00
   8.34145E+00  9.52264E+00  1.07517E+01  1.20750E+01  1.35098E+01  1.49971E+01  1.64852E+01  1.79288E+01  1.92840E+01  2.05090E+01
   2.15649E+01  2.24176E+01  2.30395E+01  2.34108E+01  2.35204E+01  2.33668E+01  2.29577E+01  2.23098E+01  2.14472E+01  2.04008E+01
   1.92053E+01  1.78985E+01  1.65182E+01  1.51015E+01  1.36826E+01  1.22916E+01  1.09538E+01  9.68927E+00  8.51279E+00  7.43390E+00
   6.45749E+00  5.58440E+00  4.81215E+00  4.13578E+00  3.54852E+00  3.04258E+00  2.60958E+00  2.24117E+00  1.92929E+00  1.66651E+00
   1.44617E+00  1.26247E+00  1.11048E+00  9.86123E-01  8.86173E-01  8.08204E-01  7.50485E-01  7.11942E-01  6.92043E-01  6.90782E-01
   7.08580E-01  7.46262E-01  8.04916E-01  8.85833E-01  9.90352E-01  1.11980E+00  1.27531E+00  1.45769E+00  1.66720E+00  1.90345E+00
   2.16514E+00  2.45003E+00  2.75477E+00  3.07492E+00  3.40485E+00  3.73796E+00  4.06674E+00  4.38314E+00  4.67878E+00  4.94542E+00
   5.17523E+00  5.36128E+00  5.49785E+00  5.58081E+00  5.60775E+00  5.57816E+00  5.49337E+00  5.35653E+00  5.17234E+00  4.94685E+00
   4.68701E+00  4.40035E+00  4.09459E+00  3.77729E+00  3.45555E+00  3.13577E+00  2.82341E+00  2.52298E+00  2.23792E+00  1.97069E+00
   1.72284E+00  1.49508E+00  1.28743E+00  1.09936E+00  9.29928E-01  7.77915E-01  6.41921E-01  5.20484E-01  4.12098E-01  3.15327E-01
   2.28803E-01  1.51300E-01  8.16899E-02  1.89806E-02 -3.77287E-02 -8.92037E-02 -1.36118E-01 -1.79026E-01 -2.18426E-01 -2.54735E-01
  -2.88336E-01 -3.19527E-01 -3.48577E-01 -3.75696E-01 -4.01091E-01 -4.24930E-01 -4.47381E-01 -4.68565E-01 -4.88601E-01 -5.07576E-01
  -5.25594E-01 -5.42732E-01 -5.59074E-01 -5.74666E-01 -5.89568E-01 -6.03821E-01 -6.17489E-01 -6.30614E-01 -6.43246E-01 -6.55402E-01
  -6.67117E-01 -6.78413E-01 -6.89336E-01 -6.99902E-01 -7.10143E-01 -7.20061E-01 -7.29685E-01 -7.39030E-01 -7.48136E-01 -7.57008E-01
  -7.65667E-01 -7.74111E-01 -7.82366E-01 -7.90444E-01 -7.98375E-01 -8.06157E-01 -8.13808E-01 -8.21325E-01 -8.28739E-01 -8.36060E-01
  -8.43315E-01 -8.50500E-01 -8.57632E-01 -8.64716E-01 -8.71787E-01 -8.78858E-01 -8.85955E-01 -8.93077E-01
 NY background values follow
    -2.082E+00   -2.082E+00   -2.081E+00   -2.081E+00   -2.080E+00   -2.080E+00   -2.079E+00   -2.078E+00   -2.078E+00   -2.077E+00
    -2.077E+00   -2.076E+00   -2.076E+00   -2.075E+00   -2.075E+00   -2.074E+00   -2.073E+00   -2.073E+00   -2.072E+00   -2.072E+00
    -2.071E+00   -2.071E+00   -2.070E+00   -2.069E+00   -2.069E+00   -2.068E+00   -2.068E+00   -2.067E+00   -2.067E+00   -2.066E+00
    -2.065E+00   -2.065E+00   -2.064E+00   -2.064E+00   -2.063E+00   -2.062E+00   -2.062E+00   -2.061E+00   -2.061E+00   -2.060E+00
    -2.059E+00   -2.059E+00   -2.058E+00   -2.058E+00   -2.057E+00   -2.056E+00   -2.056E+00   -2.055E+00   -2.055E+00   -2.054E+00
    -2.053E+00   -2.053E+00   -2.052E+00   -2.052E+00   -2.051E+00   -2.050E+00   -2.050E+00   -2.049E+00   -2.049E+00   -2.048E+00
    -2.047E+00   -2.047E+00   -2.046E+00   -2.046E+00   -2.045E+00   -2.044E+00   -2.044E+00   -2.043E+00   -2.042E+00   -2.042E+00
    -2.041E+00   -2.041E+00   -2.040E+00   -2.039E+00   -2.039E+00   -2.038E+00   -2.037E+00   -2.037E+00   -2.036E+00   -2.036E+00
    -2.035E+00   -2.034E+00   -2.034E+00   -2.033E+00   -2.032E+00   -2.032E+00   -2.031E+00   -2.030E+00   -2.030E+00   -2.029E+00
    -2.029E+00   -2.028E+00   -2.027E+00   -2.027E+00   -2.026E+00   -2.025E+00   -2.025E+00   -2.024E+00   -2.023E+00   -2.023E+00
    -2.022E+00   -2.021E+00   -2.021E+00   -2.020E+00   -2.019E+00   -2.019E+00   -2.018E+00   -2.017E+00   -2.017E+00   -2.016E+00
    -2.015E+00   -2.015E+00   -2.014E+00   -2.013E+00   -2.013E+00   -2.012E+00   -2.011E+00   -2.011E+00   -2.010E+00   -2.009E+00
    -2.009E+00   -2.008E+00   -2.007E+00   -2.007E+00   -2.006E+00   -2.005E+00   -2.005E+00   -2.004E+00   -2.003E+00   -2.003E+00
    -2.002E+00   -2.001E+00   -2.001E+00   -2.000E+00   -1.999E+00   -1.999E+00   -1.998E+00   -1.997E+00   -1.997E+00   -1.996E+00
    -1.995E+00   -1.994E+00   -1.994E+00   -1.993E+00   -1.992E+00   -1.992E+00   -1.991E+00   -1.990E+00   -1.990E+00   -1.989E+00
    -1.988E+00   -1.987E+00   -1.987E+00   -1.986E+00   -1.985E+00   -1.985E+00   -1.984E+00   -1.983E+00   -1.982E+00   -1.982E+00
    -1.981E+00   -1.980E+00   -1.980E+00   -1.979E+00   -1.978E+00   -1.977E+00   -1.977E+00   -1.976E+00   -1.975E+00   -1.975E+00
    -1.974E+00   -1.973E+00   -1.972E+00   -1.972E+00   -1.971E+00   -1.970E+00   -1.970E+00   -1.969E+00   -1.968E+00   -1.967E+00
    -1.967E+00   -1.966E+00   -1.965E+00   -1.964E+00   -1.964E+00   -1.963E+00   -1.962E+00   -1.961E+00   -1.961E+00   -1.960E+00
    -1.959E+00   -1.958E+00   -1.958E+00   -1.957E+00   -1.956E+00   -1.955E+00   -1.955E+00   -1.954E+00   -1.953E+00   -1.953E+00
    -1.952E+00   -1.951E+00   -1.950E+00   -1.949E+00   -1.949E+00   -1.948E+00   -1.947E+00   -1.946E+00   -1.946E+00   -1.945E+00
    -1.944E+00   -1.943E+00   -1.943E+00   -1.942E+00   -1.941E+00   -1.940E+00   -1.940E+00   -1.939E+00   -1.938E+00   -1.937E+00
    -1.937E+00   -1.936E+00   -1.935E+00   -1.934E+00   -1.933E+00   -1.933E+00   -1.932E+00   -1.931E+00   -1.930E+00   -1.930E+00
    -1.929E+00   -1.928E+00   -1.927E+00   -1.926E+00   -1.926E+00   -1.925E+00   -1.924E+00   -1.923E+00   -1.923E+00   -1.922E+00
    -1.921E+00   -1.920E+00   -1.919E+00   -1.919E+00   -1.918E+00   -1.917E+00   -1.916E+00   -1.915E+00   -1.915E+00   -1.914E+00
    -1.913E+00   -1.912E+00   -1.911E+00   -1.911E+00   -1.910E+00   -1.909E+00   -1.908E+00   -1.907E+00   -1.907E+00   -1.906E+00
    -1.905E+00   -1.904E+00   -1.903E+00   -1.903E+00   -1.902E+00   -1.901E+00   -1.900E+00   -1.899E+00   -1.899E+00   -1.898E+00
    -1.897E+00   -1.896E+00   -1.895E+00   -1.895E+00   -1.894E+00   -1.893E+00   -1.892E+00   -1.891E+00   -1.890E+00   -1.890E+00
    -1.889E+00   -1.888E+00   -1.887E+00   -1.886E+00   -1.885E+00   -1.885E+00   -1.884E+00   -1.883E+00   -1.882E+00   -1.881E+00
    -1.880E+00   -1.880E+00   -1.879E+00   -1.878E+00   -1.877E+00   -1.876E+00   -1.875E+00   -1.875E+00   -1.874E+00   -1.873E+00
    -1.872E+00   -1.871E+00   -1.870E+00   -1.870E+00   -1.869E+00   -1.868E+00   -1.867E+00   -1.866E+00   -1.865E+00   -1.865E+00
    -1.864E+00   -1.863E+00   -1.862E+00   -1.861E+00   -1.860E+00   -1.859E+00   -1.859E+00   -1.858E+00   -1.857E+00   -1.856E+00
    -1.855E+00   -1.854E+00   -1.853E+00   -1.853E+00   -1.852E+00   -1.851E+00   -1.850E+00   -1.849E+00   -1.848E+00   -1.847E+00
    -1.847E+00   -1.846E+00   -1.845E+00   -1.844E+00   -1.843E+00   -1.842E+00   -1.841E+00   -1.841E+00   -1.840E+00   -1.839E+00
    -1.838E+00   -1.837E+00   -1.836E+00   -1.835E+00   -1.834E+00   -1.834E+00   -1.833E+00   -1.832E+00   -1.831E+00   -1.830E+00
    -1.829E+00   -1.828E+00   -1.827E+00   -1.826E+00   -1.826E+00   -1.825E+00   -1.824E+00   -1.823E+00   -1.822E+00   -1.821E+00
    -1.820E+00   -1.819E+00   -1.819E+00   -1.818E+00   -1.817E+00   -1.816E+00   -1.815E+00   -1.814E+00   -1.813E+00   -1.812E+00
    -1.811E+00   -1.810E+00   -1.810E+00   -1.809E+00   -1.808E+00   -1.807E+00   -1.806E+00   -1.805E+00   -1.804E+00   -1.803E+00
    -1.802E+00   -1.801E+00   -1.801E+00   -1.800E+00   -1.799E+00   -1.798E+00   -1.797E+00   -1.796E+00   -1.795E+00   -1.794E+00
    -1.793E+00   -1.792E+00   -1.791E+00   -1.791E+00   -1.790E+00   -1.789E+00   -1.788E+00   -1.787E+00   -1.786E+00   -1.785E+00
    -1.784E+00   -1.783E+00   -1.782E+00   -1.781E+00   -1.780E+00   -1.780E+00   -1.779E+00   -1.778E+00   -1.777E+00   -1.776E+00
    -1.775E+00   -1.774E+00   -1.773E+00   -1.772E+00   -1.771E+00   -1.770E+00   -1.769E+00   -1.768E+00   -1.768E+00   -1.767E+00
    -1.766E+00   -1.765E+00   -1.764E+00   -1.763E+00   -1.762E+00   -1.761E+00   -1.760E+00   -1.759E+00   -1.758E+00   -1.757E+00
    -1.756E+00   -1.755E+00   -1.754E+00   -1.753E+00   -1.753E+00   -1.752E+00   -1.751E+00   -1.750E+00   -1.749E+00   -1.748E+00
    -1.747E+00   -1.746E+00   -1.745E+00   -1.744E+00   -1.743E+00   -1.742E+00   -1.741E+00   -1.740E+00   -1.739E+00   -1.738E+00
    -1.737E+00   -1.736E+00   -1.735E+00   -1.735E+00   -1.734E+00   -1.733E+00   -1.732E+00   -1.731E+00   -1.730E+00   -1.729E+00
    -1.728E+00   -1.727E+00   -1.726E+00   -1.725E+00   -1.724E+00   -1.723E+00   -1.722E+00   -1.721E+00   -1.720E+00   -1.719E+00
    -1.718E+00   -1.717E+00   -1.716E+00   -1.715E+00   -1.714E+00   -1.713E+00   -1.712E+00   -1.711E+00   -1.710E+00   -1.709E+00
    -1.709E+00   -1.708E+00   -1.707E+00   -1.706E+00   -1.705E+00   -1.704E+00   -1.703E+00   -1.702E+00   -1.701E+00   -1.700E+00
    -1.699E+00   -1.698E+00   -1.697E+00   -1.696E+00   -1.695E+00   -1.694E+00   -1.693E+00   -1.692E+00
