 LCModel (Version 6.3-1L) Copyright: S.W. Provencher.          Ref.: Magn. Reson. Med. 30:672-679 (1993).                
 Slice#1 Row#2 Col#10  PD_05_press_1_raw_act
 36 lines in following concentration table = NCONC+1
    Conc.  %SD /Cr+PCr  Metabolite                                         
  196.823  58%   0.791 Ala                                                 
   30.683 177%   0.123 Asp                                                 
    0.000 999%   0.000 Cr                                                  
  248.923  14%   1.000 PCr                                                 
   34.197  98%   0.137 GABA                                                
   39.429  84%   0.158 Glc                                                 
   97.904 232%   0.393 Gln                                                 
  255.531 101%   1.027 Glu                                                 
   99.447  13%   0.400 GPC                                                 
    0.000 999%   0.000 PCh                                                 
   79.724  66%   0.320 GSH                                                 
  214.115  72%   0.860 Ins                                                 
   64.915 193%   0.261 Lac                                                 
  453.153  19%   1.820 NAA                                                 
   32.195 280%   0.129 NAAG                                                
   23.698  41% 9.5E-02 Scyllo                                              
   93.757  56%   0.377 Tau                                                 
   94.249  54%   0.379 -CrCH2                                              
   99.447  13%   0.400 GPC+PCh                                             
  485.349  11%   1.950 NAA+NAAG                                            
  248.923  14%   1.000 Cr+PCr                                              
  353.436 116%   1.420 Glu+Gln                                             
  287.370  72%   1.154 Lip13a                                              
    0.000 999%   0.000 Lip13b                                              
   68.685  91%   0.276 Lip09                                               
  542.884  17%   2.181 MM09                                                
   44.328  82%   0.178 Lip20                                               
  910.889  19%   3.659 MM20                                                
  159.141  39%   0.639 MM12                                                
  884.063  19%   3.552 MM14                                                
  353.986  29%   1.422 MM17                                                
  287.370  72%   1.154 Lip13a+Lip13b                                       
 1.33E+03  12%   5.345 MM14+Lip13a+Lip13b+MM12                             
  611.569  12%   2.457 MM09+Lip09                                          
  955.217  17%   3.837 MM20+Lip20                                          
   6 lines in following misc. output table
  FWHM = 0.084 ppm    S/N =   4                                            
  Data shift = 0.107 ppm                                                   
  Ph:   8 deg      -5.4 deg/ppm                                            
  alphaB,S = 8.5E+01,   1.0E+02                                            
   14 spline knots.   Ns =11(1)                                            
   2 inflections.     1 extrema                                            
  498 points on ppm-axis = NY
      4.000000     3.992357     3.984714     3.977070     3.969427     3.961784     3.954141     3.946497     3.938854     3.931211
      3.923568     3.915925     3.908281     3.900638     3.892995     3.885352     3.877708     3.870065     3.862422     3.854779
      3.847136     3.839492     3.831849     3.824206     3.816563     3.808919     3.801276     3.793633     3.785990     3.778347
      3.770703     3.763060     3.755417     3.747774     3.740130     3.732487     3.724844     3.717201     3.709558     3.701914
      3.694271     3.686628     3.678985     3.671341     3.663698     3.656055     3.648412     3.640769     3.633125     3.625482
      3.617839     3.610196     3.602552     3.594909     3.587266     3.579623     3.571980     3.564336     3.556693     3.549050
      3.541407     3.533763     3.526120     3.518477     3.510834     3.503191     3.495547     3.487904     3.480261     3.472618
      3.464974     3.457331     3.449688     3.442045     3.434402     3.426758     3.419115     3.411472     3.403829     3.396185
      3.388542     3.380899     3.373256     3.365613     3.357969     3.350326     3.342683     3.335040     3.327396     3.319753
      3.312110     3.304467     3.296824     3.289180     3.281537     3.273894     3.266251     3.258607     3.250964     3.243321
      3.235678     3.228034     3.220391     3.212748     3.205105     3.197462     3.189818     3.182175     3.174532     3.166889
      3.159245     3.151602     3.143959     3.136316     3.128673     3.121029     3.113386     3.105743     3.098100     3.090456
      3.082813     3.075170     3.067527     3.059884     3.052240     3.044597     3.036954     3.029311     3.021667     3.014024
      3.006381     2.998738     2.991095     2.983451     2.975808     2.968165     2.960522     2.952878     2.945235     2.937592
      2.929949     2.922306     2.914662     2.907019     2.899376     2.891733     2.884089     2.876446     2.868803     2.861160
      2.853517     2.845873     2.838230     2.830587     2.822944     2.815300     2.807657     2.800014     2.792371     2.784728
      2.777084     2.769441     2.761798     2.754155     2.746511     2.738868     2.731225     2.723582     2.715939     2.708295
      2.700652     2.693009     2.685366     2.677722     2.670079     2.662436     2.654793     2.647150     2.639506     2.631863
      2.624220     2.616577     2.608933     2.601290     2.593647     2.586004     2.578361     2.570717     2.563074     2.555431
      2.547788     2.540144     2.532501     2.524858     2.517215     2.509572     2.501928     2.494285     2.486642     2.478999
      2.471355     2.463712     2.456069     2.448426     2.440783     2.433139     2.425496     2.417853     2.410210     2.402566
      2.394923     2.387280     2.379637     2.371994     2.364350     2.356707     2.349064     2.341421     2.333777     2.326134
      2.318491     2.310848     2.303205     2.295561     2.287918     2.280275     2.272632     2.264988     2.257345     2.249702
      2.242059     2.234416     2.226772     2.219129     2.211486     2.203843     2.196199     2.188556     2.180913     2.173270
      2.165627     2.157983     2.150340     2.142697     2.135054     2.127410     2.119767     2.112124     2.104481     2.096838
      2.089194     2.081551     2.073908     2.066265     2.058621     2.050978     2.043335     2.035692     2.028049     2.020405
      2.012762     2.005119     1.997476     1.989833     1.982190     1.974546     1.966903     1.959260     1.951617     1.943974
      1.936331     1.928688     1.921045     1.913402     1.905759     1.898115     1.890472     1.882829     1.875186     1.867543
      1.859900     1.852257     1.844614     1.836971     1.829327     1.821684     1.814041     1.806398     1.798755     1.791112
      1.783469     1.775826     1.768183     1.760540     1.752896     1.745253     1.737610     1.729967     1.722324     1.714681
      1.707038     1.699395     1.691752     1.684108     1.676465     1.668822     1.661179     1.653536     1.645893     1.638250
      1.630607     1.622964     1.615321     1.607677     1.600034     1.592391     1.584748     1.577105     1.569462     1.561819
      1.554176     1.546533     1.538890     1.531246     1.523603     1.515960     1.508317     1.500674     1.493031     1.485388
      1.477745     1.470102     1.462458     1.454815     1.447172     1.439529     1.431886     1.424243     1.416600     1.408957
      1.401314     1.393671     1.386027     1.378384     1.370741     1.363098     1.355455     1.347812     1.340169     1.332526
      1.324883     1.317240     1.309596     1.301953     1.294310     1.286667     1.279024     1.271381     1.263738     1.256095
      1.248452     1.240808     1.233165     1.225522     1.217879     1.210236     1.202593     1.194950     1.187307     1.179664
      1.172021     1.164377     1.156734     1.149091     1.141448     1.133805     1.126162     1.118519     1.110876     1.103233
      1.095590     1.087946     1.080303     1.072660     1.065017     1.057374     1.049731     1.042088     1.034445     1.026802
      1.019158     1.011515     1.003872     0.996229     0.988586     0.980943     0.973300     0.965657     0.958014     0.950371
      0.942727     0.935084     0.927441     0.919798     0.912155     0.904512     0.896869     0.889226     0.881583     0.873940
      0.866296     0.858653     0.851010     0.843367     0.835724     0.828081     0.820438     0.812795     0.805152     0.797508
      0.789865     0.782222     0.774579     0.766936     0.759293     0.751650     0.744007     0.736364     0.728721     0.721077
      0.713434     0.705791     0.698148     0.690505     0.682862     0.675219     0.667576     0.659933     0.652290     0.644646
      0.637003     0.629360     0.621717     0.614074     0.606431     0.598788     0.591145     0.583502     0.575858     0.568215
      0.560572     0.552929     0.545286     0.537643     0.530000     0.522357     0.514714     0.507071     0.499427     0.491784
      0.484141     0.476498     0.468855     0.461212     0.453569     0.445925     0.438282     0.430639     0.422996     0.415353
      0.407710     0.400067     0.392424     0.384780     0.377137     0.369494     0.361851     0.354208     0.346565     0.338922
      0.331278     0.323635     0.315992     0.308349     0.300706     0.293063     0.285420     0.277777     0.270133     0.262490
      0.254847     0.247204     0.239561     0.231918     0.224275     0.216631     0.208988     0.201345
 NY phased data points follow
   1.19175E+00 -1.56376E+00 -9.82284E-01 -1.95253E-01  3.16200E+00  6.48328E+00  2.07633E+00  4.90291E-01  1.84280E+00  3.71397E+00
   3.94344E+00  5.44864E-01  2.23391E+00  1.70292E+00 -5.90172E-01  1.00437E+00  1.27771E+00  9.40978E-01  1.62536E+00  1.08251E+00
   1.64954E+00  5.14634E-02  1.17307E+00 -2.29759E+00  3.82782E+00  2.18955E-01 -1.02537E-01  4.84752E+00  2.53866E+00  2.67315E+00
  -1.08246E-01 -3.30010E-01  1.31056E+00  2.99610E-01  2.13804E+00  8.91173E-01  3.74241E-01 -2.44634E-01  1.12495E+00  2.16051E+00
  -2.39846E+00  4.48680E+00  2.31252E+00  8.52297E-01  2.56534E+00  1.76322E+00  1.05350E+00  1.07710E+00  8.13288E-01  2.44935E+00
  -1.64269E+00  1.19815E+00  2.16394E+00  2.18416E+00  1.97565E+00  3.15080E+00  2.34937E+00 -8.45013E-01 -2.18610E+00  5.90760E-01
   5.64124E-01  4.15470E-02  1.25890E+00  3.46933E+00 -2.43383E+00  2.36562E+00 -6.84067E-02  3.03345E-01  8.81396E-01  1.03151E+00
   3.08631E+00  2.25471E+00  4.89002E-01 -1.72299E-01  1.72123E+00  3.47344E+00  1.83238E+00 -8.33887E-01  2.73907E+00  1.37343E+00
   1.13093E+00  2.28150E+00  2.34438E+00 -5.27409E-02 -1.78167E-02  5.72611E+00  1.51848E+00 -5.70430E-01  3.94960E-01  2.23370E+00
   2.94806E+00  5.01950E+00  1.49810E+00 -2.47070E-01  3.01762E+00  6.89676E-01  2.77914E+00  4.65099E+00  7.69070E+00  5.13723E+00
   6.77827E+00  8.82092E+00  8.80077E+00  5.80237E+00  3.41489E+00  3.56659E+00  3.46277E+00  5.33195E+00  2.92580E+00  4.18296E+00
   3.41518E+00  4.51495E+00 -8.92906E-01  1.18123E+00  1.05011E+00 -1.46798E+00  2.43011E+00 -1.24250E+00  2.79860E-01 -6.69343E-01
   1.05697E+00  5.44470E+00  3.89914E+00  5.36098E+00  6.34222E+00  7.87963E+00  5.28995E+00  6.49693E+00  7.31118E+00  7.63208E+00
   5.22727E+00  5.04752E+00  2.39950E+00  1.23483E+00  4.25418E+00  4.32020E+00  3.49298E+00  2.44688E+00 -6.72273E-01  7.24829E-01
  -1.20719E+00 -1.80925E+00  5.11784E-01  4.01851E+00  1.15465E+00  1.54618E+00  1.60727E+00  6.20681E-01  5.03162E+00  4.08251E+00
   3.79826E+00 -5.27694E-01  2.80769E+00  5.54099E+00  9.81616E-01 -6.39507E-03 -5.19059E-01 -1.78397E-01  1.32730E+00 -1.57191E+00
  -2.72029E+00  2.32496E+00  5.80282E-01  2.22241E+00 -1.35312E+00 -9.47574E-03 -3.91952E-01  2.54885E+00  1.30246E+00 -2.89751E+00
  -2.25700E+00 -1.55199E+00  1.94445E-01 -3.18478E+00 -1.33936E+00 -7.94137E-01  2.85950E+00 -1.10935E+00 -3.74234E+00  5.57160E-01
  -1.78730E+00 -1.93712E+00 -4.53497E+00 -6.99455E-01  1.79447E-01 -2.19293E+00 -2.38816E+00 -2.45263E+00  2.16107E+00 -2.87678E-01
  -3.35169E-01 -6.68050E-01 -1.04951E+00  9.42091E-02  1.34710E+00 -4.98895E+00 -8.53115E-01 -1.85704E+00  1.31473E+00  3.62778E-01
  -5.57451E-01  2.19221E+00  1.32238E+00  1.64522E+00  1.62413E-01 -2.35031E+00 -7.97115E-01  6.97860E-01 -6.90088E-01 -6.18914E-01
   2.22553E+00  3.53100E+00  3.93903E+00  1.76565E+00  3.81392E-01  3.31289E+00  2.54509E+00  4.84811E-01  3.40668E+00  2.41227E+00
   2.48171E+00 -2.16696E+00  1.09582E+00 -1.73083E+00  4.17123E+00  1.65176E+00  1.45304E-01  4.08521E-01  6.13733E-01  2.54999E+00
  -9.62594E-01 -1.31062E+00  2.26186E+00  3.27155E+00  3.13386E+00 -8.61943E-01  1.36419E+00  1.05875E+00  2.10592E+00  1.47569E+00
  -1.98690E-01  4.01856E+00  2.50090E+00  3.72543E+00  3.19987E+00  6.89838E+00  5.91086E+00  3.25378E+00  3.27461E+00  5.51684E+00
   6.65005E+00  4.98685E+00  6.11026E+00  8.89764E+00  7.65759E+00  1.35006E+01  1.05761E+01  1.16519E+01  1.51902E+01  1.48170E+01
   1.20508E+01  1.72687E+01  1.23227E+01  1.08726E+01  7.93227E+00  7.20461E+00  8.49645E+00  6.66839E+00  1.70233E+00  3.32312E+00
   4.53293E+00  3.28233E+00  2.46383E+00  2.83540E+00 -1.23553E+00  2.86893E+00  9.16829E-01  1.61049E+00  2.91395E+00  4.28604E+00
   2.79747E+00  6.31341E+00  1.56168E+00 -1.31353E+00 -4.56856E-01  1.02864E+00  1.46695E+00 -2.72706E-01  2.36231E+00  5.44654E-01
   1.04306E+00  4.59646E+00  2.97036E-01  7.33243E-01  1.32273E+00  1.48156E-01  2.99587E+00  3.01592E+00 -3.91778E-01  1.04245E+00
   2.66363E+00  3.38317E+00  1.35072E+00  3.41308E+00  2.78195E+00  4.74568E+00  3.14463E+00  2.74078E+00  2.88850E+00  4.93591E+00
   6.30041E-01  5.88870E+00  1.66089E+00  5.07754E+00  4.34507E+00  1.13740E+00  2.04602E+00  5.62278E+00  6.19288E+00  2.22658E+00
   5.88330E+00  2.18181E+00  4.09315E+00  7.15446E+00  5.15809E+00  1.37063E+00  3.93332E+00  2.47539E+00  4.61429E+00  8.60594E+00
   3.29272E+00  6.51337E+00  3.36305E+00  4.11721E+00  1.80758E+00  2.99759E+00  5.04784E+00  8.25276E+00  7.72668E+00  6.43781E+00
   8.91032E+00  6.09211E+00  6.15677E+00  6.28855E+00  5.89583E+00  7.08347E+00  5.90012E+00  4.95069E+00  4.39903E+00  5.55503E+00
   5.74142E+00  3.20346E+00  1.07741E+00  4.85187E+00  5.68273E+00  2.79157E+00  2.42822E+00  1.60800E+00  3.74292E+00  3.50678E+00
   3.10971E+00  2.13830E+00  7.04312E-01  2.76001E+00  4.22715E+00 -1.46228E+00  1.79376E+00  3.89951E+00  2.68729E+00  3.15175E+00
   2.53631E+00  2.16007E+00  4.61892E-02  3.35407E+00  6.44096E-01  7.76350E-01 -2.40497E+00  3.60211E+00  2.37521E+00  2.21150E+00
  -2.27393E+00  3.10074E+00  2.22198E+00  1.99057E+00  1.97449E+00  3.46846E-01  3.00598E+00 -1.60392E+00  2.50034E+00  1.76886E+00
   7.89256E-01  2.16429E+00  1.81991E+00  2.16295E+00  1.70497E+00  5.50638E+00  6.80693E-01  2.80320E+00  2.95261E+00  2.30175E+00
   3.39390E+00  2.17755E+00  6.56854E+00  4.69939E+00  5.00077E+00  3.21203E+00  3.62991E+00  7.80441E+00  7.93654E+00  5.91185E+00
   2.72716E+00  5.42529E+00  2.86894E+00  1.87274E+00 -1.58272E+00  1.54073E+00  3.14858E+00  1.28628E+00  1.82539E+00  3.50733E-01
   3.37162E+00  5.00192E-01  2.34423E+00  1.42554E-01 -2.06425E-01  1.08602E+00  1.68554E+00  1.68089E-01  2.45232E+00 -1.61965E-01
   2.81940E+00  8.42747E-01  3.32319E-01  7.73724E-01  2.41571E-01  1.16607E+00 -6.63064E-01 -2.78266E+00 -3.72161E-01 -1.50858E+00
  -1.40189E+00 -3.83718E+00  1.88091E-01 -7.87938E-01  3.51782E+00 -1.46125E-01 -8.81442E-01 -1.04522E+00 -4.88199E-01  2.35673E+00
  -2.63442E+00  2.23248E+00 -4.93142E-01 -4.29260E+00 -5.26097E-01  7.28664E-01 -4.66846E-01  7.66727E-01 -3.78813E+00 -1.82260E+00
  -2.43909E-01  3.75708E-01  1.35679E+00 -4.31470E-01  6.23953E-01 -1.18294E+00 -1.22388E+00 -9.79361E-01  1.25489E+00 -7.50423E-01
   1.19950E+00 -3.18097E-01 -4.31744E+00 -1.45545E+00  6.36224E-01  6.06855E-01  4.06009E+00 -6.90435E-01  8.88946E-01 -7.31506E-01
  -1.67009E+00  1.45517E+00  2.41111E+00 -1.74356E+00 -1.94630E+00  1.94994E+00 -2.30450E-01  1.10617E+00 -3.95985E-01  1.64679E+00
  -1.16690E+00 -9.18385E-01 -1.80908E-01 -1.32559E+00 -1.12404E+00 -2.36999E+00  4.22224E-01  1.49839E+00
 NY points of the fit to the data follow
   5.49049E-01  7.15739E-01  1.01161E+00  1.39903E+00  1.80533E+00  2.16682E+00  2.46324E+00  2.69257E+00  2.84069E+00  2.88709E+00
   2.81879E+00  2.64346E+00  2.39969E+00  2.14033E+00  1.90512E+00  1.70762E+00  1.54587E+00  1.41214E+00  1.29117E+00  1.16565E+00
   1.03257E+00  9.21342E-01  8.74232E-01  9.03544E-01  9.90405E-01  1.11247E+00  1.25963E+00  1.43224E+00  1.61605E+00  1.77896E+00
   1.89351E+00  1.94503E+00  1.92616E+00  1.84124E+00  1.71011E+00  1.55837E+00  1.41010E+00  1.28570E+00  1.20183E+00  1.17084E+00
   1.19941E+00  1.28130E+00  1.39436E+00  1.50735E+00  1.59314E+00  1.64470E+00  1.66369E+00  1.64427E+00  1.57972E+00  1.47345E+00
   1.34304E+00  1.21414E+00  1.10901E+00  1.03911E+00  1.00011E+00  9.75524E-01  9.47959E-01  9.09404E-01  8.65868E-01  8.27079E-01
   7.97843E-01  7.75097E-01  7.51688E-01  7.27140E-01  7.08819E-01  7.04132E-01  7.17038E-01  7.49438E-01  7.98071E-01  8.54039E-01
   9.03024E-01  9.31460E-01  9.36638E-01  9.23920E-01  8.98822E-01  8.68167E-01  8.38574E-01  8.24097E-01  8.45265E-01  9.09022E-01
   9.97261E-01  1.07587E+00  1.12171E+00  1.13616E+00  1.12664E+00  1.08821E+00  1.01267E+00  9.02120E-01  7.71272E-01  6.41742E-01
   5.36225E-01  4.79988E-01  5.04166E-01  6.73440E-01  1.12010E+00  1.91316E+00  2.97073E+00  4.09047E+00  5.07679E+00  5.86283E+00
   6.45285E+00  6.81261E+00  6.89161E+00  6.67420E+00  6.19151E+00  5.53684E+00  4.83140E+00  4.16319E+00  3.56449E+00  3.02891E+00
   2.53731E+00  2.07265E+00  1.62514E+00  1.22537E+00  9.29602E-01  7.69743E-01  7.37102E-01  8.17201E-01  1.09270E+00  1.66457E+00
   2.52632E+00  3.54068E+00  4.51352E+00  5.32575E+00  5.96934E+00  6.44364E+00  6.70012E+00  6.69201E+00  6.40792E+00  5.89344E+00
   5.25261E+00  4.59604E+00  3.98901E+00  3.45069E+00  2.97109E+00  2.53439E+00  2.12667E+00  1.75835E+00  1.47037E+00  1.29517E+00
   1.21704E+00  1.17650E+00  1.13503E+00  1.08522E+00  1.02949E+00  9.72593E-01  9.16566E-01  8.59797E-01  8.00326E-01  7.38906E-01
   6.77374E-01  6.16467E-01  5.53285E-01  4.82639E-01  4.03930E-01  3.23702E-01  2.54650E-01  2.05561E-01  1.72040E-01  1.43480E-01
   1.12704E-01  7.98101E-02  4.91423E-02  2.09718E-02 -1.03348E-02 -5.12946E-02 -1.06209E-01 -1.76359E-01 -2.59796E-01 -3.47235E-01
  -4.25325E-01 -4.84364E-01 -5.28235E-01 -5.71640E-01 -6.22179E-01 -6.69989E-01 -7.00434E-01 -7.09869E-01 -7.09457E-01 -7.12756E-01
  -7.16085E-01 -7.00247E-01 -6.45587E-01 -5.45765E-01 -4.11198E-01 -2.59783E-01 -1.06556E-01  3.53578E-02  1.57507E-01  2.52725E-01
   3.15072E-01  3.44348E-01  3.48790E-01  3.45956E-01  3.54996E-01  3.91915E-01  4.65187E-01  5.71370E-01  6.92121E-01  8.00824E-01
   8.76139E-01  9.01241E-01  8.65822E-01  7.74594E-01  6.44491E-01  5.02407E-01  3.77829E-01  3.04797E-01  3.13688E-01  4.06382E-01
   5.49991E-01  6.98937E-01  8.20204E-01  8.90928E-01  8.91427E-01  8.18038E-01  6.98826E-01  5.79133E-01  4.96713E-01  4.70379E-01
   5.01864E-01  5.85684E-01  7.09526E-01  8.51723E-01  9.92577E-01  1.11789E+00  1.22647E+00  1.32993E+00  1.44046E+00  1.56713E+00
   1.71381E+00  1.87817E+00  2.04637E+00  2.19712E+00  2.31063E+00  2.38178E+00  2.42286E+00  2.45702E+00  2.50500E+00  2.57654E+00
   2.67275E+00  2.79132E+00  2.92794E+00  3.07496E+00  3.22791E+00  3.39026E+00  3.56657E+00  3.76468E+00  3.99831E+00  4.29712E+00
   4.70531E+00  5.32379E+00  6.34061E+00  7.82190E+00  9.58819E+00  1.12909E+01  1.26422E+01  1.35808E+01  1.41494E+01  1.43204E+01
   1.40372E+01  1.32957E+01  1.21639E+01  1.08026E+01  9.40796E+00  8.11538E+00  6.97175E+00  5.96616E+00  5.06771E+00  4.24367E+00
   3.47671E+00  2.81594E+00  2.33735E+00  2.05852E+00  1.90584E+00  1.79139E+00  1.68954E+00  1.59593E+00  1.51033E+00  1.43443E+00
   1.36986E+00  1.31656E+00  1.27399E+00  1.24185E+00  1.22034E+00  1.20991E+00  1.21136E+00  1.22512E+00  1.25110E+00  1.28917E+00
   1.33910E+00  1.40031E+00  1.47209E+00  1.55368E+00  1.64440E+00  1.74349E+00  1.84987E+00  1.96216E+00  2.07868E+00  2.19730E+00
   2.31559E+00  2.43109E+00  2.54141E+00  2.64439E+00  2.73822E+00  2.82163E+00  2.89384E+00  2.95475E+00  3.00504E+00  3.04619E+00
   3.08037E+00  3.11062E+00  3.14081E+00  3.17581E+00  3.22174E+00  3.28702E+00  3.38427E+00  3.52578E+00  3.72653E+00  3.98472E+00
   4.25162E+00  4.45284E+00  4.53156E+00  4.48140E+00  4.33726E+00  4.12619E+00  3.86869E+00  3.63072E+00  3.49913E+00  3.53163E+00
   3.72956E+00  4.04648E+00  4.43384E+00  4.85822E+00  5.28063E+00  5.65871E+00  5.96022E+00  6.17123E+00  6.30920E+00  6.39953E+00
   6.43999E+00  6.40442E+00  6.27552E+00  6.05955E+00  5.77244E+00  5.42383E+00  5.03639E+00  4.65909E+00  4.34126E+00  4.10089E+00
   3.92497E+00  3.79623E+00  3.70268E+00  3.63348E+00  3.57368E+00  3.50891E+00  3.42857E+00  3.32972E+00  3.21974E+00  3.10787E+00
   2.99665E+00  2.88257E+00  2.76350E+00  2.64034E+00  2.51224E+00  2.37898E+00  2.24518E+00  2.11866E+00  2.00475E+00  1.90208E+00
   1.80772E+00  1.72079E+00  1.64125E+00  1.56941E+00  1.50574E+00  1.45080E+00  1.40522E+00  1.36965E+00  1.34476E+00  1.33128E+00
   1.32996E+00  1.34155E+00  1.36686E+00  1.40670E+00  1.46187E+00  1.53312E+00  1.62112E+00  1.72639E+00  1.84924E+00  1.98965E+00
   2.14722E+00  2.32107E+00  2.50974E+00  2.71113E+00  2.92243E+00  3.14016E+00  3.36015E+00  3.57763E+00  3.78735E+00  3.98376E+00
   4.16123E+00  4.31426E+00  4.43778E+00  4.52738E+00  4.57956E+00  4.59189E+00  4.56322E+00  4.49370E+00  4.38477E+00  4.23913E+00
   4.06058E+00  3.85378E+00  3.62405E+00  3.37710E+00  3.11873E+00  2.85461E+00  2.59005E+00  2.32977E+00  2.07786E+00  1.83761E+00
   1.61157E+00  1.40146E+00  1.20833E+00  1.03259E+00  8.74087E-01  7.32268E-01  6.06243E-01  4.94899E-01  3.96991E-01  3.11212E-01
   2.36257E-01  1.70867E-01  1.13858E-01  6.41420E-02  2.07396E-02 -1.72196E-02 -5.04957E-02 -7.97510E-02 -1.05554E-01 -1.28394E-01
  -1.48685E-01 -1.66778E-01 -1.82969E-01 -1.97513E-01 -2.10622E-01 -2.22480E-01 -2.33241E-01 -2.43035E-01 -2.51973E-01 -2.60154E-01
  -2.67660E-01 -2.74565E-01 -2.80930E-01 -2.86809E-01 -2.92249E-01 -2.97294E-01 -3.01980E-01 -3.06340E-01 -3.10403E-01 -3.14193E-01
  -3.17732E-01 -3.21044E-01 -3.24145E-01 -3.27053E-01 -3.29781E-01 -3.32342E-01 -3.34747E-01 -3.37011E-01 -3.39140E-01 -3.41144E-01
  -3.43029E-01 -3.44802E-01 -3.46471E-01 -3.48043E-01 -3.49521E-01 -3.50911E-01 -3.52214E-01 -3.53436E-01 -3.54581E-01 -3.55652E-01
  -3.56650E-01 -3.57577E-01 -3.58433E-01 -3.59222E-01 -3.59944E-01 -3.60600E-01 -3.61190E-01 -3.61711E-01 -3.62162E-01 -3.62544E-01
  -3.62855E-01 -3.63093E-01 -3.63251E-01 -3.63325E-01 -3.63309E-01 -3.63200E-01 -3.62989E-01 -3.62665E-01
 NY background values follow
     1.505E-01    1.499E-01    1.493E-01    1.487E-01    1.481E-01    1.475E-01    1.469E-01    1.463E-01    1.458E-01    1.452E-01
     1.446E-01    1.440E-01    1.434E-01    1.428E-01    1.422E-01    1.416E-01    1.410E-01    1.404E-01    1.399E-01    1.393E-01
     1.387E-01    1.381E-01    1.375E-01    1.369E-01    1.363E-01    1.357E-01    1.351E-01    1.345E-01    1.339E-01    1.333E-01
     1.327E-01    1.321E-01    1.315E-01    1.309E-01    1.303E-01    1.297E-01    1.291E-01    1.286E-01    1.280E-01    1.274E-01
     1.268E-01    1.262E-01    1.256E-01    1.250E-01    1.244E-01    1.238E-01    1.232E-01    1.226E-01    1.220E-01    1.214E-01
     1.208E-01    1.202E-01    1.196E-01    1.190E-01    1.183E-01    1.177E-01    1.171E-01    1.165E-01    1.159E-01    1.153E-01
     1.147E-01    1.141E-01    1.135E-01    1.129E-01    1.123E-01    1.117E-01    1.111E-01    1.105E-01    1.099E-01    1.093E-01
     1.087E-01    1.081E-01    1.075E-01    1.069E-01    1.063E-01    1.056E-01    1.050E-01    1.044E-01    1.038E-01    1.032E-01
     1.026E-01    1.020E-01    1.014E-01    1.008E-01    1.002E-01    9.956E-02    9.895E-02    9.834E-02    9.773E-02    9.712E-02
     9.650E-02    9.589E-02    9.528E-02    9.467E-02    9.406E-02    9.345E-02    9.283E-02    9.222E-02    9.161E-02    9.100E-02
     9.038E-02    8.977E-02    8.916E-02    8.854E-02    8.793E-02    8.732E-02    8.670E-02    8.609E-02    8.547E-02    8.486E-02
     8.424E-02    8.363E-02    8.301E-02    8.240E-02    8.178E-02    8.116E-02    8.055E-02    7.993E-02    7.932E-02    7.870E-02
     7.808E-02    7.747E-02    7.685E-02    7.623E-02    7.561E-02    7.500E-02    7.438E-02    7.376E-02    7.314E-02    7.252E-02
     7.190E-02    7.129E-02    7.067E-02    7.005E-02    6.943E-02    6.881E-02    6.819E-02    6.757E-02    6.695E-02    6.633E-02
     6.571E-02    6.509E-02    6.447E-02    6.385E-02    6.323E-02    6.261E-02    6.199E-02    6.136E-02    6.074E-02    6.012E-02
     5.950E-02    5.888E-02    5.826E-02    5.763E-02    5.701E-02    5.639E-02    5.577E-02    5.514E-02    5.452E-02    5.390E-02
     5.328E-02    5.265E-02    5.203E-02    5.141E-02    5.078E-02    5.016E-02    4.954E-02    4.891E-02    4.829E-02    4.766E-02
     4.704E-02    4.642E-02    4.579E-02    4.517E-02    4.454E-02    4.392E-02    4.329E-02    4.267E-02    4.204E-02    4.142E-02
     4.079E-02    4.017E-02    3.954E-02    3.892E-02    3.829E-02    3.767E-02    3.704E-02    3.641E-02    3.579E-02    3.516E-02
     3.454E-02    3.391E-02    3.328E-02    3.266E-02    3.203E-02    3.140E-02    3.078E-02    3.015E-02    2.952E-02    2.890E-02
     2.827E-02    2.764E-02    2.702E-02    2.639E-02    2.576E-02    2.514E-02    2.451E-02    2.388E-02    2.325E-02    2.263E-02
     2.200E-02    2.137E-02    2.074E-02    2.012E-02    1.949E-02    1.886E-02    1.823E-02    1.760E-02    1.698E-02    1.635E-02
     1.572E-02    1.509E-02    1.446E-02    1.384E-02    1.321E-02    1.258E-02    1.195E-02    1.132E-02    1.070E-02    1.007E-02
     9.439E-03    8.810E-03    8.182E-03    7.554E-03    6.925E-03    6.297E-03    5.668E-03    5.040E-03    4.411E-03    3.782E-03
     3.154E-03    2.525E-03    1.896E-03    1.268E-03    6.392E-04    1.049E-05   -6.182E-04   -1.247E-03   -1.876E-03   -2.504E-03
    -3.133E-03   -3.762E-03   -4.390E-03   -5.019E-03   -5.648E-03   -6.277E-03   -6.905E-03   -7.534E-03   -8.163E-03   -8.791E-03
    -9.420E-03   -1.005E-02   -1.068E-02   -1.131E-02   -1.193E-02   -1.256E-02   -1.319E-02   -1.382E-02   -1.445E-02   -1.508E-02
    -1.571E-02   -1.633E-02   -1.696E-02   -1.759E-02   -1.822E-02   -1.885E-02   -1.948E-02   -2.011E-02   -2.073E-02   -2.136E-02
    -2.199E-02   -2.262E-02   -2.325E-02   -2.387E-02   -2.450E-02   -2.513E-02   -2.576E-02   -2.639E-02   -2.701E-02   -2.764E-02
    -2.827E-02   -2.890E-02   -2.953E-02   -3.015E-02   -3.078E-02   -3.141E-02   -3.204E-02   -3.266E-02   -3.329E-02   -3.392E-02
    -3.455E-02   -3.517E-02   -3.580E-02   -3.643E-02   -3.705E-02   -3.768E-02   -3.831E-02   -3.893E-02   -3.956E-02   -4.019E-02
    -4.081E-02   -4.144E-02   -4.207E-02   -4.269E-02   -4.332E-02   -4.395E-02   -4.457E-02   -4.520E-02   -4.582E-02   -4.645E-02
    -4.708E-02   -4.770E-02   -4.833E-02   -4.895E-02   -4.958E-02   -5.020E-02   -5.083E-02   -5.145E-02   -5.208E-02   -5.270E-02
    -5.333E-02   -5.395E-02   -5.458E-02   -5.520E-02   -5.583E-02   -5.645E-02   -5.707E-02   -5.770E-02   -5.832E-02   -5.895E-02
    -5.957E-02   -6.019E-02   -6.082E-02   -6.144E-02   -6.206E-02   -6.269E-02   -6.331E-02   -6.393E-02   -6.455E-02   -6.518E-02
    -6.580E-02   -6.642E-02   -6.704E-02   -6.767E-02   -6.829E-02   -6.891E-02   -6.953E-02   -7.015E-02   -7.077E-02   -7.140E-02
    -7.202E-02   -7.264E-02   -7.326E-02   -7.388E-02   -7.450E-02   -7.512E-02   -7.574E-02   -7.636E-02   -7.698E-02   -7.760E-02
    -7.822E-02   -7.884E-02   -7.946E-02   -8.008E-02   -8.070E-02   -8.132E-02   -8.193E-02   -8.255E-02   -8.317E-02   -8.379E-02
    -8.441E-02   -8.502E-02   -8.564E-02   -8.626E-02   -8.688E-02   -8.749E-02   -8.811E-02   -8.873E-02   -8.934E-02   -8.996E-02
    -9.058E-02   -9.119E-02   -9.181E-02   -9.242E-02   -9.304E-02   -9.365E-02   -9.427E-02   -9.488E-02   -9.550E-02   -9.611E-02
    -9.673E-02   -9.734E-02   -9.796E-02   -9.857E-02   -9.918E-02   -9.980E-02   -1.004E-01   -1.010E-01   -1.016E-01   -1.022E-01
    -1.029E-01   -1.035E-01   -1.041E-01   -1.047E-01   -1.053E-01   -1.059E-01   -1.065E-01   -1.071E-01   -1.077E-01   -1.084E-01
    -1.090E-01   -1.096E-01   -1.102E-01   -1.108E-01   -1.114E-01   -1.120E-01   -1.126E-01   -1.132E-01   -1.138E-01   -1.145E-01
    -1.151E-01   -1.157E-01   -1.163E-01   -1.169E-01   -1.175E-01   -1.181E-01   -1.187E-01   -1.193E-01   -1.199E-01   -1.205E-01
    -1.211E-01   -1.217E-01   -1.223E-01   -1.229E-01   -1.235E-01   -1.241E-01   -1.247E-01   -1.254E-01   -1.260E-01   -1.266E-01
    -1.272E-01   -1.278E-01   -1.284E-01   -1.290E-01   -1.296E-01   -1.302E-01   -1.308E-01   -1.314E-01   -1.320E-01   -1.326E-01
    -1.332E-01   -1.338E-01   -1.344E-01   -1.350E-01   -1.356E-01   -1.362E-01   -1.368E-01   -1.374E-01   -1.380E-01   -1.386E-01
    -1.392E-01   -1.398E-01   -1.404E-01   -1.409E-01   -1.415E-01   -1.421E-01   -1.427E-01   -1.433E-01   -1.439E-01   -1.445E-01
    -1.451E-01   -1.457E-01   -1.463E-01   -1.469E-01   -1.475E-01   -1.481E-01   -1.487E-01   -1.493E-01   -1.499E-01   -1.505E-01
    -1.510E-01   -1.516E-01   -1.522E-01   -1.528E-01   -1.534E-01   -1.540E-01   -1.546E-01   -1.552E-01
 Ala      Conc. = 1.97E+02
