 LCModel (Version 6.3-1L) Copyright: S.W. Provencher.          Ref.: Magn. Reson. Med. 30:672-679 (1993).                
 Slice#3 Row#3 Col#10  PD_05_press_1_raw_act
 36 lines in following concentration table = NCONC+1
    Conc.  %SD /Cr+PCr  Metabolite                                         
 2.06E+03  26%   2.094 Ala                                                 
    0.000 999%   0.000 Asp                                                 
    0.000 999%   0.000 Cr                                                  
  984.791   7%   1.000 PCr                                                 
   68.578 165% 7.0E-02 GABA                                                
    0.000 999%   0.000 Glc                                                 
 2.65E+03  29%   2.687 Gln                                                 
 2.44E+03  40%   2.482 Glu                                                 
  238.787  10%   0.242 GPC                                                 
    0.000 999%   0.000 PCh                                                 
  299.057  42%   0.304 GSH                                                 
  705.536  43%   0.716 Ins                                                 
    0.000 999%   0.000 Lac                                                 
 1.65E+03   6%   1.672 NAA                                                 
    0.000 999%   0.000 NAAG                                                
    0.000 999%   0.000 Scyllo                                              
    0.000 999%   0.000 Tau                                                 
    0.000 999%   0.000 -CrCH2                                              
  238.787  10%   0.242 GPC+PCh                                             
 1.65E+03   6%   1.672 NAA+NAAG                                            
  984.791   7%   1.000 Cr+PCr                                              
 5.09E+03  32%   5.169 Glu+Gln                                             
    0.000 999%   0.000 Lip13a                                              
    0.000 999%   0.000 Lip13b                                              
 9.92E-03 999% 1.0E-05 Lip09                                               
 1.55E+03  13%   1.570 MM09                                                
 1.50E-02 999% 1.5E-05 Lip20                                               
  601.712  65%   0.611 MM20                                                
    0.000 999%   0.000 MM12                                                
 1.96E+03  20%   1.987 MM14                                                
 2.94E+03  13%   2.985+MM17                                                
    0.000 999%   0.000 Lip13a+Lip13b                                       
 1.96E+03  20%   1.987 MM14+Lip13a+Lip13b+MM12                             
 1.55E+03  13%   1.570 MM09+Lip09                                          
  601.727  65%   0.611 MM20+Lip20                                          
   6 lines in following misc. output table
  FWHM = 0.138 ppm    S/N =   6                                            
  Data shift = 0.031 ppm                                                   
  Ph:  -1 deg     -24.0 deg/ppm                                            
  alphaB,S = 3.4E-01,   2.0E+02                                            
   14 spline knots.   Ns = 8(2)                                            
  (10) 2 infls.   ( 5) 1 extrs.                                            
  498 points on ppm-axis = NY
      4.000000     3.992357     3.984714     3.977070     3.969427     3.961784     3.954141     3.946497     3.938854     3.931211
      3.923568     3.915925     3.908281     3.900638     3.892995     3.885352     3.877708     3.870065     3.862422     3.854779
      3.847136     3.839492     3.831849     3.824206     3.816563     3.808919     3.801276     3.793633     3.785990     3.778347
      3.770703     3.763060     3.755417     3.747774     3.740130     3.732487     3.724844     3.717201     3.709558     3.701914
      3.694271     3.686628     3.678985     3.671341     3.663698     3.656055     3.648412     3.640769     3.633125     3.625482
      3.617839     3.610196     3.602552     3.594909     3.587266     3.579623     3.571980     3.564336     3.556693     3.549050
      3.541407     3.533763     3.526120     3.518477     3.510834     3.503191     3.495547     3.487904     3.480261     3.472618
      3.464974     3.457331     3.449688     3.442045     3.434402     3.426758     3.419115     3.411472     3.403829     3.396185
      3.388542     3.380899     3.373256     3.365613     3.357969     3.350326     3.342683     3.335040     3.327396     3.319753
      3.312110     3.304467     3.296824     3.289180     3.281537     3.273894     3.266251     3.258607     3.250964     3.243321
      3.235678     3.228034     3.220391     3.212748     3.205105     3.197462     3.189818     3.182175     3.174532     3.166889
      3.159245     3.151602     3.143959     3.136316     3.128673     3.121029     3.113386     3.105743     3.098100     3.090456
      3.082813     3.075170     3.067527     3.059884     3.052240     3.044597     3.036954     3.029311     3.021667     3.014024
      3.006381     2.998738     2.991095     2.983451     2.975808     2.968165     2.960522     2.952878     2.945235     2.937592
      2.929949     2.922306     2.914662     2.907019     2.899376     2.891733     2.884089     2.876446     2.868803     2.861160
      2.853517     2.845873     2.838230     2.830587     2.822944     2.815300     2.807657     2.800014     2.792371     2.784728
      2.777084     2.769441     2.761798     2.754155     2.746511     2.738868     2.731225     2.723582     2.715939     2.708295
      2.700652     2.693009     2.685366     2.677722     2.670079     2.662436     2.654793     2.647150     2.639506     2.631863
      2.624220     2.616577     2.608933     2.601290     2.593647     2.586004     2.578361     2.570717     2.563074     2.555431
      2.547788     2.540144     2.532501     2.524858     2.517215     2.509572     2.501928     2.494285     2.486642     2.478999
      2.471355     2.463712     2.456069     2.448426     2.440783     2.433139     2.425496     2.417853     2.410210     2.402566
      2.394923     2.387280     2.379637     2.371994     2.364350     2.356707     2.349064     2.341421     2.333777     2.326134
      2.318491     2.310848     2.303205     2.295561     2.287918     2.280275     2.272632     2.264988     2.257345     2.249702
      2.242059     2.234416     2.226772     2.219129     2.211486     2.203843     2.196199     2.188556     2.180913     2.173270
      2.165627     2.157983     2.150340     2.142697     2.135054     2.127410     2.119767     2.112124     2.104481     2.096838
      2.089194     2.081551     2.073908     2.066265     2.058621     2.050978     2.043335     2.035692     2.028049     2.020405
      2.012762     2.005119     1.997476     1.989833     1.982190     1.974546     1.966903     1.959260     1.951617     1.943974
      1.936331     1.928688     1.921045     1.913402     1.905759     1.898115     1.890472     1.882829     1.875186     1.867543
      1.859900     1.852257     1.844614     1.836971     1.829327     1.821684     1.814041     1.806398     1.798755     1.791112
      1.783469     1.775826     1.768183     1.760540     1.752896     1.745253     1.737610     1.729967     1.722324     1.714681
      1.707038     1.699395     1.691752     1.684108     1.676465     1.668822     1.661179     1.653536     1.645893     1.638250
      1.630607     1.622964     1.615321     1.607677     1.600034     1.592391     1.584748     1.577105     1.569462     1.561819
      1.554176     1.546533     1.538890     1.531246     1.523603     1.515960     1.508317     1.500674     1.493031     1.485388
      1.477745     1.470102     1.462458     1.454815     1.447172     1.439529     1.431886     1.424243     1.416600     1.408957
      1.401314     1.393671     1.386027     1.378384     1.370741     1.363098     1.355455     1.347812     1.340169     1.332526
      1.324883     1.317240     1.309596     1.301953     1.294310     1.286667     1.279024     1.271381     1.263738     1.256095
      1.248452     1.240808     1.233165     1.225522     1.217879     1.210236     1.202593     1.194950     1.187307     1.179664
      1.172021     1.164377     1.156734     1.149091     1.141448     1.133805     1.126162     1.118519     1.110876     1.103233
      1.095590     1.087946     1.080303     1.072660     1.065017     1.057374     1.049731     1.042088     1.034445     1.026802
      1.019158     1.011515     1.003872     0.996229     0.988586     0.980943     0.973300     0.965657     0.958014     0.950371
      0.942727     0.935084     0.927441     0.919798     0.912155     0.904512     0.896869     0.889226     0.881583     0.873940
      0.866296     0.858653     0.851010     0.843367     0.835724     0.828081     0.820438     0.812795     0.805152     0.797508
      0.789865     0.782222     0.774579     0.766936     0.759293     0.751650     0.744007     0.736364     0.728721     0.721077
      0.713434     0.705791     0.698148     0.690505     0.682862     0.675219     0.667576     0.659933     0.652290     0.644646
      0.637003     0.629360     0.621717     0.614074     0.606431     0.598788     0.591145     0.583502     0.575858     0.568215
      0.560572     0.552929     0.545286     0.537643     0.530000     0.522357     0.514714     0.507071     0.499427     0.491784
      0.484141     0.476498     0.468855     0.461212     0.453569     0.445925     0.438282     0.430639     0.422996     0.415353
      0.407710     0.400067     0.392424     0.384780     0.377137     0.369494     0.361851     0.354208     0.346565     0.338922
      0.331278     0.323635     0.315992     0.308349     0.300706     0.293063     0.285420     0.277777     0.270133     0.262490
      0.254847     0.247204     0.239561     0.231918     0.224275     0.216631     0.208988     0.201345
 NY phased data points follow
   1.93598E+01  2.08817E+01  2.01730E+01  2.02705E+01  2.12649E+01  2.18731E+01  2.36990E+01  2.42674E+01  2.25711E+01  2.34285E+01
   2.65572E+01  2.23096E+01  2.39150E+01  2.36688E+01  2.52602E+01  2.34830E+01  2.13324E+01  1.95918E+01  1.95123E+01  1.87589E+01
   1.71336E+01  1.67592E+01  1.73350E+01  1.85134E+01  1.71994E+01  1.56891E+01  1.64676E+01  1.71610E+01  1.99604E+01  1.75382E+01
   1.71191E+01  1.56233E+01  1.61115E+01  1.61899E+01  1.87500E+01  1.64850E+01  1.74421E+01  1.66626E+01  1.81290E+01  1.65531E+01
   1.75191E+01  1.52239E+01  1.77671E+01  1.60087E+01  1.85077E+01  1.54423E+01  1.64616E+01  1.67613E+01  1.55534E+01  1.55211E+01
   1.72109E+01  1.54255E+01  1.51432E+01  1.60942E+01  1.42402E+01  1.53564E+01  1.40169E+01  1.25812E+01  1.22259E+01  1.16402E+01
   1.39946E+01  1.07868E+01  9.57632E+00  1.03685E+01  7.94831E+00  8.69477E+00  1.00939E+01  8.83196E+00  8.51372E+00  6.43920E+00
   8.50972E+00  5.84358E+00  7.73739E+00  7.62942E+00  9.52073E+00  9.33670E+00  7.54902E+00  6.84413E+00  8.27255E+00  7.78011E+00
   8.73240E+00  5.60701E+00  9.26576E+00  1.06577E+01  7.07730E+00  8.32202E+00  8.51410E+00  7.52801E+00  7.41611E+00  8.14143E+00
   9.68557E+00  9.59272E+00  7.98368E+00  1.00937E+01  1.26636E+01  1.14803E+01  1.20231E+01  1.36650E+01  1.61587E+01  1.62609E+01
   1.87185E+01  1.70402E+01  1.66364E+01  1.91654E+01  1.87992E+01  1.75217E+01  1.55534E+01  1.67949E+01  1.52494E+01  1.66694E+01
   1.41263E+01  1.26699E+01  1.38548E+01  1.33100E+01  9.22659E+00  1.34729E+01  1.36166E+01  1.35263E+01  1.50371E+01  1.58527E+01
   1.57721E+01  1.66293E+01  1.89703E+01  2.39126E+01  2.07321E+01  2.08897E+01  2.14799E+01  2.19762E+01  2.19898E+01  2.12235E+01
   2.00285E+01  2.36638E+01  2.36225E+01  2.10167E+01  1.95824E+01  1.69157E+01  1.51220E+01  1.39351E+01  1.28936E+01  1.41510E+01
   1.19258E+01  1.17327E+01  1.49474E+01  1.22926E+01  1.01708E+01  1.20978E+01  7.33145E+00  1.26491E+01  9.42125E+00  9.28683E+00
   8.85629E+00  8.16503E+00  1.00168E+01  1.11256E+01  1.04483E+01  1.07427E+01  9.36350E+00  9.49105E+00  1.00699E+01  8.82470E+00
   9.32780E+00  9.27870E+00  8.51822E+00  6.20437E+00  5.98030E+00  5.19350E+00  7.43805E+00  6.72663E+00  9.40151E+00  8.41298E+00
   4.41157E+00  6.44302E+00  4.51915E+00  4.96813E+00  6.00306E+00  2.72637E+00  2.05525E+00  3.15701E+00  5.89904E+00  2.83782E+00
   3.48092E+00  2.01999E+00  3.06168E+00  3.91627E+00  2.99533E+00  4.57126E+00  4.63156E+00  4.73465E+00  4.55734E+00  3.55018E+00
   5.72931E+00  4.09284E+00  6.09285E+00  3.74690E+00  6.84649E+00  8.07242E+00  8.09772E+00  7.19705E+00  6.46952E+00  6.96993E+00
   1.05055E+01  5.86573E+00  4.43455E+00  7.67880E+00  7.62798E+00  6.06186E+00  7.42220E+00  4.83819E+00  7.86949E+00  7.50360E+00
   8.06863E+00  8.23474E+00  7.49209E+00  6.65128E+00  6.19994E+00  6.20359E+00  5.11408E+00  7.72640E+00  9.81380E+00  7.86902E+00
   7.77018E+00  7.21341E+00  7.49156E+00  8.92157E+00  7.02238E+00  7.99235E+00  6.94897E+00  8.46613E+00  5.11050E+00  7.15808E+00
   5.44644E+00  4.35254E+00  8.59048E+00  6.73778E+00  9.85479E+00  7.06762E+00  4.23212E+00  4.38811E+00  6.67538E+00  4.67384E+00
   5.53762E+00  5.18378E+00  5.73117E+00  7.56257E+00  8.61256E+00  5.83127E+00  6.60234E+00  9.79620E+00  9.54385E+00  1.05659E+01
   1.45682E+01  1.48866E+01  1.49099E+01  1.60323E+01  2.00965E+01  2.28363E+01  2.68234E+01  3.02812E+01  3.23537E+01  2.87397E+01
   3.11097E+01  2.91810E+01  2.80353E+01  3.14042E+01  2.80090E+01  2.81913E+01  2.99729E+01  2.78241E+01  2.41820E+01  2.10203E+01
   2.30374E+01  2.25777E+01  1.79663E+01  1.43547E+01  1.51719E+01  1.20663E+01  1.47836E+01  1.59201E+01  1.37341E+01  1.23390E+01
   1.32641E+01  1.35736E+01  1.56518E+01  1.40224E+01  1.37795E+01  1.30092E+01  1.48309E+01  1.25808E+01  1.18758E+01  9.19924E+00
   1.26970E+01  1.55300E+01  1.39618E+01  1.32644E+01  1.24517E+01  1.04975E+01  1.39768E+01  1.19653E+01  1.19344E+01  1.08481E+01
   1.25089E+01  1.18897E+01  1.34052E+01  1.16185E+01  1.33176E+01  1.27113E+01  1.10424E+01  1.07161E+01  1.27225E+01  1.16775E+01
   1.42211E+01  1.36986E+01  1.20111E+01  1.43653E+01  1.24689E+01  1.52999E+01  1.20613E+01  1.32207E+01  1.64676E+01  1.44916E+01
   1.24969E+01  1.64212E+01  1.42633E+01  1.32592E+01  1.43726E+01  1.61544E+01  1.52915E+01  1.56045E+01  1.44937E+01  1.58812E+01
   1.49702E+01  1.44177E+01  1.51771E+01  1.66605E+01  1.54059E+01  1.46031E+01  1.49336E+01  1.24189E+01  1.31837E+01  1.51498E+01
   1.38817E+01  1.56882E+01  1.26609E+01  1.27719E+01  1.04537E+01  9.72343E+00  1.02575E+01  9.65347E+00  7.88776E+00  6.39032E+00
   7.13154E+00  5.78517E+00  5.62636E+00  1.45289E+00  1.22339E+00 -1.28730E+00 -2.15646E+00 -1.79170E+00 -2.76112E+00 -3.07702E+00
  -5.35984E+00 -6.51835E+00 -6.35919E+00 -7.51469E+00 -8.69862E+00 -8.69603E+00 -8.12961E+00 -6.51355E+00 -5.32074E+00 -4.73569E+00
  -4.16099E+00 -2.13687E+00 -1.52991E+00  2.29103E-01  2.08619E+00  2.79917E+00  1.42418E+00  8.83631E-01  9.23534E-01  5.43163E+00
   3.31149E+00  5.00374E+00  3.10098E+00  5.77900E+00  3.85004E+00  4.59016E+00  6.88494E+00  6.48822E+00  6.58773E+00  7.27059E+00
   5.49973E+00  5.43052E+00  6.82320E+00  4.16665E+00  4.95030E+00  7.52952E+00  5.71027E+00  8.08040E+00  7.89646E+00  8.75222E+00
   5.62126E+00  1.05878E+01  5.83007E+00  9.36399E+00  6.71208E+00  8.79575E+00  8.97193E+00  1.24334E+01  9.77921E+00  1.08601E+01
   1.01592E+01  8.36773E+00  9.23089E+00  7.78557E+00  9.71721E+00  8.32394E+00  9.15871E+00  6.25961E+00  5.84730E+00  6.63296E+00
   8.43833E+00  6.87013E+00  1.01172E+01  6.01358E+00  8.24248E+00  7.11360E+00  6.51626E+00  7.55851E+00  6.46391E+00  8.23101E+00
   5.46912E+00  6.79487E+00  6.99145E+00  4.84437E+00  6.37068E+00  5.07930E+00  5.32936E+00  4.70408E+00  5.27667E+00  5.79612E+00
   5.16231E+00  3.64485E+00  6.29753E+00  4.82509E+00  5.04489E+00  6.53825E+00  6.32174E+00  5.62087E+00  4.61622E+00  2.53165E+00
   4.92192E+00  4.58480E+00  3.83288E+00  5.33653E+00  5.54771E+00  6.19858E+00  1.62651E+00  7.82309E+00  1.91402E+00  4.37005E+00
   5.22246E+00  4.12795E+00  4.96427E+00  1.66600E+00  1.53398E+00  6.35605E+00  4.29390E+00  3.41776E+00  4.03127E+00  3.04847E+00
   4.46569E+00  6.04885E+00  1.74330E+00  3.92682E+00  2.84809E+00  4.64327E+00  1.25572E+00  2.03423E+00  4.41043E+00  4.18389E+00
   1.41697E+00  2.81349E+00  4.56516E+00  3.22273E+00  3.98420E+00  1.19136E+00  5.11274E+00  2.82854E+00  1.51417E+00  3.44794E+00
   2.72888E+00  7.30268E-01  6.18302E-01  4.00927E+00  3.09374E+00  3.94094E+00  3.63074E+00  4.73569E+00
 NY points of the fit to the data follow
   1.75779E+01  1.83509E+01  1.90831E+01  1.98368E+01  2.06215E+01  2.11631E+01  2.18767E+01  2.20757E+01  2.26586E+01  2.26574E+01
   2.31229E+01  2.30389E+01  2.33066E+01  2.31343E+01  2.30317E+01  2.25605E+01  2.20899E+01  2.13882E+01  2.07318E+01  2.01410E+01
   1.94912E+01  1.90694E+01  1.85121E+01  1.82787E+01  1.79390E+01  1.78011E+01  1.76908E+01  1.75972E+01  1.75843E+01  1.76767E+01
   1.76360E+01  1.74222E+01  1.73565E+01  1.70154E+01  1.72142E+01  1.69534E+01  1.73793E+01  1.70847E+01  1.73764E+01  1.69523E+01
   1.69876E+01  1.63983E+01  1.63489E+01  1.57885E+01  1.59039E+01  1.54921E+01  1.55895E+01  1.50854E+01  1.50121E+01  1.45106E+01
   1.43999E+01  1.38724E+01  1.38554E+01  1.34932E+01  1.35000E+01  1.30951E+01  1.29984E+01  1.25293E+01  1.23372E+01  1.19416E+01
   1.17978E+01  1.14526E+01  1.13857E+01  1.10939E+01  1.10685E+01  1.07791E+01  1.07961E+01  1.05536E+01  1.06130E+01  1.03835E+01
   1.04286E+01  1.02049E+01  1.02311E+01  1.00072E+01  1.00106E+01  9.76793E+00  9.74055E+00  9.46496E+00  9.39734E+00  9.11487E+00
   9.03940E+00  8.76028E+00  8.69448E+00  8.41606E+00  8.36678E+00  8.11017E+00  8.12498E+00  8.03675E+00  8.16260E+00  8.41729E+00
   8.65481E+00  9.38891E+00  9.67249E+00  1.08504E+01  1.10733E+01  1.26142E+01  1.27094E+01  1.45478E+01  1.43929E+01  1.62463E+01
   1.57394E+01  1.73191E+01  1.65007E+01  1.77828E+01  1.67699E+01  1.78151E+01  1.66651E+01  1.73782E+01  1.60842E+01  1.62878E+01
   1.49784E+01  1.48640E+01  1.38040E+01  1.39073E+01  1.32612E+01  1.39066E+01  1.36699E+01  1.48962E+01  1.48983E+01  1.64852E+01
   1.65943E+01  1.84290E+01  1.86007E+01  2.06735E+01  2.05904E+01  2.21777E+01  2.17591E+01  2.28588E+01  2.22001E+01  2.29087E+01
   2.20548E+01  2.22822E+01  2.12101E+01  2.07511E+01  1.95125E+01  1.84297E+01  1.72238E+01  1.59579E+01  1.49288E+01  1.36868E+01
   1.28863E+01  1.18572E+01  1.12650E+01  1.03663E+01  9.93858E+00  9.13046E+00  8.96825E+00  8.73691E+00  8.70420E+00  8.48332E+00
   8.44685E+00  8.23243E+00  8.19509E+00  8.01866E+00  7.97351E+00  7.78430E+00  7.71225E+00  7.51502E+00  7.41573E+00  7.24604E+00
   7.11738E+00  6.96979E+00  6.80724E+00  6.64774E+00  6.45427E+00  6.28207E+00  6.08708E+00  5.91427E+00  5.73364E+00  5.55170E+00
   5.38500E+00  5.16425E+00  5.04740E+00  4.78597E+00  4.76089E+00  4.47448E+00  4.56742E+00  4.30001E+00  4.50948E+00  4.29080E+00
   4.56366E+00  4.34913E+00  4.64054E+00  4.45288E+00  4.71963E+00  4.60006E+00  4.78101E+00  4.76397E+00  4.89053E+00  5.06529E+00
   5.19963E+00  5.60730E+00  5.79273E+00  6.38885E+00  6.49309E+00  7.13595E+00  6.95600E+00  7.52035E+00  6.98219E+00  7.45499E+00
   6.69498E+00  7.07579E+00  6.36152E+00  6.71742E+00  6.21356E+00  6.54279E+00  6.33722E+00  6.49110E+00  6.59472E+00  6.41976E+00
   6.67697E+00  6.09702E+00  6.40796E+00  5.59178E+00  5.97742E+00  5.24426E+00  5.89842E+00  5.34983E+00  6.29940E+00  5.90163E+00
   6.78360E+00  6.49001E+00  7.04325E+00  6.82445E+00  6.89185E+00  6.99366E+00  6.90095E+00  7.32287E+00  7.22986E+00  7.80093E+00
   7.44904E+00  8.01492E+00  7.69153E+00  7.98882E+00  7.79114E+00  7.78485E+00  7.88062E+00  7.38681E+00  7.68342E+00  6.84359E+00
   7.38343E+00  6.34649E+00  7.03653E+00  5.96372E+00  7.20690E+00  6.38495E+00  8.26390E+00  7.93620E+00  1.05464E+01  1.08939E+01
   1.38900E+01  1.49080E+01  1.79315E+01  1.95089E+01  2.23908E+01  2.42574E+01  2.62598E+01  2.80554E+01  2.88767E+01  3.03256E+01
   3.00920E+01  3.12568E+01  3.02570E+01  3.09450E+01  2.92730E+01  2.94917E+01  2.69374E+01  2.65902E+01  2.34138E+01  2.26634E+01
   1.96190E+01  1.88247E+01  1.62898E+01  1.56595E+01  1.38690E+01  1.34433E+01  1.21356E+01  1.18193E+01  1.08781E+01  1.08129E+01
   1.09802E+01  1.12686E+01  1.15591E+01  1.18888E+01  1.22321E+01  1.25403E+01  1.28738E+01  1.31625E+01  1.34564E+01  1.36901E+01
   1.39051E+01  1.40500E+01  1.41540E+01  1.42008E+01  1.41963E+01  1.41322E+01  1.40107E+01  1.38351E+01  1.36022E+01  1.33266E+01
   1.30006E+01  1.26476E+01  1.22665E+01  1.18780E+01  1.14872E+01  1.11144E+01  1.07706E+01  1.04756E+01  1.02479E+01  1.01175E+01
   1.01324E+01  1.03358E+01  1.06050E+01  1.12427E+01  1.16228E+01  1.26562E+01  1.28467E+01  1.40404E+01  1.37976E+01  1.50768E+01
   1.43491E+01  1.57589E+01  1.45114E+01  1.59759E+01  1.44505E+01  1.58588E+01  1.44139E+01  1.58075E+01  1.46101E+01  1.60293E+01
   1.51094E+01  1.62037E+01  1.54256E+01  1.57660E+01  1.51196E+01  1.48231E+01  1.45408E+01  1.40530E+01  1.41391E+01  1.35200E+01
   1.38525E+01  1.29191E+01  1.30818E+01  1.16274E+01  1.14570E+01  9.85574E+00  9.68845E+00  8.40328E+00  7.84421E+00  6.61449E+00
   5.98119E+00  4.86477E+00  4.18967E+00  3.10402E+00  2.33989E+00  1.80890E+00  1.41058E+00  1.10378E+00  8.65845E-01  6.81842E-01
   5.41050E-01  4.35385E-01  3.58622E-01  3.05877E-01  2.73322E-01  2.57994E-01  2.57642E-01  2.70572E-01  2.95554E-01  3.31722E-01
   3.78515E-01  4.35619E-01  5.02941E-01  5.80566E-01  6.68743E-01  7.67858E-01  8.78427E-01  1.00109E+00  1.13659E+00  1.28581E+00
   1.44971E+00  1.62931E+00  1.82572E+00  2.04003E+00  2.27338E+00  2.52681E+00  2.80125E+00  3.09744E+00  3.41585E+00  3.75657E+00
   4.11926E+00  4.50301E+00  4.90626E+00  5.32672E+00  5.76133E+00  6.20621E+00  6.65665E+00  7.10718E+00  7.55165E+00  7.98335E+00
   8.39519E+00  8.77995E+00  9.13052E+00  9.44014E+00  9.70272E+00  9.91304E+00  1.00670E+01  1.01620E+01  1.01967E+01  1.01713E+01
   1.00876E+01  9.94894E+00  9.75965E+00  9.52537E+00  9.25247E+00  8.94795E+00  8.61904E+00  8.27302E+00  7.91693E+00  7.55737E+00
   7.20031E+00  6.85099E+00  6.51380E+00  6.19229E+00  5.88917E+00  5.60634E+00  5.34497E+00  5.10557E+00  4.88812E+00  4.69213E+00
   4.51679E+00  4.36101E+00  4.22355E+00  4.10303E+00  3.99807E+00  3.90726E+00  3.82925E+00  3.76274E+00  3.70651E+00  3.65943E+00
   3.62046E+00  3.58868E+00  3.56321E+00  3.54333E+00  3.52830E+00  3.51756E+00  3.51052E+00  3.50674E+00  3.50575E+00  3.50721E+00
   3.51071E+00  3.51600E+00  3.52277E+00  3.53082E+00  3.53993E+00  3.54999E+00  3.56083E+00  3.57235E+00  3.58445E+00  3.59705E+00
   3.61006E+00  3.62342E+00  3.63706E+00  3.65094E+00  3.66503E+00  3.67928E+00  3.69366E+00  3.70815E+00  3.72273E+00  3.73737E+00
   3.75209E+00  3.76685E+00  3.78167E+00  3.79651E+00  3.81141E+00  3.82635E+00  3.84135E+00  3.85640E+00  3.87152E+00  3.88672E+00
   3.90201E+00  3.91740E+00  3.93292E+00  3.94857E+00  3.96438E+00  3.98037E+00  3.99656E+00  4.01298E+00  4.02966E+00  4.04662E+00
   4.06388E+00  4.08150E+00  4.09951E+00  4.11795E+00  4.13686E+00  4.15630E+00  4.17632E+00  4.19701E+00
 NY background values follow
     1.196E+01    1.190E+01    1.184E+01    1.179E+01    1.173E+01    1.167E+01    1.162E+01    1.156E+01    1.151E+01    1.145E+01
     1.139E+01    1.134E+01    1.128E+01    1.122E+01    1.117E+01    1.111E+01    1.106E+01    1.100E+01    1.095E+01    1.089E+01
     1.084E+01    1.078E+01    1.073E+01    1.068E+01    1.062E+01    1.057E+01    1.052E+01    1.046E+01    1.041E+01    1.036E+01
     1.031E+01    1.025E+01    1.020E+01    1.015E+01    1.010E+01    1.005E+01    1.000E+01    9.954E+00    9.905E+00    9.857E+00
     9.809E+00    9.761E+00    9.715E+00    9.668E+00    9.622E+00    9.577E+00    9.532E+00    9.487E+00    9.444E+00    9.400E+00
     9.358E+00    9.315E+00    9.274E+00    9.233E+00    9.192E+00    9.152E+00    9.113E+00    9.074E+00    9.036E+00    8.999E+00
     8.962E+00    8.926E+00    8.891E+00    8.856E+00    8.821E+00    8.788E+00    8.755E+00    8.723E+00    8.691E+00    8.661E+00
     8.631E+00    8.601E+00    8.573E+00    8.545E+00    8.518E+00    8.491E+00    8.466E+00    8.441E+00    8.417E+00    8.393E+00
     8.371E+00    8.349E+00    8.328E+00    8.308E+00    8.288E+00    8.270E+00    8.252E+00    8.235E+00    8.219E+00    8.204E+00
     8.190E+00    8.176E+00    8.164E+00    8.152E+00    8.141E+00    8.131E+00    8.122E+00    8.113E+00    8.105E+00    8.097E+00
     8.091E+00    8.084E+00    8.079E+00    8.074E+00    8.069E+00    8.065E+00    8.062E+00    8.058E+00    8.056E+00    8.053E+00
     8.051E+00    8.049E+00    8.048E+00    8.047E+00    8.046E+00    8.045E+00    8.044E+00    8.044E+00    8.043E+00    8.043E+00
     8.043E+00    8.042E+00    8.042E+00    8.042E+00    8.042E+00    8.041E+00    8.041E+00    8.040E+00    8.039E+00    8.038E+00
     8.037E+00    8.035E+00    8.033E+00    8.031E+00    8.029E+00    8.026E+00    8.022E+00    8.019E+00    8.015E+00    8.010E+00
     8.005E+00    7.999E+00    7.993E+00    7.987E+00    7.980E+00    7.973E+00    7.965E+00    7.956E+00    7.947E+00    7.938E+00
     7.928E+00    7.917E+00    7.906E+00    7.894E+00    7.882E+00    7.869E+00    7.856E+00    7.842E+00    7.827E+00    7.812E+00
     7.796E+00    7.779E+00    7.762E+00    7.744E+00    7.726E+00    7.707E+00    7.687E+00    7.666E+00    7.645E+00    7.623E+00
     7.600E+00    7.577E+00    7.553E+00    7.528E+00    7.502E+00    7.476E+00    7.449E+00    7.421E+00    7.392E+00    7.362E+00
     7.332E+00    7.301E+00    7.269E+00    7.236E+00    7.203E+00    7.168E+00    7.133E+00    7.097E+00    7.061E+00    7.023E+00
     6.985E+00    6.946E+00    6.907E+00    6.867E+00    6.826E+00    6.784E+00    6.742E+00    6.699E+00    6.656E+00    6.612E+00
     6.567E+00    6.522E+00    6.476E+00    6.429E+00    6.382E+00    6.335E+00    6.286E+00    6.238E+00    6.188E+00    6.139E+00
     6.089E+00    6.038E+00    5.987E+00    5.935E+00    5.883E+00    5.830E+00    5.777E+00    5.724E+00    5.670E+00    5.616E+00
     5.561E+00    5.506E+00    5.451E+00    5.395E+00    5.339E+00    5.283E+00    5.227E+00    5.170E+00    5.112E+00    5.055E+00
     4.997E+00    4.939E+00    4.880E+00    4.822E+00    4.763E+00    4.703E+00    4.644E+00    4.584E+00    4.524E+00    4.463E+00
     4.403E+00    4.342E+00    4.281E+00    4.219E+00    4.158E+00    4.096E+00    4.034E+00    3.971E+00    3.909E+00    3.846E+00
     3.783E+00    3.719E+00    3.656E+00    3.592E+00    3.528E+00    3.464E+00    3.399E+00    3.335E+00    3.270E+00    3.205E+00
     3.140E+00    3.074E+00    3.009E+00    2.943E+00    2.877E+00    2.811E+00    2.744E+00    2.678E+00    2.611E+00    2.544E+00
     2.477E+00    2.410E+00    2.342E+00    2.275E+00    2.207E+00    2.140E+00    2.072E+00    2.004E+00    1.936E+00    1.868E+00
     1.800E+00    1.732E+00    1.664E+00    1.596E+00    1.528E+00    1.460E+00    1.393E+00    1.325E+00    1.258E+00    1.190E+00
     1.123E+00    1.056E+00    9.898E-01    9.233E-01    8.571E-01    7.912E-01    7.255E-01    6.602E-01    5.951E-01    5.304E-01
     4.661E-01    4.021E-01    3.386E-01    2.754E-01    2.127E-01    1.504E-01    8.864E-02    2.734E-02   -3.346E-02   -9.372E-02
    -1.534E-01   -2.126E-01   -2.712E-01   -3.292E-01   -3.865E-01   -4.432E-01   -4.993E-01   -5.547E-01   -6.093E-01   -6.633E-01
    -7.164E-01   -7.688E-01   -8.202E-01   -8.708E-01   -9.205E-01   -9.691E-01   -1.017E+00   -1.063E+00   -1.109E+00   -1.153E+00
    -1.197E+00   -1.239E+00   -1.280E+00   -1.319E+00   -1.358E+00   -1.395E+00   -1.430E+00   -1.464E+00   -1.497E+00   -1.528E+00
    -1.558E+00   -1.586E+00   -1.613E+00   -1.638E+00   -1.661E+00   -1.682E+00   -1.702E+00   -1.720E+00   -1.736E+00   -1.751E+00
    -1.763E+00   -1.773E+00   -1.782E+00   -1.788E+00   -1.793E+00   -1.795E+00   -1.795E+00   -1.794E+00   -1.789E+00   -1.783E+00
    -1.774E+00   -1.764E+00   -1.750E+00   -1.735E+00   -1.717E+00   -1.697E+00   -1.675E+00   -1.650E+00   -1.624E+00   -1.595E+00
    -1.565E+00   -1.533E+00   -1.499E+00   -1.463E+00   -1.425E+00   -1.386E+00   -1.345E+00   -1.302E+00   -1.258E+00   -1.213E+00
    -1.166E+00   -1.117E+00   -1.068E+00   -1.017E+00   -9.647E-01   -9.114E-01   -8.571E-01   -8.017E-01   -7.453E-01   -6.880E-01
    -6.299E-01   -5.708E-01   -5.111E-01   -4.506E-01   -3.894E-01   -3.276E-01   -2.653E-01   -2.024E-01   -1.391E-01   -7.546E-02
    -1.142E-02    5.291E-02    1.175E-01    1.822E-01    2.471E-01    3.120E-01    3.770E-01    4.420E-01    5.068E-01    5.716E-01
     6.363E-01    7.008E-01    7.652E-01    8.294E-01    8.933E-01    9.571E-01    1.021E+00    1.084E+00    1.147E+00    1.210E+00
     1.272E+00    1.334E+00    1.395E+00    1.457E+00    1.517E+00    1.578E+00    1.638E+00    1.697E+00    1.756E+00    1.815E+00
     1.872E+00    1.930E+00    1.986E+00    2.043E+00    2.098E+00    2.153E+00    2.207E+00    2.260E+00    2.313E+00    2.365E+00
     2.417E+00    2.467E+00    2.517E+00    2.566E+00    2.614E+00    2.661E+00    2.707E+00    2.753E+00    2.797E+00    2.840E+00
     2.883E+00    2.925E+00    2.965E+00    3.005E+00    3.043E+00    3.081E+00    3.117E+00    3.153E+00    3.188E+00    3.222E+00
     3.255E+00    3.287E+00    3.319E+00    3.350E+00    3.380E+00    3.409E+00    3.438E+00    3.466E+00    3.494E+00    3.521E+00
     3.547E+00    3.573E+00    3.598E+00    3.623E+00    3.647E+00    3.671E+00    3.695E+00    3.718E+00    3.741E+00    3.764E+00
     3.786E+00    3.808E+00    3.830E+00    3.852E+00    3.873E+00    3.895E+00    3.916E+00    3.937E+00    3.958E+00    3.979E+00
     4.000E+00    4.022E+00    4.043E+00    4.064E+00    4.085E+00    4.107E+00    4.129E+00    4.150E+00
 Ala      Conc. = 2.06E+03
