 LCModel (Version 6.3-1L) Copyright: S.W. Provencher.          Ref.: Magn. Reson. Med. 30:672-679 (1993).                
 Slice#2 Row#4 Col#11  PD_05_press_1_raw_act
 36 lines in following concentration table = NCONC+1
    Conc.  %SD /Cr+PCr  Metabolite                                         
 1.49E+03  24%   1.212 Ala                                                 
    0.000 999%   0.000 Asp                                                 
    0.000 999%   0.000 Cr                                                  
 1.23E+03   5%   1.000 PCr                                                 
  158.137 104%   0.128 GABA                                                
    0.000 999%   0.000 Glc                                                 
 4.57E+03  13%   3.715 Gln                                                 
 4.15E+03  19%   3.366 Glu                                                 
  405.632   6%   0.329 GPC                                                 
    0.000 999%   0.000 PCh                                                 
  410.052  33%   0.333 GSH                                                 
 1.73E+03  19%   1.401 Ins                                                 
  735.344  81%   0.597 Lac                                                 
 2.16E+03   4%   1.752 NAA                                                 
    0.000 999%   0.000 NAAG                                                
  159.185  18%   0.129 Scyllo                                              
    0.000 999%   0.000 Tau                                                 
  213.086  69%   0.173 -CrCH2                                              
  405.632   6%   0.329 GPC+PCh                                             
 2.16E+03   4%   1.752 NAA+NAAG                                            
 1.23E+03   5%   1.000 Cr+PCr                                              
 8.72E+03  14%   7.081 Glu+Gln                                             
  790.264  97%   0.642 Lip13a                                              
  365.693 150%   0.297 Lip13b                                              
    0.000 999%   0.000 Lip09                                               
  448.959  21%   0.365 MM09                                                
  585.827  27%   0.476 Lip20                                               
 1.25E+03  18%   1.015 MM20                                                
  124.337  52%   0.101 MM12                                                
  176.455 121%   0.143 MM14                                                
  705.368  19%   0.573 MM17                                                
 1.16E+03  31%   0.939 Lip13a+Lip13b                                       
 1.46E+03  32%   1.183 MM14+Lip13a+Lip13b+MM12                             
  448.959  21%   0.365 MM09+Lip09                                          
 1.84E+03  13%   1.491 MM20+Lip20                                          
   6 lines in following misc. output table
  FWHM = 0.138 ppm    S/N =   9                                            
  Data shift = 0.031 ppm                                                   
  Ph: -24 deg     -19.3 deg/ppm                                            
  alphaB,S = 1.1E+00,   2.7E+02                                            
   14 spline knots.   Ns = 8(2)                                            
  (13) 2 infls.   ( 3) 1 extrs.                                            
  498 points on ppm-axis = NY
      4.000000     3.992357     3.984714     3.977070     3.969427     3.961784     3.954141     3.946497     3.938854     3.931211
      3.923568     3.915925     3.908281     3.900638     3.892995     3.885352     3.877708     3.870065     3.862422     3.854779
      3.847136     3.839492     3.831849     3.824206     3.816563     3.808919     3.801276     3.793633     3.785990     3.778347
      3.770703     3.763060     3.755417     3.747774     3.740130     3.732487     3.724844     3.717201     3.709558     3.701914
      3.694271     3.686628     3.678985     3.671341     3.663698     3.656055     3.648412     3.640769     3.633125     3.625482
      3.617839     3.610196     3.602552     3.594909     3.587266     3.579623     3.571980     3.564336     3.556693     3.549050
      3.541407     3.533763     3.526120     3.518477     3.510834     3.503191     3.495547     3.487904     3.480261     3.472618
      3.464974     3.457331     3.449688     3.442045     3.434402     3.426758     3.419115     3.411472     3.403829     3.396185
      3.388542     3.380899     3.373256     3.365613     3.357969     3.350326     3.342683     3.335040     3.327396     3.319753
      3.312110     3.304467     3.296824     3.289180     3.281537     3.273894     3.266251     3.258607     3.250964     3.243321
      3.235678     3.228034     3.220391     3.212748     3.205105     3.197462     3.189818     3.182175     3.174532     3.166889
      3.159245     3.151602     3.143959     3.136316     3.128673     3.121029     3.113386     3.105743     3.098100     3.090456
      3.082813     3.075170     3.067527     3.059884     3.052240     3.044597     3.036954     3.029311     3.021667     3.014024
      3.006381     2.998738     2.991095     2.983451     2.975808     2.968165     2.960522     2.952878     2.945235     2.937592
      2.929949     2.922306     2.914662     2.907019     2.899376     2.891733     2.884089     2.876446     2.868803     2.861160
      2.853517     2.845873     2.838230     2.830587     2.822944     2.815300     2.807657     2.800014     2.792371     2.784728
      2.777084     2.769441     2.761798     2.754155     2.746511     2.738868     2.731225     2.723582     2.715939     2.708295
      2.700652     2.693009     2.685366     2.677722     2.670079     2.662436     2.654793     2.647150     2.639506     2.631863
      2.624220     2.616577     2.608933     2.601290     2.593647     2.586004     2.578361     2.570717     2.563074     2.555431
      2.547788     2.540144     2.532501     2.524858     2.517215     2.509572     2.501928     2.494285     2.486642     2.478999
      2.471355     2.463712     2.456069     2.448426     2.440783     2.433139     2.425496     2.417853     2.410210     2.402566
      2.394923     2.387280     2.379637     2.371994     2.364350     2.356707     2.349064     2.341421     2.333777     2.326134
      2.318491     2.310848     2.303205     2.295561     2.287918     2.280275     2.272632     2.264988     2.257345     2.249702
      2.242059     2.234416     2.226772     2.219129     2.211486     2.203843     2.196199     2.188556     2.180913     2.173270
      2.165627     2.157983     2.150340     2.142697     2.135054     2.127410     2.119767     2.112124     2.104481     2.096838
      2.089194     2.081551     2.073908     2.066265     2.058621     2.050978     2.043335     2.035692     2.028049     2.020405
      2.012762     2.005119     1.997476     1.989833     1.982190     1.974546     1.966903     1.959260     1.951617     1.943974
      1.936331     1.928688     1.921045     1.913402     1.905759     1.898115     1.890472     1.882829     1.875186     1.867543
      1.859900     1.852257     1.844614     1.836971     1.829327     1.821684     1.814041     1.806398     1.798755     1.791112
      1.783469     1.775826     1.768183     1.760540     1.752896     1.745253     1.737610     1.729967     1.722324     1.714681
      1.707038     1.699395     1.691752     1.684108     1.676465     1.668822     1.661179     1.653536     1.645893     1.638250
      1.630607     1.622964     1.615321     1.607677     1.600034     1.592391     1.584748     1.577105     1.569462     1.561819
      1.554176     1.546533     1.538890     1.531246     1.523603     1.515960     1.508317     1.500674     1.493031     1.485388
      1.477745     1.470102     1.462458     1.454815     1.447172     1.439529     1.431886     1.424243     1.416600     1.408957
      1.401314     1.393671     1.386027     1.378384     1.370741     1.363098     1.355455     1.347812     1.340169     1.332526
      1.324883     1.317240     1.309596     1.301953     1.294310     1.286667     1.279024     1.271381     1.263738     1.256095
      1.248452     1.240808     1.233165     1.225522     1.217879     1.210236     1.202593     1.194950     1.187307     1.179664
      1.172021     1.164377     1.156734     1.149091     1.141448     1.133805     1.126162     1.118519     1.110876     1.103233
      1.095590     1.087946     1.080303     1.072660     1.065017     1.057374     1.049731     1.042088     1.034445     1.026802
      1.019158     1.011515     1.003872     0.996229     0.988586     0.980943     0.973300     0.965657     0.958014     0.950371
      0.942727     0.935084     0.927441     0.919798     0.912155     0.904512     0.896869     0.889226     0.881583     0.873940
      0.866296     0.858653     0.851010     0.843367     0.835724     0.828081     0.820438     0.812795     0.805152     0.797508
      0.789865     0.782222     0.774579     0.766936     0.759293     0.751650     0.744007     0.736364     0.728721     0.721077
      0.713434     0.705791     0.698148     0.690505     0.682862     0.675219     0.667576     0.659933     0.652290     0.644646
      0.637003     0.629360     0.621717     0.614074     0.606431     0.598788     0.591145     0.583502     0.575858     0.568215
      0.560572     0.552929     0.545286     0.537643     0.530000     0.522357     0.514714     0.507071     0.499427     0.491784
      0.484141     0.476498     0.468855     0.461212     0.453569     0.445925     0.438282     0.430639     0.422996     0.415353
      0.407710     0.400067     0.392424     0.384780     0.377137     0.369494     0.361851     0.354208     0.346565     0.338922
      0.331278     0.323635     0.315992     0.308349     0.300706     0.293063     0.285420     0.277777     0.270133     0.262490
      0.254847     0.247204     0.239561     0.231918     0.224275     0.216631     0.208988     0.201345
 NY phased data points follow
   1.17076E+01  1.34353E+01  1.10333E+01  1.52671E+01  1.47632E+01  1.44792E+01  1.49198E+01  1.50416E+01  1.37233E+01  1.49469E+01
   1.36838E+01  1.27816E+01  1.18713E+01  1.31058E+01  1.23163E+01  1.13013E+01  1.18087E+01  1.16676E+01  1.28230E+01  1.15677E+01
   1.08835E+01  1.17584E+01  1.15952E+01  1.09043E+01  1.04025E+01  1.21971E+01  1.23053E+01  1.19065E+01  1.44758E+01  9.77127E+00
   1.19347E+01  8.43331E+00  1.11721E+01  9.95703E+00  1.32908E+01  1.02414E+01  1.20646E+01  1.26003E+01  1.34799E+01  1.17672E+01
   1.17275E+01  1.58941E+01  1.26850E+01  1.35299E+01  1.07022E+01  1.43251E+01  1.08310E+01  1.27920E+01  1.01680E+01  1.07879E+01
   1.11425E+01  8.68745E+00  1.00205E+01  1.07327E+01  1.02208E+01  1.15782E+01  8.91778E+00  1.02666E+01  9.95198E+00  5.20079E+00
   6.32036E+00  4.96192E+00  6.45317E+00  5.71421E+00  7.15096E+00  6.89323E+00  5.37962E+00  7.43199E+00  3.11998E+00  4.48055E+00
   5.47186E+00  3.64159E+00  4.47565E+00  8.40438E+00  3.46937E+00  3.90746E+00  5.11484E+00  3.76302E+00  4.82845E+00  6.34931E+00
   6.61293E+00  7.16330E+00  7.23851E+00  7.71806E+00  8.73214E+00  1.11819E+01  8.97766E+00  6.79771E+00  7.09587E+00  7.55315E+00
   7.53810E+00  7.91093E+00  9.79803E+00  1.17637E+01  1.43034E+01  1.44446E+01  1.38027E+01  1.70875E+01  1.62582E+01  1.83468E+01
   2.03233E+01  1.92552E+01  1.78776E+01  1.82409E+01  1.72723E+01  1.74947E+01  1.67511E+01  1.44317E+01  1.45613E+01  1.50166E+01
   1.10823E+01  1.09434E+01  1.18836E+01  1.08507E+01  9.16840E+00  1.14921E+01  1.15892E+01  1.26276E+01  1.35921E+01  1.37658E+01
   1.60126E+01  1.96516E+01  1.99640E+01  2.04595E+01  2.19542E+01  2.31651E+01  1.86801E+01  2.14091E+01  2.14541E+01  1.77893E+01
   2.05590E+01  1.87826E+01  1.68420E+01  1.36239E+01  1.44587E+01  1.21967E+01  1.29997E+01  1.01379E+01  9.82036E+00  1.00892E+01
   9.75961E+00  5.11304E+00  7.03145E+00  6.79649E+00  8.38655E+00  7.69288E+00  6.64837E+00  6.12577E+00  5.74816E+00  3.46741E+00
   6.84058E+00  4.09091E+00  5.51436E+00  5.34946E+00  3.06370E+00  6.21092E+00  5.30237E+00  4.57310E+00  3.65369E+00  7.57131E+00
   7.46768E+00  3.82870E+00  2.70611E+00  3.68562E+00  2.99719E+00  3.51594E+00  1.81924E+00  3.41680E+00  2.91316E+00 -1.06711E+00
  -4.18277E+00 -1.01644E-01 -3.90883E+00 -5.82762E-01 -2.91570E+00 -2.10597E+00 -2.87615E+00 -1.86911E+00 -4.31692E+00 -2.21742E+00
  -1.12898E+00 -4.98959E+00 -4.58639E+00 -2.31229E+00  1.82615E-01 -1.17974E+00 -6.21331E-01 -3.73043E+00 -4.68264E-01 -4.77150E-01
  -2.53079E-01  1.56113E+00 -1.23242E+00  1.84104E+00  1.15834E+00  5.80773E-01  3.59913E+00  1.35768E+00  3.58563E+00  4.60923E+00
   4.55993E+00  2.90890E+00  6.19566E+00  4.42612E+00  4.18503E+00  4.64069E+00  3.59608E+00  5.18984E+00  6.90572E+00  5.69099E+00
   6.13193E+00  8.35307E+00  6.96064E+00  6.01431E+00  7.02449E+00  6.33828E+00  8.26420E+00  9.08406E+00  9.18899E+00  9.38124E+00
   8.04605E+00  7.55909E+00  1.13020E+01  5.88964E+00  8.75143E+00  6.54903E+00  9.94606E+00  8.14811E+00  1.02019E+01  8.37032E+00
   7.83409E+00  9.07735E+00  9.70090E+00  8.17021E+00  1.04482E+01  1.03568E+01  1.17394E+01  8.71045E+00  9.01304E+00  9.89985E+00
   1.16189E+01  1.15338E+01  1.15301E+01  1.49018E+01  1.41080E+01  1.15472E+01  1.55270E+01  1.65261E+01  1.60317E+01  1.83507E+01
   2.06115E+01  2.34591E+01  2.52928E+01  2.83506E+01  3.11758E+01  3.39383E+01  3.67523E+01  4.07322E+01  4.26734E+01  3.82309E+01
   3.68952E+01  4.05439E+01  4.44478E+01  4.11264E+01  4.05442E+01  3.72504E+01  3.54235E+01  3.20365E+01  2.99290E+01  2.58623E+01
   2.45128E+01  2.34490E+01  1.68178E+01  1.74467E+01  1.58198E+01  1.67652E+01  1.41275E+01  1.04967E+01  1.29122E+01  1.38351E+01
   1.25852E+01  1.24370E+01  1.50294E+01  1.24311E+01  1.11377E+01  9.84721E+00  7.81501E+00  8.35536E+00  1.09812E+01  1.15649E+01
   1.01575E+01  1.24886E+01  9.20432E+00  8.67175E+00  7.77007E+00  1.02083E+01  1.11469E+01  7.89074E+00  1.23345E+01  1.05267E+01
   1.09424E+01  1.14541E+01  1.14027E+01  1.22172E+01  1.06002E+01  9.84503E+00  1.28330E+01  1.11093E+01  1.34076E+01  9.88749E+00
   1.26470E+01  8.80893E+00  1.07455E+01  1.30498E+01  1.11849E+01  8.95655E+00  7.64093E+00  1.02008E+01  9.03923E+00  9.11725E+00
   1.09180E+01  8.04009E+00  1.17505E+01  8.32190E+00  1.01320E+01  6.06600E+00  8.80752E+00  7.52609E+00  7.23407E+00  5.48219E+00
   6.73921E+00  7.91537E+00  6.32480E+00  9.00111E+00  7.58297E+00  7.09654E+00  1.07623E+01  1.07969E+01  1.03703E+01  1.04422E+01
   1.25113E+01  1.31999E+01  1.34030E+01  1.30551E+01  1.43763E+01  1.21858E+01  1.29580E+01  1.25560E+01  1.44612E+01  1.48358E+01
   1.46151E+01  1.60419E+01  1.65686E+01  1.47881E+01  1.62840E+01  1.54600E+01  1.30417E+01  1.16914E+01  1.53559E+01  1.11182E+01
   1.20168E+01  1.29881E+01  1.04584E+01  1.05079E+01  1.21736E+01  8.62863E+00  1.05323E+01  9.33394E+00  9.56296E+00  1.04232E+01
   7.69939E+00  3.41294E+00  5.88797E+00  7.52160E+00  7.52113E+00  4.71744E+00  5.77521E+00  4.20831E+00  5.91471E+00  5.10484E+00
   4.16398E+00  3.71005E+00  1.41295E+00  6.42112E+00 -1.03923E+00  4.19745E+00  3.28123E+00  4.74914E+00 -4.17461E-02  4.75288E+00
   2.91663E+00  4.78162E+00  3.55545E+00  4.51162E+00  5.49033E+00  3.58252E+00  3.73687E+00  4.59351E+00  4.98780E+00  4.19278E+00
   5.00448E+00  2.23893E+00  5.07190E+00  5.54119E+00  5.50093E+00  7.07624E+00  6.09208E+00  9.40140E+00  7.68648E+00  6.33434E+00
   1.62562E+00  7.07189E+00  2.68246E+00  6.11458E+00  4.46016E+00  3.00082E+00  5.10441E+00  5.26396E+00  4.60165E+00  3.09690E+00
   3.26637E+00  2.17991E+00  2.93765E+00  3.08449E+00  4.18361E+00  6.83007E-01  3.21859E+00  1.73114E+00  5.01608E+00  3.26431E+00
   1.89902E+00  2.32392E+00  2.27098E+00  8.71214E-01  1.89072E+00  1.05275E+00  6.19988E-01  4.44914E-01  5.90672E-01  4.89056E+00
  -6.14780E-01  9.03955E-01  2.16259E+00  2.68682E+00  1.51283E+00  1.91204E+00  9.83450E-01  4.54761E-01  5.57867E-02  2.01025E+00
   2.08210E+00  2.80757E+00  1.86534E-01 -2.73097E-01  1.37176E+00 -7.56271E-01  7.98329E-01  1.56805E+00  1.76130E+00  2.46359E+00
   4.83509E-01  3.80490E+00  1.57415E+00  8.16260E-01  3.23667E+00  2.77416E+00  1.74062E+00  1.62049E+00  4.14212E+00  2.66291E+00
   1.80516E+00  3.23259E+00 -9.33222E-01  1.32535E+00  1.18942E+00  1.45464E+00  5.01178E-01  5.59336E-01 -2.49234E-01 -9.50445E-04
  -3.49655E-01 -1.18911E-01 -3.31844E-01 -1.31141E+00  3.03032E+00  7.07830E-01  2.89023E+00  4.20026E+00  1.11252E-01  2.40042E+00
   1.81916E+00 -7.25640E-02 -4.56200E-01  1.82063E+00  2.47501E+00  2.78252E+00  2.01297E-01  1.99289E+00
 NY points of the fit to the data follow
   1.03289E+01  1.10134E+01  1.17488E+01  1.24943E+01  1.29030E+01  1.35927E+01  1.36019E+01  1.42334E+01  1.40183E+01  1.46990E+01
   1.42303E+01  1.47314E+01  1.36718E+01  1.40801E+01  1.28351E+01  1.32052E+01  1.22542E+01  1.26807E+01  1.19115E+01  1.20848E+01
   1.13761E+01  1.11964E+01  1.08899E+01  1.07062E+01  1.10762E+01  1.08753E+01  1.17957E+01  1.14067E+01  1.26178E+01  1.18692E+01
   1.27436E+01  1.18217E+01  1.27833E+01  1.20541E+01  1.31680E+01  1.25727E+01  1.34862E+01  1.27897E+01  1.32822E+01  1.26161E+01
   1.28355E+01  1.23524E+01  1.25356E+01  1.22389E+01  1.25014E+01  1.23339E+01  1.23790E+01  1.19380E+01  1.15771E+01  1.10528E+01
   1.06475E+01  1.01751E+01  1.00213E+01  9.68613E+00  9.57955E+00  9.09664E+00  8.84580E+00  8.21830E+00  7.82706E+00  7.35709E+00
   7.02544E+00  6.65479E+00  6.46718E+00  6.21040E+00  6.05075E+00  5.85717E+00  5.68291E+00  5.56959E+00  5.51059E+00  5.57363E+00
   5.65705E+00  5.78266E+00  5.81591E+00  5.94929E+00  5.92258E+00  6.10528E+00  6.06061E+00  6.32430E+00  6.22693E+00  6.56706E+00
   6.38578E+00  6.80795E+00  6.43183E+00  6.86456E+00  6.26073E+00  6.84608E+00  6.76776E+00  7.59991E+00  7.69081E+00  8.61628E+00
   8.75608E+00  9.74301E+00  1.02676E+01  1.13909E+01  1.23730E+01  1.35341E+01  1.47258E+01  1.57411E+01  1.66702E+01  1.73466E+01
   1.77264E+01  1.80191E+01  1.79390E+01  1.79324E+01  1.76005E+01  1.73319E+01  1.65623E+01  1.60277E+01  1.47035E+01  1.41218E+01
   1.31887E+01  1.27682E+01  1.21695E+01  1.19027E+01  1.17359E+01  1.17554E+01  1.24266E+01  1.27869E+01  1.40879E+01  1.45434E+01
   1.61441E+01  1.66097E+01  1.85905E+01  1.88743E+01  2.02469E+01  2.01523E+01  2.10079E+01  2.05864E+01  2.10520E+01  2.02564E+01
   1.99803E+01  1.88182E+01  1.78951E+01  1.65463E+01  1.52893E+01  1.39487E+01  1.27034E+01  1.14546E+01  1.03193E+01  9.23718E+00
   8.33649E+00  7.44694E+00  6.63735E+00  5.91745E+00  5.23671E+00  4.79196E+00  4.80867E+00  4.55803E+00  4.60830E+00  4.39336E+00
   4.40891E+00  4.19968E+00  4.18264E+00  3.99634E+00  3.96363E+00  3.75477E+00  3.68717E+00  3.46910E+00  3.34855E+00  3.14910E+00
   2.95902E+00  2.78477E+00  2.57373E+00  2.38804E+00  2.15318E+00  1.94213E+00  1.69836E+00  1.49332E+00  1.25000E+00  1.02609E+00
   7.97432E-01  5.25032E-01  3.97774E-01  1.20923E-01  1.41298E-01 -1.22173E-01  4.25723E-02 -2.20324E-01  1.23946E-02 -2.17300E-01
   2.30632E-02 -2.22022E-01  2.61449E-02 -1.41219E-01  1.10424E-01  1.94749E-01  4.27229E-01  7.32371E-01  8.44278E-01  1.46036E+00
   1.46828E+00  2.32546E+00  2.28650E+00  3.19080E+00  2.69775E+00  3.88034E+00  3.21635E+00  4.56507E+00  3.74761E+00  5.08148E+00
   4.10360E+00  5.06720E+00  3.90713E+00  4.64276E+00  3.64217E+00  4.23385E+00  3.59260E+00  3.98359E+00  4.17961E+00  4.15182E+00
   4.87146E+00  4.23175E+00  5.09107E+00  4.07411E+00  5.22370E+00  4.13567E+00  5.66005E+00  4.71842E+00  6.53377E+00  5.61289E+00
   7.06619E+00  6.42126E+00  7.53626E+00  7.24123E+00  7.92371E+00  8.37210E+00  8.79937E+00  9.50198E+00  9.62409E+00  1.03349E+01
   9.76175E+00  1.06356E+01  9.94350E+00  1.06930E+01  1.00744E+01  1.06511E+01  1.04012E+01  1.04263E+01  1.04431E+01  1.00569E+01
   1.04240E+01  9.66145E+00  1.01765E+01  9.54636E+00  1.15604E+01  1.13762E+01  1.40094E+01  1.42701E+01  1.73003E+01  1.80870E+01
   2.17198E+01  2.31531E+01  2.72406E+01  2.91571E+01  3.31119E+01  3.49227E+01  3.76755E+01  3.90155E+01  4.03640E+01  4.10935E+01
   4.12650E+01  4.16071E+01  4.08779E+01  4.04644E+01  3.85063E+01  3.73646E+01  3.43673E+01  3.27026E+01  2.92793E+01  2.74198E+01
   2.41360E+01  2.24027E+01  1.95328E+01  1.81048E+01  1.58819E+01  1.47378E+01  1.28418E+01  1.18627E+01  1.03175E+01  9.77014E+00
   9.51704E+00  9.41449E+00  9.31354E+00  9.30909E+00  9.31299E+00  9.33435E+00  9.40139E+00  9.48444E+00  9.59818E+00  9.71327E+00
   9.84243E+00  9.96540E+00  1.00884E+01  1.02267E+01  1.03512E+01  1.04788E+01  1.05787E+01  1.06729E+01  1.07241E+01  1.07640E+01
   1.07500E+01  1.07247E+01  1.06534E+01  1.05743E+01  1.04613E+01  1.03524E+01  1.02289E+01  1.01266E+01  1.00382E+01  1.00131E+01
   1.00879E+01  1.03348E+01  1.03378E+01  1.05224E+01  1.04505E+01  1.05814E+01  1.04610E+01  1.05562E+01  1.02239E+01  1.04078E+01
   1.00891E+01  1.00450E+01  9.61900E+00  9.14435E+00  8.66872E+00  7.92296E+00  7.76259E+00  7.03730E+00  7.45342E+00  6.82279E+00
   7.80550E+00  7.12080E+00  8.52007E+00  7.58630E+00  9.25491E+00  8.26642E+00  1.01686E+01  9.35081E+00  1.14086E+01  1.07164E+01
   1.27096E+01  1.18986E+01  1.35172E+01  1.24578E+01  1.37276E+01  1.27573E+01  1.39950E+01  1.35053E+01  1.45563E+01  1.42125E+01
   1.51534E+01  1.47257E+01  1.54054E+01  1.47481E+01  1.50085E+01  1.44143E+01  1.45995E+01  1.39749E+01  1.39655E+01  1.31979E+01
   1.29838E+01  1.21200E+01  1.17466E+01  1.08467E+01  1.04185E+01  9.64413E+00  9.27907E+00  8.75124E+00  8.36977E+00  7.86703E+00
   7.50185E+00  7.01679E+00  6.65250E+00  6.17276E+00  5.80875E+00  5.53156E+00  5.29461E+00  5.09942E+00  4.92595E+00  4.78418E+00
   4.65780E+00  4.55878E+00  4.47208E+00  4.41046E+00  4.35955E+00  4.33259E+00  4.31563E+00  4.32219E+00  4.33850E+00  4.37807E+00
   4.42707E+00  4.49870E+00  4.57873E+00  4.67975E+00  4.78680E+00  4.91152E+00  5.03800E+00  5.17684E+00  5.31113E+00  5.45049E+00
   5.57731E+00  5.70065E+00  5.80270E+00  5.89267E+00  5.95332E+00  5.99477E+00  6.00112E+00  5.98408E+00  5.92963E+00  5.85147E+00
   5.73760E+00  5.60362E+00  5.43926E+00  5.26154E+00  5.06128E+00  4.85613E+00  4.63718E+00  4.42192E+00  4.20098E+00  3.99102E+00
   3.78172E+00  3.58857E+00  3.40011E+00  3.23061E+00  3.06756E+00  2.92421E+00  2.78724E+00  2.66922E+00  2.55633E+00  2.46075E+00
   2.36847E+00  2.29155E+00  2.21598E+00  2.15385E+00  2.09130E+00  2.04053E+00  1.98786E+00  1.94565E+00  1.90038E+00  1.86456E+00
   1.82482E+00  1.79377E+00  1.75818E+00  1.73074E+00  1.69831E+00  1.67364E+00  1.64365E+00  1.62114E+00  1.59308E+00  1.57230E+00
   1.54579E+00  1.52640E+00  1.50118E+00  1.48294E+00  1.45879E+00  1.44152E+00  1.41827E+00  1.40184E+00  1.37938E+00  1.36366E+00
   1.34189E+00  1.32680E+00  1.30564E+00  1.29113E+00  1.27052E+00  1.25651E+00  1.23640E+00  1.22286E+00  1.20322E+00  1.19012E+00
   1.17091E+00  1.15822E+00  1.13943E+00  1.12713E+00  1.10873E+00  1.09682E+00  1.07881E+00  1.06728E+00  1.04966E+00  1.03852E+00
   1.02130E+00  1.01056E+00  9.93751E-01  9.83424E-01  9.67067E-01  9.57203E-01  9.41340E-01  9.31988E-01  9.16680E-01  9.07919E-01
   8.93263E-01  8.85211E-01  8.71342E-01  8.64154E-01  8.51268E-01  8.45196E-01  8.33609E-01  8.29047E-01
 NY background values follow
    -4.472E-01   -4.239E-01   -4.007E-01   -3.774E-01   -3.540E-01   -3.307E-01   -3.074E-01   -2.840E-01   -2.607E-01   -2.373E-01
    -2.139E-01   -1.905E-01   -1.670E-01   -1.436E-01   -1.201E-01   -9.663E-02   -7.313E-02   -4.962E-02   -2.609E-02   -2.542E-03
     2.102E-02    4.461E-02    6.821E-02    9.183E-02    1.155E-01    1.391E-01    1.628E-01    1.865E-01    2.102E-01    2.339E-01
     2.577E-01    2.815E-01    3.053E-01    3.291E-01    3.529E-01    3.768E-01    4.006E-01    4.245E-01    4.485E-01    4.724E-01
     4.964E-01    5.204E-01    5.444E-01    5.684E-01    5.924E-01    6.165E-01    6.406E-01    6.647E-01    6.889E-01    7.131E-01
     7.372E-01    7.614E-01    7.857E-01    8.099E-01    8.341E-01    8.584E-01    8.827E-01    9.070E-01    9.313E-01    9.556E-01
     9.799E-01    1.004E+00    1.029E+00    1.053E+00    1.077E+00    1.102E+00    1.126E+00    1.150E+00    1.175E+00    1.199E+00
     1.223E+00    1.247E+00    1.272E+00    1.296E+00    1.320E+00    1.345E+00    1.369E+00    1.393E+00    1.417E+00    1.442E+00
     1.466E+00    1.490E+00    1.514E+00    1.539E+00    1.563E+00    1.587E+00    1.611E+00    1.635E+00    1.659E+00    1.683E+00
     1.707E+00    1.731E+00    1.755E+00    1.779E+00    1.803E+00    1.827E+00    1.851E+00    1.874E+00    1.898E+00    1.922E+00
     1.946E+00    1.969E+00    1.993E+00    2.016E+00    2.040E+00    2.063E+00    2.087E+00    2.110E+00    2.133E+00    2.156E+00
     2.179E+00    2.203E+00    2.226E+00    2.249E+00    2.272E+00    2.294E+00    2.317E+00    2.340E+00    2.362E+00    2.385E+00
     2.408E+00    2.430E+00    2.452E+00    2.475E+00    2.497E+00    2.519E+00    2.541E+00    2.563E+00    2.585E+00    2.606E+00
     2.628E+00    2.650E+00    2.671E+00    2.692E+00    2.714E+00    2.735E+00    2.756E+00    2.777E+00    2.798E+00    2.819E+00
     2.839E+00    2.860E+00    2.880E+00    2.901E+00    2.921E+00    2.941E+00    2.961E+00    2.981E+00    3.001E+00    3.021E+00
     3.041E+00    3.061E+00    3.080E+00    3.100E+00    3.119E+00    3.138E+00    3.158E+00    3.177E+00    3.196E+00    3.215E+00
     3.234E+00    3.253E+00    3.272E+00    3.290E+00    3.309E+00    3.328E+00    3.346E+00    3.365E+00    3.383E+00    3.401E+00
     3.419E+00    3.438E+00    3.456E+00    3.474E+00    3.492E+00    3.510E+00    3.527E+00    3.545E+00    3.563E+00    3.581E+00
     3.598E+00    3.616E+00    3.633E+00    3.651E+00    3.668E+00    3.686E+00    3.703E+00    3.720E+00    3.737E+00    3.754E+00
     3.771E+00    3.788E+00    3.804E+00    3.821E+00    3.837E+00    3.854E+00    3.870E+00    3.886E+00    3.902E+00    3.918E+00
     3.933E+00    3.949E+00    3.964E+00    3.980E+00    3.995E+00    4.010E+00    4.024E+00    4.039E+00    4.053E+00    4.067E+00
     4.081E+00    4.095E+00    4.109E+00    4.122E+00    4.135E+00    4.148E+00    4.161E+00    4.174E+00    4.186E+00    4.198E+00
     4.210E+00    4.221E+00    4.233E+00    4.244E+00    4.254E+00    4.265E+00    4.275E+00    4.285E+00    4.295E+00    4.305E+00
     4.314E+00    4.323E+00    4.331E+00    4.340E+00    4.348E+00    4.356E+00    4.363E+00    4.370E+00    4.377E+00    4.384E+00
     4.390E+00    4.396E+00    4.402E+00    4.408E+00    4.413E+00    4.418E+00    4.422E+00    4.427E+00    4.431E+00    4.434E+00
     4.438E+00    4.441E+00    4.444E+00    4.446E+00    4.448E+00    4.450E+00    4.452E+00    4.453E+00    4.454E+00    4.455E+00
     4.455E+00    4.455E+00    4.455E+00    4.454E+00    4.453E+00    4.452E+00    4.450E+00    4.448E+00    4.446E+00    4.444E+00
     4.441E+00    4.438E+00    4.434E+00    4.430E+00    4.426E+00    4.421E+00    4.417E+00    4.411E+00    4.406E+00    4.400E+00
     4.394E+00    4.388E+00    4.381E+00    4.374E+00    4.367E+00    4.359E+00    4.351E+00    4.343E+00    4.335E+00    4.326E+00
     4.317E+00    4.308E+00    4.298E+00    4.288E+00    4.278E+00    4.268E+00    4.257E+00    4.246E+00    4.235E+00    4.224E+00
     4.212E+00    4.200E+00    4.188E+00    4.176E+00    4.163E+00    4.150E+00    4.137E+00    4.123E+00    4.110E+00    4.096E+00
     4.082E+00    4.068E+00    4.053E+00    4.038E+00    4.023E+00    4.008E+00    3.993E+00    3.977E+00    3.961E+00    3.945E+00
     3.929E+00    3.913E+00    3.896E+00    3.880E+00    3.863E+00    3.845E+00    3.828E+00    3.811E+00    3.793E+00    3.775E+00
     3.757E+00    3.739E+00    3.721E+00    3.703E+00    3.684E+00    3.666E+00    3.647E+00    3.628E+00    3.609E+00    3.590E+00
     3.571E+00    3.552E+00    3.532E+00    3.513E+00    3.493E+00    3.473E+00    3.454E+00    3.434E+00    3.414E+00    3.394E+00
     3.374E+00    3.354E+00    3.334E+00    3.314E+00    3.293E+00    3.273E+00    3.253E+00    3.232E+00    3.212E+00    3.191E+00
     3.171E+00    3.151E+00    3.130E+00    3.110E+00    3.089E+00    3.069E+00    3.048E+00    3.028E+00    3.007E+00    2.987E+00
     2.966E+00    2.946E+00    2.925E+00    2.905E+00    2.885E+00    2.864E+00    2.844E+00    2.824E+00    2.803E+00    2.783E+00
     2.763E+00    2.743E+00    2.723E+00    2.702E+00    2.682E+00    2.662E+00    2.642E+00    2.623E+00    2.603E+00    2.583E+00
     2.563E+00    2.544E+00    2.524E+00    2.505E+00    2.485E+00    2.466E+00    2.446E+00    2.427E+00    2.408E+00    2.389E+00
     2.370E+00    2.351E+00    2.333E+00    2.314E+00    2.295E+00    2.277E+00    2.259E+00    2.240E+00    2.222E+00    2.204E+00
     2.186E+00    2.168E+00    2.151E+00    2.133E+00    2.116E+00    2.098E+00    2.081E+00    2.064E+00    2.046E+00    2.029E+00
     2.013E+00    1.996E+00    1.979E+00    1.962E+00    1.946E+00    1.929E+00    1.913E+00    1.897E+00    1.880E+00    1.864E+00
     1.848E+00    1.832E+00    1.816E+00    1.801E+00    1.785E+00    1.769E+00    1.754E+00    1.738E+00    1.723E+00    1.707E+00
     1.692E+00    1.677E+00    1.662E+00    1.647E+00    1.632E+00    1.617E+00    1.602E+00    1.587E+00    1.572E+00    1.557E+00
     1.543E+00    1.528E+00    1.514E+00    1.499E+00    1.485E+00    1.471E+00    1.456E+00    1.442E+00    1.428E+00    1.414E+00
     1.400E+00    1.386E+00    1.372E+00    1.358E+00    1.344E+00    1.330E+00    1.316E+00    1.302E+00    1.288E+00    1.275E+00
     1.261E+00    1.247E+00    1.233E+00    1.220E+00    1.206E+00    1.193E+00    1.179E+00    1.166E+00    1.152E+00    1.139E+00
     1.125E+00    1.112E+00    1.098E+00    1.085E+00    1.071E+00    1.058E+00    1.045E+00    1.031E+00    1.018E+00    1.004E+00
     9.911E-01    9.777E-01    9.644E-01    9.510E-01    9.376E-01    9.243E-01    9.109E-01    8.975E-01
 Ala      Conc. = 1.49E+03
