 LCModel (Version 6.3-1L) Copyright: S.W. Provencher.          Ref.: Magn. Reson. Med. 30:672-679 (1993).                
 Slice#3 Row#10 Col#13  PD_05_press_1_raw_act
 36 lines in following concentration table = NCONC+1
    Conc.  %SD /Cr+PCr  Metabolite                                         
   34.946 117%   0.931 Ala                                                 
    9.196  40%   0.245 Asp                                                 
   37.527  47%   1.000 Cr                                                  
    0.000 999%   0.000 PCr                                                 
    5.366  41%   0.143 GABA                                                
    5.441  40%   0.145 Glc                                                 
   52.448 150%   1.398 Gln                                                 
  107.543  80%   2.866 Glu                                                 
   15.056  45%   0.401 GPC                                                 
    0.000 999%   0.000 PCh                                                 
   22.984 111%   0.612 GSH                                                 
  114.147  71%   3.042 Ins                                                 
  100.450  48%   2.677 Lac                                                 
   96.221  26%   2.564 NAA                                                 
    0.411 999% 1.1E-02 NAAG                                                
    1.880  39% 5.0E-02 Scyllo                                              
    9.226  39%   0.246 Tau                                                 
    3.771 124%   0.100 -CrCH2                                              
   15.056  45%   0.401 GPC+PCh                                             
   96.633  29%   2.575 NAA+NAAG                                            
   37.527  47%   1.000 Cr+PCr                                              
  159.991  73%   4.263 Glu+Gln                                             
 1.08E+03 216%  28.812 Lip13a                                              
 1.19E+04  22% 317.272 Lip13b                                              
 3.17E+03   8%  84.494 Lip09                                               
    0.000 999%   0.000 MM09                                                
 1.55E+03  12%  41.341 Lip20                                               
   18.434 999%   0.491 MM20                                                
 4.38E+03  14% 116.734+MM12                                                
 1.33E+04   9% 354.783 MM14                                                
 5.78E+03  12% 153.938 MM17                                                
 1.30E+04   7% 346.084 Lip13a+Lip13b                                       
 3.07E+04   3% 817.601 MM14+Lip13a+Lip13b+MM12                             
 3.17E+03   8%  84.494 MM09+Lip09                                          
 1.57E+03  13%  41.832 MM20+Lip20                                          
   6 lines in following misc. output table
  FWHM = 0.061 ppm    S/N =  24                                            
  Data shift = 0.015 ppm                                                   
  Ph:  93 deg      10.5 deg/ppm                                            
  alphaB,S = 8.5E+01,   5.1E+01                                            
   14 spline knots.   Ns = 5(1)                                            
  ( 8) 2 infls.   ( 7) 1 extrs.                                            
  498 points on ppm-axis = NY
      4.000000     3.992357     3.984714     3.977070     3.969427     3.961784     3.954141     3.946497     3.938854     3.931211
      3.923568     3.915925     3.908281     3.900638     3.892995     3.885352     3.877708     3.870065     3.862422     3.854779
      3.847136     3.839492     3.831849     3.824206     3.816563     3.808919     3.801276     3.793633     3.785990     3.778347
      3.770703     3.763060     3.755417     3.747774     3.740130     3.732487     3.724844     3.717201     3.709558     3.701914
      3.694271     3.686628     3.678985     3.671341     3.663698     3.656055     3.648412     3.640769     3.633125     3.625482
      3.617839     3.610196     3.602552     3.594909     3.587266     3.579623     3.571980     3.564336     3.556693     3.549050
      3.541407     3.533763     3.526120     3.518477     3.510834     3.503191     3.495547     3.487904     3.480261     3.472618
      3.464974     3.457331     3.449688     3.442045     3.434402     3.426758     3.419115     3.411472     3.403829     3.396185
      3.388542     3.380899     3.373256     3.365613     3.357969     3.350326     3.342683     3.335040     3.327396     3.319753
      3.312110     3.304467     3.296824     3.289180     3.281537     3.273894     3.266251     3.258607     3.250964     3.243321
      3.235678     3.228034     3.220391     3.212748     3.205105     3.197462     3.189818     3.182175     3.174532     3.166889
      3.159245     3.151602     3.143959     3.136316     3.128673     3.121029     3.113386     3.105743     3.098100     3.090456
      3.082813     3.075170     3.067527     3.059884     3.052240     3.044597     3.036954     3.029311     3.021667     3.014024
      3.006381     2.998738     2.991095     2.983451     2.975808     2.968165     2.960522     2.952878     2.945235     2.937592
      2.929949     2.922306     2.914662     2.907019     2.899376     2.891733     2.884089     2.876446     2.868803     2.861160
      2.853517     2.845873     2.838230     2.830587     2.822944     2.815300     2.807657     2.800014     2.792371     2.784728
      2.777084     2.769441     2.761798     2.754155     2.746511     2.738868     2.731225     2.723582     2.715939     2.708295
      2.700652     2.693009     2.685366     2.677722     2.670079     2.662436     2.654793     2.647150     2.639506     2.631863
      2.624220     2.616577     2.608933     2.601290     2.593647     2.586004     2.578361     2.570717     2.563074     2.555431
      2.547788     2.540144     2.532501     2.524858     2.517215     2.509572     2.501928     2.494285     2.486642     2.478999
      2.471355     2.463712     2.456069     2.448426     2.440783     2.433139     2.425496     2.417853     2.410210     2.402566
      2.394923     2.387280     2.379637     2.371994     2.364350     2.356707     2.349064     2.341421     2.333777     2.326134
      2.318491     2.310848     2.303205     2.295561     2.287918     2.280275     2.272632     2.264988     2.257345     2.249702
      2.242059     2.234416     2.226772     2.219129     2.211486     2.203843     2.196199     2.188556     2.180913     2.173270
      2.165627     2.157983     2.150340     2.142697     2.135054     2.127410     2.119767     2.112124     2.104481     2.096838
      2.089194     2.081551     2.073908     2.066265     2.058621     2.050978     2.043335     2.035692     2.028049     2.020405
      2.012762     2.005119     1.997476     1.989833     1.982190     1.974546     1.966903     1.959260     1.951617     1.943974
      1.936331     1.928688     1.921045     1.913402     1.905759     1.898115     1.890472     1.882829     1.875186     1.867543
      1.859900     1.852257     1.844614     1.836971     1.829327     1.821684     1.814041     1.806398     1.798755     1.791112
      1.783469     1.775826     1.768183     1.760540     1.752896     1.745253     1.737610     1.729967     1.722324     1.714681
      1.707038     1.699395     1.691752     1.684108     1.676465     1.668822     1.661179     1.653536     1.645893     1.638250
      1.630607     1.622964     1.615321     1.607677     1.600034     1.592391     1.584748     1.577105     1.569462     1.561819
      1.554176     1.546533     1.538890     1.531246     1.523603     1.515960     1.508317     1.500674     1.493031     1.485388
      1.477745     1.470102     1.462458     1.454815     1.447172     1.439529     1.431886     1.424243     1.416600     1.408957
      1.401314     1.393671     1.386027     1.378384     1.370741     1.363098     1.355455     1.347812     1.340169     1.332526
      1.324883     1.317240     1.309596     1.301953     1.294310     1.286667     1.279024     1.271381     1.263738     1.256095
      1.248452     1.240808     1.233165     1.225522     1.217879     1.210236     1.202593     1.194950     1.187307     1.179664
      1.172021     1.164377     1.156734     1.149091     1.141448     1.133805     1.126162     1.118519     1.110876     1.103233
      1.095590     1.087946     1.080303     1.072660     1.065017     1.057374     1.049731     1.042088     1.034445     1.026802
      1.019158     1.011515     1.003872     0.996229     0.988586     0.980943     0.973300     0.965657     0.958014     0.950371
      0.942727     0.935084     0.927441     0.919798     0.912155     0.904512     0.896869     0.889226     0.881583     0.873940
      0.866296     0.858653     0.851010     0.843367     0.835724     0.828081     0.820438     0.812795     0.805152     0.797508
      0.789865     0.782222     0.774579     0.766936     0.759293     0.751650     0.744007     0.736364     0.728721     0.721077
      0.713434     0.705791     0.698148     0.690505     0.682862     0.675219     0.667576     0.659933     0.652290     0.644646
      0.637003     0.629360     0.621717     0.614074     0.606431     0.598788     0.591145     0.583502     0.575858     0.568215
      0.560572     0.552929     0.545286     0.537643     0.530000     0.522357     0.514714     0.507071     0.499427     0.491784
      0.484141     0.476498     0.468855     0.461212     0.453569     0.445925     0.438282     0.430639     0.422996     0.415353
      0.407710     0.400067     0.392424     0.384780     0.377137     0.369494     0.361851     0.354208     0.346565     0.338922
      0.331278     0.323635     0.315992     0.308349     0.300706     0.293063     0.285420     0.277777     0.270133     0.262490
      0.254847     0.247204     0.239561     0.231918     0.224275     0.216631     0.208988     0.201345
 NY phased data points follow
   8.55046E+00  7.64074E+00  8.19929E+00  8.92939E+00  8.63848E+00  8.06366E+00  8.31474E+00  8.21039E+00  9.26636E+00  8.83490E+00
   8.46388E+00  8.27486E+00  8.48552E+00  8.52756E+00  7.51762E+00  6.56670E+00  7.61663E+00  7.71325E+00  8.25617E+00  7.83386E+00
   6.51341E+00  6.69850E+00  7.04821E+00  8.64108E+00  8.41733E+00  6.79848E+00  8.21367E+00  6.90945E+00  7.47264E+00  7.76025E+00
   7.26248E+00  8.00807E+00  6.83450E+00  7.57024E+00  9.81213E+00  7.98374E+00  7.96697E+00  7.96923E+00  7.10782E+00  7.81497E+00
   9.01305E+00  7.86817E+00  7.20806E+00  8.70908E+00  8.21636E+00  8.82809E+00  9.45139E+00  8.36866E+00  9.12880E+00  7.35833E+00
   8.42556E+00  9.15729E+00  9.35715E+00  8.31450E+00  7.74377E+00  8.01179E+00  8.09538E+00  8.99305E+00  7.60363E+00  7.83757E+00
   8.47180E+00  9.34265E+00  8.62777E+00  9.68127E+00  8.47106E+00  8.47732E+00  8.46935E+00  7.67196E+00  8.82860E+00  7.72962E+00
   9.21449E+00  8.43222E+00  8.93032E+00  9.43290E+00  7.95451E+00  7.68328E+00  8.85442E+00  1.01272E+01  8.71758E+00  9.32168E+00
   9.43799E+00  9.29179E+00  8.88205E+00  9.48193E+00  9.20456E+00  1.00479E+01  8.66680E+00  8.35645E+00  8.16035E+00  8.98816E+00
   8.10202E+00  9.57721E+00  9.30287E+00  9.94441E+00  9.57213E+00  1.01820E+01  8.76122E+00  9.90922E+00  9.95906E+00  1.11290E+01
   9.28313E+00  1.06789E+01  1.09360E+01  1.01358E+01  9.90252E+00  1.06123E+01  8.90132E+00  9.64023E+00  9.53722E+00  9.59879E+00
   1.02718E+01  1.00889E+01  9.94525E+00  1.01514E+01  9.94512E+00  1.02235E+01  9.53210E+00  1.13778E+01  1.08139E+01  1.15699E+01
   1.08333E+01  1.03934E+01  1.08638E+01  1.17010E+01  1.20457E+01  1.26079E+01  1.19205E+01  1.25530E+01  1.21803E+01  1.20347E+01
   1.06890E+01  1.07752E+01  1.05222E+01  1.01726E+01  1.11502E+01  1.10997E+01  8.55417E+00  1.11247E+01  1.06981E+01  1.04009E+01
   1.15118E+01  1.00200E+01  1.14673E+01  1.06936E+01  1.15639E+01  1.08500E+01  1.25951E+01  1.16473E+01  1.09775E+01  1.12760E+01
   1.13800E+01  1.11457E+01  1.26362E+01  1.24281E+01  1.22723E+01  1.23485E+01  1.26264E+01  1.32618E+01  1.31550E+01  1.34216E+01
   1.21401E+01  1.25328E+01  1.41484E+01  1.27686E+01  1.32482E+01  1.34982E+01  1.40565E+01  1.33182E+01  1.35274E+01  1.28600E+01
   1.28048E+01  1.46983E+01  1.33233E+01  1.37800E+01  1.45635E+01  1.48283E+01  1.44038E+01  1.49091E+01  1.51312E+01  1.40335E+01
   1.48327E+01  1.52560E+01  1.59573E+01  1.42047E+01  1.62289E+01  1.61817E+01  1.54676E+01  1.55665E+01  1.61018E+01  1.56573E+01
   1.66267E+01  1.70971E+01  1.57546E+01  1.53735E+01  1.66683E+01  1.57120E+01  1.71729E+01  1.57566E+01  1.72359E+01  1.61515E+01
   1.78255E+01  1.82217E+01  1.62963E+01  1.71843E+01  1.67566E+01  1.69948E+01  1.72638E+01  1.70453E+01  1.82551E+01  1.84758E+01
   1.80485E+01  1.71265E+01  1.72619E+01  1.74838E+01  1.83406E+01  1.87994E+01  1.74192E+01  1.80915E+01  1.81197E+01  1.77646E+01
   1.78514E+01  1.81920E+01  1.89011E+01  2.02154E+01  1.86849E+01  1.93973E+01  1.90676E+01  1.89979E+01  1.87018E+01  2.04343E+01
   1.89365E+01  1.95718E+01  1.96710E+01  2.02458E+01  2.00240E+01  2.08015E+01  2.09731E+01  2.01296E+01  1.87644E+01  2.09893E+01
   2.11698E+01  2.03347E+01  2.07637E+01  2.02293E+01  2.12406E+01  2.27166E+01  2.13234E+01  2.14693E+01  2.19591E+01  2.39489E+01
   2.41074E+01  2.36542E+01  2.29795E+01  2.16849E+01  2.33030E+01  2.51203E+01  2.29588E+01  2.37256E+01  2.33680E+01  2.33564E+01
   2.30601E+01  2.24451E+01  2.10683E+01  2.17749E+01  2.16003E+01  2.11274E+01  2.23323E+01  2.29548E+01  2.22966E+01  2.34585E+01
   2.24781E+01  2.28491E+01  2.31487E+01  2.33631E+01  2.31138E+01  2.30366E+01  2.32551E+01  2.29114E+01  2.36301E+01  2.34954E+01
   2.30199E+01  2.17994E+01  2.30633E+01  2.18570E+01  2.18888E+01  2.21730E+01  2.31363E+01  2.19545E+01  2.23158E+01  2.29042E+01
   2.16972E+01  2.25954E+01  2.23264E+01  2.12236E+01  2.17563E+01  2.10634E+01  2.06181E+01  2.03080E+01  1.91697E+01  2.03925E+01
   2.05895E+01  1.95193E+01  1.90410E+01  1.85637E+01  1.84419E+01  1.84413E+01  1.88650E+01  1.72849E+01  1.57953E+01  1.56732E+01
   1.58441E+01  1.56790E+01  1.32580E+01  1.31345E+01  1.10095E+01  1.09339E+01  9.75802E+00  9.58553E+00  8.33784E+00  9.08266E+00
   6.92241E+00  5.71323E+00  4.42138E+00  4.58452E+00  4.18260E+00  3.22243E+00  2.72196E+00  2.88099E-02 -1.97983E-01  8.47916E-01
  -1.41605E+00 -1.65077E+00 -9.09898E-01 -2.93801E+00 -3.85478E+00 -4.05070E+00 -4.60748E+00 -5.77074E+00 -6.00133E+00 -5.18077E+00
  -5.80023E+00 -5.69280E+00 -5.53924E+00 -6.96156E+00 -8.90021E+00 -8.71922E+00 -8.85646E+00 -1.03098E+01 -1.18125E+01 -1.28841E+01
  -1.38324E+01 -1.55923E+01 -1.79392E+01 -2.06616E+01 -2.31004E+01 -2.61855E+01 -2.87236E+01 -3.29774E+01 -3.75070E+01 -4.11888E+01
  -4.61296E+01 -5.04232E+01 -5.54260E+01 -5.95191E+01 -6.27314E+01 -6.71657E+01 -7.07620E+01 -7.25949E+01 -7.45887E+01 -7.52663E+01
  -7.31492E+01 -7.41611E+01 -7.27942E+01 -7.26581E+01 -7.03896E+01 -6.99021E+01 -6.85381E+01 -6.64770E+01 -6.33706E+01 -6.32875E+01
  -6.14882E+01 -6.13100E+01 -5.91483E+01 -5.74623E+01 -5.65920E+01 -5.47784E+01 -5.35840E+01 -5.21040E+01 -5.04829E+01 -4.96042E+01
  -4.88358E+01 -4.66797E+01 -4.62263E+01 -4.50687E+01 -4.42918E+01 -4.46008E+01 -4.31920E+01 -4.28672E+01 -4.14611E+01 -3.99342E+01
  -4.03415E+01 -3.88445E+01 -3.89371E+01 -3.87510E+01 -3.74424E+01 -3.64559E+01 -3.66536E+01 -3.77145E+01 -3.68645E+01 -3.61172E+01
  -3.62634E+01 -3.81150E+01 -3.59378E+01 -3.53994E+01 -3.49105E+01 -3.54832E+01 -3.54975E+01 -3.47646E+01 -3.46899E+01 -3.58876E+01
  -3.30026E+01 -3.30973E+01 -3.36573E+01 -3.26261E+01 -3.10564E+01 -3.15648E+01 -3.14113E+01 -3.08653E+01 -2.96973E+01 -3.06821E+01
  -2.93861E+01 -2.92530E+01 -2.76398E+01 -2.85692E+01 -2.87867E+01 -2.83931E+01 -2.75821E+01 -2.71036E+01 -2.52899E+01 -2.65952E+01
  -2.60867E+01 -2.47912E+01 -2.44070E+01 -2.35383E+01 -2.29964E+01 -2.30270E+01 -2.20574E+01 -2.28622E+01 -2.28759E+01 -2.10699E+01
  -2.13643E+01 -2.13422E+01 -2.03466E+01 -2.15143E+01 -2.09203E+01 -2.06155E+01 -2.14344E+01 -1.77751E+01 -1.92111E+01 -1.90408E+01
  -1.97298E+01 -1.93814E+01 -1.80167E+01 -1.86480E+01 -1.79944E+01 -1.77802E+01 -1.74613E+01 -1.77062E+01 -1.62680E+01 -1.64902E+01
  -1.70363E+01 -1.73472E+01 -1.73092E+01 -1.56947E+01 -1.57265E+01 -1.55969E+01 -1.60347E+01 -1.61780E+01 -1.56082E+01 -1.55691E+01
  -1.44573E+01 -1.67078E+01 -1.45769E+01 -1.49500E+01 -1.34191E+01 -1.45978E+01 -1.34093E+01 -1.31150E+01 -1.28556E+01 -1.45374E+01
  -1.34036E+01 -1.30991E+01 -1.17357E+01 -1.32548E+01 -1.24105E+01 -1.30500E+01 -1.30387E+01 -1.32555E+01
 NY points of the fit to the data follow
   7.04473E+00  7.18508E+00  7.32487E+00  7.44101E+00  7.52667E+00  7.61198E+00  7.71186E+00  7.77554E+00  7.77847E+00  7.72845E+00
   7.63749E+00  7.51426E+00  7.36793E+00  7.21615E+00  7.08746E+00  7.01832E+00  7.04837E+00  7.18921E+00  7.38333E+00  7.52927E+00
   7.61930E+00  7.67163E+00  7.69951E+00  7.72456E+00  7.77151E+00  7.84304E+00  7.92314E+00  8.00935E+00  8.08573E+00  8.12757E+00
   8.11297E+00  8.03823E+00  7.90294E+00  7.72392E+00  7.55765E+00  7.47164E+00  7.50123E+00  7.61575E+00  7.77801E+00  7.97834E+00
   8.17765E+00  8.35148E+00  8.48336E+00  8.55665E+00  8.55319E+00  8.47772E+00  8.35370E+00  8.19867E+00  8.03460E+00  7.88877E+00
   7.78769E+00  7.76330E+00  7.84756E+00  8.04637E+00  8.30662E+00  8.53046E+00  8.66854E+00  8.73064E+00  8.74217E+00  8.72246E+00
   8.68791E+00  8.65561E+00  8.63907E+00  8.64659E+00  8.68583E+00  8.76591E+00  8.88251E+00  9.00254E+00  9.09769E+00  9.15376E+00
   9.17546E+00  9.17427E+00  9.16205E+00  9.15139E+00  9.14904E+00  9.15733E+00  9.17971E+00  9.21735E+00  9.27409E+00  9.33807E+00
   9.39989E+00  9.45743E+00  9.50554E+00  9.54554E+00  9.58871E+00  9.64579E+00  9.72168E+00  9.81831E+00  9.93562E+00  1.00685E+01
   1.02086E+01  1.03457E+01  1.04628E+01  1.05446E+01  1.05950E+01  1.06440E+01  1.07233E+01  1.08518E+01  1.09811E+01  1.10291E+01
   1.09867E+01  1.08673E+01  1.06840E+01  1.04495E+01  1.01852E+01  9.93917E+00  9.76920E+00  9.73669E+00  9.88290E+00  1.01811E+01
   1.04844E+01  1.06882E+01  1.08410E+01  1.09691E+01  1.10843E+01  1.11925E+01  1.12991E+01  1.14082E+01  1.15233E+01  1.16485E+01
   1.17887E+01  1.19521E+01  1.21192E+01  1.22127E+01  1.22068E+01  1.21133E+01  1.19487E+01  1.17317E+01  1.14856E+01  1.12388E+01
   1.10362E+01  1.09348E+01  1.09801E+01  1.11783E+01  1.14425E+01  1.16400E+01  1.17888E+01  1.19178E+01  1.20340E+01  1.21351E+01
   1.22096E+01  1.22433E+01  1.22402E+01  1.22176E+01  1.21894E+01  1.21684E+01  1.21612E+01  1.21626E+01  1.21686E+01  1.21710E+01
   1.21704E+01  1.21692E+01  1.21672E+01  1.21630E+01  1.21555E+01  1.21454E+01  1.21354E+01  1.21314E+01  1.21366E+01  1.21514E+01
   1.21726E+01  1.21967E+01  1.22257E+01  1.22594E+01  1.22942E+01  1.23268E+01  1.23556E+01  1.23839E+01  1.24231E+01  1.24834E+01
   1.25627E+01  1.26568E+01  1.27618E+01  1.28721E+01  1.29886E+01  1.31086E+01  1.32324E+01  1.33638E+01  1.35007E+01  1.36378E+01
   1.37699E+01  1.38970E+01  1.40263E+01  1.41718E+01  1.43380E+01  1.45082E+01  1.46657E+01  1.48031E+01  1.49230E+01  1.50329E+01
   1.51302E+01  1.52127E+01  1.52867E+01  1.53722E+01  1.54929E+01  1.56586E+01  1.58570E+01  1.60693E+01  1.62743E+01  1.64517E+01
   1.65872E+01  1.66743E+01  1.67144E+01  1.67194E+01  1.67071E+01  1.67212E+01  1.68067E+01  1.69696E+01  1.72066E+01  1.75054E+01
   1.78407E+01  1.81560E+01  1.83866E+01  1.85037E+01  1.85067E+01  1.84116E+01  1.82484E+01  1.81064E+01  1.80709E+01  1.81614E+01
   1.83759E+01  1.86975E+01  1.90721E+01  1.94098E+01  1.96512E+01  1.97944E+01  1.98376E+01  1.97957E+01  1.97053E+01  1.96296E+01
   1.96261E+01  1.96989E+01  1.98175E+01  1.99583E+01  2.01001E+01  2.02267E+01  2.03303E+01  2.04018E+01  2.04641E+01  2.05475E+01
   2.06565E+01  2.07812E+01  2.09246E+01  2.10983E+01  2.12926E+01  2.14798E+01  2.16496E+01  2.18042E+01  2.19406E+01  2.20543E+01
   2.21781E+01  2.23267E+01  2.24976E+01  2.26976E+01  2.29583E+01  2.32495E+01  2.33774E+01  2.32730E+01  2.29772E+01  2.25359E+01
   2.19817E+01  2.13651E+01  2.07657E+01  2.02929E+01  2.00769E+01  2.02402E+01  2.08125E+01  2.15854E+01  2.21917E+01  2.26345E+01
   2.30004E+01  2.33138E+01  2.35832E+01  2.38191E+01  2.40194E+01  2.41816E+01  2.43071E+01  2.43990E+01  2.44605E+01  2.44956E+01
   2.45047E+01  2.44823E+01  2.44236E+01  2.43259E+01  2.41874E+01  2.40073E+01  2.37862E+01  2.35266E+01  2.32328E+01  2.29087E+01
   2.25583E+01  2.21864E+01  2.17977E+01  2.13964E+01  2.09870E+01  2.05744E+01  2.01630E+01  1.97566E+01  1.93583E+01  1.89707E+01
   1.85950E+01  1.82318E+01  1.78807E+01  1.75397E+01  1.72061E+01  1.68757E+01  1.65437E+01  1.62044E+01  1.58514E+01  1.54779E+01
   1.50768E+01  1.46413E+01  1.41646E+01  1.36408E+01  1.30650E+01  1.24332E+01  1.17427E+01  1.09926E+01  1.01834E+01  9.31731E+00
   8.39752E+00  7.42594E+00  6.39088E+00  5.28521E+00  4.13972E+00  2.98803E+00  1.85749E+00  7.74232E-01 -2.32062E-01 -1.12369E+00
  -1.87281E+00 -2.49890E+00 -3.03302E+00 -3.51587E+00 -4.00246E+00 -4.50746E+00 -4.98859E+00 -5.43157E+00 -5.82996E+00 -6.17177E+00
  -6.43905E+00 -6.62138E+00 -6.78033E+00 -7.08530E+00 -7.57759E+00 -8.22425E+00 -9.01318E+00 -9.94834E+00 -1.10293E+01 -1.22313E+01
  -1.35296E+01 -1.50154E+01 -1.68053E+01 -1.90154E+01 -2.17974E+01 -2.52759E+01 -2.93282E+01 -3.37830E+01 -3.85071E+01 -4.33373E+01
  -4.80729E+01 -5.25035E+01 -5.65183E+01 -6.01913E+01 -6.35065E+01 -6.63952E+01 -6.88097E+01 -7.07255E+01 -7.21384E+01 -7.30617E+01
  -7.35228E+01 -7.35598E+01 -7.32176E+01 -7.25449E+01 -7.15916E+01 -7.04064E+01 -6.90356E+01 -6.75220E+01 -6.59044E+01 -6.42178E+01
  -6.24925E+01 -6.07550E+01 -5.90282E+01 -5.73312E+01 -5.56802E+01 -5.40883E+01 -5.25657E+01 -5.11204E+01 -4.97583E+01 -4.84831E+01
  -4.72969E+01 -4.62003E+01 -4.51926E+01 -4.42717E+01 -4.34348E+01 -4.26782E+01 -4.19972E+01 -4.13869E+01 -4.08416E+01 -4.03553E+01
  -3.99219E+01 -3.95347E+01 -3.91873E+01 -3.88730E+01 -3.85854E+01 -3.83183E+01 -3.80656E+01 -3.78217E+01 -3.75814E+01 -3.73401E+01
  -3.70936E+01 -3.68385E+01 -3.65718E+01 -3.62913E+01 -3.59953E+01 -3.56828E+01 -3.53532E+01 -3.50065E+01 -3.46432E+01 -3.42641E+01
  -3.38703E+01 -3.34632E+01 -3.30444E+01 -3.26155E+01 -3.21784E+01 -3.17348E+01 -3.12864E+01 -3.08349E+01 -3.03820E+01 -2.99291E+01
  -2.94776E+01 -2.90287E+01 -2.85834E+01 -2.81428E+01 -2.77077E+01 -2.72787E+01 -2.68565E+01 -2.64414E+01 -2.60338E+01 -2.56340E+01
  -2.52422E+01 -2.48586E+01 -2.44831E+01 -2.41157E+01 -2.37565E+01 -2.34054E+01 -2.30622E+01 -2.27269E+01 -2.23993E+01 -2.20792E+01
  -2.17665E+01 -2.14610E+01 -2.11625E+01 -2.08708E+01 -2.05858E+01 -2.03071E+01 -2.00348E+01 -1.97685E+01 -1.95081E+01 -1.92535E+01
  -1.90043E+01 -1.87605E+01 -1.85220E+01 -1.82884E+01 -1.80598E+01 -1.78359E+01 -1.76165E+01 -1.74016E+01 -1.71910E+01 -1.69846E+01
  -1.67823E+01 -1.65839E+01 -1.63892E+01 -1.61983E+01 -1.60110E+01 -1.58271E+01 -1.56466E+01 -1.54694E+01 -1.52953E+01 -1.51244E+01
  -1.49564E+01 -1.47914E+01 -1.46292E+01 -1.44697E+01 -1.43129E+01 -1.41587E+01 -1.40071E+01 -1.38579E+01 -1.37110E+01 -1.35666E+01
  -1.34243E+01 -1.32843E+01 -1.31464E+01 -1.30105E+01 -1.28767E+01 -1.27449E+01 -1.26149E+01 -1.24868E+01
 NY background values follow
    -1.725E+00   -1.722E+00   -1.718E+00   -1.715E+00   -1.711E+00   -1.707E+00   -1.704E+00   -1.700E+00   -1.697E+00   -1.693E+00
    -1.690E+00   -1.686E+00   -1.682E+00   -1.679E+00   -1.675E+00   -1.672E+00   -1.668E+00   -1.665E+00   -1.661E+00   -1.657E+00
    -1.654E+00   -1.650E+00   -1.647E+00   -1.643E+00   -1.639E+00   -1.636E+00   -1.632E+00   -1.628E+00   -1.625E+00   -1.621E+00
    -1.618E+00   -1.614E+00   -1.610E+00   -1.607E+00   -1.603E+00   -1.599E+00   -1.596E+00   -1.592E+00   -1.588E+00   -1.585E+00
    -1.581E+00   -1.577E+00   -1.574E+00   -1.570E+00   -1.566E+00   -1.563E+00   -1.559E+00   -1.555E+00   -1.552E+00   -1.548E+00
    -1.544E+00   -1.541E+00   -1.537E+00   -1.533E+00   -1.530E+00   -1.526E+00   -1.522E+00   -1.518E+00   -1.515E+00   -1.511E+00
    -1.507E+00   -1.504E+00   -1.500E+00   -1.496E+00   -1.492E+00   -1.489E+00   -1.485E+00   -1.481E+00   -1.477E+00   -1.474E+00
    -1.470E+00   -1.466E+00   -1.462E+00   -1.459E+00   -1.455E+00   -1.451E+00   -1.447E+00   -1.444E+00   -1.440E+00   -1.436E+00
    -1.432E+00   -1.429E+00   -1.425E+00   -1.421E+00   -1.417E+00   -1.413E+00   -1.410E+00   -1.406E+00   -1.402E+00   -1.398E+00
    -1.394E+00   -1.391E+00   -1.387E+00   -1.383E+00   -1.379E+00   -1.375E+00   -1.371E+00   -1.368E+00   -1.364E+00   -1.360E+00
    -1.356E+00   -1.352E+00   -1.348E+00   -1.345E+00   -1.341E+00   -1.337E+00   -1.333E+00   -1.329E+00   -1.325E+00   -1.321E+00
    -1.317E+00   -1.314E+00   -1.310E+00   -1.306E+00   -1.302E+00   -1.298E+00   -1.294E+00   -1.290E+00   -1.286E+00   -1.282E+00
    -1.279E+00   -1.275E+00   -1.271E+00   -1.267E+00   -1.263E+00   -1.259E+00   -1.255E+00   -1.251E+00   -1.247E+00   -1.243E+00
    -1.239E+00   -1.235E+00   -1.232E+00   -1.228E+00   -1.224E+00   -1.220E+00   -1.216E+00   -1.212E+00   -1.208E+00   -1.204E+00
    -1.200E+00   -1.196E+00   -1.192E+00   -1.188E+00   -1.184E+00   -1.180E+00   -1.176E+00   -1.172E+00   -1.168E+00   -1.164E+00
    -1.160E+00   -1.156E+00   -1.152E+00   -1.148E+00   -1.144E+00   -1.140E+00   -1.136E+00   -1.132E+00   -1.128E+00   -1.124E+00
    -1.120E+00   -1.116E+00   -1.112E+00   -1.108E+00   -1.104E+00   -1.100E+00   -1.096E+00   -1.092E+00   -1.088E+00   -1.084E+00
    -1.080E+00   -1.076E+00   -1.072E+00   -1.067E+00   -1.063E+00   -1.059E+00   -1.055E+00   -1.051E+00   -1.047E+00   -1.043E+00
    -1.039E+00   -1.035E+00   -1.031E+00   -1.027E+00   -1.023E+00   -1.019E+00   -1.014E+00   -1.010E+00   -1.006E+00   -1.002E+00
    -9.980E-01   -9.939E-01   -9.897E-01   -9.856E-01   -9.815E-01   -9.774E-01   -9.732E-01   -9.691E-01   -9.650E-01   -9.608E-01
    -9.567E-01   -9.525E-01   -9.484E-01   -9.442E-01   -9.401E-01   -9.359E-01   -9.318E-01   -9.276E-01   -9.235E-01   -9.193E-01
    -9.151E-01   -9.109E-01   -9.068E-01   -9.026E-01   -8.984E-01   -8.942E-01   -8.900E-01   -8.858E-01   -8.816E-01   -8.774E-01
    -8.732E-01   -8.690E-01   -8.648E-01   -8.606E-01   -8.564E-01   -8.522E-01   -8.480E-01   -8.438E-01   -8.395E-01   -8.353E-01
    -8.311E-01   -8.268E-01   -8.226E-01   -8.184E-01   -8.141E-01   -8.099E-01   -8.056E-01   -8.014E-01   -7.971E-01   -7.929E-01
    -7.886E-01   -7.843E-01   -7.801E-01   -7.758E-01   -7.715E-01   -7.673E-01   -7.630E-01   -7.587E-01   -7.544E-01   -7.501E-01
    -7.458E-01   -7.416E-01   -7.373E-01   -7.330E-01   -7.287E-01   -7.244E-01   -7.201E-01   -7.157E-01   -7.114E-01   -7.071E-01
    -7.028E-01   -6.985E-01   -6.941E-01   -6.898E-01   -6.855E-01   -6.812E-01   -6.768E-01   -6.725E-01   -6.681E-01   -6.638E-01
    -6.594E-01   -6.551E-01   -6.507E-01   -6.464E-01   -6.420E-01   -6.377E-01   -6.333E-01   -6.289E-01   -6.246E-01   -6.202E-01
    -6.158E-01   -6.114E-01   -6.070E-01   -6.026E-01   -5.983E-01   -5.939E-01   -5.895E-01   -5.851E-01   -5.807E-01   -5.763E-01
    -5.719E-01   -5.674E-01   -5.630E-01   -5.586E-01   -5.542E-01   -5.498E-01   -5.454E-01   -5.409E-01   -5.365E-01   -5.321E-01
    -5.276E-01   -5.232E-01   -5.187E-01   -5.143E-01   -5.098E-01   -5.054E-01   -5.009E-01   -4.965E-01   -4.920E-01   -4.876E-01
    -4.831E-01   -4.786E-01   -4.742E-01   -4.697E-01   -4.652E-01   -4.607E-01   -4.562E-01   -4.517E-01   -4.473E-01   -4.428E-01
    -4.383E-01   -4.338E-01   -4.293E-01   -4.248E-01   -4.203E-01   -4.157E-01   -4.112E-01   -4.067E-01   -4.022E-01   -3.977E-01
    -3.931E-01   -3.886E-01   -3.841E-01   -3.796E-01   -3.750E-01   -3.705E-01   -3.659E-01   -3.614E-01   -3.568E-01   -3.523E-01
    -3.477E-01   -3.432E-01   -3.386E-01   -3.341E-01   -3.295E-01   -3.249E-01   -3.203E-01   -3.158E-01   -3.112E-01   -3.066E-01
    -3.020E-01   -2.974E-01   -2.929E-01   -2.883E-01   -2.837E-01   -2.791E-01   -2.745E-01   -2.699E-01   -2.653E-01   -2.606E-01
    -2.560E-01   -2.514E-01   -2.468E-01   -2.422E-01   -2.375E-01   -2.329E-01   -2.283E-01   -2.237E-01   -2.190E-01   -2.144E-01
    -2.097E-01   -2.051E-01   -2.004E-01   -1.958E-01   -1.911E-01   -1.865E-01   -1.818E-01   -1.772E-01   -1.725E-01   -1.678E-01
    -1.632E-01   -1.585E-01   -1.538E-01   -1.491E-01   -1.444E-01   -1.398E-01   -1.351E-01   -1.304E-01   -1.257E-01   -1.210E-01
    -1.163E-01   -1.116E-01   -1.069E-01   -1.022E-01   -9.744E-02   -9.273E-02   -8.801E-02   -8.329E-02   -7.856E-02   -7.383E-02
    -6.910E-02   -6.437E-02   -5.963E-02   -5.490E-02   -5.015E-02   -4.541E-02   -4.066E-02   -3.591E-02   -3.116E-02   -2.640E-02
    -2.164E-02   -1.688E-02   -1.211E-02   -7.345E-03   -2.574E-03    2.200E-03    6.977E-03    1.176E-02    1.654E-02    2.133E-02
     2.611E-02    3.091E-02    3.570E-02    4.050E-02    4.530E-02    5.010E-02    5.491E-02    5.972E-02    6.453E-02    6.934E-02
     7.416E-02    7.898E-02    8.380E-02    8.863E-02    9.346E-02    9.829E-02    1.031E-01    1.080E-01    1.128E-01    1.177E-01
     1.225E-01    1.273E-01    1.322E-01    1.371E-01    1.419E-01    1.468E-01    1.516E-01    1.565E-01    1.614E-01    1.663E-01
     1.711E-01    1.760E-01    1.809E-01    1.858E-01    1.907E-01    1.955E-01    2.004E-01    2.053E-01    2.102E-01    2.151E-01
     2.200E-01    2.250E-01    2.299E-01    2.348E-01    2.397E-01    2.446E-01    2.495E-01    2.545E-01    2.594E-01    2.643E-01
     2.693E-01    2.742E-01    2.791E-01    2.841E-01    2.890E-01    2.940E-01    2.989E-01    3.039E-01    3.088E-01    3.138E-01
     3.188E-01    3.237E-01    3.287E-01    3.337E-01    3.386E-01    3.436E-01    3.486E-01    3.536E-01    3.586E-01    3.635E-01
     3.685E-01    3.735E-01    3.785E-01    3.835E-01    3.885E-01    3.935E-01    3.986E-01    4.036E-01
 Ala      Conc. = 3.49E+01
