 LCModel (Version 6.3-1L) Copyright: S.W. Provencher.          Ref.: Magn. Reson. Med. 30:672-679 (1993).                
 Slice#1 Row#11 Col#2  PD_05_press_1_raw_act
 36 lines in following concentration table = NCONC+1
    Conc.  %SD /Cr+PCr  Metabolite                                         
    0.000 999%   0.000 Ala                                                 
    4.894  80%   0.179 Asp                                                 
    5.359 458%   0.196 Cr                                                  
   22.038 114%   0.804 PCr                                                 
    2.844  83%   0.104 GABA                                                
    2.686  88% 9.8E-02 Glc                                                 
   69.474  55%   2.536 Gln                                                 
   17.372 225%   0.634 Glu                                                 
    7.078  59%   0.258 GPC                                                 
    0.000 999%   0.000 PCh                                                 
    0.000 999%   0.000 GSH                                                 
   16.937 264%   0.618 Ins                                                 
    0.000 999%   0.000 Lac                                                 
   50.030  27%   1.826 NAA                                                 
    0.000 999%   0.000 NAAG                                                
    0.838  94% 3.1E-02 Scyllo                                              
    4.171  94%   0.152 Tau                                                 
    0.000 999%   0.000 -CrCH2                                              
    7.078  59%   0.258 GPC+PCh                                             
   50.030  27%   1.826 NAA+NAAG                                            
   27.396  39%   1.000 Cr+PCr                                              
   86.846  60%   3.170 Glu+Gln                                             
  254.122  37%   9.276 Lip13a                                              
    0.000 999%   0.000 Lip13b                                              
   43.677  84%   1.594 Lip09                                               
    0.000 999%   0.000 MM09                                                
   37.080  69%   1.353 Lip20                                               
    0.000 999%   0.000 MM20                                                
 6.35E-03 999% 2.3E-04 MM12                                                
    0.195 999% 7.1E-03 MM14                                                
    0.000 999%   0.000 MM17                                                
  254.122  37%   9.276 Lip13a+Lip13b                                       
  254.323  37%   9.283 MM14+Lip13a+Lip13b+MM12                             
   43.677  84%   1.594 MM09+Lip09                                          
   37.080  69%   1.353 MM20+Lip20                                          
   6 lines in following misc. output table
  FWHM = 0.031 ppm    S/N =   1                                            
  Data shift = 0.008 ppm                                                   
  Ph:  82 deg       8.3 deg/ppm                                            
  alphaB,S = 6.9E-01,   1.1E+01                                            
   14 spline knots.   Ns = 5(1)                                            
  ( 8) 3 infls.   ( 8) 2 extrs.                                            
  498 points on ppm-axis = NY
      4.000000     3.992357     3.984714     3.977070     3.969427     3.961784     3.954141     3.946497     3.938854     3.931211
      3.923568     3.915925     3.908281     3.900638     3.892995     3.885352     3.877708     3.870065     3.862422     3.854779
      3.847136     3.839492     3.831849     3.824206     3.816563     3.808919     3.801276     3.793633     3.785990     3.778347
      3.770703     3.763060     3.755417     3.747774     3.740130     3.732487     3.724844     3.717201     3.709558     3.701914
      3.694271     3.686628     3.678985     3.671341     3.663698     3.656055     3.648412     3.640769     3.633125     3.625482
      3.617839     3.610196     3.602552     3.594909     3.587266     3.579623     3.571980     3.564336     3.556693     3.549050
      3.541407     3.533763     3.526120     3.518477     3.510834     3.503191     3.495547     3.487904     3.480261     3.472618
      3.464974     3.457331     3.449688     3.442045     3.434402     3.426758     3.419115     3.411472     3.403829     3.396185
      3.388542     3.380899     3.373256     3.365613     3.357969     3.350326     3.342683     3.335040     3.327396     3.319753
      3.312110     3.304467     3.296824     3.289180     3.281537     3.273894     3.266251     3.258607     3.250964     3.243321
      3.235678     3.228034     3.220391     3.212748     3.205105     3.197462     3.189818     3.182175     3.174532     3.166889
      3.159245     3.151602     3.143959     3.136316     3.128673     3.121029     3.113386     3.105743     3.098100     3.090456
      3.082813     3.075170     3.067527     3.059884     3.052240     3.044597     3.036954     3.029311     3.021667     3.014024
      3.006381     2.998738     2.991095     2.983451     2.975808     2.968165     2.960522     2.952878     2.945235     2.937592
      2.929949     2.922306     2.914662     2.907019     2.899376     2.891733     2.884089     2.876446     2.868803     2.861160
      2.853517     2.845873     2.838230     2.830587     2.822944     2.815300     2.807657     2.800014     2.792371     2.784728
      2.777084     2.769441     2.761798     2.754155     2.746511     2.738868     2.731225     2.723582     2.715939     2.708295
      2.700652     2.693009     2.685366     2.677722     2.670079     2.662436     2.654793     2.647150     2.639506     2.631863
      2.624220     2.616577     2.608933     2.601290     2.593647     2.586004     2.578361     2.570717     2.563074     2.555431
      2.547788     2.540144     2.532501     2.524858     2.517215     2.509572     2.501928     2.494285     2.486642     2.478999
      2.471355     2.463712     2.456069     2.448426     2.440783     2.433139     2.425496     2.417853     2.410210     2.402566
      2.394923     2.387280     2.379637     2.371994     2.364350     2.356707     2.349064     2.341421     2.333777     2.326134
      2.318491     2.310848     2.303205     2.295561     2.287918     2.280275     2.272632     2.264988     2.257345     2.249702
      2.242059     2.234416     2.226772     2.219129     2.211486     2.203843     2.196199     2.188556     2.180913     2.173270
      2.165627     2.157983     2.150340     2.142697     2.135054     2.127410     2.119767     2.112124     2.104481     2.096838
      2.089194     2.081551     2.073908     2.066265     2.058621     2.050978     2.043335     2.035692     2.028049     2.020405
      2.012762     2.005119     1.997476     1.989833     1.982190     1.974546     1.966903     1.959260     1.951617     1.943974
      1.936331     1.928688     1.921045     1.913402     1.905759     1.898115     1.890472     1.882829     1.875186     1.867543
      1.859900     1.852257     1.844614     1.836971     1.829327     1.821684     1.814041     1.806398     1.798755     1.791112
      1.783469     1.775826     1.768183     1.760540     1.752896     1.745253     1.737610     1.729967     1.722324     1.714681
      1.707038     1.699395     1.691752     1.684108     1.676465     1.668822     1.661179     1.653536     1.645893     1.638250
      1.630607     1.622964     1.615321     1.607677     1.600034     1.592391     1.584748     1.577105     1.569462     1.561819
      1.554176     1.546533     1.538890     1.531246     1.523603     1.515960     1.508317     1.500674     1.493031     1.485388
      1.477745     1.470102     1.462458     1.454815     1.447172     1.439529     1.431886     1.424243     1.416600     1.408957
      1.401314     1.393671     1.386027     1.378384     1.370741     1.363098     1.355455     1.347812     1.340169     1.332526
      1.324883     1.317240     1.309596     1.301953     1.294310     1.286667     1.279024     1.271381     1.263738     1.256095
      1.248452     1.240808     1.233165     1.225522     1.217879     1.210236     1.202593     1.194950     1.187307     1.179664
      1.172021     1.164377     1.156734     1.149091     1.141448     1.133805     1.126162     1.118519     1.110876     1.103233
      1.095590     1.087946     1.080303     1.072660     1.065017     1.057374     1.049731     1.042088     1.034445     1.026802
      1.019158     1.011515     1.003872     0.996229     0.988586     0.980943     0.973300     0.965657     0.958014     0.950371
      0.942727     0.935084     0.927441     0.919798     0.912155     0.904512     0.896869     0.889226     0.881583     0.873940
      0.866296     0.858653     0.851010     0.843367     0.835724     0.828081     0.820438     0.812795     0.805152     0.797508
      0.789865     0.782222     0.774579     0.766936     0.759293     0.751650     0.744007     0.736364     0.728721     0.721077
      0.713434     0.705791     0.698148     0.690505     0.682862     0.675219     0.667576     0.659933     0.652290     0.644646
      0.637003     0.629360     0.621717     0.614074     0.606431     0.598788     0.591145     0.583502     0.575858     0.568215
      0.560572     0.552929     0.545286     0.537643     0.530000     0.522357     0.514714     0.507071     0.499427     0.491784
      0.484141     0.476498     0.468855     0.461212     0.453569     0.445925     0.438282     0.430639     0.422996     0.415353
      0.407710     0.400067     0.392424     0.384780     0.377137     0.369494     0.361851     0.354208     0.346565     0.338922
      0.331278     0.323635     0.315992     0.308349     0.300706     0.293063     0.285420     0.277777     0.270133     0.262490
      0.254847     0.247204     0.239561     0.231918     0.224275     0.216631     0.208988     0.201345
 NY phased data points follow
   2.63788E+01  2.82082E+01  2.82801E+01  2.62132E+01  2.49342E+01  2.69129E+01  2.64683E+01  2.48680E+01  2.46506E+01  2.58883E+01
   2.65685E+01  2.35308E+01  2.39496E+01  2.54419E+01  2.20483E+01  2.27705E+01  2.25016E+01  2.31961E+01  2.42868E+01  2.16673E+01
   2.27199E+01  2.05367E+01  1.96666E+01  2.06353E+01  2.02104E+01  1.91861E+01  1.98580E+01  1.83396E+01  2.04133E+01  1.94359E+01
   2.12438E+01  2.09967E+01  1.94005E+01  1.93249E+01  1.80680E+01  1.83050E+01  1.91648E+01  2.09764E+01  1.84861E+01  1.81122E+01
   2.02674E+01  1.83358E+01  1.93702E+01  1.75855E+01  1.72923E+01  1.80915E+01  1.86794E+01  1.78610E+01  1.81873E+01  1.83272E+01
   1.49939E+01  1.49709E+01  1.63454E+01  1.51466E+01  1.71394E+01  1.53694E+01  1.58768E+01  1.52485E+01  1.54468E+01  1.59387E+01
   1.46101E+01  1.57044E+01  1.54086E+01  1.25580E+01  1.55116E+01  1.47792E+01  1.46712E+01  1.62249E+01  1.32290E+01  1.47194E+01
   1.37969E+01  1.51289E+01  1.45864E+01  1.40395E+01  1.47164E+01  1.34893E+01  1.27575E+01  1.35149E+01  1.39096E+01  1.37326E+01
   1.30979E+01  1.37644E+01  1.25835E+01  1.17099E+01  1.35226E+01  1.35857E+01  1.03892E+01  1.22303E+01  1.16990E+01  1.36676E+01
   1.08017E+01  1.25315E+01  1.06310E+01  1.19537E+01  1.29366E+01  1.40855E+01  1.08678E+01  1.25918E+01  1.11577E+01  1.26666E+01
   1.05911E+01  1.24182E+01  1.29757E+01  1.27730E+01  1.21323E+01  1.18910E+01  1.26242E+01  1.14713E+01  1.04379E+01  9.17836E+00
   1.12220E+01  1.04562E+01  9.54760E+00  1.03326E+01  8.97859E+00  9.83982E+00  9.93742E+00  1.08303E+01  9.91616E+00  1.03599E+01
   9.87265E+00  1.16781E+01  9.00899E+00  1.07612E+01  1.01380E+01  1.00532E+01  1.06253E+01  1.12472E+01  9.38329E+00  9.20047E+00
   9.65847E+00  9.50871E+00  8.63260E+00  1.06588E+01  1.00581E+01  1.02185E+01  9.71664E+00  7.59201E+00  9.03459E+00  9.21647E+00
   1.14258E+01  1.11861E+01  8.40753E+00  9.52904E+00  6.24436E+00  8.84940E+00  9.22335E+00  8.64215E+00  9.20299E+00  9.86889E+00
   9.86607E+00  7.92638E+00  9.73591E+00  8.75268E+00  9.86736E+00  8.36129E+00  7.36831E+00  9.76324E+00  6.97675E+00  8.11366E+00
   8.11810E+00  7.18020E+00  8.52277E+00  9.57700E+00  7.53794E+00  9.40241E+00  8.52473E+00  8.13005E+00  8.95217E+00  9.64198E+00
   8.58135E+00  8.76038E+00  7.52843E+00  7.19434E+00  9.31987E+00  7.95587E+00  7.32018E+00  7.21604E+00  7.16363E+00  8.36642E+00
   7.57689E+00  6.80598E+00  7.68446E+00  7.32409E+00  6.59277E+00  9.60999E+00  7.81745E+00  1.01222E+01  6.93652E+00  6.67238E+00
   6.67533E+00  6.47696E+00  6.14410E+00  8.99351E+00  6.07005E+00  6.37339E+00  5.99618E+00  7.44122E+00  7.02106E+00  9.29381E+00
   6.99771E+00  7.10064E+00  5.13871E+00  6.63345E+00  5.93446E+00  6.80921E+00  6.50874E+00  4.98575E+00  4.08140E+00  3.89223E+00
   5.16441E+00  3.83976E+00  7.70717E+00  4.37153E+00  6.33036E+00  6.15039E+00  5.65556E+00  5.53918E+00  4.96061E+00  6.67118E+00
   5.72684E+00  5.67564E+00  2.94074E+00  7.68329E+00  6.99047E+00  6.01736E+00  5.71281E+00  5.14791E+00  6.56596E+00  4.86122E+00
   6.82009E+00  4.43655E+00  6.87579E+00  5.70042E+00  5.87316E+00  3.89345E+00  5.53299E+00  3.87550E+00  4.60800E+00  4.96929E+00
   5.57715E+00  3.95877E+00  5.00335E+00  5.76888E+00  2.58468E+00  4.06498E+00  5.24062E+00  5.95409E+00  6.13167E+00  4.66088E+00
   3.44341E+00  4.48473E+00  3.92451E+00  4.40792E+00  4.08997E+00  4.66617E+00  5.89159E+00  5.56090E+00  7.35362E+00  8.32935E+00
   6.63727E+00  5.34132E+00  5.21128E+00  4.88608E+00  5.32717E+00  2.32935E+00  1.59799E+00  3.06267E+00  5.00610E+00  3.91186E+00
   5.75261E+00  4.97316E+00  3.52035E+00  5.28046E+00  4.96859E+00  4.24610E+00  3.14031E+00  4.67103E+00  4.54164E+00  4.39504E+00
   5.31764E+00  5.03477E+00  4.75326E+00  2.56308E+00  1.85170E+00  2.56522E+00  4.37491E+00  4.37215E+00  4.00080E+00  4.05242E+00
   3.14282E+00  3.87540E+00  5.20561E+00  4.36776E+00  4.40960E+00  4.24221E+00  3.06929E+00  3.72549E+00  1.42874E+00  4.64566E+00
   2.06172E+00  1.81631E+00  2.79755E+00  1.84033E+00  3.12434E+00  4.37229E+00  5.76479E+00  3.84733E+00  3.34427E+00  5.72927E+00
   3.84003E+00  2.70259E+00  4.20064E+00  3.09126E+00  2.91987E+00  2.74790E+00  3.53990E+00  3.26513E+00  3.53230E+00  2.22034E+00
   3.54476E+00  3.72260E+00  3.07703E+00  4.93925E+00  3.97037E+00  6.04977E+00  4.00138E+00  5.83949E+00  4.86398E+00  4.39284E+00
   4.24786E+00  3.36114E+00  4.40605E+00  4.97095E+00  2.56608E+00  3.96339E+00  2.91416E+00  4.54794E+00  3.18909E+00  3.48364E+00
   2.11369E+00  3.17728E+00  3.10816E+00  2.77434E+00  4.69272E+00  3.10343E+00  4.75243E+00  2.37674E+00  4.29973E+00  4.40430E+00
   4.10274E+00  3.81680E+00  1.94144E+00  4.46672E+00  4.52445E+00  4.62685E+00  2.85257E+00  3.50246E+00  2.27631E+00  4.01996E+00
   3.11543E+00  3.13182E+00  4.64783E+00  2.75932E+00  2.63481E+00  5.91131E+00  3.76113E+00  3.56469E+00  3.90564E+00  4.16092E+00
   2.05479E+00  3.84112E+00  5.29233E+00  2.48111E+00  4.38878E+00  1.36154E+00  3.09961E+00  1.23745E+00  2.52256E+00  2.28208E+00
   3.25643E+00  2.86759E+00  1.98418E+00  2.52847E+00  8.77360E-01  1.96763E+00  3.70183E+00  3.15181E+00  3.20015E+00  1.27467E+00
   3.23652E+00  4.22376E+00  2.27372E+00  3.70457E+00  2.40979E+00  1.60092E+00  1.09950E+00  1.11261E+00  9.72668E-01  4.89253E-01
   2.71673E+00  1.70658E+00  1.39203E+00  2.68505E+00  1.69137E+00  2.35333E+00  1.38372E+00  5.97934E-01  1.01864E+00  8.91684E-02
   2.17267E+00  2.15528E+00  2.47404E+00  2.44437E+00  1.90077E+00  3.34439E+00  2.15989E+00  1.33038E+00  2.71289E+00  1.64138E+00
   4.99196E-01  9.23284E-01  6.97682E-01  1.24725E+00  3.42961E-01  1.86602E+00  3.95748E-01  1.49268E+00  2.10806E-01  1.60000E+00
   1.25692E+00  2.13615E+00  1.46339E+00  1.94755E+00  2.61400E-01  4.38246E-01  2.07448E+00  3.27094E+00  1.24119E+00  1.44928E-01
   2.02927E+00  4.93210E-01  3.35596E+00  6.96005E-01  9.77836E-01 -1.49038E+00  4.04476E+00  2.02903E+00  8.00903E-01  1.08463E+00
   5.61531E-01  6.76145E-01  1.79010E+00  6.43531E-02  2.19561E+00  9.24482E-01  1.12956E+00  1.60785E+00  1.51367E+00  1.10212E+00
   8.60537E-01  1.15939E+00  1.27069E+00  8.18860E-01  8.62728E-01  1.92441E+00  9.23727E-01  1.99915E+00  1.40942E+00  1.18761E-01
   1.71682E-01 -1.53171E-01 -6.30960E-01 -3.99522E-01  2.05903E+00  1.52107E+00  1.54916E-01 -5.15576E-01  3.03371E-01  1.21055E+00
   8.10938E-02 -1.17157E-01 -1.07831E+00  1.30307E+00  1.93396E+00 -1.01961E+00  3.68138E-01  9.28613E-01  1.83037E+00 -5.79421E-01
  -1.26923E+00  9.51209E-01  6.62175E-01  1.87553E+00 -7.36236E-02 -4.41493E-01  2.33427E+00  8.91515E-01
 NY points of the fit to the data follow
   2.47864E+01  2.46384E+01  2.45059E+01  2.43970E+01  2.43570E+01  2.43904E+01  2.44633E+01  2.45105E+01  2.44394E+01  2.42134E+01
   2.38725E+01  2.34838E+01  2.31030E+01  2.27673E+01  2.25332E+01  2.24066E+01  2.22777E+01  2.21377E+01  2.20024E+01  2.18664E+01
   2.17393E+01  2.16060E+01  2.14435E+01  2.12347E+01  2.09805E+01  2.07154E+01  2.04970E+01  2.03869E+01  2.03860E+01  2.04470E+01
   2.05009E+01  2.04487E+01  2.02242E+01  1.98801E+01  1.95178E+01  1.92073E+01  1.89845E+01  1.88824E+01  1.88768E+01  1.88510E+01
   1.87669E+01  1.86470E+01  1.85060E+01  1.83572E+01  1.82266E+01  1.81269E+01  1.80154E+01  1.78601E+01  1.76716E+01  1.74732E+01
   1.72766E+01  1.70910E+01  1.69331E+01  1.68078E+01  1.66986E+01  1.65887E+01  1.64781E+01  1.63700E+01  1.62594E+01  1.61378E+01
   1.60015E+01  1.58547E+01  1.57058E+01  1.55604E+01  1.54252E+01  1.53059E+01  1.51977E+01  1.50944E+01  1.49917E+01  1.48855E+01
   1.47784E+01  1.46712E+01  1.45629E+01  1.44521E+01  1.43360E+01  1.42129E+01  1.40820E+01  1.39532E+01  1.38355E+01  1.37256E+01
   1.36241E+01  1.35365E+01  1.34556E+01  1.33681E+01  1.32680E+01  1.31511E+01  1.30216E+01  1.28949E+01  1.27831E+01  1.26858E+01
   1.25974E+01  1.25174E+01  1.24448E+01  1.23670E+01  1.22838E+01  1.22021E+01  1.21271E+01  1.20747E+01  1.21058E+01  1.22490E+01
   1.24535E+01  1.26287E+01  1.26494E+01  1.24525E+01  1.21041E+01  1.17185E+01  1.13675E+01  1.10823E+01  1.09190E+01  1.09148E+01
   1.09301E+01  1.08777E+01  1.08102E+01  1.07415E+01  1.06742E+01  1.06066E+01  1.05397E+01  1.04750E+01  1.04139E+01  1.03594E+01
   1.03195E+01  1.03336E+01  1.04900E+01  1.07783E+01  1.11074E+01  1.13327E+01  1.12995E+01  1.09920E+01  1.05373E+01  1.00753E+01
   9.67864E+00  9.38719E+00  9.28973E+00  9.36411E+00  9.38619E+00  9.34702E+00  9.30091E+00  9.25433E+00  9.20577E+00  9.15479E+00
   9.10244E+00  9.05249E+00  9.00697E+00  8.96249E+00  8.91712E+00  8.87002E+00  8.82040E+00  8.76911E+00  8.71716E+00  8.66701E+00
   8.61973E+00  8.57494E+00  8.53189E+00  8.48795E+00  8.44232E+00  8.39425E+00  8.33836E+00  8.27318E+00  8.20346E+00  8.13901E+00
   8.09391E+00  8.06987E+00  8.05551E+00  8.03577E+00  7.99958E+00  7.94650E+00  7.88007E+00  7.80615E+00  7.73878E+00  7.68181E+00
   7.63388E+00  7.58805E+00  7.53069E+00  7.47163E+00  7.42297E+00  7.38972E+00  7.36624E+00  7.33946E+00  7.30206E+00  7.25731E+00
   7.21588E+00  7.17854E+00  7.13443E+00  7.08990E+00  7.05648E+00  7.03014E+00  7.01106E+00  6.99311E+00  6.97168E+00  6.93568E+00
   6.87917E+00  6.79992E+00  6.70286E+00  6.60522E+00  6.53066E+00  6.48802E+00  6.48352E+00  6.52927E+00  6.62222E+00  6.73650E+00
   6.83963E+00  6.89254E+00  6.85562E+00  6.72762E+00  6.49318E+00  6.14267E+00  5.75813E+00  5.46065E+00  5.32622E+00  5.39149E+00
   5.62589E+00  5.93314E+00  6.19963E+00  6.37563E+00  6.44015E+00  6.35074E+00  6.14865E+00  5.97826E+00  5.84723E+00  5.72524E+00
   5.64659E+00  5.63317E+00  5.66979E+00  5.71136E+00  5.73589E+00  5.73706E+00  5.71038E+00  5.65255E+00  5.57112E+00  5.49181E+00
   5.42161E+00  5.33252E+00  5.22495E+00  5.12798E+00  5.08232E+00  5.13195E+00  5.27498E+00  5.44264E+00  5.54922E+00  5.55179E+00
   5.42568E+00  5.17391E+00  4.88364E+00  4.67915E+00  4.57620E+00  4.56308E+00  4.64230E+00  4.78434E+00  4.91299E+00  5.00539E+00
   5.08156E+00  5.11145E+00  5.09140E+00  5.05101E+00  5.03302E+00  5.18310E+00  5.63122E+00  6.27472E+00  6.89215E+00  7.17651E+00
   6.93326E+00  6.28212E+00  5.50123E+00  4.79588E+00  4.24163E+00  3.95042E+00  4.05293E+00  4.26498E+00  4.29404E+00  4.27553E+00
   4.25725E+00  4.24105E+00  4.22680E+00  4.21372E+00  4.19784E+00  4.17692E+00  4.15099E+00  4.12204E+00  4.09215E+00  4.06431E+00
   4.03967E+00  4.01802E+00  3.99975E+00  3.98388E+00  3.96867E+00  3.95346E+00  3.93767E+00  3.92096E+00  3.90386E+00  3.88621E+00
   3.86815E+00  3.85042E+00  3.83326E+00  3.81639E+00  3.79992E+00  3.78421E+00  3.76913E+00  3.75425E+00  3.73967E+00  3.72536E+00
   3.71108E+00  3.69702E+00  3.68321E+00  3.66966E+00  3.65635E+00  3.64327E+00  3.63039E+00  3.61771E+00  3.60525E+00  3.59306E+00
   3.58113E+00  3.56949E+00  3.55820E+00  3.54725E+00  3.53665E+00  3.52644E+00  3.51664E+00  3.50729E+00  3.49844E+00  3.49013E+00
   3.48242E+00  3.47537E+00  3.46906E+00  3.46357E+00  3.45900E+00  3.45543E+00  3.45297E+00  3.45174E+00  3.45186E+00  3.45345E+00
   3.45666E+00  3.46159E+00  3.46839E+00  3.47716E+00  3.48799E+00  3.50097E+00  3.51613E+00  3.53346E+00  3.55289E+00  3.57432E+00
   3.59754E+00  3.62228E+00  3.64818E+00  3.67480E+00  3.70160E+00  3.72799E+00  3.75329E+00  3.77677E+00  3.79768E+00  3.81523E+00
   3.82869E+00  3.83735E+00  3.84057E+00  3.83781E+00  3.82866E+00  3.81285E+00  3.79027E+00  3.76097E+00  3.72516E+00  3.68320E+00
   3.63559E+00  3.58297E+00  3.52604E+00  3.46559E+00  3.40246E+00  3.33747E+00  3.27144E+00  3.20514E+00  3.13929E+00  3.07450E+00
   3.01133E+00  2.95021E+00  2.89150E+00  2.83547E+00  2.78229E+00  2.73205E+00  2.68480E+00  2.64052E+00  2.59915E+00  2.56061E+00
   2.52477E+00  2.49152E+00  2.46073E+00  2.43226E+00  2.40599E+00  2.38180E+00  2.35955E+00  2.33914E+00  2.32044E+00  2.30333E+00
   2.28769E+00  2.27337E+00  2.26023E+00  2.24810E+00  2.23678E+00  2.22607E+00  2.21574E+00  2.20554E+00  2.19521E+00  2.18448E+00
   2.17308E+00  2.16076E+00  2.14727E+00  2.13240E+00  2.11596E+00  2.09783E+00  2.07792E+00  2.05621E+00  2.03272E+00  2.00753E+00
   1.98077E+00  1.95261E+00  1.92325E+00  1.89294E+00  1.86193E+00  1.83046E+00  1.79879E+00  1.76715E+00  1.73577E+00  1.70484E+00
   1.67450E+00  1.64488E+00  1.61609E+00  1.58818E+00  1.56119E+00  1.53513E+00  1.50998E+00  1.48572E+00  1.46231E+00  1.43970E+00
   1.41783E+00  1.39665E+00  1.37610E+00  1.35611E+00  1.33664E+00  1.31762E+00  1.29903E+00  1.28079E+00  1.26289E+00  1.24528E+00
   1.22794E+00  1.21082E+00  1.19392E+00  1.17720E+00  1.16065E+00  1.14425E+00  1.12798E+00  1.11184E+00  1.09580E+00  1.07986E+00
   1.06401E+00  1.04823E+00  1.03254E+00  1.01690E+00  1.00133E+00  9.85811E-01  9.70346E-01  9.54931E-01  9.39563E-01  9.24239E-01
   9.08956E-01  8.93713E-01  8.78510E-01  8.63344E-01  8.48214E-01  8.33116E-01  8.18050E-01  8.03015E-01  7.88011E-01  7.73037E-01
   7.58092E-01  7.43174E-01  7.28283E-01  7.13420E-01  6.98584E-01  6.83774E-01  6.68990E-01  6.54229E-01  6.39494E-01  6.24783E-01
   6.10099E-01  5.95438E-01  5.80801E-01  5.66187E-01  5.51598E-01  5.37034E-01  5.22495E-01  5.07979E-01  4.93487E-01  4.79019E-01
   4.64577E-01  4.50161E-01  4.35771E-01  4.21406E-01  4.07067E-01  3.92755E-01  3.78472E-01  3.64220E-01
 NY background values follow
     2.473E+01    2.458E+01    2.442E+01    2.426E+01    2.410E+01    2.394E+01    2.379E+01    2.363E+01    2.347E+01    2.331E+01
     2.316E+01    2.300E+01    2.284E+01    2.269E+01    2.253E+01    2.237E+01    2.222E+01    2.206E+01    2.190E+01    2.175E+01
     2.159E+01    2.144E+01    2.128E+01    2.113E+01    2.098E+01    2.082E+01    2.067E+01    2.052E+01    2.037E+01    2.021E+01
     2.006E+01    1.991E+01    1.976E+01    1.962E+01    1.947E+01    1.932E+01    1.917E+01    1.903E+01    1.888E+01    1.874E+01
     1.859E+01    1.845E+01    1.831E+01    1.816E+01    1.802E+01    1.788E+01    1.774E+01    1.760E+01    1.747E+01    1.733E+01
     1.720E+01    1.706E+01    1.693E+01    1.679E+01    1.666E+01    1.653E+01    1.640E+01    1.627E+01    1.614E+01    1.602E+01
     1.589E+01    1.577E+01    1.564E+01    1.552E+01    1.540E+01    1.527E+01    1.515E+01    1.503E+01    1.492E+01    1.480E+01
     1.468E+01    1.457E+01    1.445E+01    1.434E+01    1.423E+01    1.412E+01    1.401E+01    1.390E+01    1.379E+01    1.369E+01
     1.358E+01    1.348E+01    1.337E+01    1.327E+01    1.317E+01    1.307E+01    1.297E+01    1.287E+01    1.278E+01    1.268E+01
     1.259E+01    1.249E+01    1.240E+01    1.231E+01    1.222E+01    1.213E+01    1.205E+01    1.196E+01    1.187E+01    1.179E+01
     1.171E+01    1.162E+01    1.154E+01    1.146E+01    1.138E+01    1.131E+01    1.123E+01    1.115E+01    1.108E+01    1.100E+01
     1.093E+01    1.086E+01    1.078E+01    1.071E+01    1.064E+01    1.057E+01    1.051E+01    1.044E+01    1.037E+01    1.031E+01
     1.024E+01    1.018E+01    1.011E+01    1.005E+01    9.988E+00    9.927E+00    9.866E+00    9.806E+00    9.746E+00    9.687E+00
     9.629E+00    9.571E+00    9.514E+00    9.458E+00    9.402E+00    9.347E+00    9.292E+00    9.238E+00    9.184E+00    9.131E+00
     9.078E+00    9.026E+00    8.975E+00    8.923E+00    8.873E+00    8.822E+00    8.772E+00    8.723E+00    8.674E+00    8.625E+00
     8.577E+00    8.529E+00    8.481E+00    8.434E+00    8.387E+00    8.341E+00    8.295E+00    8.249E+00    8.203E+00    8.158E+00
     8.113E+00    8.068E+00    8.023E+00    7.979E+00    7.935E+00    7.891E+00    7.847E+00    7.804E+00    7.760E+00    7.717E+00
     7.674E+00    7.631E+00    7.589E+00    7.546E+00    7.504E+00    7.461E+00    7.419E+00    7.377E+00    7.334E+00    7.292E+00
     7.250E+00    7.208E+00    7.166E+00    7.124E+00    7.082E+00    7.040E+00    6.998E+00    6.956E+00    6.915E+00    6.873E+00
     6.831E+00    6.790E+00    6.748E+00    6.707E+00    6.666E+00    6.624E+00    6.583E+00    6.542E+00    6.502E+00    6.461E+00
     6.420E+00    6.380E+00    6.340E+00    6.299E+00    6.259E+00    6.220E+00    6.180E+00    6.141E+00    6.101E+00    6.062E+00
     6.023E+00    5.985E+00    5.946E+00    5.908E+00    5.870E+00    5.832E+00    5.795E+00    5.757E+00    5.720E+00    5.683E+00
     5.647E+00    5.611E+00    5.575E+00    5.539E+00    5.503E+00    5.468E+00    5.433E+00    5.399E+00    5.365E+00    5.331E+00
     5.297E+00    5.264E+00    5.231E+00    5.198E+00    5.165E+00    5.133E+00    5.101E+00    5.070E+00    5.039E+00    5.008E+00
     4.977E+00    4.947E+00    4.917E+00    4.887E+00    4.857E+00    4.828E+00    4.799E+00    4.771E+00    4.742E+00    4.714E+00
     4.686E+00    4.659E+00    4.632E+00    4.605E+00    4.578E+00    4.552E+00    4.526E+00    4.500E+00    4.475E+00    4.449E+00
     4.425E+00    4.400E+00    4.376E+00    4.351E+00    4.328E+00    4.304E+00    4.281E+00    4.258E+00    4.235E+00    4.213E+00
     4.191E+00    4.169E+00    4.147E+00    4.126E+00    4.105E+00    4.084E+00    4.063E+00    4.043E+00    4.023E+00    4.003E+00
     3.983E+00    3.964E+00    3.945E+00    3.925E+00    3.907E+00    3.888E+00    3.870E+00    3.851E+00    3.833E+00    3.815E+00
     3.797E+00    3.780E+00    3.762E+00    3.745E+00    3.728E+00    3.711E+00    3.694E+00    3.677E+00    3.660E+00    3.643E+00
     3.627E+00    3.610E+00    3.594E+00    3.578E+00    3.561E+00    3.545E+00    3.529E+00    3.513E+00    3.497E+00    3.481E+00
     3.465E+00    3.449E+00    3.434E+00    3.418E+00    3.402E+00    3.386E+00    3.370E+00    3.354E+00    3.338E+00    3.323E+00
     3.307E+00    3.291E+00    3.275E+00    3.259E+00    3.243E+00    3.227E+00    3.211E+00    3.195E+00    3.179E+00    3.163E+00
     3.147E+00    3.130E+00    3.114E+00    3.098E+00    3.082E+00    3.065E+00    3.049E+00    3.032E+00    3.016E+00    3.000E+00
     2.983E+00    2.966E+00    2.950E+00    2.933E+00    2.916E+00    2.899E+00    2.883E+00    2.866E+00    2.849E+00    2.832E+00
     2.814E+00    2.797E+00    2.780E+00    2.763E+00    2.745E+00    2.728E+00    2.710E+00    2.693E+00    2.675E+00    2.657E+00
     2.639E+00    2.621E+00    2.603E+00    2.585E+00    2.567E+00    2.549E+00    2.530E+00    2.512E+00    2.493E+00    2.475E+00
     2.456E+00    2.438E+00    2.419E+00    2.400E+00    2.381E+00    2.363E+00    2.344E+00    2.325E+00    2.306E+00    2.287E+00
     2.268E+00    2.249E+00    2.230E+00    2.211E+00    2.193E+00    2.174E+00    2.155E+00    2.136E+00    2.117E+00    2.098E+00
     2.079E+00    2.061E+00    2.042E+00    2.023E+00    2.004E+00    1.986E+00    1.967E+00    1.949E+00    1.930E+00    1.912E+00
     1.894E+00    1.875E+00    1.857E+00    1.839E+00    1.821E+00    1.803E+00    1.785E+00    1.768E+00    1.750E+00    1.733E+00
     1.715E+00    1.698E+00    1.681E+00    1.663E+00    1.646E+00    1.629E+00    1.612E+00    1.596E+00    1.579E+00    1.562E+00
     1.546E+00    1.529E+00    1.513E+00    1.496E+00    1.480E+00    1.464E+00    1.448E+00    1.432E+00    1.416E+00    1.400E+00
     1.384E+00    1.368E+00    1.352E+00    1.336E+00    1.321E+00    1.305E+00    1.289E+00    1.274E+00    1.258E+00    1.243E+00
     1.227E+00    1.212E+00    1.197E+00    1.181E+00    1.166E+00    1.151E+00    1.135E+00    1.120E+00    1.105E+00    1.090E+00
     1.075E+00    1.060E+00    1.044E+00    1.029E+00    1.014E+00    9.992E-01    9.842E-01    9.691E-01    9.541E-01    9.391E-01
     9.241E-01    9.091E-01    8.942E-01    8.792E-01    8.643E-01    8.494E-01    8.345E-01    8.196E-01    8.047E-01    7.899E-01
     7.750E-01    7.602E-01    7.454E-01    7.306E-01    7.159E-01    7.011E-01    6.864E-01    6.716E-01    6.569E-01    6.423E-01
     6.276E-01    6.129E-01    5.983E-01    5.837E-01    5.691E-01    5.545E-01    5.399E-01    5.254E-01    5.108E-01    4.963E-01
     4.818E-01    4.673E-01    4.529E-01    4.384E-01    4.240E-01    4.096E-01    3.952E-01    3.808E-01
 Asp      Conc. = 4.89E+00
