 LCModel (Version 6.3-1L) Copyright: S.W. Provencher.          Ref.: Magn. Reson. Med. 30:672-679 (1993).                
 Slice#1 Row#14 Col#9  PD_05_press_1_raw_act
 36 lines in following concentration table = NCONC+1
    Conc.  %SD /Cr+PCr  Metabolite                                         
   17.638 129%   3.869 Ala                                                 
    0.220 509% 4.8E-02 Asp                                                 
    0.000 999%   0.000 Cr                                                  
    4.559 206%   1.000 PCr                                                 
    0.126 530% 2.8E-02 GABA                                                
    0.133 506% 2.9E-02 Glc                                                 
   43.509 105%   9.543 Gln                                                 
   26.691 187%   5.854 Glu                                                 
    0.000 999%   0.000 GPC                                                 
    0.000 999%   0.000 PCh                                                 
   10.500 151%   2.303 GSH                                                 
   63.947  73%  14.025 Ins                                                 
    0.000 999%   0.000 Lac                                                 
    0.000 999%   0.000 NAA                                                 
    0.000 999%   0.000 NAAG                                                
 5.33E-02 420% 1.2E-02 Scyllo                                              
    0.217 516% 4.8E-02 Tau                                                 
    0.000 999%   0.000 -CrCH2                                              
    0.000 999%   0.000 GPC+PCh                                             
    0.000 999%   0.000 NAA+NAAG                                            
    4.559 206%   1.000 Cr+PCr                                              
   70.200  94%  15.397 Glu+Gln                                             
    0.000 999%   0.000 Lip13a                                              
   51.322  49%  11.256 Lip13b                                              
    0.000 999%   0.000 Lip09                                               
    0.000 999%   0.000 MM09                                                
    0.000 999%   0.000 Lip20                                               
    0.000 999%   0.000 MM20                                                
 3.34E-05 999% 7.3E-06 MM12                                                
    0.000 999%   0.000 MM14                                                
 2.12E-04 999% 4.6E-05 MM17                                                
   51.322  49%  11.256 Lip13a+Lip13b                                       
   51.322  49%  11.256 MM14+Lip13a+Lip13b+MM12                             
    0.000 999%   0.000 MM09+Lip09                                          
    0.000 999%   0.000 MM20+Lip20                                          
   6 lines in following misc. output table
  FWHM = 0.046 ppm    S/N =   0                                            
  Data shift = 0.000 ppm                                                   
  Ph:  26 deg      24.9 deg/ppm                                            
  alphaB,S = 8.5E+01,   2.6E+01                                            
   14 spline knots.   Ns = 5(1)                                            
   2 inflections.     1 extrema                                            
  498 points on ppm-axis = NY
      4.000000     3.992357     3.984714     3.977070     3.969427     3.961784     3.954141     3.946497     3.938854     3.931211
      3.923568     3.915925     3.908281     3.900638     3.892995     3.885352     3.877708     3.870065     3.862422     3.854779
      3.847136     3.839492     3.831849     3.824206     3.816563     3.808919     3.801276     3.793633     3.785990     3.778347
      3.770703     3.763060     3.755417     3.747774     3.740130     3.732487     3.724844     3.717201     3.709558     3.701914
      3.694271     3.686628     3.678985     3.671341     3.663698     3.656055     3.648412     3.640769     3.633125     3.625482
      3.617839     3.610196     3.602552     3.594909     3.587266     3.579623     3.571980     3.564336     3.556693     3.549050
      3.541407     3.533763     3.526120     3.518477     3.510834     3.503191     3.495547     3.487904     3.480261     3.472618
      3.464974     3.457331     3.449688     3.442045     3.434402     3.426758     3.419115     3.411472     3.403829     3.396185
      3.388542     3.380899     3.373256     3.365613     3.357969     3.350326     3.342683     3.335040     3.327396     3.319753
      3.312110     3.304467     3.296824     3.289180     3.281537     3.273894     3.266251     3.258607     3.250964     3.243321
      3.235678     3.228034     3.220391     3.212748     3.205105     3.197462     3.189818     3.182175     3.174532     3.166889
      3.159245     3.151602     3.143959     3.136316     3.128673     3.121029     3.113386     3.105743     3.098100     3.090456
      3.082813     3.075170     3.067527     3.059884     3.052240     3.044597     3.036954     3.029311     3.021667     3.014024
      3.006381     2.998738     2.991095     2.983451     2.975808     2.968165     2.960522     2.952878     2.945235     2.937592
      2.929949     2.922306     2.914662     2.907019     2.899376     2.891733     2.884089     2.876446     2.868803     2.861160
      2.853517     2.845873     2.838230     2.830587     2.822944     2.815300     2.807657     2.800014     2.792371     2.784728
      2.777084     2.769441     2.761798     2.754155     2.746511     2.738868     2.731225     2.723582     2.715939     2.708295
      2.700652     2.693009     2.685366     2.677722     2.670079     2.662436     2.654793     2.647150     2.639506     2.631863
      2.624220     2.616577     2.608933     2.601290     2.593647     2.586004     2.578361     2.570717     2.563074     2.555431
      2.547788     2.540144     2.532501     2.524858     2.517215     2.509572     2.501928     2.494285     2.486642     2.478999
      2.471355     2.463712     2.456069     2.448426     2.440783     2.433139     2.425496     2.417853     2.410210     2.402566
      2.394923     2.387280     2.379637     2.371994     2.364350     2.356707     2.349064     2.341421     2.333777     2.326134
      2.318491     2.310848     2.303205     2.295561     2.287918     2.280275     2.272632     2.264988     2.257345     2.249702
      2.242059     2.234416     2.226772     2.219129     2.211486     2.203843     2.196199     2.188556     2.180913     2.173270
      2.165627     2.157983     2.150340     2.142697     2.135054     2.127410     2.119767     2.112124     2.104481     2.096838
      2.089194     2.081551     2.073908     2.066265     2.058621     2.050978     2.043335     2.035692     2.028049     2.020405
      2.012762     2.005119     1.997476     1.989833     1.982190     1.974546     1.966903     1.959260     1.951617     1.943974
      1.936331     1.928688     1.921045     1.913402     1.905759     1.898115     1.890472     1.882829     1.875186     1.867543
      1.859900     1.852257     1.844614     1.836971     1.829327     1.821684     1.814041     1.806398     1.798755     1.791112
      1.783469     1.775826     1.768183     1.760540     1.752896     1.745253     1.737610     1.729967     1.722324     1.714681
      1.707038     1.699395     1.691752     1.684108     1.676465     1.668822     1.661179     1.653536     1.645893     1.638250
      1.630607     1.622964     1.615321     1.607677     1.600034     1.592391     1.584748     1.577105     1.569462     1.561819
      1.554176     1.546533     1.538890     1.531246     1.523603     1.515960     1.508317     1.500674     1.493031     1.485388
      1.477745     1.470102     1.462458     1.454815     1.447172     1.439529     1.431886     1.424243     1.416600     1.408957
      1.401314     1.393671     1.386027     1.378384     1.370741     1.363098     1.355455     1.347812     1.340169     1.332526
      1.324883     1.317240     1.309596     1.301953     1.294310     1.286667     1.279024     1.271381     1.263738     1.256095
      1.248452     1.240808     1.233165     1.225522     1.217879     1.210236     1.202593     1.194950     1.187307     1.179664
      1.172021     1.164377     1.156734     1.149091     1.141448     1.133805     1.126162     1.118519     1.110876     1.103233
      1.095590     1.087946     1.080303     1.072660     1.065017     1.057374     1.049731     1.042088     1.034445     1.026802
      1.019158     1.011515     1.003872     0.996229     0.988586     0.980943     0.973300     0.965657     0.958014     0.950371
      0.942727     0.935084     0.927441     0.919798     0.912155     0.904512     0.896869     0.889226     0.881583     0.873940
      0.866296     0.858653     0.851010     0.843367     0.835724     0.828081     0.820438     0.812795     0.805152     0.797508
      0.789865     0.782222     0.774579     0.766936     0.759293     0.751650     0.744007     0.736364     0.728721     0.721077
      0.713434     0.705791     0.698148     0.690505     0.682862     0.675219     0.667576     0.659933     0.652290     0.644646
      0.637003     0.629360     0.621717     0.614074     0.606431     0.598788     0.591145     0.583502     0.575858     0.568215
      0.560572     0.552929     0.545286     0.537643     0.530000     0.522357     0.514714     0.507071     0.499427     0.491784
      0.484141     0.476498     0.468855     0.461212     0.453569     0.445925     0.438282     0.430639     0.422996     0.415353
      0.407710     0.400067     0.392424     0.384780     0.377137     0.369494     0.361851     0.354208     0.346565     0.338922
      0.331278     0.323635     0.315992     0.308349     0.300706     0.293063     0.285420     0.277777     0.270133     0.262490
      0.254847     0.247204     0.239561     0.231918     0.224275     0.216631     0.208988     0.201345
 NY phased data points follow
  -9.85438E-01 -2.94308E-01 -1.70571E+00 -7.92118E-02 -7.17314E-01  8.46310E-01  3.41157E-01 -1.17160E+00  1.20901E+00  1.33982E+00
  -3.28278E-01 -2.06751E+00 -1.41740E+00  1.00726E+00 -1.68472E+00 -1.03166E+00 -3.12451E+00 -1.74135E+00 -1.26624E+00 -1.53962E+00
  -1.54327E+00 -9.46910E-01 -1.68697E+00 -2.32551E+00 -1.84539E+00 -9.53400E-01 -3.99816E-01 -1.81170E+00 -1.42877E+00 -1.85118E-01
  -1.05723E+00 -3.02243E-01 -3.67285E-01 -4.96915E-01  8.67751E-02 -1.73409E+00 -2.08649E+00 -1.02715E+00 -6.22994E-01 -3.56505E+00
  -1.12366E+00 -1.46754E+00 -7.14106E-01 -1.72391E+00 -1.63025E+00 -5.33423E-01 -3.53804E-01  6.62388E-02  1.34383E-01 -2.17223E-01
  -2.27945E+00 -1.71634E+00 -1.82725E+00 -2.21001E+00 -5.51669E-01  1.19433E+00 -6.99616E-01  5.10646E-01 -1.42696E+00  1.58126E-02
  -1.03860E+00 -2.57517E+00 -1.14149E+00 -5.46410E-01 -2.46767E+00 -1.00256E+00 -2.03661E+00  2.14450E-02 -3.95599E-01 -1.28378E+00
  -1.03442E+00 -1.16842E+00 -1.14067E-01 -5.54807E-01 -1.69293E+00 -3.44667E-01 -2.17401E+00 -2.18844E+00 -3.03373E+00 -3.50748E-01
  -7.07300E-01 -4.76292E-01 -3.07103E-01 -1.70049E+00  1.92245E-01 -1.07483E+00  4.73374E-01 -8.65998E-01 -1.12378E+00 -9.57287E-01
  -2.53981E+00 -1.32310E+00 -1.94186E+00 -2.73959E-01 -2.44155E+00 -5.30584E-01 -2.40469E-01 -2.04423E-01 -1.29411E+00 -1.59325E+00
  -2.28980E-01 -7.79448E-01 -3.13464E+00 -4.87526E-01 -3.92433E-01 -1.00028E+00 -1.98916E+00 -1.13783E+00 -9.65225E-01  6.46447E-01
  -2.07321E+00 -4.25783E-01 -1.21573E+00 -2.68514E+00 -2.48081E+00 -1.24739E+00  9.23449E-01 -1.62235E+00 -4.35493E-01 -8.87479E-01
  -6.44638E-01 -1.79650E+00 -1.69031E+00 -2.66205E-01 -1.87669E+00 -1.63900E+00 -4.58372E-01 -2.24684E+00 -2.18413E+00 -7.44283E-01
  -1.57238E+00 -9.44724E-01 -2.13664E+00 -2.10872E+00 -1.10202E+00 -1.72543E+00 -2.50474E-02 -1.32594E+00 -1.18981E+00 -2.34444E+00
  -5.15948E-02 -4.04144E-01 -4.55834E-01  2.79159E-01 -3.99883E-01 -2.34957E-01 -1.14453E+00 -1.57028E+00  6.73754E-01 -2.19295E+00
  -1.55567E+00  5.48305E-01 -1.69027E+00 -1.56162E+00 -2.36601E+00 -1.64043E+00 -3.46202E-01 -1.46579E+00 -1.42805E+00 -1.10140E+00
  -2.16903E+00  7.66538E-01 -1.12305E+00 -2.45273E+00 -1.11991E+00 -1.65718E+00 -2.20660E+00 -7.71280E-01 -1.17557E+00 -3.06046E-01
  -1.16235E+00 -2.24822E+00 -1.72014E+00 -1.52352E+00 -1.52807E+00 -7.78289E-01 -2.79744E+00 -5.65567E-01 -1.20051E+00 -1.19717E+00
  -4.15457E-01 -6.96894E-01 -7.44088E-01 -6.20942E-01 -1.60394E+00 -5.07617E-01 -1.08321E+00 -3.66128E+00  6.28787E-01  1.51755E-03
   9.14554E-01 -1.23556E+00 -4.20313E-01 -4.11173E-01  1.27523E-02 -1.52294E+00 -3.38860E-01  9.73742E-01 -5.22808E-01 -1.70430E+00
  -8.23400E-01 -2.32113E+00 -1.74299E+00 -1.30704E-02 -8.44675E-01 -1.44384E+00 -2.49104E+00 -6.31655E-01 -3.59997E-01 -1.90051E+00
  -1.98625E+00 -2.76600E+00 -6.70541E-01 -4.50728E-01 -7.71129E-01  2.67978E-01 -6.71903E-01 -1.80633E-02 -1.43109E+00 -1.12779E+00
  -1.63866E-01 -1.99264E-02 -1.29647E+00  1.00690E-01 -2.31401E+00 -6.96358E-01 -1.10217E+00 -7.93016E-02  1.27951E+00  3.12326E-01
  -1.14433E+00 -1.48682E+00 -8.44590E-01 -1.23873E+00 -1.28540E+00 -3.02779E-01 -8.65758E-01 -8.69843E-01 -9.66627E-01 -2.56102E+00
   2.11127E-02 -2.46059E+00  2.38977E-01 -1.27427E-01 -5.96382E-01 -5.52110E-01 -1.46702E+00 -7.97861E-01 -1.40682E+00 -4.57635E-01
  -9.98998E-01 -2.13985E+00 -2.30841E+00  1.80068E-01 -1.96334E+00  6.17426E-01 -9.01412E-01 -2.07690E+00 -2.96351E+00 -1.56694E+00
  -1.20856E+00 -1.53022E+00 -2.27695E+00 -2.47593E+00 -9.76021E-01 -1.79092E+00 -7.50427E-01 -1.22361E+00 -1.13226E+00 -1.47673E+00
  -2.01923E+00 -1.52229E+00 -3.64757E-01 -1.23995E+00 -2.13953E+00  6.95155E-01  3.34210E-01 -8.58435E-01 -1.66241E+00 -1.40358E+00
  -1.17935E+00  3.42283E-01 -1.87328E+00 -2.33642E-01 -2.17656E+00  1.28731E-01 -1.45744E+00 -1.99109E-01 -4.93325E-01 -1.68153E+00
  -3.48540E-01 -1.36921E-01 -1.29176E+00 -4.71077E-01 -9.34716E-01  9.70523E-02 -1.23034E+00 -5.51926E-01 -7.82195E-01 -1.58378E-02
  -1.85790E+00 -1.54892E+00  2.88346E-02  3.59533E-01 -1.15768E+00 -7.67036E-01 -1.21308E+00 -5.64438E-01 -3.98719E-02  1.66147E-01
  -1.09393E+00  9.25682E-01  1.12283E+00  4.31973E-01 -3.66821E-02  2.30863E-01  1.13224E+00 -3.56145E-01 -3.65591E-01 -2.56537E+00
   1.85748E+00 -2.24634E-01 -8.37988E-01 -1.23286E+00  7.26953E-01 -5.72806E-01 -1.56972E+00 -2.95325E-01 -1.92030E+00 -1.35061E+00
  -9.02198E-01 -1.05206E+00 -2.02122E+00 -8.82644E-01 -1.33711E+00 -1.33245E-01 -3.45101E-01 -4.68213E-01 -1.01710E+00 -2.90245E+00
   3.20141E-02 -1.22933E+00 -1.69980E+00 -2.89358E+00  9.91613E-01 -1.60711E+00  6.29441E-01 -7.47093E-01 -9.01587E-01 -9.48400E-01
   3.63237E-02  1.25074E+00 -1.05053E+00  3.65231E-01  1.53852E-01  1.13176E+00 -1.17739E+00 -6.73125E-01  1.40831E+00 -9.09100E-02
  -2.55841E-01 -8.31394E-01 -2.93576E-01 -2.70798E-01  5.29215E-01  1.13769E+00  8.45951E-01  1.08991E+00  1.70982E-01  1.51914E+00
  -8.75427E-01  1.57651E-01  8.43344E-01  2.05204E-01  5.32991E-03  1.72376E+00  8.76023E-01 -8.11766E-01 -1.36307E+00 -7.18658E-01
  -1.26365E+00 -4.57780E-01 -4.04028E-01 -1.74369E+00 -2.10441E+00 -7.84006E-01 -1.25250E+00 -8.15518E-01  1.54443E+00 -6.63624E-01
   8.19902E-01 -1.34530E+00 -1.72077E+00 -1.03976E+00  1.28901E+00 -9.44053E-01 -1.39675E+00 -1.08859E+00 -1.20803E+00 -1.15972E+00
   1.02365E+00 -1.22975E-01 -1.73987E-01 -1.93491E-01 -7.54366E-01 -4.54458E-01 -1.24160E+00 -1.36713E+00 -1.75095E+00 -9.48696E-01
  -1.38594E+00 -1.37623E+00 -1.21515E+00 -8.91940E-01 -2.50892E+00 -2.50529E-01 -1.17706E+00 -7.84050E-01 -4.59949E-01  1.73839E+00
  -2.77965E-01 -2.77256E-01 -7.02269E-01 -1.29539E+00  2.41415E-01 -1.56617E+00 -5.44734E-01 -8.36585E-01  2.49981E-01  8.08273E-01
  -1.70780E-01 -5.94617E-01 -1.69715E-01 -2.76854E+00 -6.66142E-01  1.07205E+00 -2.00698E-01 -1.94949E-01 -1.26935E+00  9.17438E-01
   2.55754E-01  2.56466E-01 -8.92908E-01  1.37698E+00  5.24679E-01 -1.01637E+00 -4.93434E-01  4.72099E-01  2.34646E-01 -5.13792E-01
  -1.64578E+00 -8.05696E-01 -1.11678E+00  7.13805E-01  5.59508E-01  1.59155E-01 -1.67090E+00  2.95715E-01 -7.74970E-01 -5.20595E-01
  -3.67736E-01  5.39088E-01 -1.39316E+00 -6.38469E-01 -1.00826E+00  1.14629E+00 -1.73599E+00  5.78649E-01 -4.70697E-01 -1.40017E+00
  -4.13817E-01 -3.05015E-01  8.09957E-01 -4.10703E-01  5.42106E-02  2.73122E-01 -1.41737E-01 -1.85232E-01  7.40226E-04 -8.71017E-01
  -1.99205E-03  6.61165E-01 -1.12866E+00 -7.70498E-01  6.74716E-01 -2.03268E+00 -1.09699E+00 -1.85897E-01  5.68739E-01 -7.57680E-01
  -9.84617E-01  8.42897E-01 -3.57034E-01  9.32810E-01  1.67111E-01  3.57178E-01  1.09730E+00  5.89419E-01
 NY points of the fit to the data follow
  -1.12530E+00 -1.15346E+00 -1.16911E+00 -1.17339E+00 -1.16305E+00 -1.14020E+00 -1.11195E+00 -1.08513E+00 -1.06615E+00 -1.06009E+00
  -1.06859E+00 -1.08838E+00 -1.11324E+00 -1.13736E+00 -1.15482E+00 -1.16236E+00 -1.16079E+00 -1.15127E+00 -1.13341E+00 -1.10749E+00
  -1.07326E+00 -1.04176E+00 -1.03013E+00 -1.04788E+00 -1.08922E+00 -1.12574E+00 -1.13585E+00 -1.10343E+00 -1.01804E+00 -8.95952E-01
  -7.72137E-01 -6.85906E-01 -6.63073E-01 -7.07430E-01 -8.01642E-01 -9.15140E-01 -1.01847E+00 -1.09433E+00 -1.13757E+00 -1.15189E+00
  -1.14656E+00 -1.12474E+00 -1.06974E+00 -9.64431E-01 -8.23168E-01 -6.83590E-01 -5.82375E-01 -5.47270E-01 -5.91888E-01 -7.07381E-01
  -8.61271E-01 -1.00894E+00 -1.11415E+00 -1.16191E+00 -1.15429E+00 -1.10680E+00 -1.03940E+00 -9.65885E-01 -9.00825E-01 -8.57797E-01
  -8.46655E-01 -8.69930E-01 -9.18343E-01 -9.75516E-01 -1.02300E+00 -1.04745E+00 -1.04470E+00 -1.01620E+00 -9.73324E-01 -9.30436E-01
  -8.97750E-01 -8.80021E-01 -8.77728E-01 -8.88390E-01 -9.07134E-01 -9.28190E-01 -9.46695E-01 -9.59622E-01 -9.66548E-01 -9.69863E-01
  -9.72244E-01 -9.76968E-01 -9.91382E-01 -1.02055E+00 -1.06477E+00 -1.11727E+00 -1.16754E+00 -1.20413E+00 -1.21716E+00 -1.20153E+00
  -1.16122E+00 -1.10544E+00 -1.04807E+00 -1.00518E+00 -9.85783E-01 -9.90507E-01 -1.01427E+00 -1.04950E+00 -1.08772E+00 -1.12065E+00
  -1.14186E+00 -1.14849E+00 -1.14261E+00 -1.12856E+00 -1.11104E+00 -1.09315E+00 -1.07672E+00 -1.06289E+00 -1.05207E+00 -1.04384E+00
  -1.03732E+00 -1.03173E+00 -1.02677E+00 -1.02287E+00 -1.02038E+00 -1.01970E+00 -1.02056E+00 -1.02221E+00 -1.02375E+00 -1.02404E+00
  -1.02117E+00 -1.01013E+00 -9.81035E-01 -9.37232E-01 -8.89151E-01 -8.46710E-01 -8.18829E-01 -8.11002E-01 -8.21367E-01 -8.41432E-01
  -8.64870E-01 -8.88438E-01 -9.10681E-01 -9.33879E-01 -9.61067E-01 -9.89156E-01 -1.01060E+00 -1.01639E+00 -1.00449E+00 -9.79209E-01
  -9.49174E-01 -9.24185E-01 -9.10405E-01 -9.08473E-01 -9.14827E-01 -9.24474E-01 -9.33375E-01 -9.39641E-01 -9.43265E-01 -9.45654E-01
  -9.48138E-01 -9.50687E-01 -9.52512E-01 -9.53059E-01 -9.52079E-01 -9.49706E-01 -9.46496E-01 -9.43184E-01 -9.40336E-01 -9.38223E-01
  -9.36836E-01 -9.35979E-01 -9.35259E-01 -9.34337E-01 -9.33112E-01 -9.31577E-01 -9.29746E-01 -9.27577E-01 -9.24953E-01 -9.21940E-01
  -9.18969E-01 -9.16524E-01 -9.14877E-01 -9.14143E-01 -9.14284E-01 -9.15027E-01 -9.15981E-01 -9.16669E-01 -9.16806E-01 -9.16072E-01
  -9.15434E-01 -9.15916E-01 -9.17296E-01 -9.18854E-01 -9.19419E-01 -9.16382E-01 -9.06931E-01 -8.90167E-01 -8.68914E-01 -8.50900E-01
  -8.42800E-01 -8.50911E-01 -8.80104E-01 -9.27434E-01 -9.80270E-01 -1.02277E+00 -1.03891E+00 -1.01600E+00 -9.53924E-01 -8.67059E-01
  -7.71643E-01 -6.85432E-01 -6.29019E-01 -6.15883E-01 -6.51520E-01 -7.44505E-01 -8.79545E-01 -1.01597E+00 -1.11978E+00 -1.16692E+00
  -1.14277E+00 -1.04354E+00 -8.95047E-01 -7.41780E-01 -6.22125E-01 -5.59526E-01 -5.61099E-01 -6.18456E-01 -7.10724E-01 -8.09826E-01
  -8.89292E-01 -9.32978E-01 -9.33957E-01 -8.97391E-01 -8.37257E-01 -7.70901E-01 -7.17058E-01 -6.89757E-01 -6.90120E-01 -7.08604E-01
  -7.35222E-01 -7.69527E-01 -8.03967E-01 -8.23859E-01 -8.24196E-01 -8.05450E-01 -7.66953E-01 -7.15019E-01 -6.74349E-01 -6.60467E-01
  -6.78424E-01 -7.26367E-01 -7.93725E-01 -8.59470E-01 -9.05478E-01 -9.25630E-01 -9.20045E-01 -8.93705E-01 -8.55614E-01 -8.14583E-01
  -7.74390E-01 -7.38238E-01 -7.11690E-01 -6.99676E-01 -7.04440E-01 -7.22051E-01 -7.44302E-01 -7.62734E-01 -7.71248E-01 -7.66967E-01
  -7.52204E-01 -7.33329E-01 -7.15982E-01 -7.04283E-01 -6.99634E-01 -7.00716E-01 -7.04648E-01 -7.09202E-01 -7.12927E-01 -7.14570E-01
  -7.13542E-01 -7.10089E-01 -7.04714E-01 -6.98026E-01 -6.91220E-01 -6.85752E-01 -6.82585E-01 -6.81652E-01 -6.82202E-01 -6.83179E-01
  -6.83708E-01 -6.83399E-01 -6.82220E-01 -6.80374E-01 -6.78179E-01 -6.75910E-01 -6.73784E-01 -6.71891E-01 -6.70143E-01 -6.68437E-01
  -6.66722E-01 -6.64980E-01 -6.63204E-01 -6.61394E-01 -6.59556E-01 -6.57689E-01 -6.55780E-01 -6.53833E-01 -6.51837E-01 -6.49775E-01
  -6.47646E-01 -6.45448E-01 -6.43179E-01 -6.40842E-01 -6.38442E-01 -6.35979E-01 -6.33444E-01 -6.30824E-01 -6.28094E-01 -6.25223E-01
  -6.22176E-01 -6.18909E-01 -6.15366E-01 -6.11470E-01 -6.07117E-01 -6.02159E-01 -5.96375E-01 -5.89423E-01 -5.80743E-01 -5.69325E-01
  -5.53047E-01 -5.26390E-01 -4.81098E-01 -4.33414E-01 -4.08022E-01 -4.17584E-01 -4.67299E-01 -5.54660E-01 -6.68096E-01 -7.88013E-01
  -8.75690E-01 -8.97409E-01 -8.51315E-01 -7.54622E-01 -6.35612E-01 -5.22703E-01 -4.37506E-01 -3.92549E-01 -3.87379E-01 -4.09903E-01
  -4.42390E-01 -4.68081E-01 -4.79881E-01 -4.80118E-01 -4.71740E-01 -4.55462E-01 -4.31026E-01 -3.97985E-01 -3.56164E-01 -3.06031E-01
  -2.48989E-01 -1.87537E-01 -1.25244E-01 -6.64902E-02 -1.59903E-02  2.18354E-02  4.35271E-02  4.71408E-02  3.25677E-02  1.53823E-03
  -4.26870E-02 -9.58635E-02 -1.53421E-01 -2.11088E-01 -2.65377E-01 -3.13846E-01 -3.55152E-01 -3.88925E-01 -4.15533E-01 -4.35811E-01
  -4.50812E-01 -4.61619E-01 -4.69216E-01 -4.74430E-01 -4.77911E-01 -4.80149E-01 -4.81497E-01 -4.82203E-01 -4.82442E-01 -4.82331E-01
  -4.81955E-01 -4.81372E-01 -4.80622E-01 -4.79738E-01 -4.78741E-01 -4.77650E-01 -4.76479E-01 -4.75240E-01 -4.73941E-01 -4.72590E-01
  -4.71193E-01 -4.69756E-01 -4.68283E-01 -4.66779E-01 -4.65245E-01 -4.63686E-01 -4.62103E-01 -4.60500E-01 -4.58877E-01 -4.57237E-01
  -4.55581E-01 -4.53910E-01 -4.52226E-01 -4.50530E-01 -4.48821E-01 -4.47103E-01 -4.45374E-01 -4.43636E-01 -4.41889E-01 -4.40135E-01
  -4.38373E-01 -4.36604E-01 -4.34829E-01 -4.33048E-01 -4.31261E-01 -4.29469E-01 -4.27672E-01 -4.25871E-01 -4.24065E-01 -4.22255E-01
  -4.20440E-01 -4.18622E-01 -4.16800E-01 -4.14974E-01 -4.13145E-01 -4.11313E-01 -4.09478E-01 -4.07641E-01 -4.05801E-01 -4.03958E-01
  -4.02113E-01 -4.00266E-01 -3.98417E-01 -3.96565E-01 -3.94712E-01 -3.92856E-01 -3.90999E-01 -3.89140E-01 -3.87280E-01 -3.85418E-01
  -3.83554E-01 -3.81688E-01 -3.79822E-01 -3.77953E-01 -3.76084E-01 -3.74213E-01 -3.72341E-01 -3.70467E-01 -3.68593E-01 -3.66718E-01
  -3.64842E-01 -3.62966E-01 -3.61088E-01 -3.59209E-01 -3.57329E-01 -3.55449E-01 -3.53567E-01 -3.51685E-01 -3.49802E-01 -3.47919E-01
  -3.46035E-01 -3.44150E-01 -3.42264E-01 -3.40378E-01 -3.38491E-01 -3.36603E-01 -3.34714E-01 -3.32825E-01 -3.30936E-01 -3.29047E-01
  -3.27157E-01 -3.25266E-01 -3.23376E-01 -3.21484E-01 -3.19593E-01 -3.17700E-01 -3.15808E-01 -3.13915E-01 -3.12022E-01 -3.10129E-01
  -3.08235E-01 -3.06342E-01 -3.04448E-01 -3.02554E-01 -3.00660E-01 -2.98765E-01 -2.96871E-01 -2.94976E-01 -2.93082E-01 -2.91187E-01
  -2.89293E-01 -2.87398E-01 -2.85503E-01 -2.83609E-01 -2.81714E-01 -2.79820E-01 -2.77925E-01 -2.76031E-01
 NY background values follow
    -1.239E+00   -1.237E+00   -1.236E+00   -1.234E+00   -1.232E+00   -1.230E+00   -1.228E+00   -1.226E+00   -1.224E+00   -1.222E+00
    -1.220E+00   -1.218E+00   -1.216E+00   -1.214E+00   -1.212E+00   -1.210E+00   -1.208E+00   -1.207E+00   -1.205E+00   -1.203E+00
    -1.201E+00   -1.199E+00   -1.197E+00   -1.195E+00   -1.193E+00   -1.191E+00   -1.189E+00   -1.187E+00   -1.185E+00   -1.183E+00
    -1.181E+00   -1.179E+00   -1.178E+00   -1.176E+00   -1.174E+00   -1.172E+00   -1.170E+00   -1.168E+00   -1.166E+00   -1.164E+00
    -1.162E+00   -1.160E+00   -1.158E+00   -1.156E+00   -1.154E+00   -1.152E+00   -1.150E+00   -1.149E+00   -1.147E+00   -1.145E+00
    -1.143E+00   -1.141E+00   -1.139E+00   -1.137E+00   -1.135E+00   -1.133E+00   -1.131E+00   -1.129E+00   -1.127E+00   -1.125E+00
    -1.123E+00   -1.121E+00   -1.120E+00   -1.118E+00   -1.116E+00   -1.114E+00   -1.112E+00   -1.110E+00   -1.108E+00   -1.106E+00
    -1.104E+00   -1.102E+00   -1.100E+00   -1.098E+00   -1.096E+00   -1.094E+00   -1.092E+00   -1.091E+00   -1.089E+00   -1.087E+00
    -1.085E+00   -1.083E+00   -1.081E+00   -1.079E+00   -1.077E+00   -1.075E+00   -1.073E+00   -1.071E+00   -1.069E+00   -1.067E+00
    -1.065E+00   -1.063E+00   -1.062E+00   -1.060E+00   -1.058E+00   -1.056E+00   -1.054E+00   -1.052E+00   -1.050E+00   -1.048E+00
    -1.046E+00   -1.044E+00   -1.042E+00   -1.040E+00   -1.038E+00   -1.036E+00   -1.034E+00   -1.033E+00   -1.031E+00   -1.029E+00
    -1.027E+00   -1.025E+00   -1.023E+00   -1.021E+00   -1.019E+00   -1.017E+00   -1.015E+00   -1.013E+00   -1.011E+00   -1.009E+00
    -1.007E+00   -1.005E+00   -1.004E+00   -1.002E+00   -9.997E-01   -9.977E-01   -9.958E-01   -9.939E-01   -9.919E-01   -9.900E-01
    -9.881E-01   -9.861E-01   -9.842E-01   -9.823E-01   -9.803E-01   -9.784E-01   -9.765E-01   -9.745E-01   -9.726E-01   -9.707E-01
    -9.687E-01   -9.668E-01   -9.649E-01   -9.629E-01   -9.610E-01   -9.591E-01   -9.571E-01   -9.552E-01   -9.533E-01   -9.513E-01
    -9.494E-01   -9.475E-01   -9.455E-01   -9.436E-01   -9.417E-01   -9.397E-01   -9.378E-01   -9.359E-01   -9.339E-01   -9.320E-01
    -9.301E-01   -9.281E-01   -9.262E-01   -9.243E-01   -9.223E-01   -9.204E-01   -9.185E-01   -9.165E-01   -9.146E-01   -9.127E-01
    -9.107E-01   -9.088E-01   -9.069E-01   -9.049E-01   -9.030E-01   -9.011E-01   -8.991E-01   -8.972E-01   -8.953E-01   -8.933E-01
    -8.914E-01   -8.895E-01   -8.875E-01   -8.856E-01   -8.837E-01   -8.817E-01   -8.798E-01   -8.779E-01   -8.759E-01   -8.740E-01
    -8.721E-01   -8.702E-01   -8.682E-01   -8.663E-01   -8.644E-01   -8.624E-01   -8.605E-01   -8.586E-01   -8.566E-01   -8.547E-01
    -8.528E-01   -8.508E-01   -8.489E-01   -8.470E-01   -8.450E-01   -8.431E-01   -8.412E-01   -8.392E-01   -8.373E-01   -8.354E-01
    -8.334E-01   -8.315E-01   -8.296E-01   -8.276E-01   -8.257E-01   -8.238E-01   -8.218E-01   -8.199E-01   -8.180E-01   -8.160E-01
    -8.141E-01   -8.122E-01   -8.102E-01   -8.083E-01   -8.064E-01   -8.044E-01   -8.025E-01   -8.006E-01   -7.986E-01   -7.967E-01
    -7.948E-01   -7.928E-01   -7.909E-01   -7.890E-01   -7.870E-01   -7.851E-01   -7.832E-01   -7.812E-01   -7.793E-01   -7.774E-01
    -7.754E-01   -7.735E-01   -7.716E-01   -7.696E-01   -7.677E-01   -7.658E-01   -7.638E-01   -7.619E-01   -7.600E-01   -7.580E-01
    -7.561E-01   -7.542E-01   -7.523E-01   -7.503E-01   -7.484E-01   -7.465E-01   -7.445E-01   -7.426E-01   -7.407E-01   -7.387E-01
    -7.368E-01   -7.349E-01   -7.329E-01   -7.310E-01   -7.291E-01   -7.271E-01   -7.252E-01   -7.233E-01   -7.213E-01   -7.194E-01
    -7.175E-01   -7.155E-01   -7.136E-01   -7.117E-01   -7.097E-01   -7.078E-01   -7.059E-01   -7.039E-01   -7.020E-01   -7.001E-01
    -6.981E-01   -6.962E-01   -6.943E-01   -6.923E-01   -6.904E-01   -6.885E-01   -6.865E-01   -6.846E-01   -6.827E-01   -6.807E-01
    -6.788E-01   -6.769E-01   -6.749E-01   -6.730E-01   -6.711E-01   -6.691E-01   -6.672E-01   -6.653E-01   -6.634E-01   -6.614E-01
    -6.595E-01   -6.576E-01   -6.556E-01   -6.537E-01   -6.518E-01   -6.498E-01   -6.479E-01   -6.460E-01   -6.440E-01   -6.421E-01
    -6.402E-01   -6.382E-01   -6.363E-01   -6.344E-01   -6.324E-01   -6.305E-01   -6.286E-01   -6.266E-01   -6.247E-01   -6.228E-01
    -6.208E-01   -6.189E-01   -6.170E-01   -6.150E-01   -6.131E-01   -6.112E-01   -6.092E-01   -6.073E-01   -6.054E-01   -6.034E-01
    -6.015E-01   -5.996E-01   -5.977E-01   -5.957E-01   -5.938E-01   -5.919E-01   -5.899E-01   -5.880E-01   -5.861E-01   -5.841E-01
    -5.822E-01   -5.803E-01   -5.783E-01   -5.764E-01   -5.745E-01   -5.725E-01   -5.706E-01   -5.687E-01   -5.667E-01   -5.648E-01
    -5.629E-01   -5.609E-01   -5.590E-01   -5.571E-01   -5.551E-01   -5.532E-01   -5.513E-01   -5.493E-01   -5.474E-01   -5.455E-01
    -5.435E-01   -5.416E-01   -5.397E-01   -5.378E-01   -5.358E-01   -5.339E-01   -5.320E-01   -5.300E-01   -5.281E-01   -5.262E-01
    -5.242E-01   -5.223E-01   -5.204E-01   -5.184E-01   -5.165E-01   -5.146E-01   -5.126E-01   -5.107E-01   -5.088E-01   -5.068E-01
    -5.049E-01   -5.030E-01   -5.010E-01   -4.991E-01   -4.972E-01   -4.952E-01   -4.933E-01   -4.914E-01   -4.895E-01   -4.875E-01
    -4.856E-01   -4.837E-01   -4.817E-01   -4.798E-01   -4.779E-01   -4.759E-01   -4.740E-01   -4.721E-01   -4.701E-01   -4.682E-01
    -4.663E-01   -4.643E-01   -4.624E-01   -4.605E-01   -4.585E-01   -4.566E-01   -4.547E-01   -4.527E-01   -4.508E-01   -4.489E-01
    -4.469E-01   -4.450E-01   -4.431E-01   -4.412E-01   -4.392E-01   -4.373E-01   -4.354E-01   -4.334E-01   -4.315E-01   -4.296E-01
    -4.276E-01   -4.257E-01   -4.238E-01   -4.218E-01   -4.199E-01   -4.180E-01   -4.160E-01   -4.141E-01   -4.122E-01   -4.102E-01
    -4.083E-01   -4.064E-01   -4.045E-01   -4.025E-01   -4.006E-01   -3.987E-01   -3.967E-01   -3.948E-01   -3.929E-01   -3.909E-01
    -3.890E-01   -3.871E-01   -3.851E-01   -3.832E-01   -3.813E-01   -3.793E-01   -3.774E-01   -3.755E-01   -3.735E-01   -3.716E-01
    -3.697E-01   -3.678E-01   -3.658E-01   -3.639E-01   -3.620E-01   -3.600E-01   -3.581E-01   -3.562E-01   -3.542E-01   -3.523E-01
    -3.504E-01   -3.484E-01   -3.465E-01   -3.446E-01   -3.426E-01   -3.407E-01   -3.388E-01   -3.368E-01   -3.349E-01   -3.330E-01
    -3.311E-01   -3.291E-01   -3.272E-01   -3.253E-01   -3.233E-01   -3.214E-01   -3.195E-01   -3.175E-01   -3.156E-01   -3.137E-01
    -3.117E-01   -3.098E-01   -3.079E-01   -3.059E-01   -3.040E-01   -3.021E-01   -3.002E-01   -2.982E-01   -2.963E-01   -2.944E-01
    -2.924E-01   -2.905E-01   -2.886E-01   -2.866E-01   -2.847E-01   -2.828E-01   -2.808E-01   -2.789E-01
 Ala      Conc. = 1.76E+01
