 LCModel (Version 6.3-1L) Copyright: S.W. Provencher.          Ref.: Magn. Reson. Med. 30:672-679 (1993).                
 Slice#3 Row#11 Col#8  PD_05_press_1_raw_act
 36 lines in following concentration table = NCONC+1
    Conc.  %SD /Cr+PCr  Metabolite                                         
    0.000 999%   0.000 Ala                                                 
    0.000 999%   0.000 Asp                                                 
    0.000 999%   0.000 Cr                                                  
 1.06E+03   5%   1.000 PCr                                                 
   83.186 143% 7.8E-02 GABA                                                
    0.000 999%   0.000 Glc                                                 
 2.58E+03  17%   2.434 Gln                                                 
 2.66E+03  19%   2.507 Glu                                                 
  268.753   7%   0.253 GPC                                                 
    0.000 999%   0.000 PCh                                                 
  340.862  23%   0.321 GSH                                                 
  459.786  51%   0.433 Ins                                                 
    0.000 999%   0.000 Lac                                                 
 1.25E+03  12%   1.174 NAA                                                 
  375.261  45%   0.354 NAAG                                                
    0.000 999%   0.000 Scyllo                                              
    0.000 999%   0.000 Tau                                                 
    0.000 999%   0.000 -CrCH2                                              
  268.753   7%   0.253 GPC+PCh                                             
 1.62E+03   5%   1.528 NAA+NAAG                                            
 1.06E+03   5%   1.000 Cr+PCr                                              
 5.24E+03  16%   4.941 Glu+Gln                                             
  688.780  59%   0.649 Lip13a                                              
  166.795  70%   0.157 Lip13b                                              
   46.544 352% 4.4E-02 Lip09                                               
  748.579  26%   0.705 MM09                                                
  150.050  76%   0.141 Lip20                                               
 1.37E+03  23%   1.287 MM20                                                
  285.627  41%   0.269 MM12                                                
 1.02E+03  24%   0.964 MM14                                                
  751.337  24%   0.708 MM17                                                
  855.575  40%   0.806 Lip13a+Lip13b                                       
 2.16E+03  14%   2.039 MM14+Lip13a+Lip13b+MM12                             
  795.123  17%   0.749 MM09+Lip09                                          
 1.52E+03  20%   1.429 MM20+Lip20                                          
   6 lines in following misc. output table
  FWHM = 0.084 ppm    S/N =   8                                            
  Data shift = 0.061 ppm                                                   
  Ph:   7 deg      -0.7 deg/ppm                                            
  alphaB,S = 8.6E-01,   1.9E+01                                            
   14 spline knots.   Ns =10(1)                                            
  (15)13 infls.   (17) 7 extrs.                                            
  498 points on ppm-axis = NY
      4.000000     3.992357     3.984714     3.977070     3.969427     3.961784     3.954141     3.946497     3.938854     3.931211
      3.923568     3.915925     3.908281     3.900638     3.892995     3.885352     3.877708     3.870065     3.862422     3.854779
      3.847136     3.839492     3.831849     3.824206     3.816563     3.808919     3.801276     3.793633     3.785990     3.778347
      3.770703     3.763060     3.755417     3.747774     3.740130     3.732487     3.724844     3.717201     3.709558     3.701914
      3.694271     3.686628     3.678985     3.671341     3.663698     3.656055     3.648412     3.640769     3.633125     3.625482
      3.617839     3.610196     3.602552     3.594909     3.587266     3.579623     3.571980     3.564336     3.556693     3.549050
      3.541407     3.533763     3.526120     3.518477     3.510834     3.503191     3.495547     3.487904     3.480261     3.472618
      3.464974     3.457331     3.449688     3.442045     3.434402     3.426758     3.419115     3.411472     3.403829     3.396185
      3.388542     3.380899     3.373256     3.365613     3.357969     3.350326     3.342683     3.335040     3.327396     3.319753
      3.312110     3.304467     3.296824     3.289180     3.281537     3.273894     3.266251     3.258607     3.250964     3.243321
      3.235678     3.228034     3.220391     3.212748     3.205105     3.197462     3.189818     3.182175     3.174532     3.166889
      3.159245     3.151602     3.143959     3.136316     3.128673     3.121029     3.113386     3.105743     3.098100     3.090456
      3.082813     3.075170     3.067527     3.059884     3.052240     3.044597     3.036954     3.029311     3.021667     3.014024
      3.006381     2.998738     2.991095     2.983451     2.975808     2.968165     2.960522     2.952878     2.945235     2.937592
      2.929949     2.922306     2.914662     2.907019     2.899376     2.891733     2.884089     2.876446     2.868803     2.861160
      2.853517     2.845873     2.838230     2.830587     2.822944     2.815300     2.807657     2.800014     2.792371     2.784728
      2.777084     2.769441     2.761798     2.754155     2.746511     2.738868     2.731225     2.723582     2.715939     2.708295
      2.700652     2.693009     2.685366     2.677722     2.670079     2.662436     2.654793     2.647150     2.639506     2.631863
      2.624220     2.616577     2.608933     2.601290     2.593647     2.586004     2.578361     2.570717     2.563074     2.555431
      2.547788     2.540144     2.532501     2.524858     2.517215     2.509572     2.501928     2.494285     2.486642     2.478999
      2.471355     2.463712     2.456069     2.448426     2.440783     2.433139     2.425496     2.417853     2.410210     2.402566
      2.394923     2.387280     2.379637     2.371994     2.364350     2.356707     2.349064     2.341421     2.333777     2.326134
      2.318491     2.310848     2.303205     2.295561     2.287918     2.280275     2.272632     2.264988     2.257345     2.249702
      2.242059     2.234416     2.226772     2.219129     2.211486     2.203843     2.196199     2.188556     2.180913     2.173270
      2.165627     2.157983     2.150340     2.142697     2.135054     2.127410     2.119767     2.112124     2.104481     2.096838
      2.089194     2.081551     2.073908     2.066265     2.058621     2.050978     2.043335     2.035692     2.028049     2.020405
      2.012762     2.005119     1.997476     1.989833     1.982190     1.974546     1.966903     1.959260     1.951617     1.943974
      1.936331     1.928688     1.921045     1.913402     1.905759     1.898115     1.890472     1.882829     1.875186     1.867543
      1.859900     1.852257     1.844614     1.836971     1.829327     1.821684     1.814041     1.806398     1.798755     1.791112
      1.783469     1.775826     1.768183     1.760540     1.752896     1.745253     1.737610     1.729967     1.722324     1.714681
      1.707038     1.699395     1.691752     1.684108     1.676465     1.668822     1.661179     1.653536     1.645893     1.638250
      1.630607     1.622964     1.615321     1.607677     1.600034     1.592391     1.584748     1.577105     1.569462     1.561819
      1.554176     1.546533     1.538890     1.531246     1.523603     1.515960     1.508317     1.500674     1.493031     1.485388
      1.477745     1.470102     1.462458     1.454815     1.447172     1.439529     1.431886     1.424243     1.416600     1.408957
      1.401314     1.393671     1.386027     1.378384     1.370741     1.363098     1.355455     1.347812     1.340169     1.332526
      1.324883     1.317240     1.309596     1.301953     1.294310     1.286667     1.279024     1.271381     1.263738     1.256095
      1.248452     1.240808     1.233165     1.225522     1.217879     1.210236     1.202593     1.194950     1.187307     1.179664
      1.172021     1.164377     1.156734     1.149091     1.141448     1.133805     1.126162     1.118519     1.110876     1.103233
      1.095590     1.087946     1.080303     1.072660     1.065017     1.057374     1.049731     1.042088     1.034445     1.026802
      1.019158     1.011515     1.003872     0.996229     0.988586     0.980943     0.973300     0.965657     0.958014     0.950371
      0.942727     0.935084     0.927441     0.919798     0.912155     0.904512     0.896869     0.889226     0.881583     0.873940
      0.866296     0.858653     0.851010     0.843367     0.835724     0.828081     0.820438     0.812795     0.805152     0.797508
      0.789865     0.782222     0.774579     0.766936     0.759293     0.751650     0.744007     0.736364     0.728721     0.721077
      0.713434     0.705791     0.698148     0.690505     0.682862     0.675219     0.667576     0.659933     0.652290     0.644646
      0.637003     0.629360     0.621717     0.614074     0.606431     0.598788     0.591145     0.583502     0.575858     0.568215
      0.560572     0.552929     0.545286     0.537643     0.530000     0.522357     0.514714     0.507071     0.499427     0.491784
      0.484141     0.476498     0.468855     0.461212     0.453569     0.445925     0.438282     0.430639     0.422996     0.415353
      0.407710     0.400067     0.392424     0.384780     0.377137     0.369494     0.361851     0.354208     0.346565     0.338922
      0.331278     0.323635     0.315992     0.308349     0.300706     0.293063     0.285420     0.277777     0.270133     0.262490
      0.254847     0.247204     0.239561     0.231918     0.224275     0.216631     0.208988     0.201345
 NY phased data points follow
   2.24101E+01  2.10716E+01  2.72618E+01  2.36725E+01  2.65446E+01  3.13819E+01  3.05909E+01  3.40398E+01  3.64487E+01  3.60066E+01
   3.92614E+01  3.36498E+01  3.77940E+01  3.25807E+01  2.68904E+01  3.08690E+01  2.75359E+01  2.82288E+01  2.54274E+01  2.51864E+01
   2.63572E+01  2.09550E+01  2.31328E+01  2.29973E+01  2.45663E+01  2.37443E+01  2.21857E+01  2.38446E+01  2.17183E+01  2.35725E+01
   2.48673E+01  2.22349E+01  1.81831E+01  2.41757E+01  2.04228E+01  2.16469E+01  2.35914E+01  1.81787E+01  2.05126E+01  1.76569E+01
   1.66068E+01  2.06893E+01  1.89499E+01  1.92702E+01  1.69461E+01  2.53509E+01  1.95575E+01  1.97379E+01  2.08889E+01  1.75317E+01
   1.73106E+01  1.84194E+01  1.72252E+01  1.29900E+01  1.82409E+01  1.59580E+01  1.57936E+01  1.50511E+01  1.23015E+01  1.27401E+01
   1.36073E+01  1.27537E+01  1.13553E+01  9.87933E+00  1.17817E+01  1.09012E+01  6.28544E+00  9.92142E+00  9.74043E+00  9.12817E+00
   1.02192E+01  6.25895E+00  8.39029E+00  8.20101E+00  9.04477E+00  8.98217E+00  1.10001E+01  7.09690E+00  7.95907E+00  9.73993E+00
   7.53921E+00  5.56078E+00  5.47733E+00  7.05075E+00  4.53189E+00  9.49519E+00  7.39474E+00  8.61536E+00  1.13752E+01  1.08131E+01
   7.85387E+00  9.15810E+00  1.01186E+01  8.77279E+00  9.75909E+00  9.58689E+00  1.06545E+01  1.03312E+01  1.36452E+01  1.35755E+01
   1.77272E+01  2.56180E+01  2.07392E+01  2.36914E+01  2.32548E+01  2.01959E+01  2.20228E+01  2.40788E+01  1.77303E+01  1.93752E+01
   1.41391E+01  1.55991E+01  7.65444E+00  1.30058E+01  1.14716E+01  1.12445E+01  9.14094E+00  1.10758E+01  1.09116E+01  1.26817E+01
   1.14068E+01  1.16346E+01  1.55680E+01  1.72468E+01  2.27677E+01  2.59776E+01  2.73634E+01  2.84775E+01  2.91774E+01  2.46371E+01
   2.31541E+01  2.10847E+01  2.29613E+01  1.91097E+01  1.96592E+01  1.50349E+01  1.03937E+01  1.49443E+01  1.25677E+01  1.33467E+01
   9.95361E+00  1.05675E+01  9.64647E+00  5.31521E+00  8.45982E+00  3.63804E+00  4.45303E+00  5.52448E+00  6.13091E+00  3.27733E+00
   1.81046E+00  4.72308E+00  6.06787E+00  5.58483E+00  6.21226E+00  3.63790E+00  7.38746E+00  2.99223E+00  2.99792E+00  3.05650E+00
   4.49345E+00  2.59438E+00  2.97330E+00  4.71821E+00  4.38135E+00  1.96143E+00 -1.59668E+00  3.43509E+00  3.44849E+00  3.93591E+00
  -1.66116E+00  1.21157E+00 -6.60553E-02 -9.09643E-01 -5.69690E-01 -4.47608E+00 -1.50047E+00 -2.53495E+00 -4.46269E+00 -2.65349E+00
  -1.95353E+00 -3.26854E+00  1.02074E+00  7.60034E-01 -6.15214E+00 -4.82533E+00 -3.30690E+00 -3.66412E+00  1.55265E+00  2.84078E-01
   5.98220E-01  5.38181E+00  7.08451E+00  2.16852E+00  8.27557E+00  2.37736E+00  3.31934E+00  1.59019E+00 -2.23360E+00 -1.32421E+00
   5.64757E+00  3.94839E+00  3.62264E+00  5.37439E+00  6.69388E+00 -2.17882E+00 -7.39042E-01  1.37316E+00 -4.65733E-01  1.63985E+00
  -3.57555E+00 -1.45264E+00  4.85916E+00  5.40078E+00  5.09296E+00  4.27845E+00  4.34276E+00  5.26960E+00  3.66775E+00  2.97530E+00
   5.98572E+00  1.74445E+00  5.09540E+00  1.70821E+00  2.35990E+00  4.24535E+00  4.84312E+00  6.06508E+00  5.93064E+00  6.84031E+00
   7.19658E+00  6.25723E+00  4.48282E+00  6.37727E+00  9.10224E+00  6.71505E+00  8.96578E+00  5.43187E+00  4.45414E+00  2.61664E+00
   2.24705E+00  6.65236E+00  8.19828E+00  9.69800E+00  6.00934E+00  6.14716E+00  6.06838E+00  5.93073E+00  9.68048E+00  8.40213E+00
   1.06954E+01  1.04073E+01  1.15307E+01  1.89289E+01  2.09956E+01  2.37135E+01  3.06798E+01  3.55835E+01  4.22810E+01  3.95628E+01
   3.65217E+01  4.34391E+01  3.90643E+01  3.51866E+01  3.05477E+01  2.57767E+01  2.40183E+01  2.04433E+01  1.38631E+01  1.34793E+01
   9.00192E+00  9.79126E+00  1.08040E+01  8.22196E+00  8.86905E+00  2.28635E+00  8.60976E+00  9.35080E+00  6.81878E+00  4.87281E+00
   5.84901E+00  4.39232E+00  3.87262E+00  3.51809E+00  6.10374E+00  2.34231E+00  6.06774E+00  4.33924E+00  5.09044E+00  7.51164E+00
   4.98242E+00  4.81189E+00  7.77124E+00  4.70375E+00  6.64630E+00  8.95088E+00  4.74775E+00  6.20402E+00  7.64941E+00  3.54704E+00
   5.54300E+00  9.68158E-01  3.35134E+00  6.00616E+00  8.09605E+00  1.15750E+01  9.46443E+00  5.71764E+00  4.66340E+00  7.65646E+00
   1.01927E+01  9.93868E+00  8.89918E+00  9.82046E+00  9.84063E+00  4.27311E+00  5.74184E+00  6.54682E+00  4.19568E+00  6.56519E+00
   6.89428E+00  1.00255E+01  7.90511E+00  6.31609E+00  8.88512E+00  9.62586E+00  8.93846E+00  9.41106E+00  7.84958E+00  5.05294E+00
   6.91540E+00  8.74676E+00  9.05717E+00  8.96636E+00  6.62322E+00  7.57483E+00  4.95443E+00  1.01501E+01  9.84288E+00  9.02572E+00
   9.05983E+00  6.03590E+00  2.69396E+00  7.79231E+00  4.53244E+00  4.99396E+00  6.42162E+00  6.61223E+00  8.26973E+00  7.86911E+00
   7.62052E+00  7.56093E+00  8.34096E+00  1.40252E+01  7.41458E+00  9.88597E+00  1.06300E+01  8.81354E+00  8.02194E+00  1.11779E+01
   5.71116E+00  6.64399E+00  5.79362E+00  5.81027E+00  7.47153E+00  4.27434E+00  3.69197E+00  8.16779E+00  8.63284E+00  1.12889E+01
   5.08606E+00  5.11804E+00  6.56292E+00  5.95544E+00  6.21277E+00  3.85998E+00  4.94546E+00  4.74542E+00  4.94597E+00  8.75612E+00
   4.90016E+00  4.79280E+00  7.08723E+00  3.66294E+00  3.58111E+00  7.35983E+00  3.88062E+00  5.05980E+00  6.40869E+00  7.87269E+00
   6.23734E+00  3.27131E+00  5.15028E+00  8.27546E+00  3.29634E+00  4.86420E+00  5.51042E+00  7.52228E+00  4.89170E+00  3.54845E+00
   5.68531E+00  6.29737E+00  3.92679E+00  4.77665E+00  4.87303E+00  1.00180E+01  6.17252E+00  7.73185E+00  6.92560E+00  7.72203E+00
   4.42236E+00  6.74178E+00  8.63987E+00  9.68220E+00  4.45753E+00  5.41327E+00  6.13209E+00  2.09014E+00  6.84353E+00  6.54263E+00
   2.21192E+00  1.09873E+00  4.01736E+00  2.42829E+00  3.67650E+00  1.24016E+00  2.81035E+00 -1.64035E+00  1.82033E+00  2.40627E+00
   1.41120E+00  6.37797E+00  1.45232E-01  3.49523E+00  4.88864E+00  7.90152E-01  3.84948E+00  5.53132E+00  3.96058E-01 -1.82964E+00
   4.89247E-01  2.76724E+00  3.18271E+00  5.23359E-02  1.83079E-01  1.70904E+00  4.97638E+00  1.91106E+00  5.88642E-01  2.38726E+00
   1.69851E+00  2.72861E+00 -3.80234E-01  2.44515E+00  1.65821E+00  2.08578E+00  4.76507E-01 -1.06935E+00  2.66303E+00  5.03751E+00
   1.98595E+00  3.49179E+00  2.12064E+00  5.93936E-01 -2.53974E+00  1.68379E+00  2.03234E+00  2.25228E+00  1.80058E+00  3.21377E+00
   2.02608E+00  2.20662E+00 -2.44748E-01  3.23591E+00  6.57401E-01  6.80870E-01  9.37096E-01  5.21125E+00  2.39959E+00  1.66975E+00
   1.76865E+00 -5.27569E-01 -1.65156E+00  1.10258E+00  1.21870E+00  3.15704E+00 -1.35485E+00  2.41336E+00  1.18133E+00  4.87517E+00
   1.29474E+00  1.52086E+00  8.34222E-01  7.17112E-01  2.84446E+00  1.08958E+00  2.81746E+00 -2.35878E-01
 NY points of the fit to the data follow
   2.23223E+01  2.24944E+01  2.35077E+01  2.41840E+01  2.54287E+01  2.77806E+01  3.04788E+01  3.26395E+01  3.28770E+01  3.30886E+01
   3.42973E+01  3.40733E+01  3.27573E+01  3.15483E+01  3.02561E+01  2.92973E+01  2.77528E+01  2.54452E+01  2.38222E+01  2.38830E+01
   2.35057E+01  2.17581E+01  2.17324E+01  2.11369E+01  2.06189E+01  2.06392E+01  2.12146E+01  2.20105E+01  2.24601E+01  2.39712E+01
   2.52707E+01  2.50116E+01  2.45485E+01  2.37392E+01  2.26076E+01  2.17366E+01  2.07341E+01  1.97479E+01  1.89084E+01  1.86519E+01
   1.84249E+01  1.81082E+01  1.84347E+01  1.82471E+01  1.80937E+01  1.81295E+01  1.80225E+01  1.77265E+01  1.75933E+01  1.77770E+01
   1.74651E+01  1.66180E+01  1.59205E+01  1.54531E+01  1.49369E+01  1.42973E+01  1.40098E+01  1.39722E+01  1.36428E+01  1.31929E+01
   1.29082E+01  1.27485E+01  1.25602E+01  1.23146E+01  1.21065E+01  1.19490E+01  1.17924E+01  1.16248E+01  1.15018E+01  1.14514E+01
   1.13483E+01  1.12019E+01  1.10924E+01  1.09666E+01  1.08358E+01  1.06981E+01  1.05433E+01  1.03784E+01  1.01998E+01  9.98411E+00
   9.76702E+00  9.57570E+00  9.37805E+00  9.10998E+00  8.83201E+00  8.60000E+00  8.43838E+00  8.28038E+00  8.14600E+00  8.06742E+00
   8.04790E+00  8.10850E+00  8.27825E+00  9.09352E+00  1.05753E+01  1.08776E+01  1.19909E+01  1.27172E+01  1.39472E+01  1.64227E+01
   1.93643E+01  2.21436E+01  2.26088E+01  2.24889E+01  2.38415E+01  2.38785E+01  2.23466E+01  2.08093E+01  1.90625E+01  1.76861E+01
   1.61205E+01  1.36616E+01  1.16389E+01  1.13711E+01  1.10297E+01  8.85856E+00  8.09038E+00  9.33367E+00  1.07623E+01  1.13750E+01
   1.28951E+01  1.39872E+01  1.63178E+01  2.00104E+01  2.41162E+01  2.71428E+01  2.73377E+01  2.79262E+01  2.96864E+01  2.91464E+01
   2.71082E+01  2.50195E+01  2.25471E+01  2.05560E+01  1.79864E+01  1.44145E+01  1.22426E+01  1.20857E+01  1.06928E+01  7.90212E+00
   6.84767E+00  6.53005E+00  6.47440E+00  6.41700E+00  6.20070E+00  5.97818E+00  5.87040E+00  5.69444E+00  5.52863E+00  5.38520E+00
   5.12508E+00  4.84283E+00  4.57612E+00  4.34458E+00  4.21112E+00  4.10254E+00  3.89129E+00  3.66727E+00  3.39581E+00  3.23686E+00
   3.16006E+00  3.01256E+00  2.87702E+00  2.67625E+00  2.42753E+00  2.25676E+00  1.99209E+00  1.68144E+00  1.53344E+00  1.40216E+00
   1.14967E+00  7.36230E-01  4.57503E-01  2.45625E-01  2.07262E-01  2.01098E-01 -8.22345E-02 -3.63364E-01 -3.55080E-01 -2.69023E-01
  -1.37828E-01  1.76847E-03  8.39512E-02  2.26751E-01  4.08057E-01  7.11358E-01  8.76074E-01  1.16258E+00  1.47208E+00  1.64041E+00
   1.57649E+00  1.41652E+00  1.38650E+00  1.27542E+00  1.11623E+00  1.38526E+00  1.77252E+00  2.30372E+00  3.43193E+00  4.14063E+00
   4.31005E+00  5.19199E+00  5.79960E+00  5.67726E+00  4.88514E+00  3.55425E+00  1.98708E+00 -3.56563E-01 -7.28386E-01 -5.34732E-01
  -1.14383E+00 -3.62524E-01  1.50789E+00  3.06059E+00  3.83505E+00  4.41434E+00  5.10833E+00  5.13641E+00  4.07134E+00  2.17854E+00
   1.07221E+00  2.25027E+00  2.62368E+00  1.65950E+00  2.10460E+00  3.55991E+00  4.17319E+00  4.06771E+00  4.31468E+00  5.35793E+00
   6.64145E+00  6.78879E+00  5.98526E+00  5.90802E+00  7.15314E+00  7.53298E+00  7.15699E+00  7.14148E+00  7.33980E+00  6.91314E+00
   5.92989E+00  5.50526E+00  5.38203E+00  4.82623E+00  4.48489E+00  4.35237E+00  4.44650E+00  5.05715E+00  5.88865E+00  7.01595E+00
   1.02669E+01  1.38074E+01  1.61215E+01  1.94711E+01  2.22092E+01  2.52114E+01  3.01542E+01  3.59511E+01  3.90565E+01  3.81743E+01
   3.84563E+01  4.00014E+01  3.83115E+01  3.47968E+01  3.12205E+01  2.81221E+01  2.58139E+01  2.16237E+01  1.64463E+01  1.39404E+01
   1.39566E+01  1.17438E+01  8.14335E+00  7.00435E+00  6.59257E+00  6.16621E+00  5.94965E+00  5.77738E+00  5.54240E+00  5.38150E+00
   5.22064E+00  5.02058E+00  4.87260E+00  4.80685E+00  4.74050E+00  4.63570E+00  4.55189E+00  4.51694E+00  4.52904E+00  4.57690E+00
   4.64042E+00  4.72258E+00  4.85012E+00  5.00313E+00  5.15158E+00  5.30919E+00  5.48743E+00  5.67099E+00  5.87104E+00  6.07675E+00
   6.27412E+00  6.46942E+00  6.66837E+00  6.84811E+00  7.00050E+00  7.13139E+00  7.24253E+00  7.32923E+00  7.38465E+00  7.41143E+00
   7.42030E+00  7.40814E+00  7.37691E+00  7.33429E+00  7.28222E+00  7.22802E+00  7.17763E+00  7.13430E+00  7.10197E+00  7.08340E+00
   7.08022E+00  7.09326E+00  7.12239E+00  7.16618E+00  7.22233E+00  7.28838E+00  7.36100E+00  7.43649E+00  7.51116E+00  7.58139E+00
   7.64378E+00  7.69538E+00  7.73384E+00  7.75745E+00  7.76527E+00  7.75708E+00  7.73344E+00  7.69567E+00  7.64597E+00  7.58737E+00
   7.52385E+00  7.46043E+00  7.40337E+00  7.36022E+00  7.33973E+00  7.35133E+00  7.40416E+00  7.50554E+00  7.65918E+00  7.86312E+00
   8.10813E+00  8.37712E+00  8.64607E+00  8.88658E+00  9.06990E+00  9.17150E+00  9.17525E+00  9.07615E+00  8.88092E+00  8.60635E+00
   8.27584E+00  7.91505E+00  7.54779E+00  7.19292E+00  6.86289E+00  6.56372E+00  6.29613E+00  6.05729E+00  5.84255E+00  5.64700E+00
   5.46639E+00  5.29773E+00  5.13931E+00  4.99058E+00  4.85185E+00  4.72403E+00  4.60844E+00  4.50657E+00  4.41996E+00  4.35013E+00
   4.29850E+00  4.26637E+00  4.25492E+00  4.26518E+00  4.29794E+00  4.35375E+00  4.43285E+00  4.53512E+00  4.66003E+00  4.80659E+00
   4.97320E+00  5.15767E+00  5.35716E+00  5.56820E+00  5.78673E+00  6.00810E+00  6.22723E+00  6.43867E+00  6.63689E+00  6.81639E+00
   6.97198E+00  7.09894E+00  7.19322E+00  7.25167E+00  7.27218E+00  7.25373E+00  7.19646E+00  7.10164E+00  6.97156E+00  6.80943E+00
   6.61923E+00  6.40547E+00  6.17303E+00  5.92686E+00  5.67185E+00  5.41265E+00  5.15352E+00  4.89823E+00  4.64994E+00  4.41121E+00
   4.18401E+00  3.96974E+00  3.76925E+00  3.58295E+00  3.41086E+00  3.25264E+00  3.10774E+00  2.97545E+00  2.85495E+00  2.74535E+00
   2.64571E+00  2.55510E+00  2.47267E+00  2.39760E+00  2.32914E+00  2.26659E+00  2.20929E+00  2.15668E+00  2.10827E+00  2.06362E+00
   2.02233E+00  1.98406E+00  1.94847E+00  1.91531E+00  1.88436E+00  1.85539E+00  1.82823E+00  1.80271E+00  1.77866E+00  1.75598E+00
   1.73454E+00  1.71426E+00  1.69505E+00  1.67681E+00  1.65946E+00  1.64293E+00  1.62719E+00  1.61218E+00  1.59784E+00  1.58410E+00
   1.57094E+00  1.55833E+00  1.54624E+00  1.53464E+00  1.52347E+00  1.51271E+00  1.50235E+00  1.49236E+00  1.48273E+00  1.47342E+00
   1.46440E+00  1.45568E+00  1.44722E+00  1.43903E+00  1.43109E+00  1.42336E+00  1.41584E+00  1.40851E+00  1.40137E+00  1.39441E+00
   1.38762E+00  1.38097E+00  1.37444E+00  1.36804E+00  1.36176E+00  1.35560E+00  1.34953E+00  1.34353E+00  1.33759E+00  1.33172E+00
   1.32591E+00  1.32015E+00  1.31440E+00  1.30865E+00  1.30290E+00  1.29714E+00  1.29136E+00  1.28555E+00
 NY background values follow
     1.706E+01    1.696E+01    1.686E+01    1.675E+01    1.665E+01    1.654E+01    1.644E+01    1.634E+01    1.623E+01    1.613E+01
     1.603E+01    1.592E+01    1.582E+01    1.571E+01    1.561E+01    1.551E+01    1.540E+01    1.530E+01    1.520E+01    1.509E+01
     1.499E+01    1.489E+01    1.478E+01    1.468E+01    1.458E+01    1.447E+01    1.437E+01    1.427E+01    1.417E+01    1.406E+01
     1.396E+01    1.386E+01    1.376E+01    1.365E+01    1.355E+01    1.345E+01    1.335E+01    1.325E+01    1.315E+01    1.304E+01
     1.294E+01    1.284E+01    1.274E+01    1.264E+01    1.254E+01    1.244E+01    1.234E+01    1.224E+01    1.214E+01    1.205E+01
     1.195E+01    1.185E+01    1.175E+01    1.165E+01    1.155E+01    1.146E+01    1.136E+01    1.126E+01    1.117E+01    1.107E+01
     1.097E+01    1.088E+01    1.078E+01    1.069E+01    1.059E+01    1.050E+01    1.041E+01    1.031E+01    1.022E+01    1.013E+01
     1.004E+01    9.943E+00    9.852E+00    9.761E+00    9.670E+00    9.580E+00    9.490E+00    9.401E+00    9.312E+00    9.223E+00
     9.135E+00    9.048E+00    8.960E+00    8.874E+00    8.788E+00    8.702E+00    8.617E+00    8.532E+00    8.448E+00    8.364E+00
     8.281E+00    8.199E+00    8.116E+00    8.035E+00    7.954E+00    7.873E+00    7.793E+00    7.714E+00    7.635E+00    7.557E+00
     7.479E+00    7.402E+00    7.325E+00    7.248E+00    7.173E+00    7.097E+00    7.023E+00    6.948E+00    6.875E+00    6.802E+00
     6.729E+00    6.657E+00    6.585E+00    6.514E+00    6.443E+00    6.373E+00    6.304E+00    6.235E+00    6.166E+00    6.098E+00
     6.030E+00    5.963E+00    5.897E+00    5.831E+00    5.765E+00    5.700E+00    5.636E+00    5.572E+00    5.508E+00    5.445E+00
     5.382E+00    5.320E+00    5.259E+00    5.198E+00    5.137E+00    5.077E+00    5.018E+00    4.958E+00    4.900E+00    4.842E+00
     4.784E+00    4.727E+00    4.670E+00    4.614E+00    4.559E+00    4.504E+00    4.449E+00    4.395E+00    4.341E+00    4.288E+00
     4.235E+00    4.183E+00    4.132E+00    4.080E+00    4.030E+00    3.980E+00    3.930E+00    3.881E+00    3.832E+00    3.784E+00
     3.737E+00    3.689E+00    3.643E+00    3.597E+00    3.551E+00    3.506E+00    3.461E+00    3.417E+00    3.374E+00    3.331E+00
     3.288E+00    3.246E+00    3.204E+00    3.163E+00    3.123E+00    3.083E+00    3.043E+00    3.004E+00    2.966E+00    2.928E+00
     2.890E+00    2.853E+00    2.817E+00    2.781E+00    2.746E+00    2.711E+00    2.676E+00    2.642E+00    2.609E+00    2.576E+00
     2.543E+00    2.511E+00    2.480E+00    2.448E+00    2.418E+00    2.388E+00    2.358E+00    2.328E+00    2.299E+00    2.271E+00
     2.243E+00    2.215E+00    2.188E+00    2.161E+00    2.135E+00    2.109E+00    2.083E+00    2.058E+00    2.033E+00    2.009E+00
     1.985E+00    1.961E+00    1.938E+00    1.915E+00    1.892E+00    1.870E+00    1.848E+00    1.826E+00    1.805E+00    1.784E+00
     1.764E+00    1.743E+00    1.723E+00    1.704E+00    1.685E+00    1.666E+00    1.647E+00    1.628E+00    1.610E+00    1.593E+00
     1.575E+00    1.558E+00    1.541E+00    1.524E+00    1.508E+00    1.491E+00    1.476E+00    1.460E+00    1.445E+00    1.429E+00
     1.415E+00    1.400E+00    1.386E+00    1.372E+00    1.358E+00    1.344E+00    1.331E+00    1.318E+00    1.305E+00    1.292E+00
     1.280E+00    1.267E+00    1.255E+00    1.244E+00    1.232E+00    1.221E+00    1.210E+00    1.199E+00    1.188E+00    1.177E+00
     1.167E+00    1.157E+00    1.147E+00    1.137E+00    1.128E+00    1.118E+00    1.109E+00    1.100E+00    1.091E+00    1.083E+00
     1.074E+00    1.066E+00    1.058E+00    1.049E+00    1.042E+00    1.034E+00    1.026E+00    1.019E+00    1.012E+00    1.005E+00
     9.976E-01    9.908E-01    9.841E-01    9.775E-01    9.711E-01    9.648E-01    9.587E-01    9.526E-01    9.467E-01    9.410E-01
     9.353E-01    9.297E-01    9.243E-01    9.190E-01    9.138E-01    9.087E-01    9.037E-01    8.988E-01    8.940E-01    8.893E-01
     8.847E-01    8.802E-01    8.758E-01    8.715E-01    8.673E-01    8.631E-01    8.590E-01    8.550E-01    8.511E-01    8.473E-01
     8.435E-01    8.398E-01    8.362E-01    8.326E-01    8.291E-01    8.257E-01    8.223E-01    8.190E-01    8.157E-01    8.125E-01
     8.093E-01    8.062E-01    8.031E-01    8.001E-01    7.971E-01    7.942E-01    7.913E-01    7.885E-01    7.857E-01    7.829E-01
     7.802E-01    7.775E-01    7.749E-01    7.723E-01    7.698E-01    7.673E-01    7.648E-01    7.623E-01    7.599E-01    7.576E-01
     7.552E-01    7.529E-01    7.506E-01    7.484E-01    7.461E-01    7.439E-01    7.418E-01    7.396E-01    7.375E-01    7.354E-01
     7.333E-01    7.312E-01    7.292E-01    7.272E-01    7.251E-01    7.232E-01    7.212E-01    7.192E-01    7.173E-01    7.153E-01
     7.134E-01    7.115E-01    7.096E-01    7.077E-01    7.058E-01    7.039E-01    7.021E-01    7.002E-01    6.984E-01    6.965E-01
     6.947E-01    6.929E-01    6.912E-01    6.894E-01    6.876E-01    6.859E-01    6.842E-01    6.825E-01    6.808E-01    6.792E-01
     6.776E-01    6.760E-01    6.744E-01    6.728E-01    6.713E-01    6.698E-01    6.683E-01    6.668E-01    6.654E-01    6.640E-01
     6.626E-01    6.613E-01    6.600E-01    6.587E-01    6.574E-01    6.562E-01    6.550E-01    6.539E-01    6.528E-01    6.517E-01
     6.506E-01    6.496E-01    6.486E-01    6.477E-01    6.468E-01    6.460E-01    6.451E-01    6.444E-01    6.436E-01    6.429E-01
     6.423E-01    6.417E-01    6.411E-01    6.406E-01    6.401E-01    6.396E-01    6.392E-01    6.388E-01    6.385E-01    6.382E-01
     6.380E-01    6.377E-01    6.376E-01    6.374E-01    6.373E-01    6.372E-01    6.372E-01    6.372E-01    6.373E-01    6.373E-01
     6.375E-01    6.376E-01    6.378E-01    6.380E-01    6.383E-01    6.386E-01    6.389E-01    6.392E-01    6.396E-01    6.401E-01
     6.405E-01    6.410E-01    6.416E-01    6.421E-01    6.427E-01    6.433E-01    6.440E-01    6.447E-01    6.454E-01    6.462E-01
     6.470E-01    6.478E-01    6.486E-01    6.495E-01    6.504E-01    6.513E-01    6.523E-01    6.533E-01    6.543E-01    6.554E-01
     6.564E-01    6.575E-01    6.586E-01    6.598E-01    6.609E-01    6.621E-01    6.633E-01    6.645E-01    6.657E-01    6.670E-01
     6.683E-01    6.695E-01    6.708E-01    6.721E-01    6.734E-01    6.748E-01    6.761E-01    6.775E-01    6.788E-01    6.802E-01
     6.815E-01    6.829E-01    6.843E-01    6.857E-01    6.871E-01    6.885E-01    6.899E-01    6.912E-01    6.926E-01    6.940E-01
     6.954E-01    6.968E-01    6.982E-01    6.996E-01    7.009E-01    7.023E-01    7.037E-01    7.050E-01
 PCr      Conc. = 1.06E+03
