 LCModel (Version 6.3-1L) Copyright: S.W. Provencher.          Ref.: Magn. Reson. Med. 30:672-679 (1993).                
 Slice#2 Row#2 Col#14  PD_05_press_1_raw_act
 36 lines in following concentration table = NCONC+1
    Conc.  %SD /Cr+PCr  Metabolite                                         
    1.045 999%   1.031 Ala                                                 
    2.663 244%   2.629 Asp                                                 
    1.013 999%   1.000 Cr                                                  
    0.000 999%   0.000 PCr                                                 
    1.616 241%   1.595 GABA                                                
    1.309 298%   1.292 Glc                                                 
    0.000 999%   0.000 Gln                                                 
    0.000 999%   0.000 Glu                                                 
    0.000 999%   0.000 GPC                                                 
   10.038  70%   9.908 PCh                                                 
   56.155  47%  55.427 GSH                                                 
   44.754 190%  44.174 Ins                                                 
  220.299  30% 217.445 Lac                                                 
   18.165 118%  17.930 NAA                                                 
    0.000 999%   0.000 NAAG                                                
    0.479 271%   0.472 Scyllo                                              
    1.938 334%   1.913 Tau                                                 
    4.179 253%   4.125 -CrCH2                                              
   10.038  70%   9.908 GPC+PCh                                             
   18.165 118%  17.930 NAA+NAAG                                            
    1.013 999%   1.000 Cr+PCr                                              
    0.000 999%   0.000 Glu+Gln                                             
 3.62E+04   2% 3.6E+04 Lip13a                                              
  268.778  38% 265.295 Lip13b                                              
    0.000 999%   0.000-Lip09                                               
    0.000 999%   0.000 MM09                                                
  938.564  23% 926.404 Lip20                                               
    0.000 999%   0.000 MM20                                                
    0.000 999%   0.000 MM12                                                
 1.02E+03  22% 1.0E+03 MM14                                                
    0.000 999%   0.000 MM17                                                
 3.64E+04   2% 3.6E+04 Lip13a+Lip13b                                       
 3.75E+04   2% 3.7E+04 MM14+Lip13a+Lip13b+MM12                             
    0.000 999%   0.000 MM09+Lip09                                          
  938.564  23% 926.404 MM20+Lip20                                          
   6 lines in following misc. output table
  FWHM = 0.031 ppm    S/N =  29                                            
  Data shift =-0.008 ppm                                                   
  Ph:  86 deg      17.6 deg/ppm                                            
  alphaB,S = 2.3E+00,   6.4E+00                                            
   14 spline knots.   Ns = 5(1)                                            
  ( 9) 6 infls.   ( 8) 4 extrs.                                            
  498 points on ppm-axis = NY
      4.000000     3.992357     3.984714     3.977070     3.969427     3.961784     3.954141     3.946497     3.938854     3.931211
      3.923568     3.915925     3.908281     3.900638     3.892995     3.885352     3.877708     3.870065     3.862422     3.854779
      3.847136     3.839492     3.831849     3.824206     3.816563     3.808919     3.801276     3.793633     3.785990     3.778347
      3.770703     3.763060     3.755417     3.747774     3.740130     3.732487     3.724844     3.717201     3.709558     3.701914
      3.694271     3.686628     3.678985     3.671341     3.663698     3.656055     3.648412     3.640769     3.633125     3.625482
      3.617839     3.610196     3.602552     3.594909     3.587266     3.579623     3.571980     3.564336     3.556693     3.549050
      3.541407     3.533763     3.526120     3.518477     3.510834     3.503191     3.495547     3.487904     3.480261     3.472618
      3.464974     3.457331     3.449688     3.442045     3.434402     3.426758     3.419115     3.411472     3.403829     3.396185
      3.388542     3.380899     3.373256     3.365613     3.357969     3.350326     3.342683     3.335040     3.327396     3.319753
      3.312110     3.304467     3.296824     3.289180     3.281537     3.273894     3.266251     3.258607     3.250964     3.243321
      3.235678     3.228034     3.220391     3.212748     3.205105     3.197462     3.189818     3.182175     3.174532     3.166889
      3.159245     3.151602     3.143959     3.136316     3.128673     3.121029     3.113386     3.105743     3.098100     3.090456
      3.082813     3.075170     3.067527     3.059884     3.052240     3.044597     3.036954     3.029311     3.021667     3.014024
      3.006381     2.998738     2.991095     2.983451     2.975808     2.968165     2.960522     2.952878     2.945235     2.937592
      2.929949     2.922306     2.914662     2.907019     2.899376     2.891733     2.884089     2.876446     2.868803     2.861160
      2.853517     2.845873     2.838230     2.830587     2.822944     2.815300     2.807657     2.800014     2.792371     2.784728
      2.777084     2.769441     2.761798     2.754155     2.746511     2.738868     2.731225     2.723582     2.715939     2.708295
      2.700652     2.693009     2.685366     2.677722     2.670079     2.662436     2.654793     2.647150     2.639506     2.631863
      2.624220     2.616577     2.608933     2.601290     2.593647     2.586004     2.578361     2.570717     2.563074     2.555431
      2.547788     2.540144     2.532501     2.524858     2.517215     2.509572     2.501928     2.494285     2.486642     2.478999
      2.471355     2.463712     2.456069     2.448426     2.440783     2.433139     2.425496     2.417853     2.410210     2.402566
      2.394923     2.387280     2.379637     2.371994     2.364350     2.356707     2.349064     2.341421     2.333777     2.326134
      2.318491     2.310848     2.303205     2.295561     2.287918     2.280275     2.272632     2.264988     2.257345     2.249702
      2.242059     2.234416     2.226772     2.219129     2.211486     2.203843     2.196199     2.188556     2.180913     2.173270
      2.165627     2.157983     2.150340     2.142697     2.135054     2.127410     2.119767     2.112124     2.104481     2.096838
      2.089194     2.081551     2.073908     2.066265     2.058621     2.050978     2.043335     2.035692     2.028049     2.020405
      2.012762     2.005119     1.997476     1.989833     1.982190     1.974546     1.966903     1.959260     1.951617     1.943974
      1.936331     1.928688     1.921045     1.913402     1.905759     1.898115     1.890472     1.882829     1.875186     1.867543
      1.859900     1.852257     1.844614     1.836971     1.829327     1.821684     1.814041     1.806398     1.798755     1.791112
      1.783469     1.775826     1.768183     1.760540     1.752896     1.745253     1.737610     1.729967     1.722324     1.714681
      1.707038     1.699395     1.691752     1.684108     1.676465     1.668822     1.661179     1.653536     1.645893     1.638250
      1.630607     1.622964     1.615321     1.607677     1.600034     1.592391     1.584748     1.577105     1.569462     1.561819
      1.554176     1.546533     1.538890     1.531246     1.523603     1.515960     1.508317     1.500674     1.493031     1.485388
      1.477745     1.470102     1.462458     1.454815     1.447172     1.439529     1.431886     1.424243     1.416600     1.408957
      1.401314     1.393671     1.386027     1.378384     1.370741     1.363098     1.355455     1.347812     1.340169     1.332526
      1.324883     1.317240     1.309596     1.301953     1.294310     1.286667     1.279024     1.271381     1.263738     1.256095
      1.248452     1.240808     1.233165     1.225522     1.217879     1.210236     1.202593     1.194950     1.187307     1.179664
      1.172021     1.164377     1.156734     1.149091     1.141448     1.133805     1.126162     1.118519     1.110876     1.103233
      1.095590     1.087946     1.080303     1.072660     1.065017     1.057374     1.049731     1.042088     1.034445     1.026802
      1.019158     1.011515     1.003872     0.996229     0.988586     0.980943     0.973300     0.965657     0.958014     0.950371
      0.942727     0.935084     0.927441     0.919798     0.912155     0.904512     0.896869     0.889226     0.881583     0.873940
      0.866296     0.858653     0.851010     0.843367     0.835724     0.828081     0.820438     0.812795     0.805152     0.797508
      0.789865     0.782222     0.774579     0.766936     0.759293     0.751650     0.744007     0.736364     0.728721     0.721077
      0.713434     0.705791     0.698148     0.690505     0.682862     0.675219     0.667576     0.659933     0.652290     0.644646
      0.637003     0.629360     0.621717     0.614074     0.606431     0.598788     0.591145     0.583502     0.575858     0.568215
      0.560572     0.552929     0.545286     0.537643     0.530000     0.522357     0.514714     0.507071     0.499427     0.491784
      0.484141     0.476498     0.468855     0.461212     0.453569     0.445925     0.438282     0.430639     0.422996     0.415353
      0.407710     0.400067     0.392424     0.384780     0.377137     0.369494     0.361851     0.354208     0.346565     0.338922
      0.331278     0.323635     0.315992     0.308349     0.300706     0.293063     0.285420     0.277777     0.270133     0.262490
      0.254847     0.247204     0.239561     0.231918     0.224275     0.216631     0.208988     0.201345
 NY phased data points follow
   2.97220E+00  1.53938E+00  3.75400E+00  3.36550E+00  2.64476E+00  2.02728E+00  2.75137E+00  3.47382E+00  9.56713E-01  1.41069E+00
   5.10911E-01  8.76741E-01  1.80441E+00  2.11786E+00  1.48848E+00  2.79395E+00  3.22484E+00  3.59883E+00  2.73909E+00  1.33230E+00
   2.22497E+00  3.88088E+00  3.06613E+00  1.78422E+00  9.40219E-01  2.97547E-01  2.77467E+00  5.70595E+00  3.30704E+00  3.76360E+00
   4.48629E+00  1.49262E+00  3.12449E+00  4.68782E+00  3.04436E+00  2.61766E+00 -3.42784E-01  1.51089E+00  2.25985E+00  2.48923E+00
   2.30605E+00  2.53984E+00  2.07126E+00  4.09043E+00  3.88279E+00  1.52373E+00  3.12928E+00  2.39258E+00 -2.68838E-01  3.95284E+00
   4.36705E+00  4.36373E+00  2.94704E+00  8.72368E-01  2.94267E+00  2.74178E+00  2.78810E+00  3.87082E+00  1.79871E+00  3.62880E+00
   2.44971E+00  2.98858E+00  1.41289E+00  4.06135E+00  8.70784E-01  1.19231E+00  1.62702E+00  2.30249E+00  2.87379E+00  2.25715E+00
   1.70734E+00  1.12156E+00  3.57230E+00  7.17704E-01  1.54627E+00  9.04159E-01  3.73373E+00  3.72402E+00  2.96810E+00  1.95171E+00
   2.93549E+00  1.60158E+00  4.22520E+00  3.58879E+00  2.02871E+00  1.67728E+00  3.11420E+00  1.25949E+00  2.47208E+00  1.93203E+00
   3.43510E+00  2.54299E+00  2.81145E+00  2.60481E+00  3.13098E+00  1.91646E+00  3.81415E+00  8.50739E-01  2.58562E+00  2.51673E+00
   1.70779E+00  1.15937E+00  2.39444E+00  5.25558E+00  4.03555E+00  1.97859E+00  5.40273E+00  5.56471E+00  3.08416E+00  4.31837E+00
   3.62538E+00  3.08818E+00  3.77760E+00  3.07780E+00  2.21139E+00  2.23538E+00  1.86762E+00  1.03448E+00  1.84634E+00  2.64072E+00
   3.57319E+00  4.54288E+00  2.67257E+00  2.65545E+00  2.27661E+00  9.33469E-01  2.89404E+00  3.10578E+00  3.88616E+00  5.30282E+00
   3.37123E+00  5.19967E+00  2.57460E+00  3.66088E+00  3.51607E+00  1.11549E+00  4.38758E+00  4.22906E+00  3.93203E+00  1.71897E+00
   2.97162E+00  5.22731E+00  3.37401E+00  3.93720E+00  3.19443E+00  4.87931E+00  3.33589E+00  1.64923E+00  2.79297E+00  2.88906E+00
   4.59287E+00  4.80094E+00  2.70034E+00  2.28096E+00  3.56055E+00  4.10785E+00  3.01585E+00  3.94198E+00  3.95733E+00  3.16151E+00
   3.77016E+00  2.56514E+00  1.93506E+00  4.05782E+00  3.35812E+00  2.69411E+00  3.23655E+00  5.70081E+00  7.41794E-01  1.85861E+00
   1.10142E+00  5.48293E+00  1.18558E+00  2.92092E+00  4.21219E+00  3.77860E+00  2.73109E+00  1.55402E+00  3.27477E+00  3.15602E+00
   5.26351E+00  2.46942E+00  3.98050E+00  1.64743E+00  3.16297E+00  2.96263E+00  4.75028E+00  2.02845E+00  8.71081E-01  2.29443E+00
   2.62751E+00  3.49464E+00  9.62991E-01  1.53701E+00  4.35217E+00  2.91242E+00  2.07467E+00  3.21340E+00  3.07037E+00  3.12176E+00
   3.22013E+00  1.36164E+00  2.58725E-01  3.61938E+00  3.03175E+00  2.64048E+00  3.85061E+00  2.79863E+00  4.51870E+00  4.16904E+00
   1.96142E+00  2.71157E+00  3.30138E+00  3.31021E+00  4.84178E+00  2.61015E+00  3.51465E+00  5.03425E+00  3.67640E+00  3.98320E+00
   4.47808E+00  3.70104E+00  4.86721E+00  4.33654E+00  3.43996E+00  3.83912E+00  2.03837E+00  3.37894E+00  5.73978E+00  3.35634E+00
   5.15289E+00  1.70292E+00  2.48578E+00  4.02349E+00  1.67463E+00  5.05126E+00  2.92265E+00  4.60280E+00  5.48547E+00  4.12265E+00
   3.93240E+00  7.53378E+00  3.18344E+00  3.83343E+00  2.63887E+00  4.01944E+00  3.69422E+00  4.23827E+00  2.42939E+00  2.24975E+00
   4.58066E+00  3.86073E+00  2.19626E+00  2.77470E+00  3.50661E+00  1.20269E+00  4.96288E+00  1.89290E+00  2.07730E+00  4.49149E+00
   4.87228E+00  5.15249E+00  7.55178E+00  3.74976E+00  6.78597E+00  4.54510E+00  5.40189E+00  3.10402E+00  4.56554E+00  4.57758E+00
   2.52909E+00  2.21722E+00  1.34389E+00  3.73028E+00  2.76546E+00  2.42193E+00  1.97102E+00  4.46917E+00  2.96825E+00  5.68654E-01
   4.80249E+00  1.95284E+00  5.92384E+00  1.60707E+00  5.06423E+00  5.69436E+00  2.98009E+00  6.26292E+00  5.71016E+00  6.38336E+00
   4.27244E+00  7.76846E+00  6.79260E+00  6.18139E+00  4.90043E+00  6.18802E+00  6.56140E+00  7.40760E+00  9.30817E+00  6.92297E+00
   9.53177E+00  8.25880E+00  8.16438E+00  9.21472E+00  8.62755E+00  1.05979E+01  1.13594E+01  1.21006E+01  1.24567E+01  1.39964E+01
   1.02065E+01  1.45601E+01  1.23910E+01  1.36366E+01  1.53500E+01  1.52795E+01  2.08437E+01  2.00714E+01  1.92036E+01  1.92577E+01
   2.36142E+01  2.23703E+01  2.48974E+01  2.51639E+01  2.70910E+01  2.74284E+01  2.77869E+01  3.14459E+01  3.31837E+01  3.42483E+01
   3.69720E+01  3.65050E+01  4.23874E+01  4.34398E+01  4.34127E+01  4.60248E+01  4.55746E+01  4.84098E+01  5.00261E+01  5.22754E+01
   5.55378E+01  5.76764E+01  5.87786E+01  6.21888E+01  6.54773E+01  6.56173E+01  6.30522E+01  6.98918E+01  7.01330E+01  7.08599E+01
   7.64084E+01  7.46634E+01  7.54464E+01  7.77433E+01  7.75972E+01  7.89651E+01  7.78486E+01  8.01285E+01  7.93826E+01  8.19267E+01
   8.30177E+01  8.42574E+01  8.16455E+01  8.09893E+01  7.92612E+01  7.61693E+01  7.41981E+01  7.15576E+01  7.14493E+01  6.66554E+01
   6.45397E+01  6.18712E+01  5.87374E+01  5.84144E+01  5.61687E+01  5.34300E+01  5.41840E+01  5.12630E+01  5.06346E+01  4.76268E+01
   4.83336E+01  4.46379E+01  4.33675E+01  4.06009E+01  3.86000E+01  3.58173E+01  3.69727E+01  3.25756E+01  3.19275E+01  2.94474E+01
   2.71688E+01  2.61106E+01  2.53820E+01  1.97006E+01  2.30823E+01  2.18968E+01  1.91129E+01  2.07795E+01  1.71493E+01  1.80368E+01
   1.74110E+01  1.34261E+01  1.51467E+01  1.31815E+01  1.20739E+01  1.14068E+01  1.04238E+01  1.13687E+01  7.24551E+00  1.00550E+01
   7.67721E+00  6.06640E+00  7.77155E+00  5.21142E+00  5.68752E+00  6.17900E+00  5.87000E+00  2.46917E+00  4.26351E+00  2.56299E+00
   2.90030E+00  2.20362E+00 -2.61184E-01  9.04445E-01  2.50745E+00  2.12698E+00  5.95635E-02  2.31567E+00  1.51214E+00  1.66209E+00
   1.53546E+00  8.17187E-01  1.56496E+00  3.01682E+00  2.06046E+00  2.68894E+00 -5.51809E-01  2.21689E-01 -6.38904E-02  2.23608E+00
  -1.11610E+00 -1.53460E+00  2.03467E+00 -1.37210E+00 -1.64330E+00  6.30104E-02 -5.62670E-01 -1.86628E+00 -1.01830E+00  4.51267E-01
   9.43854E-01 -8.37891E-01 -3.43539E-01 -8.94467E-01 -1.51094E+00  1.45404E+00 -3.13564E-01 -1.05966E-01 -2.10613E+00 -2.71629E+00
  -2.66409E+00 -1.28873E+00 -2.94347E+00 -4.17768E-01 -1.49663E+00 -1.42522E+00 -8.28259E-01 -1.20273E+00 -4.03684E-04 -2.31531E+00
  -2.69006E+00 -8.55858E-01 -1.76409E+00 -1.26006E+00  9.24611E-02 -1.57138E+00 -2.94546E+00 -1.51707E+00 -2.94260E+00 -1.03485E+00
  -1.06616E+00 -3.46753E+00  2.31142E-02 -1.19530E+00 -3.17270E+00 -3.42783E+00 -1.49309E+00 -1.88579E+00 -7.14099E-01 -4.75812E+00
  -4.83744E-01 -4.14629E+00 -2.58152E+00 -6.23390E-01 -4.26395E+00 -1.63538E+00 -1.74985E+00 -9.51239E-01
 NY points of the fit to the data follow
   2.28076E+00  2.11846E+00  2.10274E+00  2.26269E+00  2.46924E+00  2.53073E+00  2.52815E+00  2.54520E+00  2.55680E+00  2.55708E+00
   2.54373E+00  2.51763E+00  2.51656E+00  2.56183E+00  2.63561E+00  2.68940E+00  2.69337E+00  2.68870E+00  2.70405E+00  2.72120E+00
   2.70210E+00  2.69338E+00  2.72853E+00  2.78335E+00  2.85971E+00  3.01992E+00  3.37982E+00  3.47610E+00  3.21538E+00  3.12017E+00
   3.16076E+00  3.33600E+00  3.79502E+00  4.10581E+00  3.81094E+00  2.94836E+00  2.07428E+00  1.89878E+00  2.00566E+00  2.13249E+00
   2.28337E+00  2.40035E+00  2.44440E+00  2.46071E+00  2.50522E+00  2.51942E+00  2.49021E+00  2.46967E+00  2.49885E+00  2.60187E+00
   2.71411E+00  2.72450E+00  2.58496E+00  2.36977E+00  2.24671E+00  2.28420E+00  2.38258E+00  2.45297E+00  2.49159E+00  2.50322E+00
   2.50685E+00  2.52638E+00  2.55970E+00  2.59538E+00  2.59576E+00  2.54745E+00  2.49085E+00  2.45681E+00  2.46764E+00  2.50289E+00
   2.53619E+00  2.57063E+00  2.59032E+00  2.59487E+00  2.60405E+00  2.60830E+00  2.60132E+00  2.57794E+00  2.55716E+00  2.55501E+00
   2.55516E+00  2.55401E+00  2.55376E+00  2.54408E+00  2.52822E+00  2.52447E+00  2.53426E+00  2.55055E+00  2.56481E+00  2.56325E+00
   2.54530E+00  2.53024E+00  2.55270E+00  2.61398E+00  2.67264E+00  2.71945E+00  2.75536E+00  2.78782E+00  2.83141E+00  2.99792E+00
   3.24486E+00  3.24149E+00  3.09712E+00  3.05887E+00  3.07921E+00  3.28355E+00  3.62849E+00  3.73872E+00  3.43618E+00  2.85774E+00
   2.44778E+00  2.43255E+00  2.48746E+00  2.53576E+00  2.57688E+00  2.61202E+00  2.63482E+00  2.65639E+00  2.68447E+00  2.71233E+00
   2.74524E+00  2.78426E+00  2.80883E+00  2.82820E+00  2.85744E+00  2.89547E+00  2.95236E+00  3.01835E+00  3.08884E+00  3.18672E+00
   3.27823E+00  3.25032E+00  3.16165E+00  3.12556E+00  3.13952E+00  3.24767E+00  3.41796E+00  3.46252E+00  3.34398E+00  3.12939E+00
   2.99867E+00  3.11217E+00  3.33505E+00  3.57093E+00  3.77246E+00  3.83907E+00  3.77545E+00  3.64985E+00  3.53365E+00  3.49355E+00
   3.47741E+00  3.46867E+00  3.46496E+00  3.45689E+00  3.42862E+00  3.38961E+00  3.35567E+00  3.31697E+00  3.28476E+00  3.26775E+00
   3.25253E+00  3.22583E+00  3.16965E+00  3.09921E+00  3.03686E+00  2.98326E+00  2.93905E+00  2.90040E+00  2.85197E+00  2.79603E+00
   2.73883E+00  2.67986E+00  2.62494E+00  2.57363E+00  2.53185E+00  2.49619E+00  2.45774E+00  2.40767E+00  2.34771E+00  2.29386E+00
   2.26584E+00  2.24268E+00  2.21224E+00  2.18535E+00  2.15937E+00  2.15954E+00  2.20185E+00  2.25014E+00  2.26521E+00  2.24773E+00
   2.22500E+00  2.25490E+00  2.32351E+00  2.38881E+00  2.40433E+00  2.40816E+00  2.37410E+00  2.26167E+00  2.15702E+00  2.08702E+00
   2.03275E+00  2.06585E+00  2.23549E+00  2.47487E+00  2.64649E+00  2.66202E+00  2.64539E+00  2.65071E+00  2.66538E+00  2.67580E+00
   2.69102E+00  2.72568E+00  2.77489E+00  2.82661E+00  2.86735E+00  2.89931E+00  2.93186E+00  2.96859E+00  3.01806E+00  3.08274E+00
   3.15241E+00  3.21731E+00  3.26867E+00  3.31349E+00  3.35509E+00  3.39388E+00  3.42840E+00  3.43156E+00  3.40226E+00  3.41451E+00
   3.47184E+00  3.52553E+00  3.57417E+00  3.60680E+00  3.61188E+00  3.57033E+00  3.55883E+00  3.66925E+00  3.81103E+00  3.91410E+00
   3.99878E+00  4.01133E+00  3.92569E+00  3.76500E+00  3.66431E+00  3.74072E+00  3.87087E+00  4.01169E+00  4.19074E+00  4.38170E+00
   4.51528E+00  4.53518E+00  4.49200E+00  4.46687E+00  4.45095E+00  4.43396E+00  4.51170E+00  4.67328E+00  4.71028E+00  4.65778E+00
   4.62715E+00  4.60022E+00  4.69103E+00  4.88802E+00  4.96539E+00  4.79064E+00  4.41300E+00  4.11440E+00  4.03692E+00  4.01331E+00
   4.00126E+00  3.99727E+00  4.00108E+00  4.01398E+00  4.03659E+00  4.06988E+00  4.11409E+00  4.16745E+00  4.23053E+00  4.30397E+00
   4.38664E+00  4.47825E+00  4.57945E+00  4.69083E+00  4.81288E+00  4.94543E+00  5.08842E+00  5.24254E+00  5.40806E+00  5.58490E+00
   5.77269E+00  5.97101E+00  6.18048E+00  6.40206E+00  6.63630E+00  6.88368E+00  7.14499E+00  7.42099E+00  7.71227E+00  8.01972E+00
   8.34461E+00  8.68816E+00  9.05154E+00  9.43607E+00  9.84348E+00  1.02757E+01  1.07349E+01  1.12230E+01  1.17424E+01  1.22957E+01
   1.28859E+01  1.35163E+01  1.41901E+01  1.49103E+01  1.56802E+01  1.65031E+01  1.73826E+01  1.83215E+01  1.93224E+01  2.03874E+01
   2.15179E+01  2.27151E+01  2.39797E+01  2.53126E+01  2.67079E+01  2.81601E+01  2.96717E+01  3.12404E+01  3.28610E+01  3.45299E+01
   3.62365E+01  3.79741E+01  3.97421E+01  4.15367E+01  4.33596E+01  4.52062E+01  4.70681E+01  4.89484E+01  5.08523E+01  5.27792E+01
   5.47283E+01  5.67035E+01  5.87295E+01  6.10336E+01  6.37091E+01  6.55146E+01  6.65844E+01  6.81175E+01  6.98868E+01  7.20438E+01
   7.44076E+01  7.59242E+01  7.68008E+01  7.68480E+01  7.66829E+01  7.78998E+01  7.88702E+01  7.94991E+01  8.09121E+01  8.28027E+01
   8.39729E+01  8.33421E+01  8.11592E+01  7.92178E+01  7.75266E+01  7.58571E+01  7.41430E+01  7.23630E+01  7.05101E+01  6.85832E+01
   6.65846E+01  6.45201E+01  6.23984E+01  6.02308E+01  5.80304E+01  5.58104E+01  5.35838E+01  5.13633E+01  4.91607E+01  4.69874E+01
   4.48532E+01  4.27663E+01  4.07337E+01  3.87607E+01  3.68520E+01  3.50112E+01  3.32407E+01  3.15416E+01  2.99144E+01  2.83588E+01
   2.68742E+01  2.54595E+01  2.41130E+01  2.28326E+01  2.16158E+01  2.04604E+01  1.93640E+01  1.83240E+01  1.73377E+01  1.64025E+01
   1.55155E+01  1.46745E+01  1.38770E+01  1.31208E+01  1.24034E+01  1.17226E+01  1.10763E+01  1.04627E+01  9.87991E+00  9.32623E+00
   8.79982E+00  8.29906E+00  7.82257E+00  7.36906E+00  6.93727E+00  6.52588E+00  6.13364E+00  5.75947E+00  5.40249E+00  5.06183E+00
   4.73656E+00  4.42576E+00  4.12858E+00  3.84436E+00  3.57251E+00  3.31242E+00  3.06342E+00  2.82485E+00  2.59617E+00  2.37697E+00
   2.16685E+00  1.96535E+00  1.77198E+00  1.58627E+00  1.40791E+00  1.23663E+00  1.07214E+00  9.14078E-01  7.62069E-01  6.15819E-01
   4.75146E-01  3.39864E-01  2.09745E-01  8.44833E-02 -3.61771E-02 -1.52417E-01 -2.64336E-01 -3.72084E-01 -4.75859E-01 -5.75907E-01
  -6.72390E-01 -7.65405E-01 -8.55015E-01 -9.41358E-01 -1.02461E+00 -1.10497E+00 -1.18252E+00 -1.25731E+00 -1.32939E+00 -1.39891E+00
  -1.46602E+00 -1.53084E+00 -1.59342E+00 -1.65378E+00 -1.71198E+00 -1.76817E+00 -1.82246E+00 -1.87492E+00 -1.92556E+00 -1.97440E+00
  -2.02152E+00 -2.06706E+00 -2.11108E+00 -2.15362E+00 -2.19467E+00 -2.23426E+00 -2.27249E+00 -2.30947E+00 -2.34522E+00 -2.37976E+00
  -2.41307E+00 -2.44522E+00 -2.47629E+00 -2.50636E+00 -2.53544E+00 -2.56351E+00 -2.59058E+00 -2.61674E+00 -2.64205E+00 -2.66656E+00
  -2.69025E+00 -2.71311E+00 -2.73517E+00 -2.75653E+00 -2.77722E+00 -2.79727E+00 -2.81664E+00 -2.83535E+00
 NY background values follow
    -3.972E+00   -3.977E+00   -3.981E+00   -3.985E+00   -3.990E+00   -3.994E+00   -3.998E+00   -4.003E+00   -4.007E+00   -4.011E+00
    -4.015E+00   -4.019E+00   -4.023E+00   -4.027E+00   -4.031E+00   -4.035E+00   -4.039E+00   -4.043E+00   -4.046E+00   -4.050E+00
    -4.054E+00   -4.058E+00   -4.061E+00   -4.065E+00   -4.068E+00   -4.072E+00   -4.076E+00   -4.079E+00   -4.082E+00   -4.086E+00
    -4.089E+00   -4.093E+00   -4.096E+00   -4.099E+00   -4.103E+00   -4.106E+00   -4.109E+00   -4.113E+00   -4.116E+00   -4.119E+00
    -4.122E+00   -4.125E+00   -4.129E+00   -4.132E+00   -4.135E+00   -4.138E+00   -4.141E+00   -4.144E+00   -4.148E+00   -4.151E+00
    -4.154E+00   -4.157E+00   -4.160E+00   -4.163E+00   -4.166E+00   -4.169E+00   -4.173E+00   -4.176E+00   -4.179E+00   -4.182E+00
    -4.185E+00   -4.188E+00   -4.192E+00   -4.195E+00   -4.198E+00   -4.202E+00   -4.205E+00   -4.208E+00   -4.212E+00   -4.215E+00
    -4.219E+00   -4.222E+00   -4.226E+00   -4.229E+00   -4.233E+00   -4.236E+00   -4.240E+00   -4.244E+00   -4.248E+00   -4.252E+00
    -4.256E+00   -4.259E+00   -4.264E+00   -4.268E+00   -4.272E+00   -4.276E+00   -4.280E+00   -4.285E+00   -4.289E+00   -4.294E+00
    -4.298E+00   -4.303E+00   -4.308E+00   -4.312E+00   -4.317E+00   -4.322E+00   -4.327E+00   -4.333E+00   -4.338E+00   -4.343E+00
    -4.349E+00   -4.354E+00   -4.360E+00   -4.366E+00   -4.372E+00   -4.378E+00   -4.384E+00   -4.390E+00   -4.396E+00   -4.403E+00
    -4.409E+00   -4.416E+00   -4.423E+00   -4.430E+00   -4.437E+00   -4.444E+00   -4.452E+00   -4.459E+00   -4.467E+00   -4.475E+00
    -4.482E+00   -4.491E+00   -4.499E+00   -4.507E+00   -4.516E+00   -4.525E+00   -4.533E+00   -4.542E+00   -4.552E+00   -4.561E+00
    -4.571E+00   -4.580E+00   -4.590E+00   -4.600E+00   -4.611E+00   -4.621E+00   -4.632E+00   -4.643E+00   -4.654E+00   -4.665E+00
    -4.676E+00   -4.688E+00   -4.700E+00   -4.712E+00   -4.724E+00   -4.737E+00   -4.749E+00   -4.762E+00   -4.775E+00   -4.788E+00
    -4.802E+00   -4.816E+00   -4.830E+00   -4.844E+00   -4.858E+00   -4.873E+00   -4.887E+00   -4.902E+00   -4.918E+00   -4.933E+00
    -4.949E+00   -4.965E+00   -4.981E+00   -4.998E+00   -5.014E+00   -5.031E+00   -5.048E+00   -5.066E+00   -5.083E+00   -5.101E+00
    -5.119E+00   -5.138E+00   -5.156E+00   -5.175E+00   -5.194E+00   -5.214E+00   -5.233E+00   -5.253E+00   -5.274E+00   -5.294E+00
    -5.315E+00   -5.336E+00   -5.357E+00   -5.379E+00   -5.400E+00   -5.422E+00   -5.445E+00   -5.467E+00   -5.490E+00   -5.513E+00
    -5.537E+00   -5.560E+00   -5.584E+00   -5.608E+00   -5.632E+00   -5.657E+00   -5.681E+00   -5.706E+00   -5.732E+00   -5.757E+00
    -5.782E+00   -5.808E+00   -5.834E+00   -5.861E+00   -5.887E+00   -5.914E+00   -5.940E+00   -5.967E+00   -5.995E+00   -6.022E+00
    -6.049E+00   -6.077E+00   -6.105E+00   -6.133E+00   -6.161E+00   -6.190E+00   -6.218E+00   -6.247E+00   -6.276E+00   -6.305E+00
    -6.334E+00   -6.364E+00   -6.393E+00   -6.423E+00   -6.452E+00   -6.482E+00   -6.512E+00   -6.542E+00   -6.572E+00   -6.603E+00
    -6.633E+00   -6.664E+00   -6.694E+00   -6.725E+00   -6.756E+00   -6.786E+00   -6.817E+00   -6.848E+00   -6.879E+00   -6.910E+00
    -6.941E+00   -6.972E+00   -7.003E+00   -7.034E+00   -7.065E+00   -7.096E+00   -7.127E+00   -7.158E+00   -7.189E+00   -7.220E+00
    -7.251E+00   -7.282E+00   -7.313E+00   -7.344E+00   -7.374E+00   -7.405E+00   -7.435E+00   -7.466E+00   -7.496E+00   -7.526E+00
    -7.556E+00   -7.586E+00   -7.616E+00   -7.645E+00   -7.675E+00   -7.704E+00   -7.733E+00   -7.762E+00   -7.791E+00   -7.820E+00
    -7.848E+00   -7.876E+00   -7.904E+00   -7.932E+00   -7.959E+00   -7.987E+00   -8.014E+00   -8.041E+00   -8.068E+00   -8.094E+00
    -8.120E+00   -8.146E+00   -8.172E+00   -8.198E+00   -8.223E+00   -8.249E+00   -8.274E+00   -8.298E+00   -8.323E+00   -8.347E+00
    -8.371E+00   -8.395E+00   -8.419E+00   -8.443E+00   -8.466E+00   -8.489E+00   -8.512E+00   -8.535E+00   -8.557E+00   -8.579E+00
    -8.601E+00   -8.623E+00   -8.645E+00   -8.666E+00   -8.687E+00   -8.708E+00   -8.729E+00   -8.750E+00   -8.770E+00   -8.790E+00
    -8.810E+00   -8.830E+00   -8.849E+00   -8.868E+00   -8.888E+00   -8.906E+00   -8.925E+00   -8.943E+00   -8.962E+00   -8.980E+00
    -8.998E+00   -9.015E+00   -9.033E+00   -9.050E+00   -9.067E+00   -9.084E+00   -9.100E+00   -9.117E+00   -9.133E+00   -9.149E+00
    -9.164E+00   -9.180E+00   -9.195E+00   -9.210E+00   -9.225E+00   -9.240E+00   -9.255E+00   -9.269E+00   -9.283E+00   -9.297E+00
    -9.311E+00   -9.324E+00   -9.337E+00   -9.351E+00   -9.363E+00   -9.376E+00   -9.389E+00   -9.401E+00   -9.413E+00   -9.425E+00
    -9.436E+00   -9.448E+00   -9.459E+00   -9.470E+00   -9.481E+00   -9.492E+00   -9.502E+00   -9.513E+00   -9.523E+00   -9.533E+00
    -9.542E+00   -9.552E+00   -9.561E+00   -9.570E+00   -9.579E+00   -9.588E+00   -9.596E+00   -9.605E+00   -9.613E+00   -9.620E+00
    -9.628E+00   -9.635E+00   -9.643E+00   -9.650E+00   -9.656E+00   -9.663E+00   -9.669E+00   -9.675E+00   -9.681E+00   -9.687E+00
    -9.692E+00   -9.697E+00   -9.702E+00   -9.706E+00   -9.711E+00   -9.715E+00   -9.718E+00   -9.722E+00   -9.725E+00   -9.728E+00
    -9.731E+00   -9.733E+00   -9.736E+00   -9.738E+00   -9.739E+00   -9.741E+00   -9.742E+00   -9.742E+00   -9.743E+00   -9.743E+00
    -9.743E+00   -9.743E+00   -9.742E+00   -9.741E+00   -9.740E+00   -9.738E+00   -9.736E+00   -9.734E+00   -9.731E+00   -9.728E+00
    -9.725E+00   -9.722E+00   -9.718E+00   -9.714E+00   -9.710E+00   -9.705E+00   -9.700E+00   -9.695E+00   -9.689E+00   -9.683E+00
    -9.677E+00   -9.671E+00   -9.664E+00   -9.657E+00   -9.650E+00   -9.642E+00   -9.634E+00   -9.626E+00   -9.618E+00   -9.609E+00
    -9.601E+00   -9.591E+00   -9.582E+00   -9.572E+00   -9.563E+00   -9.552E+00   -9.542E+00   -9.531E+00   -9.520E+00   -9.509E+00
    -9.498E+00   -9.486E+00   -9.474E+00   -9.462E+00   -9.450E+00   -9.438E+00   -9.425E+00   -9.412E+00   -9.399E+00   -9.385E+00
    -9.371E+00   -9.358E+00   -9.344E+00   -9.329E+00   -9.315E+00   -9.300E+00   -9.285E+00   -9.270E+00   -9.255E+00   -9.239E+00
    -9.224E+00   -9.208E+00   -9.192E+00   -9.176E+00   -9.160E+00   -9.143E+00   -9.127E+00   -9.110E+00   -9.093E+00   -9.076E+00
    -9.059E+00   -9.042E+00   -9.025E+00   -9.007E+00   -8.990E+00   -8.972E+00   -8.955E+00   -8.937E+00   -8.919E+00   -8.901E+00
    -8.883E+00   -8.865E+00   -8.847E+00   -8.829E+00   -8.810E+00   -8.792E+00   -8.774E+00   -8.755E+00   -8.737E+00   -8.719E+00
    -8.700E+00   -8.682E+00   -8.663E+00   -8.645E+00   -8.626E+00   -8.608E+00   -8.589E+00   -8.571E+00
 Ala      Conc. = 1.04E+00
