 LCModel (Version 6.3-1L) Copyright: S.W. Provencher.          Ref.: Magn. Reson. Med. 30:672-679 (1993).                
 Slice#2 Row#13 Col#4  PD_05_press_1_raw_act
 36 lines in following concentration table = NCONC+1
    Conc.  %SD /Cr+PCr  Metabolite                                         
 6.04E+03   7%  22.879 Ala                                                 
    7.349 261% 2.8E-02 Asp                                                 
    0.000 999%   0.000 Cr                                                  
  264.098  18%   1.000 PCr                                                 
    6.568 175% 2.5E-02 GABA                                                
    5.474 211% 2.1E-02 Glc                                                 
    0.000 999%   0.000 Gln                                                 
    0.000 999%   0.000 Glu                                                 
    0.000 999%   0.000 GPC                                                 
    0.000 999%   0.000 PCh                                                 
  112.129  71%   0.425 GSH                                                 
    0.000 999%   0.000 Ins                                                 
 5.58E+03   6%  21.130 Lac                                                 
    0.000 999%   0.000 NAA                                                 
    0.000 999%   0.000 NAAG                                                
    1.606 238% 6.1E-03 Scyllo                                              
    1.998 959% 7.6E-03 Tau                                                 
    0.000 999%   0.000 -CrCH2                                              
    0.000 999%   0.000 GPC+PCh                                             
    0.000 999%   0.000 NAA+NAAG                                            
  264.098  18%   1.000 Cr+PCr                                              
    0.000 999%   0.000 Glu+Gln                                             
    0.000 999%   0.000 Lip13a                                              
    0.000 999%   0.000 Lip13b                                              
 1.80E+03   9%   6.808+Lip09                                               
    6.239 218% 2.4E-02 MM09                                                
    0.000 999%   0.000 Lip20                                               
    0.000 999%   0.000 MM20                                                
    2.069 329% 7.8E-03 MM12                                                
   15.339 173% 5.8E-02 MM14                                                
    3.322 514% 1.3E-02 MM17                                                
    0.000 999%   0.000 Lip13a+Lip13b                                       
   17.407 166% 6.6E-02 MM14+Lip13a+Lip13b+MM12                             
 1.80E+03   9%   6.831 MM09+Lip09                                          
    0.000 999%   0.000 MM20+Lip20                                          
   6 lines in following misc. output table
  FWHM = 0.168 ppm    S/N =   4                                            
  Data shift = 0.153 ppm                                                   
  Ph:  89 deg     -25.8 deg/ppm                                            
  alphaB,S = 1.0E+01,   3.9E+02                                            
    6 spline knots.   Ns = 9(2)                                            
  (13) 4 infls.   ( 3) 1 extrs.                                            
  498 points on ppm-axis = NY
      4.000000     3.992357     3.984714     3.977070     3.969427     3.961784     3.954141     3.946497     3.938854     3.931211
      3.923568     3.915925     3.908281     3.900638     3.892995     3.885352     3.877708     3.870065     3.862422     3.854779
      3.847136     3.839492     3.831849     3.824206     3.816563     3.808919     3.801276     3.793633     3.785990     3.778347
      3.770703     3.763060     3.755417     3.747774     3.740130     3.732487     3.724844     3.717201     3.709558     3.701914
      3.694271     3.686628     3.678985     3.671341     3.663698     3.656055     3.648412     3.640769     3.633125     3.625482
      3.617839     3.610196     3.602552     3.594909     3.587266     3.579623     3.571980     3.564336     3.556693     3.549050
      3.541407     3.533763     3.526120     3.518477     3.510834     3.503191     3.495547     3.487904     3.480261     3.472618
      3.464974     3.457331     3.449688     3.442045     3.434402     3.426758     3.419115     3.411472     3.403829     3.396185
      3.388542     3.380899     3.373256     3.365613     3.357969     3.350326     3.342683     3.335040     3.327396     3.319753
      3.312110     3.304467     3.296824     3.289180     3.281537     3.273894     3.266251     3.258607     3.250964     3.243321
      3.235678     3.228034     3.220391     3.212748     3.205105     3.197462     3.189818     3.182175     3.174532     3.166889
      3.159245     3.151602     3.143959     3.136316     3.128673     3.121029     3.113386     3.105743     3.098100     3.090456
      3.082813     3.075170     3.067527     3.059884     3.052240     3.044597     3.036954     3.029311     3.021667     3.014024
      3.006381     2.998738     2.991095     2.983451     2.975808     2.968165     2.960522     2.952878     2.945235     2.937592
      2.929949     2.922306     2.914662     2.907019     2.899376     2.891733     2.884089     2.876446     2.868803     2.861160
      2.853517     2.845873     2.838230     2.830587     2.822944     2.815300     2.807657     2.800014     2.792371     2.784728
      2.777084     2.769441     2.761798     2.754155     2.746511     2.738868     2.731225     2.723582     2.715939     2.708295
      2.700652     2.693009     2.685366     2.677722     2.670079     2.662436     2.654793     2.647150     2.639506     2.631863
      2.624220     2.616577     2.608933     2.601290     2.593647     2.586004     2.578361     2.570717     2.563074     2.555431
      2.547788     2.540144     2.532501     2.524858     2.517215     2.509572     2.501928     2.494285     2.486642     2.478999
      2.471355     2.463712     2.456069     2.448426     2.440783     2.433139     2.425496     2.417853     2.410210     2.402566
      2.394923     2.387280     2.379637     2.371994     2.364350     2.356707     2.349064     2.341421     2.333777     2.326134
      2.318491     2.310848     2.303205     2.295561     2.287918     2.280275     2.272632     2.264988     2.257345     2.249702
      2.242059     2.234416     2.226772     2.219129     2.211486     2.203843     2.196199     2.188556     2.180913     2.173270
      2.165627     2.157983     2.150340     2.142697     2.135054     2.127410     2.119767     2.112124     2.104481     2.096838
      2.089194     2.081551     2.073908     2.066265     2.058621     2.050978     2.043335     2.035692     2.028049     2.020405
      2.012762     2.005119     1.997476     1.989833     1.982190     1.974546     1.966903     1.959260     1.951617     1.943974
      1.936331     1.928688     1.921045     1.913402     1.905759     1.898115     1.890472     1.882829     1.875186     1.867543
      1.859900     1.852257     1.844614     1.836971     1.829327     1.821684     1.814041     1.806398     1.798755     1.791112
      1.783469     1.775826     1.768183     1.760540     1.752896     1.745253     1.737610     1.729967     1.722324     1.714681
      1.707038     1.699395     1.691752     1.684108     1.676465     1.668822     1.661179     1.653536     1.645893     1.638250
      1.630607     1.622964     1.615321     1.607677     1.600034     1.592391     1.584748     1.577105     1.569462     1.561819
      1.554176     1.546533     1.538890     1.531246     1.523603     1.515960     1.508317     1.500674     1.493031     1.485388
      1.477745     1.470102     1.462458     1.454815     1.447172     1.439529     1.431886     1.424243     1.416600     1.408957
      1.401314     1.393671     1.386027     1.378384     1.370741     1.363098     1.355455     1.347812     1.340169     1.332526
      1.324883     1.317240     1.309596     1.301953     1.294310     1.286667     1.279024     1.271381     1.263738     1.256095
      1.248452     1.240808     1.233165     1.225522     1.217879     1.210236     1.202593     1.194950     1.187307     1.179664
      1.172021     1.164377     1.156734     1.149091     1.141448     1.133805     1.126162     1.118519     1.110876     1.103233
      1.095590     1.087946     1.080303     1.072660     1.065017     1.057374     1.049731     1.042088     1.034445     1.026802
      1.019158     1.011515     1.003872     0.996229     0.988586     0.980943     0.973300     0.965657     0.958014     0.950371
      0.942727     0.935084     0.927441     0.919798     0.912155     0.904512     0.896869     0.889226     0.881583     0.873940
      0.866296     0.858653     0.851010     0.843367     0.835724     0.828081     0.820438     0.812795     0.805152     0.797508
      0.789865     0.782222     0.774579     0.766936     0.759293     0.751650     0.744007     0.736364     0.728721     0.721077
      0.713434     0.705791     0.698148     0.690505     0.682862     0.675219     0.667576     0.659933     0.652290     0.644646
      0.637003     0.629360     0.621717     0.614074     0.606431     0.598788     0.591145     0.583502     0.575858     0.568215
      0.560572     0.552929     0.545286     0.537643     0.530000     0.522357     0.514714     0.507071     0.499427     0.491784
      0.484141     0.476498     0.468855     0.461212     0.453569     0.445925     0.438282     0.430639     0.422996     0.415353
      0.407710     0.400067     0.392424     0.384780     0.377137     0.369494     0.361851     0.354208     0.346565     0.338922
      0.331278     0.323635     0.315992     0.308349     0.300706     0.293063     0.285420     0.277777     0.270133     0.262490
      0.254847     0.247204     0.239561     0.231918     0.224275     0.216631     0.208988     0.201345
 NY phased data points follow
   1.02496E+02  1.00945E+02  1.02148E+02  9.98845E+01  9.76833E+01  9.75755E+01  9.63864E+01  9.62282E+01  9.50647E+01  9.53579E+01
   9.30800E+01  9.43524E+01  9.22677E+01  9.29796E+01  9.20711E+01  9.20412E+01  9.08132E+01  9.04174E+01  8.92694E+01  8.87643E+01
   8.76379E+01  8.62073E+01  8.75368E+01  8.77383E+01  8.52438E+01  8.35365E+01  8.49698E+01  8.43144E+01  8.17807E+01  8.11692E+01
   7.93337E+01  8.12061E+01  7.99836E+01  7.88300E+01  7.68249E+01  7.88876E+01  7.78286E+01  7.51940E+01  7.51788E+01  7.54439E+01
   7.42785E+01  7.40471E+01  7.36771E+01  7.41337E+01  7.33363E+01  7.24926E+01  7.13674E+01  7.06762E+01  7.25038E+01  7.12527E+01
   6.94679E+01  6.77846E+01  6.69344E+01  6.78792E+01  6.65075E+01  6.82962E+01  6.50410E+01  6.81440E+01  6.51708E+01  6.64799E+01
   6.42467E+01  6.43649E+01  6.34803E+01  6.30928E+01  6.08340E+01  6.14586E+01  6.04673E+01  6.26687E+01  6.04496E+01  6.19566E+01
   5.80254E+01  5.93734E+01  5.98759E+01  5.85535E+01  5.86079E+01  5.62794E+01  5.73828E+01  5.86230E+01  5.52381E+01  5.58286E+01
   5.60683E+01  5.53895E+01  5.57950E+01  5.38105E+01  5.35957E+01  5.54962E+01  5.49860E+01  5.57821E+01  5.34213E+01  5.28499E+01
   5.49903E+01  5.10500E+01  5.23896E+01  5.12664E+01  5.18776E+01  5.19692E+01  5.11092E+01  4.88686E+01  4.97853E+01  4.79632E+01
   4.88712E+01  4.81431E+01  4.60764E+01  4.83190E+01  4.61988E+01  4.72651E+01  4.56647E+01  4.73234E+01  4.58224E+01  4.73243E+01
   4.60178E+01  4.60257E+01  4.68528E+01  4.61169E+01  4.80201E+01  4.42743E+01  4.67656E+01  4.21395E+01  4.55040E+01  4.61481E+01
   4.39784E+01  4.29316E+01  4.34194E+01  4.38825E+01  4.43815E+01  4.27723E+01  4.35255E+01  4.24883E+01  4.13125E+01  4.33715E+01
   4.20495E+01  4.11216E+01  4.11226E+01  4.12178E+01  4.01064E+01  4.17450E+01  4.02435E+01  4.13958E+01  4.08676E+01  3.99301E+01
   3.99289E+01  3.76892E+01  3.85255E+01  3.78975E+01  3.77676E+01  3.66545E+01  3.77204E+01  3.81569E+01  3.71071E+01  3.86648E+01
   3.69821E+01  3.61916E+01  3.68178E+01  3.78015E+01  3.75938E+01  3.72925E+01  3.49006E+01  3.58730E+01  3.78229E+01  3.54415E+01
   3.55639E+01  3.68483E+01  3.63374E+01  3.45594E+01  3.63485E+01  3.47499E+01  3.70963E+01  3.71128E+01  3.16483E+01  3.42645E+01
   3.38715E+01  3.51217E+01  3.38102E+01  3.45145E+01  3.44495E+01  3.36497E+01  3.22993E+01  3.14960E+01  3.37919E+01  3.33154E+01
   3.20284E+01  3.10151E+01  2.98200E+01  3.10422E+01  3.01331E+01  3.33373E+01  3.13849E+01  2.95886E+01  2.94918E+01  2.95932E+01
   2.91156E+01  3.19412E+01  2.94147E+01  3.10694E+01  2.87061E+01  2.79667E+01  3.00648E+01  2.90815E+01  2.92438E+01  3.10432E+01
   3.03023E+01  2.99857E+01  2.89089E+01  2.87977E+01  3.03279E+01  3.01097E+01  2.79481E+01  2.81597E+01  2.86316E+01  2.84896E+01
   2.90282E+01  2.80798E+01  2.87876E+01  2.99320E+01  2.69574E+01  2.86847E+01  2.85829E+01  2.84187E+01  2.79424E+01  2.76710E+01
   2.84084E+01  3.04568E+01  2.96763E+01  2.82001E+01  2.89737E+01  2.92712E+01  2.92142E+01  2.91538E+01  2.78087E+01  2.87014E+01
   2.89627E+01  2.87438E+01  2.78677E+01  2.82102E+01  2.74870E+01  2.90991E+01  2.95683E+01  2.84402E+01  2.77807E+01  2.89758E+01
   2.91003E+01  3.02430E+01  3.06531E+01  2.96866E+01  3.20704E+01  3.20873E+01  3.11026E+01  3.05750E+01  2.89719E+01  3.00118E+01
   3.04926E+01  3.09173E+01  2.96043E+01  2.92558E+01  3.08853E+01  3.13017E+01  3.15574E+01  3.17156E+01  3.11009E+01  3.05447E+01
   3.17594E+01  3.09164E+01  3.37754E+01  3.55138E+01  3.41517E+01  3.30684E+01  3.41929E+01  3.29912E+01  3.40515E+01  3.38197E+01
   3.37032E+01  3.45380E+01  3.50596E+01  3.48093E+01  3.40096E+01  3.63930E+01  3.35927E+01  3.56994E+01  3.64177E+01  3.56804E+01
   3.69252E+01  3.82250E+01  3.73196E+01  3.72986E+01  3.71786E+01  3.83631E+01  3.68187E+01  3.97358E+01  3.88575E+01  4.06785E+01
   4.11850E+01  4.02411E+01  4.19376E+01  4.06966E+01  4.17855E+01  4.20221E+01  4.19357E+01  4.29338E+01  4.19822E+01  4.44639E+01
   4.29536E+01  4.44090E+01  4.48538E+01  4.59613E+01  4.54842E+01  4.49884E+01  5.07143E+01  4.94417E+01  5.07152E+01  5.12867E+01
   5.18517E+01  5.04894E+01  5.07378E+01  5.24322E+01  5.37894E+01  5.27637E+01  5.44140E+01  5.37577E+01  5.32266E+01  5.24426E+01
   5.32401E+01  5.36651E+01  5.35000E+01  5.19245E+01  5.19195E+01  5.33135E+01  5.31355E+01  5.23146E+01  4.99449E+01  5.02481E+01
   5.00296E+01  5.15196E+01  5.03151E+01  4.97386E+01  4.72095E+01  4.91677E+01  4.98186E+01  4.85175E+01  4.75093E+01  4.89637E+01
   4.84142E+01  4.81318E+01  4.86924E+01  4.65963E+01  4.57493E+01  4.62728E+01  4.55627E+01  4.51653E+01  4.38407E+01  4.25394E+01
   4.24122E+01  4.21359E+01  4.37832E+01  4.22383E+01  4.33491E+01  4.21327E+01  4.10099E+01  4.09170E+01  4.22494E+01  4.09830E+01
   4.19284E+01  4.01363E+01  3.90443E+01  4.14728E+01  3.88135E+01  3.75371E+01  3.87429E+01  3.91634E+01  3.86935E+01  3.65464E+01
   3.78058E+01  3.76077E+01  3.62910E+01  3.60180E+01  3.65460E+01  3.70859E+01  3.54953E+01  3.35512E+01  3.57483E+01  3.51582E+01
   3.55685E+01  3.68659E+01  3.55373E+01  3.51504E+01  3.48960E+01  3.40088E+01  3.08504E+01  3.44293E+01  3.31668E+01  3.46033E+01
   3.47787E+01  3.16576E+01  3.20112E+01  3.23016E+01  3.22787E+01  3.17313E+01  3.07079E+01  3.11907E+01  3.03755E+01  2.99107E+01
   2.75769E+01  3.02587E+01  2.89917E+01  2.79092E+01  2.80310E+01  2.87348E+01  2.85036E+01  2.80250E+01  2.70367E+01  2.72195E+01
   2.86475E+01  2.79467E+01  2.81353E+01  2.64640E+01  2.64877E+01  2.56148E+01  2.55021E+01  2.64854E+01  2.69691E+01  2.53595E+01
   2.58211E+01  2.50419E+01  2.59814E+01  2.36005E+01  2.61722E+01  2.49897E+01  2.49066E+01  2.57746E+01  2.63057E+01  2.46197E+01
   2.59520E+01  2.57247E+01  2.56183E+01  2.27313E+01  2.40279E+01  2.27800E+01  2.53178E+01  2.48466E+01  2.60344E+01  2.47657E+01
   2.30824E+01  2.32566E+01  2.23507E+01  2.25099E+01  2.19420E+01  2.36321E+01  2.36571E+01  2.19433E+01  2.36596E+01  2.26938E+01
   2.07951E+01  2.10001E+01  2.27077E+01  2.24643E+01  1.93596E+01  2.11884E+01  2.03884E+01  2.09798E+01  1.84892E+01  2.02583E+01
   1.94579E+01  2.18517E+01  1.96310E+01  1.90442E+01  2.10856E+01  2.07726E+01  1.96957E+01  1.96098E+01  1.85779E+01  1.82865E+01
   1.90908E+01  1.89061E+01  1.78315E+01  1.68604E+01  1.68651E+01  1.76560E+01  1.80885E+01  1.69660E+01  1.92714E+01  1.69803E+01
   1.89258E+01  1.62314E+01  1.82089E+01  1.78894E+01  1.57980E+01  1.74585E+01  1.85830E+01  1.81386E+01  1.78348E+01  1.91602E+01
   1.79758E+01  1.74454E+01  1.72802E+01  1.79897E+01  1.72577E+01  1.85587E+01  1.78241E+01  1.69956E+01
 NY points of the fit to the data follow
   9.75538E+01  9.69189E+01  9.64198E+01  9.60154E+01  9.55805E+01  9.56720E+01  9.52638E+01  9.55275E+01  9.49411E+01  9.48462E+01
   9.39350E+01  9.33989E+01  9.22260E+01  9.16932E+01  9.05512E+01  9.00670E+01  8.93398E+01  8.88337E+01  8.84325E+01  8.78247E+01
   8.75154E+01  8.67617E+01  8.65130E+01  8.54369E+01  8.52934E+01  8.39222E+01  8.38322E+01  8.22182E+01  8.22890E+01  8.06559E+01
   8.10460E+01  7.95377E+01  8.01150E+01  7.86579E+01  7.93125E+01  7.78127E+01  7.83798E+01  7.68357E+01  7.72833E+01  7.57278E+01
   7.59834E+01  7.45094E+01  7.47091E+01  7.33663E+01  7.35265E+01  7.24074E+01  7.25960E+01  7.18272E+01  7.18332E+01  7.10292E+01
   7.08729E+01  7.00638E+01  6.97464E+01  6.89169E+01  6.83516E+01  6.77053E+01  6.72995E+01  6.67896E+01  6.64341E+01  6.60234E+01
   6.56879E+01  6.53328E+01  6.49101E+01  6.44676E+01  6.40151E+01  6.35634E+01  6.31091E+01  6.26594E+01  6.22106E+01  6.17650E+01
   6.13212E+01  6.08801E+01  6.04418E+01  6.00056E+01  5.95732E+01  5.91419E+01  5.87155E+01  5.82888E+01  5.78678E+01  5.74459E+01
   5.70310E+01  5.66144E+01  5.62056E+01  5.57944E+01  5.53912E+01  5.49851E+01  5.45871E+01  5.41863E+01  5.37931E+01  5.33983E+01
   5.30105E+01  5.26222E+01  5.22404E+01  5.18591E+01  5.14838E+01  5.11101E+01  5.07419E+01  5.03767E+01  5.00164E+01  4.96600E+01
   4.93086E+01  4.89620E+01  4.86189E+01  4.82836E+01  4.79524E+01  4.76339E+01  4.73278E+01  4.70695E+01  4.69450E+01  4.67909E+01
   4.66456E+01  4.65296E+01  4.63367E+01  4.62549E+01  4.60482E+01  4.60173E+01  4.58004E+01  4.57938E+01  4.55057E+01  4.55061E+01
   4.51685E+01  4.51875E+01  4.48242E+01  4.48538E+01  4.44388E+01  4.44397E+01  4.39271E+01  4.38651E+01  4.32343E+01  4.30978E+01
   4.24305E+01  4.22369E+01  4.15746E+01  4.13308E+01  4.06881E+01  4.03999E+01  3.97852E+01  3.94638E+01  3.89008E+01  3.85609E+01
   3.80703E+01  3.77229E+01  3.73039E+01  3.69489E+01  3.65534E+01  3.61945E+01  3.58541E+01  3.55459E+01  3.54013E+01  3.51567E+01
   3.50098E+01  3.47768E+01  3.46226E+01  3.44073E+01  3.42524E+01  3.40638E+01  3.39154E+01  3.37347E+01  3.35774E+01  3.34039E+01
   3.32395E+01  3.30809E+01  3.29234E+01  3.27812E+01  3.26375E+01  3.25038E+01  3.23691E+01  3.22389E+01  3.21110E+01  3.19867E+01
   3.18672E+01  3.17528E+01  3.16477E+01  3.15458E+01  3.14530E+01  3.13566E+01  3.12671E+01  3.11736E+01  3.10874E+01  3.09944E+01
   3.09083E+01  3.08314E+01  3.07550E+01  3.06919E+01  3.06219E+01  3.05704E+01  3.05052E+01  3.04669E+01  3.04063E+01  3.03806E+01
   3.03235E+01  3.03054E+01  3.02469E+01  3.02347E+01  3.01767E+01  3.01748E+01  3.01224E+01  3.01307E+01  3.00875E+01  3.01046E+01
   3.00705E+01  3.00891E+01  3.00602E+01  3.00793E+01  3.00571E+01  3.00776E+01  3.00645E+01  3.00831E+01  3.00762E+01  3.00932E+01
   3.00920E+01  3.01088E+01  3.01176E+01  3.01336E+01  3.01479E+01  3.01702E+01  3.01922E+01  3.02190E+01  3.02469E+01  3.02762E+01
   3.03059E+01  3.03351E+01  3.03654E+01  3.03950E+01  3.04286E+01  3.04611E+01  3.04996E+01  3.05404E+01  3.05919E+01  3.06368E+01
   3.06980E+01  3.07485E+01  3.08204E+01  3.08757E+01  3.09558E+01  3.10095E+01  3.10940E+01  3.11440E+01  3.12326E+01  3.12831E+01
   3.13787E+01  3.14389E+01  3.15457E+01  3.16166E+01  3.17327E+01  3.18116E+01  3.19321E+01  3.20149E+01  3.21349E+01  3.22254E+01
   3.23470E+01  3.24458E+01  3.25678E+01  3.26704E+01  3.27912E+01  3.29044E+01  3.30293E+01  3.31555E+01  3.32875E+01  3.34300E+01
   3.35673E+01  3.37081E+01  3.38434E+01  3.39848E+01  3.41217E+01  3.42662E+01  3.44071E+01  3.45628E+01  3.47162E+01  3.48797E+01
   3.50416E+01  3.52116E+01  3.53816E+01  3.55569E+01  3.57333E+01  3.59148E+01  3.60992E+01  3.62893E+01  3.64831E+01  3.66829E+01
   3.68871E+01  3.70979E+01  3.73140E+01  3.75371E+01  3.77667E+01  3.80040E+01  3.82490E+01  3.85025E+01  3.87651E+01  3.90375E+01
   3.93206E+01  3.96151E+01  3.99226E+01  4.02441E+01  4.05814E+01  4.09360E+01  4.13103E+01  4.17067E+01  4.21285E+01  4.25791E+01
   4.30633E+01  4.35871E+01  4.41583E+01  4.47872E+01  4.54884E+01  4.62828E+01  4.72026E+01  4.82996E+01  4.96352E+01  5.08955E+01
   5.08924E+01  5.11994E+01  5.03967E+01  5.02197E+01  4.90615E+01  4.87065E+01  4.74979E+01  4.83961E+01  4.77334E+01  4.86982E+01
   4.81860E+01  4.89982E+01  4.84560E+01  4.92482E+01  4.86696E+01  4.94469E+01  4.89903E+01  4.96500E+01  4.97727E+01  5.08881E+01
   5.06204E+01  5.10799E+01  5.11215E+01  5.11611E+01  5.15523E+01  5.10170E+01  5.16501E+01  5.17303E+01  5.22372E+01  5.17846E+01
   5.21188E+01  5.13265E+01  5.13771E+01  5.04504E+01  4.99147E+01  4.87348E+01  4.79647E+01  4.65830E+01  4.60925E+01  4.49691E+01
   4.39963E+01  4.32384E+01  4.23431E+01  4.18170E+01  4.06824E+01  4.00789E+01  3.89099E+01  3.90645E+01  3.84457E+01  3.85624E+01
   3.81348E+01  3.82860E+01  3.79596E+01  3.80566E+01  3.76257E+01  3.74720E+01  3.73747E+01  3.73706E+01  3.78695E+01  3.82029E+01
   3.76590E+01  3.72184E+01  3.64266E+01  3.53927E+01  3.45727E+01  3.32789E+01  3.30994E+01  3.32604E+01  3.34911E+01  3.37291E+01
   3.39504E+01  3.41427E+01  3.42978E+01  3.44103E+01  3.44759E+01  3.44913E+01  3.44542E+01  3.43634E+01  3.42187E+01  3.40212E+01
   3.37727E+01  3.34763E+01  3.31359E+01  3.27565E+01  3.23438E+01  3.19041E+01  3.14442E+01  3.09708E+01  3.04907E+01  3.00107E+01
   2.95371E+01  2.90755E+01  2.86308E+01  2.82073E+01  2.78081E+01  2.74359E+01  2.70923E+01  2.67780E+01  2.64932E+01  2.62374E+01
   2.60093E+01  2.58076E+01  2.56305E+01  2.54758E+01  2.53415E+01  2.52251E+01  2.51245E+01  2.50376E+01  2.49624E+01  2.48967E+01
   2.48390E+01  2.47875E+01  2.47408E+01  2.46978E+01  2.46572E+01  2.46181E+01  2.45797E+01  2.45412E+01  2.45020E+01  2.44618E+01
   2.44199E+01  2.43762E+01  2.43302E+01  2.42818E+01  2.42307E+01  2.41769E+01  2.41202E+01  2.40605E+01  2.39977E+01  2.39319E+01
   2.38628E+01  2.37907E+01  2.37153E+01  2.36367E+01  2.35550E+01  2.34700E+01  2.33819E+01  2.32907E+01  2.31963E+01  2.30988E+01
   2.29982E+01  2.28946E+01  2.27879E+01  2.26783E+01  2.25656E+01  2.24500E+01  2.23315E+01  2.22101E+01  2.20859E+01  2.19589E+01
   2.18290E+01  2.16964E+01  2.15611E+01  2.14231E+01  2.12824E+01  2.11391E+01  2.09932E+01  2.08448E+01  2.06938E+01  2.05404E+01
   2.03845E+01  2.02262E+01  2.00655E+01  1.99025E+01  1.97372E+01  1.95697E+01  1.93999E+01  1.92280E+01  1.90540E+01  1.88779E+01
   1.86999E+01  1.85199E+01  1.83380E+01  1.81543E+01  1.79689E+01  1.77818E+01  1.75932E+01  1.74031E+01  1.72118E+01  1.70192E+01
   1.68255E+01  1.66311E+01  1.64359E+01  1.62403E+01  1.60446E+01  1.58492E+01  1.56545E+01  1.54611E+01
 NY background values follow
     9.666E+01    9.610E+01    9.555E+01    9.500E+01    9.445E+01    9.391E+01    9.336E+01    9.281E+01    9.226E+01    9.172E+01
     9.117E+01    9.063E+01    9.008E+01    8.954E+01    8.900E+01    8.845E+01    8.791E+01    8.737E+01    8.684E+01    8.630E+01
     8.576E+01    8.523E+01    8.469E+01    8.416E+01    8.363E+01    8.309E+01    8.256E+01    8.204E+01    8.151E+01    8.098E+01
     8.046E+01    7.993E+01    7.941E+01    7.889E+01    7.837E+01    7.786E+01    7.734E+01    7.682E+01    7.631E+01    7.580E+01
     7.529E+01    7.478E+01    7.427E+01    7.377E+01    7.327E+01    7.276E+01    7.226E+01    7.177E+01    7.127E+01    7.078E+01
     7.028E+01    6.979E+01    6.930E+01    6.882E+01    6.833E+01    6.785E+01    6.737E+01    6.689E+01    6.641E+01    6.594E+01
     6.547E+01    6.500E+01    6.453E+01    6.406E+01    6.360E+01    6.314E+01    6.268E+01    6.222E+01    6.176E+01    6.131E+01
     6.086E+01    6.041E+01    5.997E+01    5.952E+01    5.908E+01    5.865E+01    5.821E+01    5.778E+01    5.735E+01    5.692E+01
     5.649E+01    5.607E+01    5.565E+01    5.523E+01    5.482E+01    5.440E+01    5.399E+01    5.359E+01    5.318E+01    5.278E+01
     5.238E+01    5.199E+01    5.159E+01    5.120E+01    5.081E+01    5.043E+01    5.005E+01    4.967E+01    4.929E+01    4.892E+01
     4.855E+01    4.818E+01    4.782E+01    4.746E+01    4.710E+01    4.674E+01    4.639E+01    4.604E+01    4.569E+01    4.535E+01
     4.501E+01    4.467E+01    4.434E+01    4.401E+01    4.368E+01    4.336E+01    4.304E+01    4.272E+01    4.240E+01    4.209E+01
     4.178E+01    4.148E+01    4.118E+01    4.088E+01    4.058E+01    4.029E+01    4.000E+01    3.972E+01    3.944E+01    3.916E+01
     3.888E+01    3.861E+01    3.834E+01    3.808E+01    3.781E+01    3.756E+01    3.730E+01    3.705E+01    3.680E+01    3.656E+01
     3.632E+01    3.608E+01    3.584E+01    3.561E+01    3.539E+01    3.516E+01    3.494E+01    3.473E+01    3.451E+01    3.430E+01
     3.410E+01    3.389E+01    3.369E+01    3.350E+01    3.331E+01    3.312E+01    3.293E+01    3.275E+01    3.257E+01    3.240E+01
     3.223E+01    3.206E+01    3.190E+01    3.174E+01    3.158E+01    3.143E+01    3.128E+01    3.113E+01    3.099E+01    3.085E+01
     3.072E+01    3.058E+01    3.046E+01    3.033E+01    3.021E+01    3.009E+01    2.998E+01    2.986E+01    2.976E+01    2.965E+01
     2.955E+01    2.945E+01    2.936E+01    2.926E+01    2.917E+01    2.909E+01    2.900E+01    2.892E+01    2.885E+01    2.877E+01
     2.870E+01    2.863E+01    2.857E+01    2.851E+01    2.845E+01    2.839E+01    2.834E+01    2.828E+01    2.823E+01    2.819E+01
     2.815E+01    2.810E+01    2.807E+01    2.803E+01    2.800E+01    2.797E+01    2.794E+01    2.791E+01    2.789E+01    2.787E+01
     2.785E+01    2.783E+01    2.782E+01    2.781E+01    2.780E+01    2.779E+01    2.779E+01    2.778E+01    2.778E+01    2.778E+01
     2.779E+01    2.779E+01    2.780E+01    2.781E+01    2.782E+01    2.783E+01    2.785E+01    2.786E+01    2.788E+01    2.790E+01
     2.792E+01    2.795E+01    2.797E+01    2.800E+01    2.803E+01    2.806E+01    2.809E+01    2.812E+01    2.816E+01    2.819E+01
     2.823E+01    2.827E+01    2.831E+01    2.835E+01    2.839E+01    2.844E+01    2.848E+01    2.853E+01    2.858E+01    2.863E+01
     2.868E+01    2.873E+01    2.878E+01    2.884E+01    2.889E+01    2.895E+01    2.900E+01    2.906E+01    2.912E+01    2.918E+01
     2.924E+01    2.930E+01    2.936E+01    2.942E+01    2.948E+01    2.955E+01    2.961E+01    2.968E+01    2.974E+01    2.981E+01
     2.987E+01    2.994E+01    3.001E+01    3.008E+01    3.014E+01    3.021E+01    3.028E+01    3.035E+01    3.042E+01    3.049E+01
     3.056E+01    3.063E+01    3.070E+01    3.077E+01    3.084E+01    3.091E+01    3.099E+01    3.106E+01    3.113E+01    3.120E+01
     3.127E+01    3.134E+01    3.141E+01    3.148E+01    3.155E+01    3.162E+01    3.169E+01    3.176E+01    3.183E+01    3.190E+01
     3.197E+01    3.204E+01    3.211E+01    3.218E+01    3.225E+01    3.231E+01    3.238E+01    3.245E+01    3.251E+01    3.258E+01
     3.264E+01    3.271E+01    3.277E+01    3.283E+01    3.290E+01    3.296E+01    3.302E+01    3.308E+01    3.314E+01    3.320E+01
     3.326E+01    3.331E+01    3.337E+01    3.342E+01    3.348E+01    3.353E+01    3.359E+01    3.364E+01    3.369E+01    3.374E+01
     3.379E+01    3.383E+01    3.388E+01    3.393E+01    3.397E+01    3.401E+01    3.406E+01    3.410E+01    3.414E+01    3.418E+01
     3.421E+01    3.425E+01    3.428E+01    3.432E+01    3.435E+01    3.438E+01    3.441E+01    3.444E+01    3.447E+01    3.449E+01
     3.452E+01    3.454E+01    3.456E+01    3.458E+01    3.460E+01    3.462E+01    3.464E+01    3.465E+01    3.466E+01    3.468E+01
     3.469E+01    3.469E+01    3.470E+01    3.471E+01    3.471E+01    3.471E+01    3.472E+01    3.472E+01    3.471E+01    3.471E+01
     3.470E+01    3.470E+01    3.469E+01    3.468E+01    3.467E+01    3.465E+01    3.464E+01    3.462E+01    3.460E+01    3.458E+01
     3.456E+01    3.453E+01    3.451E+01    3.448E+01    3.445E+01    3.442E+01    3.439E+01    3.435E+01    3.432E+01    3.428E+01
     3.424E+01    3.420E+01    3.415E+01    3.411E+01    3.406E+01    3.401E+01    3.396E+01    3.391E+01    3.385E+01    3.379E+01
     3.373E+01    3.367E+01    3.361E+01    3.355E+01    3.348E+01    3.341E+01    3.334E+01    3.327E+01    3.319E+01    3.312E+01
     3.304E+01    3.296E+01    3.288E+01    3.279E+01    3.270E+01    3.262E+01    3.253E+01    3.243E+01    3.234E+01    3.224E+01
     3.214E+01    3.204E+01    3.194E+01    3.184E+01    3.173E+01    3.162E+01    3.151E+01    3.140E+01    3.128E+01    3.116E+01
     3.105E+01    3.092E+01    3.080E+01    3.068E+01    3.055E+01    3.042E+01    3.029E+01    3.015E+01    3.002E+01    2.988E+01
     2.974E+01    2.960E+01    2.945E+01    2.931E+01    2.916E+01    2.901E+01    2.886E+01    2.870E+01    2.855E+01    2.839E+01
     2.823E+01    2.806E+01    2.790E+01    2.773E+01    2.756E+01    2.739E+01    2.722E+01    2.704E+01    2.687E+01    2.669E+01
     2.651E+01    2.632E+01    2.614E+01    2.595E+01    2.576E+01    2.557E+01    2.537E+01    2.518E+01    2.498E+01    2.478E+01
     2.458E+01    2.437E+01    2.417E+01    2.396E+01    2.375E+01    2.354E+01    2.333E+01    2.311E+01    2.289E+01    2.267E+01
     2.245E+01    2.223E+01    2.200E+01    2.177E+01    2.154E+01    2.131E+01    2.108E+01    2.084E+01    2.061E+01    2.037E+01
     2.013E+01    1.988E+01    1.964E+01    1.939E+01    1.914E+01    1.889E+01    1.864E+01    1.839E+01
 Ala      Conc. = 6.04E+03
