 LCModel (Version 6.3-1L) Copyright: S.W. Provencher.          Ref.: Magn. Reson. Med. 30:672-679 (1993).                
 Slice#3 Row#4 Col#13  PD_05_press_1_raw_act
 36 lines in following concentration table = NCONC+1
    Conc.  %SD /Cr+PCr  Metabolite                                         
   41.127 114%   0.000 Ala                                                 
    4.362 179%   0.000 Asp                                                 
    0.000 999%   0.000 Cr                                                  
    0.000 999%   0.000 PCr                                                 
    2.882 163%   0.000 GABA                                                
    2.982 158%   0.000 Glc                                                 
   50.609 167%   0.000 Gln                                                 
  178.138  58%   0.000 Glu                                                 
    9.588  77%   0.000 GPC                                                 
    0.000 999%   0.000 PCh                                                 
    0.000 999%   0.000 GSH                                                 
  111.115  78%   0.000 Ins                                                 
    0.000 999%   0.000 Lac                                                 
   62.223  41%   0.000 NAA                                                 
    0.000 999%   0.000 NAAG                                                
    1.181 132%   0.000 Scyllo                                              
    6.125 127%   0.000 Tau                                                 
    0.000 999%   0.000 -CrCH2                                              
    9.588  77%   0.000 GPC+PCh                                             
   62.223  41%   0.000 NAA+NAAG                                            
    0.000 999%   0.000 Cr+PCr                                              
  228.747  63%   0.000 Glu+Gln                                             
 8.63E+03  28%   0.000 Lip13a                                              
 5.90E+04   8%   0.000 Lip13b                                              
 6.35E+03  23%   0.000 Lip09                                               
 1.11E+03  29%   0.000 MM09                                                
 1.16E+03  37%   0.000 Lip20                                               
 1.20E+03  25%   0.000 MM20                                                
  314.132  82%   0.000 MM12                                                
 3.15E+03  28%   0.000 MM14                                                
    0.000 999%   0.000 MM17                                                
 6.76E+04   4%   0.000 Lip13a+Lip13b                                       
 7.11E+04   3%   0.000 MM14+Lip13a+Lip13b+MM12                             
 7.46E+03  20%   0.000 MM09+Lip09                                          
 2.35E+03  14%   0.000 MM20+Lip20                                          
   6 lines in following misc. output table
  FWHM = 0.046 ppm    S/N =  65                                            
  Data shift =-0.054 ppm                                                   
  Ph:  86 deg    -102.1 deg/ppm                                            
  alphaB,S = 2.6E+00,   1.1E+01                                            
   14 spline knots.   Ns = 5(1)                                            
  ( 7) 2 infls.   ( 9) 1 extrs.                                            
  498 points on ppm-axis = NY
      4.000000     3.992357     3.984714     3.977070     3.969427     3.961784     3.954141     3.946497     3.938854     3.931211
      3.923568     3.915925     3.908281     3.900638     3.892995     3.885352     3.877708     3.870065     3.862422     3.854779
      3.847136     3.839492     3.831849     3.824206     3.816563     3.808919     3.801276     3.793633     3.785990     3.778347
      3.770703     3.763060     3.755417     3.747774     3.740130     3.732487     3.724844     3.717201     3.709558     3.701914
      3.694271     3.686628     3.678985     3.671341     3.663698     3.656055     3.648412     3.640769     3.633125     3.625482
      3.617839     3.610196     3.602552     3.594909     3.587266     3.579623     3.571980     3.564336     3.556693     3.549050
      3.541407     3.533763     3.526120     3.518477     3.510834     3.503191     3.495547     3.487904     3.480261     3.472618
      3.464974     3.457331     3.449688     3.442045     3.434402     3.426758     3.419115     3.411472     3.403829     3.396185
      3.388542     3.380899     3.373256     3.365613     3.357969     3.350326     3.342683     3.335040     3.327396     3.319753
      3.312110     3.304467     3.296824     3.289180     3.281537     3.273894     3.266251     3.258607     3.250964     3.243321
      3.235678     3.228034     3.220391     3.212748     3.205105     3.197462     3.189818     3.182175     3.174532     3.166889
      3.159245     3.151602     3.143959     3.136316     3.128673     3.121029     3.113386     3.105743     3.098100     3.090456
      3.082813     3.075170     3.067527     3.059884     3.052240     3.044597     3.036954     3.029311     3.021667     3.014024
      3.006381     2.998738     2.991095     2.983451     2.975808     2.968165     2.960522     2.952878     2.945235     2.937592
      2.929949     2.922306     2.914662     2.907019     2.899376     2.891733     2.884089     2.876446     2.868803     2.861160
      2.853517     2.845873     2.838230     2.830587     2.822944     2.815300     2.807657     2.800014     2.792371     2.784728
      2.777084     2.769441     2.761798     2.754155     2.746511     2.738868     2.731225     2.723582     2.715939     2.708295
      2.700652     2.693009     2.685366     2.677722     2.670079     2.662436     2.654793     2.647150     2.639506     2.631863
      2.624220     2.616577     2.608933     2.601290     2.593647     2.586004     2.578361     2.570717     2.563074     2.555431
      2.547788     2.540144     2.532501     2.524858     2.517215     2.509572     2.501928     2.494285     2.486642     2.478999
      2.471355     2.463712     2.456069     2.448426     2.440783     2.433139     2.425496     2.417853     2.410210     2.402566
      2.394923     2.387280     2.379637     2.371994     2.364350     2.356707     2.349064     2.341421     2.333777     2.326134
      2.318491     2.310848     2.303205     2.295561     2.287918     2.280275     2.272632     2.264988     2.257345     2.249702
      2.242059     2.234416     2.226772     2.219129     2.211486     2.203843     2.196199     2.188556     2.180913     2.173270
      2.165627     2.157983     2.150340     2.142697     2.135054     2.127410     2.119767     2.112124     2.104481     2.096838
      2.089194     2.081551     2.073908     2.066265     2.058621     2.050978     2.043335     2.035692     2.028049     2.020405
      2.012762     2.005119     1.997476     1.989833     1.982190     1.974546     1.966903     1.959260     1.951617     1.943974
      1.936331     1.928688     1.921045     1.913402     1.905759     1.898115     1.890472     1.882829     1.875186     1.867543
      1.859900     1.852257     1.844614     1.836971     1.829327     1.821684     1.814041     1.806398     1.798755     1.791112
      1.783469     1.775826     1.768183     1.760540     1.752896     1.745253     1.737610     1.729967     1.722324     1.714681
      1.707038     1.699395     1.691752     1.684108     1.676465     1.668822     1.661179     1.653536     1.645893     1.638250
      1.630607     1.622964     1.615321     1.607677     1.600034     1.592391     1.584748     1.577105     1.569462     1.561819
      1.554176     1.546533     1.538890     1.531246     1.523603     1.515960     1.508317     1.500674     1.493031     1.485388
      1.477745     1.470102     1.462458     1.454815     1.447172     1.439529     1.431886     1.424243     1.416600     1.408957
      1.401314     1.393671     1.386027     1.378384     1.370741     1.363098     1.355455     1.347812     1.340169     1.332526
      1.324883     1.317240     1.309596     1.301953     1.294310     1.286667     1.279024     1.271381     1.263738     1.256095
      1.248452     1.240808     1.233165     1.225522     1.217879     1.210236     1.202593     1.194950     1.187307     1.179664
      1.172021     1.164377     1.156734     1.149091     1.141448     1.133805     1.126162     1.118519     1.110876     1.103233
      1.095590     1.087946     1.080303     1.072660     1.065017     1.057374     1.049731     1.042088     1.034445     1.026802
      1.019158     1.011515     1.003872     0.996229     0.988586     0.980943     0.973300     0.965657     0.958014     0.950371
      0.942727     0.935084     0.927441     0.919798     0.912155     0.904512     0.896869     0.889226     0.881583     0.873940
      0.866296     0.858653     0.851010     0.843367     0.835724     0.828081     0.820438     0.812795     0.805152     0.797508
      0.789865     0.782222     0.774579     0.766936     0.759293     0.751650     0.744007     0.736364     0.728721     0.721077
      0.713434     0.705791     0.698148     0.690505     0.682862     0.675219     0.667576     0.659933     0.652290     0.644646
      0.637003     0.629360     0.621717     0.614074     0.606431     0.598788     0.591145     0.583502     0.575858     0.568215
      0.560572     0.552929     0.545286     0.537643     0.530000     0.522357     0.514714     0.507071     0.499427     0.491784
      0.484141     0.476498     0.468855     0.461212     0.453569     0.445925     0.438282     0.430639     0.422996     0.415353
      0.407710     0.400067     0.392424     0.384780     0.377137     0.369494     0.361851     0.354208     0.346565     0.338922
      0.331278     0.323635     0.315992     0.308349     0.300706     0.293063     0.285420     0.277777     0.270133     0.262490
      0.254847     0.247204     0.239561     0.231918     0.224275     0.216631     0.208988     0.201345
 NY phased data points follow
  -2.99208E+00 -4.31048E+00 -4.57708E+00 -3.32064E+00 -6.07847E+00 -4.40852E+00 -4.28232E+00 -3.39247E+00 -5.40823E+00 -3.19636E+00
  -2.83711E+00 -2.30085E+00 -1.77110E+00 -2.12560E+00 -1.65380E+00 -1.13790E+00 -1.99243E+00 -2.36702E+00 -2.43738E+00 -1.63150E+00
   4.13060E-01 -1.08013E+00 -2.97703E-02  3.26266E-01 -1.40578E+00 -8.15884E-01  4.90444E-01  9.13915E-01  2.89958E+00  2.67861E+00
   2.39381E+00 -5.61645E-01  3.03944E+00  3.28193E+00  1.76156E+00  2.89609E+00  1.85691E+00  2.23633E+00  2.19827E+00  2.36731E+00
   2.67931E+00  2.26071E+00  3.23375E+00  2.94756E+00  1.79803E+00  4.75547E+00  2.58709E+00  4.55220E+00  6.21335E+00  5.67131E+00
   6.41349E+00  6.94349E+00  4.75122E+00  5.65004E+00  6.01302E+00  5.17045E+00  6.43924E+00  5.69581E+00  9.04645E+00  7.93188E+00
   8.19716E+00  6.63584E+00  7.76820E+00  7.80822E+00  9.44312E+00  9.12374E+00  1.00710E+01  8.19130E+00  1.00071E+01  1.18307E+01
   1.19936E+01  1.11729E+01  1.14369E+01  8.96443E+00  1.27362E+01  1.13532E+01  1.26440E+01  1.29655E+01  1.28789E+01  1.61637E+01
   1.46715E+01  1.21941E+01  1.35338E+01  1.47771E+01  1.48775E+01  1.46864E+01  1.54350E+01  1.50266E+01  1.34369E+01  1.65608E+01
   1.64588E+01  1.59645E+01  1.53896E+01  1.64580E+01  1.74953E+01  1.80307E+01  1.84873E+01  1.85826E+01  1.88147E+01  1.89168E+01
   1.79974E+01  1.89168E+01  1.88448E+01  2.06860E+01  1.95688E+01  2.23149E+01  2.00425E+01  2.15515E+01  2.11531E+01  2.03193E+01
   2.19907E+01  1.96018E+01  2.09115E+01  2.21746E+01  2.39705E+01  2.15981E+01  2.18486E+01  2.36178E+01  2.39329E+01  2.36651E+01
   2.45933E+01  2.32516E+01  2.46395E+01  2.39580E+01  2.44826E+01  2.42225E+01  2.68827E+01  2.63496E+01  2.63727E+01  2.67907E+01
   2.53012E+01  2.76633E+01  2.59387E+01  2.77919E+01  2.73039E+01  2.81979E+01  2.61374E+01  2.74417E+01  2.83924E+01  2.80299E+01
   2.78723E+01  2.85012E+01  2.90538E+01  2.83499E+01  3.21592E+01  3.15290E+01  3.13521E+01  3.26638E+01  3.04588E+01  3.23511E+01
   3.24538E+01  3.26537E+01  3.22463E+01  3.28904E+01  3.46720E+01  3.38112E+01  3.44741E+01  3.61564E+01  3.52470E+01  3.56169E+01
   3.65634E+01  3.71148E+01  3.50181E+01  3.76580E+01  3.80195E+01  3.65500E+01  3.77389E+01  3.91094E+01  4.09278E+01  3.79824E+01
   3.91883E+01  3.86287E+01  4.00374E+01  3.98124E+01  4.12654E+01  4.10500E+01  4.07445E+01  4.17521E+01  4.18453E+01  3.98280E+01
   4.15629E+01  4.24392E+01  4.54670E+01  4.36663E+01  4.30626E+01  4.38599E+01  4.42534E+01  4.27493E+01  4.34877E+01  4.41578E+01
   4.51489E+01  4.63985E+01  4.74895E+01  4.71791E+01  4.74188E+01  4.64402E+01  4.78449E+01  4.74284E+01  4.75017E+01  4.80376E+01
   4.91671E+01  4.75251E+01  4.94766E+01  5.04723E+01  5.24811E+01  4.98533E+01  4.95036E+01  5.22258E+01  5.24411E+01  5.24629E+01
   5.28604E+01  5.00180E+01  5.29067E+01  5.29410E+01  5.47426E+01  5.52668E+01  5.59966E+01  5.75956E+01  5.64123E+01  5.73082E+01
   5.77090E+01  5.75661E+01  5.97673E+01  5.73411E+01  5.72849E+01  5.88374E+01  5.90600E+01  6.10894E+01  5.85769E+01  6.18513E+01
   6.21374E+01  6.40275E+01  6.23672E+01  6.35342E+01  6.50888E+01  6.49784E+01  6.63534E+01  6.77406E+01  6.87419E+01  6.79395E+01
   6.90297E+01  7.05194E+01  6.91342E+01  6.99119E+01  7.26605E+01  7.32132E+01  7.15131E+01  7.35928E+01  7.27891E+01  7.35970E+01
   7.43725E+01  7.48457E+01  7.46194E+01  7.72909E+01  7.65509E+01  7.76580E+01  7.84665E+01  7.92730E+01  7.95037E+01  8.11333E+01
   7.88835E+01  8.16404E+01  8.23606E+01  8.38615E+01  8.34498E+01  8.34341E+01  8.60355E+01  8.44021E+01  8.56193E+01  8.48783E+01
   8.45078E+01  8.51729E+01  8.69888E+01  8.61435E+01  8.47062E+01  8.71829E+01  8.61552E+01  8.65120E+01  8.80351E+01  8.87587E+01
   8.79643E+01  8.96582E+01  8.72605E+01  8.78115E+01  8.73340E+01  8.95088E+01  9.08583E+01  9.05464E+01  9.16960E+01  9.02068E+01
   9.30408E+01  9.21783E+01  9.13800E+01  9.29338E+01  9.42980E+01  9.62944E+01  9.72998E+01  9.65636E+01  9.74901E+01  9.80639E+01
   9.86168E+01  9.95082E+01  1.01628E+02  1.03685E+02  1.03472E+02  1.03690E+02  1.04952E+02  1.07554E+02  1.09055E+02  1.12662E+02
   1.14712E+02  1.16245E+02  1.19793E+02  1.19058E+02  1.21787E+02  1.24494E+02  1.28131E+02  1.29854E+02  1.34993E+02  1.38268E+02
   1.41518E+02  1.45367E+02  1.48363E+02  1.53445E+02  1.57326E+02  1.63851E+02  1.69913E+02  1.75155E+02  1.81079E+02  1.86338E+02
   1.94315E+02  1.99179E+02  2.05761E+02  2.12056E+02  2.22069E+02  2.27443E+02  2.34829E+02  2.41993E+02  2.47978E+02  2.54529E+02
   2.61269E+02  2.70147E+02  2.75047E+02  2.76832E+02  2.82433E+02  2.86818E+02  2.89884E+02  2.92811E+02  2.94898E+02  2.99854E+02
   2.98762E+02  3.02385E+02  3.03516E+02  3.01827E+02  2.99974E+02  2.97325E+02  2.94612E+02  2.93267E+02  2.90926E+02  2.89750E+02
   2.85352E+02  2.79441E+02  2.79114E+02  2.75680E+02  2.73207E+02  2.68855E+02  2.66993E+02  2.59968E+02  2.56674E+02  2.50996E+02
   2.43080E+02  2.37145E+02  2.29203E+02  2.22284E+02  2.14535E+02  2.05693E+02  1.93920E+02  1.85160E+02  1.77107E+02  1.68620E+02
   1.62697E+02  1.55422E+02  1.46598E+02  1.42394E+02  1.38416E+02  1.35518E+02  1.28607E+02  1.27595E+02  1.24621E+02  1.23344E+02
   1.20623E+02  1.19860E+02  1.15928E+02  1.15073E+02  1.13670E+02  1.12533E+02  1.11401E+02  1.08173E+02  1.09078E+02  1.05098E+02
   1.05093E+02  1.05307E+02  1.02719E+02  1.00673E+02  1.01242E+02  1.01084E+02  1.00370E+02  1.00889E+02  9.88870E+01  9.62898E+01
   9.56980E+01  9.51635E+01  9.53649E+01  9.46531E+01  9.32180E+01  9.14704E+01  9.18889E+01  9.23665E+01  9.04128E+01  8.85730E+01
   8.91935E+01  8.75585E+01  8.42405E+01  8.59655E+01  8.47090E+01  8.40657E+01  8.24025E+01  8.17456E+01  8.08992E+01  7.96254E+01
   8.09465E+01  8.01568E+01  7.88489E+01  7.67157E+01  7.65084E+01  7.70415E+01  7.56299E+01  7.71762E+01  7.60166E+01  7.62671E+01
   7.27802E+01  7.16362E+01  7.39935E+01  7.14148E+01  6.94806E+01  6.96634E+01  6.95434E+01  7.02526E+01  6.98828E+01  6.70718E+01
   6.60490E+01  6.73562E+01  6.68203E+01  6.61871E+01  6.36531E+01  6.42666E+01  6.39957E+01  6.37378E+01  6.25753E+01  6.25991E+01
   6.23972E+01  6.16259E+01  5.94924E+01  6.16793E+01  5.97377E+01  6.03709E+01  5.86995E+01  5.95695E+01  5.79932E+01  5.88021E+01
   5.69533E+01  5.75626E+01  5.74985E+01  5.70788E+01  5.60019E+01  5.46914E+01  5.49102E+01  5.37248E+01  5.71627E+01  5.39646E+01
   5.48478E+01  5.38347E+01  5.12915E+01  5.42515E+01  5.09538E+01  5.14236E+01  4.97576E+01  5.04755E+01  5.26550E+01  4.87126E+01
   5.06803E+01  5.04574E+01  4.92623E+01  4.72931E+01  4.99485E+01  4.72341E+01  4.76017E+01  4.80533E+01
 NY points of the fit to the data follow
  -5.09599E+00 -4.90786E+00 -4.75747E+00 -4.61738E+00 -4.45833E+00 -4.28476E+00 -4.10060E+00 -3.90722E+00 -3.70654E+00 -3.50185E+00
  -3.29568E+00 -3.08963E+00 -2.88434E+00 -2.67963E+00 -2.47609E+00 -2.27296E+00 -2.06747E+00 -1.86105E+00 -1.66019E+00 -1.46355E+00
  -1.25609E+00 -1.02824E+00 -7.78596E-01 -5.09849E-01 -2.21528E-01  7.43256E-02  3.49337E-01  5.79630E-01  7.47298E-01  8.49365E-01
   9.10805E-01  9.58867E-01  1.05639E+00  1.28136E+00  1.67406E+00  2.19061E+00  2.69719E+00  3.12652E+00  3.41416E+00  3.51973E+00
   3.50794E+00  3.47222E+00  3.53210E+00  3.69620E+00  3.94972E+00  4.29158E+00  4.66858E+00  5.05826E+00  5.49994E+00  5.96735E+00
   6.40306E+00  6.76765E+00  7.03480E+00  7.14982E+00  7.12886E+00  7.12347E+00  7.22552E+00  7.41830E+00  7.65772E+00  7.92893E+00
   8.23340E+00  8.55796E+00  8.87689E+00  9.17532E+00  9.45253E+00  9.67514E+00  9.83718E+00  9.98848E+00  1.01537E+01  1.03647E+01
   1.06181E+01  1.08997E+01  1.12006E+01  1.15035E+01  1.17965E+01  1.20719E+01  1.23371E+01  1.25977E+01  1.28259E+01  1.30462E+01
   1.32775E+01  1.35147E+01  1.37501E+01  1.39878E+01  1.42262E+01  1.44584E+01  1.46824E+01  1.48911E+01  1.50733E+01  1.52320E+01
   1.53854E+01  1.55483E+01  1.57302E+01  1.59551E+01  1.62263E+01  1.65163E+01  1.67878E+01  1.70346E+01  1.72811E+01  1.75359E+01
   1.78013E+01  1.80980E+01  1.84323E+01  1.88445E+01  1.93361E+01  1.98112E+01  2.02169E+01  2.05610E+01  2.07881E+01  2.08228E+01
   2.08860E+01  2.10616E+01  2.12767E+01  2.15167E+01  2.17689E+01  2.20312E+01  2.23009E+01  2.25757E+01  2.28541E+01  2.31359E+01
   2.34208E+01  2.37099E+01  2.40041E+01  2.43032E+01  2.46074E+01  2.49167E+01  2.52316E+01  2.55504E+01  2.58716E+01  2.61958E+01
   2.65217E+01  2.68478E+01  2.71731E+01  2.74964E+01  2.78182E+01  2.81399E+01  2.84614E+01  2.87832E+01  2.91066E+01  2.94324E+01
   2.97611E+01  3.00923E+01  3.04239E+01  3.07567E+01  3.10917E+01  3.14279E+01  3.17658E+01  3.21059E+01  3.24485E+01  3.27922E+01
   3.31352E+01  3.34776E+01  3.38191E+01  3.41612E+01  3.45051E+01  3.48489E+01  3.51905E+01  3.55272E+01  3.58589E+01  3.61848E+01
   3.65054E+01  3.68200E+01  3.71266E+01  3.74295E+01  3.77338E+01  3.80410E+01  3.83509E+01  3.86639E+01  3.89716E+01  3.92613E+01
   3.95368E+01  3.97974E+01  4.00531E+01  4.03176E+01  4.05831E+01  4.08476E+01  4.11104E+01  4.13705E+01  4.16342E+01  4.19075E+01
   4.21889E+01  4.24732E+01  4.27615E+01  4.30538E+01  4.33371E+01  4.36205E+01  4.39133E+01  4.42203E+01  4.45368E+01  4.48526E+01
   4.51754E+01  4.55044E+01  4.58393E+01  4.61819E+01  4.65169E+01  4.68312E+01  4.71445E+01  4.74684E+01  4.78084E+01  4.81701E+01
   4.85598E+01  4.89771E+01  4.94259E+01  4.98902E+01  5.03559E+01  5.08055E+01  5.12153E+01  5.15639E+01  5.18369E+01  5.20672E+01
   5.22784E+01  5.25149E+01  5.28627E+01  5.33723E+01  5.40278E+01  5.47899E+01  5.56920E+01  5.65457E+01  5.71835E+01  5.76151E+01
   5.78695E+01  5.79623E+01  5.79061E+01  5.79093E+01  5.81859E+01  5.86990E+01  5.94044E+01  6.02441E+01  6.12029E+01  6.21738E+01
   6.29543E+01  6.35285E+01  6.40452E+01  6.45408E+01  6.50340E+01  6.55527E+01  6.60978E+01  6.66913E+01  6.73260E+01  6.79741E+01
   6.86262E+01  6.92873E+01  6.99575E+01  7.05847E+01  7.11822E+01  7.17916E+01  7.24367E+01  7.30992E+01  7.37733E+01  7.44978E+01
   7.51681E+01  7.57680E+01  7.63445E+01  7.69235E+01  7.74791E+01  7.80504E+01  7.87090E+01  7.94118E+01  8.01195E+01  8.08210E+01
   8.15635E+01  8.23914E+01  8.31624E+01  8.37047E+01  8.40243E+01  8.41397E+01  8.38837E+01  8.34171E+01  8.33062E+01  8.34084E+01
   8.35601E+01  8.37558E+01  8.40032E+01  8.42620E+01  8.45503E+01  8.48738E+01  8.52215E+01  8.55856E+01  8.59655E+01  8.63474E+01
   8.67282E+01  8.71234E+01  8.75442E+01  8.79935E+01  8.84720E+01  8.89798E+01  8.95186E+01  9.00883E+01  9.06822E+01  9.13009E+01
   9.19469E+01  9.26211E+01  9.33244E+01  9.40586E+01  9.48257E+01  9.56268E+01  9.64626E+01  9.73355E+01  9.82479E+01  9.92015E+01
   1.00199E+02  1.01245E+02  1.02341E+02  1.03492E+02  1.04704E+02  1.05982E+02  1.07334E+02  1.08766E+02  1.10288E+02  1.11910E+02
   1.13645E+02  1.15506E+02  1.17507E+02  1.19666E+02  1.21999E+02  1.24524E+02  1.27261E+02  1.30229E+02  1.33446E+02  1.36929E+02
   1.40696E+02  1.44763E+02  1.49148E+02  1.53839E+02  1.58821E+02  1.64083E+02  1.69607E+02  1.75366E+02  1.81303E+02  1.87362E+02
   1.93562E+02  1.99939E+02  2.06464E+02  2.13139E+02  2.20063E+02  2.27147E+02  2.34248E+02  2.41282E+02  2.48162E+02  2.54842E+02
   2.61255E+02  2.67265E+02  2.72897E+02  2.78224E+02  2.83148E+02  2.87580E+02  2.91450E+02  2.94702E+02  2.97292E+02  2.99194E+02
   3.00401E+02  3.00927E+02  3.00811E+02  3.00109E+02  2.98896E+02  2.97254E+02  2.95274E+02  2.93039E+02  2.90623E+02  2.88079E+02
   2.85436E+02  2.82695E+02  2.79831E+02  2.76788E+02  2.73493E+02  2.69858E+02  2.65791E+02  2.61205E+02  2.56031E+02  2.50223E+02
   2.43766E+02  2.36682E+02  2.29029E+02  2.20898E+02  2.12408E+02  2.03704E+02  1.94937E+02  1.86266E+02  1.77841E+02  1.69797E+02
   1.62247E+02  1.55277E+02  1.48944E+02  1.43275E+02  1.38270E+02  1.33905E+02  1.30136E+02  1.26903E+02  1.24139E+02  1.21770E+02
   1.19724E+02  1.17935E+02  1.16339E+02  1.14884E+02  1.13528E+02  1.12237E+02  1.10988E+02  1.09764E+02  1.08559E+02  1.07369E+02
   1.06195E+02  1.05041E+02  1.03913E+02  1.02815E+02  1.01753E+02  1.00729E+02  9.97453E+01  9.88020E+01  9.78975E+01  9.70288E+01
   9.61918E+01  9.53818E+01  9.45936E+01  9.38217E+01  9.30610E+01  9.23068E+01  9.15548E+01  9.08016E+01  9.00444E+01  8.92810E+01
   8.85102E+01  8.77313E+01  8.69442E+01  8.61493E+01  8.53475E+01  8.45399E+01  8.37281E+01  8.29137E+01  8.20984E+01  8.12840E+01
   8.04724E+01  7.96653E+01  7.88645E+01  7.80714E+01  7.72876E+01  7.65143E+01  7.57528E+01  7.50039E+01  7.42685E+01  7.35474E+01
   7.28409E+01  7.21494E+01  7.14733E+01  7.08125E+01  7.01672E+01  6.95371E+01  6.89221E+01  6.83219E+01  6.77361E+01  6.71645E+01
   6.66065E+01  6.60616E+01  6.55295E+01  6.50095E+01  6.45013E+01  6.40042E+01  6.35179E+01  6.30418E+01  6.25755E+01  6.21184E+01
   6.16701E+01  6.12302E+01  6.07983E+01  6.03739E+01  5.99566E+01  5.95460E+01  5.91418E+01  5.87437E+01  5.83513E+01  5.79642E+01
   5.75823E+01  5.72052E+01  5.68326E+01  5.64644E+01  5.61002E+01  5.57399E+01  5.53832E+01  5.50300E+01  5.46801E+01  5.43333E+01
   5.39895E+01  5.36485E+01  5.33101E+01  5.29743E+01  5.26409E+01  5.23099E+01  5.19810E+01  5.16543E+01  5.13295E+01  5.10068E+01
   5.06858E+01  5.03667E+01  5.00493E+01  4.97336E+01  4.94195E+01  4.91070E+01  4.87960E+01  4.84865E+01
 NY background values follow
     1.250E+01    1.273E+01    1.296E+01    1.319E+01    1.342E+01    1.365E+01    1.388E+01    1.412E+01    1.435E+01    1.458E+01
     1.482E+01    1.505E+01    1.528E+01    1.552E+01    1.575E+01    1.599E+01    1.622E+01    1.646E+01    1.669E+01    1.693E+01
     1.717E+01    1.740E+01    1.764E+01    1.788E+01    1.811E+01    1.835E+01    1.859E+01    1.883E+01    1.907E+01    1.931E+01
     1.955E+01    1.979E+01    2.003E+01    2.027E+01    2.051E+01    2.075E+01    2.099E+01    2.123E+01    2.147E+01    2.171E+01
     2.196E+01    2.220E+01    2.244E+01    2.269E+01    2.293E+01    2.317E+01    2.342E+01    2.366E+01    2.391E+01    2.416E+01
     2.440E+01    2.465E+01    2.490E+01    2.514E+01    2.539E+01    2.564E+01    2.589E+01    2.614E+01    2.638E+01    2.663E+01
     2.688E+01    2.713E+01    2.738E+01    2.763E+01    2.788E+01    2.813E+01    2.838E+01    2.863E+01    2.888E+01    2.913E+01
     2.938E+01    2.963E+01    2.989E+01    3.014E+01    3.039E+01    3.064E+01    3.089E+01    3.114E+01    3.139E+01    3.164E+01
     3.189E+01    3.214E+01    3.240E+01    3.265E+01    3.290E+01    3.315E+01    3.340E+01    3.365E+01    3.390E+01    3.414E+01
     3.439E+01    3.464E+01    3.489E+01    3.514E+01    3.539E+01    3.563E+01    3.588E+01    3.613E+01    3.638E+01    3.662E+01
     3.687E+01    3.712E+01    3.736E+01    3.761E+01    3.785E+01    3.810E+01    3.835E+01    3.859E+01    3.884E+01    3.908E+01
     3.933E+01    3.957E+01    3.982E+01    4.006E+01    4.031E+01    4.056E+01    4.080E+01    4.105E+01    4.129E+01    4.154E+01
     4.179E+01    4.203E+01    4.228E+01    4.253E+01    4.278E+01    4.303E+01    4.327E+01    4.352E+01    4.377E+01    4.402E+01
     4.427E+01    4.452E+01    4.478E+01    4.503E+01    4.528E+01    4.553E+01    4.579E+01    4.604E+01    4.630E+01    4.655E+01
     4.681E+01    4.707E+01    4.733E+01    4.759E+01    4.785E+01    4.811E+01    4.837E+01    4.863E+01    4.889E+01    4.915E+01
     4.942E+01    4.968E+01    4.995E+01    5.021E+01    5.048E+01    5.075E+01    5.102E+01    5.128E+01    5.155E+01    5.182E+01
     5.209E+01    5.237E+01    5.264E+01    5.291E+01    5.318E+01    5.346E+01    5.373E+01    5.401E+01    5.428E+01    5.456E+01
     5.484E+01    5.512E+01    5.539E+01    5.567E+01    5.595E+01    5.623E+01    5.651E+01    5.680E+01    5.708E+01    5.736E+01
     5.764E+01    5.793E+01    5.821E+01    5.850E+01    5.878E+01    5.907E+01    5.936E+01    5.964E+01    5.993E+01    6.022E+01
     6.051E+01    6.080E+01    6.109E+01    6.138E+01    6.167E+01    6.196E+01    6.225E+01    6.254E+01    6.283E+01    6.312E+01
     6.341E+01    6.370E+01    6.399E+01    6.428E+01    6.458E+01    6.487E+01    6.516E+01    6.545E+01    6.574E+01    6.603E+01
     6.632E+01    6.661E+01    6.690E+01    6.720E+01    6.749E+01    6.778E+01    6.807E+01    6.836E+01    6.864E+01    6.893E+01
     6.922E+01    6.951E+01    6.980E+01    7.008E+01    7.037E+01    7.066E+01    7.094E+01    7.122E+01    7.151E+01    7.179E+01
     7.207E+01    7.236E+01    7.264E+01    7.292E+01    7.319E+01    7.347E+01    7.375E+01    7.402E+01    7.430E+01    7.457E+01
     7.484E+01    7.512E+01    7.538E+01    7.565E+01    7.592E+01    7.618E+01    7.645E+01    7.671E+01    7.697E+01    7.723E+01
     7.749E+01    7.774E+01    7.799E+01    7.825E+01    7.850E+01    7.874E+01    7.899E+01    7.923E+01    7.947E+01    7.971E+01
     7.995E+01    8.019E+01    8.042E+01    8.065E+01    8.088E+01    8.110E+01    8.133E+01    8.155E+01    8.176E+01    8.198E+01
     8.219E+01    8.240E+01    8.261E+01    8.281E+01    8.301E+01    8.321E+01    8.341E+01    8.360E+01    8.379E+01    8.398E+01
     8.416E+01    8.435E+01    8.452E+01    8.470E+01    8.487E+01    8.504E+01    8.521E+01    8.538E+01    8.554E+01    8.570E+01
     8.586E+01    8.601E+01    8.616E+01    8.631E+01    8.646E+01    8.660E+01    8.674E+01    8.688E+01    8.701E+01    8.715E+01
     8.728E+01    8.740E+01    8.753E+01    8.765E+01    8.777E+01    8.788E+01    8.800E+01    8.811E+01    8.822E+01    8.832E+01
     8.843E+01    8.853E+01    8.863E+01    8.872E+01    8.881E+01    8.890E+01    8.899E+01    8.908E+01    8.916E+01    8.924E+01
     8.932E+01    8.939E+01    8.946E+01    8.953E+01    8.960E+01    8.967E+01    8.973E+01    8.979E+01    8.984E+01    8.990E+01
     8.995E+01    9.000E+01    9.004E+01    9.009E+01    9.013E+01    9.017E+01    9.020E+01    9.023E+01    9.026E+01    9.029E+01
     9.032E+01    9.034E+01    9.036E+01    9.037E+01    9.039E+01    9.040E+01    9.041E+01    9.041E+01    9.042E+01    9.042E+01
     9.041E+01    9.041E+01    9.040E+01    9.039E+01    9.038E+01    9.036E+01    9.034E+01    9.032E+01    9.030E+01    9.027E+01
     9.024E+01    9.021E+01    9.017E+01    9.014E+01    9.010E+01    9.005E+01    9.001E+01    8.996E+01    8.991E+01    8.985E+01
     8.980E+01    8.974E+01    8.967E+01    8.961E+01    8.954E+01    8.947E+01    8.940E+01    8.932E+01    8.925E+01    8.917E+01
     8.908E+01    8.900E+01    8.891E+01    8.882E+01    8.872E+01    8.863E+01    8.853E+01    8.843E+01    8.832E+01    8.822E+01
     8.811E+01    8.799E+01    8.788E+01    8.776E+01    8.764E+01    8.752E+01    8.740E+01    8.727E+01    8.714E+01    8.701E+01
     8.688E+01    8.674E+01    8.660E+01    8.646E+01    8.632E+01    8.617E+01    8.602E+01    8.587E+01    8.572E+01    8.556E+01
     8.540E+01    8.524E+01    8.508E+01    8.491E+01    8.475E+01    8.458E+01    8.440E+01    8.423E+01    8.405E+01    8.387E+01
     8.369E+01    8.351E+01    8.332E+01    8.313E+01    8.294E+01    8.274E+01    8.255E+01    8.235E+01    8.215E+01    8.195E+01
     8.174E+01    8.153E+01    8.132E+01    8.111E+01    8.089E+01    8.068E+01    8.046E+01    8.023E+01    8.001E+01    7.978E+01
     7.955E+01    7.932E+01    7.909E+01    7.885E+01    7.861E+01    7.837E+01    7.813E+01    7.788E+01    7.764E+01    7.739E+01
     7.713E+01    7.688E+01    7.662E+01    7.636E+01    7.610E+01    7.584E+01    7.558E+01    7.531E+01    7.504E+01    7.477E+01
     7.449E+01    7.422E+01    7.394E+01    7.366E+01    7.338E+01    7.310E+01    7.282E+01    7.253E+01    7.225E+01    7.196E+01
     7.167E+01    7.138E+01    7.108E+01    7.079E+01    7.050E+01    7.020E+01    6.990E+01    6.960E+01    6.930E+01    6.900E+01
     6.870E+01    6.840E+01    6.810E+01    6.779E+01    6.749E+01    6.718E+01    6.687E+01    6.657E+01    6.626E+01    6.595E+01
     6.564E+01    6.533E+01    6.502E+01    6.471E+01    6.440E+01    6.409E+01    6.377E+01    6.346E+01
 Ala      Conc. = 4.11E+01
