 LCModel (Version 6.3-1L) Copyright: S.W. Provencher.          Ref.: Magn. Reson. Med. 30:672-679 (1993).                
 Slice#1 Row#3 Col#4  PD_05_press_1_raw_act
 36 lines in following concentration table = NCONC+1
    Conc.  %SD /Cr+PCr  Metabolite                                         
   43.088 249%   0.190 Ala                                                 
   26.960 229%   0.119 Asp                                                 
    0.000 999%   0.000 Cr                                                  
  226.651  16%   1.000 PCr                                                 
   24.157 157%   0.107 GABA                                                
   30.835 122%   0.136 Glc                                                 
  809.501  35%   3.572 Gln                                                 
 1.34E+03  25%   5.900 Glu                                                 
   73.963  18%   0.326 GPC                                                 
    0.000 999%   0.000 PCh                                                 
    3.786 999% 1.7E-02 GSH                                                 
    0.000 999%   0.000 Ins                                                 
    0.000 999%   0.000 Lac                                                 
  536.973   7%   2.369 NAA                                                 
    0.000 999%   0.000 NAAG                                                
   29.300  37%   0.129 Scyllo                                              
   89.403  68%   0.394 Tau                                                 
  126.307  49%   0.557 -CrCH2                                              
   73.963  18%   0.326 GPC+PCh                                             
  536.973   7%   2.369 NAA+NAAG                                            
  226.651  16%   1.000 Cr+PCr                                              
 2.15E+03  25%   9.472 Glu+Gln                                             
  965.260  18%   4.259 Lip13a                                              
    0.000 999%   0.000 Lip13b                                              
  215.778  30%   0.952 Lip09                                               
 1.50E-02 999% 6.6E-05 MM09                                                
  126.679  37%   0.559 Lip20                                               
    0.000 999%   0.000 MM20                                                
    0.000 999%   0.000 MM12                                                
    0.681 685% 3.0E-03 MM14                                                
    0.307 990% 1.4E-03 MM17                                                
  965.260  18%   4.259 Lip13a+Lip13b                                       
  965.940  18%   4.262 MM14+Lip13a+Lip13b+MM12                             
  215.793  30%   0.952 MM09+Lip09                                          
  126.679  37%   0.559 MM20+Lip20                                          
   6 lines in following misc. output table
  FWHM = 0.084 ppm    S/N =   3                                            
  Data shift = 0.023 ppm                                                   
  Ph:-117 deg     -49.8 deg/ppm                                            
  alphaB,S = 3.7E-01,   1.9E+02                                            
   14 spline knots.   Ns = 9(1)                                            
  (10) 2 infls.   (12) 1 extrs.                                            
  498 points on ppm-axis = NY
      4.000000     3.992357     3.984714     3.977070     3.969427     3.961784     3.954141     3.946497     3.938854     3.931211
      3.923568     3.915925     3.908281     3.900638     3.892995     3.885352     3.877708     3.870065     3.862422     3.854779
      3.847136     3.839492     3.831849     3.824206     3.816563     3.808919     3.801276     3.793633     3.785990     3.778347
      3.770703     3.763060     3.755417     3.747774     3.740130     3.732487     3.724844     3.717201     3.709558     3.701914
      3.694271     3.686628     3.678985     3.671341     3.663698     3.656055     3.648412     3.640769     3.633125     3.625482
      3.617839     3.610196     3.602552     3.594909     3.587266     3.579623     3.571980     3.564336     3.556693     3.549050
      3.541407     3.533763     3.526120     3.518477     3.510834     3.503191     3.495547     3.487904     3.480261     3.472618
      3.464974     3.457331     3.449688     3.442045     3.434402     3.426758     3.419115     3.411472     3.403829     3.396185
      3.388542     3.380899     3.373256     3.365613     3.357969     3.350326     3.342683     3.335040     3.327396     3.319753
      3.312110     3.304467     3.296824     3.289180     3.281537     3.273894     3.266251     3.258607     3.250964     3.243321
      3.235678     3.228034     3.220391     3.212748     3.205105     3.197462     3.189818     3.182175     3.174532     3.166889
      3.159245     3.151602     3.143959     3.136316     3.128673     3.121029     3.113386     3.105743     3.098100     3.090456
      3.082813     3.075170     3.067527     3.059884     3.052240     3.044597     3.036954     3.029311     3.021667     3.014024
      3.006381     2.998738     2.991095     2.983451     2.975808     2.968165     2.960522     2.952878     2.945235     2.937592
      2.929949     2.922306     2.914662     2.907019     2.899376     2.891733     2.884089     2.876446     2.868803     2.861160
      2.853517     2.845873     2.838230     2.830587     2.822944     2.815300     2.807657     2.800014     2.792371     2.784728
      2.777084     2.769441     2.761798     2.754155     2.746511     2.738868     2.731225     2.723582     2.715939     2.708295
      2.700652     2.693009     2.685366     2.677722     2.670079     2.662436     2.654793     2.647150     2.639506     2.631863
      2.624220     2.616577     2.608933     2.601290     2.593647     2.586004     2.578361     2.570717     2.563074     2.555431
      2.547788     2.540144     2.532501     2.524858     2.517215     2.509572     2.501928     2.494285     2.486642     2.478999
      2.471355     2.463712     2.456069     2.448426     2.440783     2.433139     2.425496     2.417853     2.410210     2.402566
      2.394923     2.387280     2.379637     2.371994     2.364350     2.356707     2.349064     2.341421     2.333777     2.326134
      2.318491     2.310848     2.303205     2.295561     2.287918     2.280275     2.272632     2.264988     2.257345     2.249702
      2.242059     2.234416     2.226772     2.219129     2.211486     2.203843     2.196199     2.188556     2.180913     2.173270
      2.165627     2.157983     2.150340     2.142697     2.135054     2.127410     2.119767     2.112124     2.104481     2.096838
      2.089194     2.081551     2.073908     2.066265     2.058621     2.050978     2.043335     2.035692     2.028049     2.020405
      2.012762     2.005119     1.997476     1.989833     1.982190     1.974546     1.966903     1.959260     1.951617     1.943974
      1.936331     1.928688     1.921045     1.913402     1.905759     1.898115     1.890472     1.882829     1.875186     1.867543
      1.859900     1.852257     1.844614     1.836971     1.829327     1.821684     1.814041     1.806398     1.798755     1.791112
      1.783469     1.775826     1.768183     1.760540     1.752896     1.745253     1.737610     1.729967     1.722324     1.714681
      1.707038     1.699395     1.691752     1.684108     1.676465     1.668822     1.661179     1.653536     1.645893     1.638250
      1.630607     1.622964     1.615321     1.607677     1.600034     1.592391     1.584748     1.577105     1.569462     1.561819
      1.554176     1.546533     1.538890     1.531246     1.523603     1.515960     1.508317     1.500674     1.493031     1.485388
      1.477745     1.470102     1.462458     1.454815     1.447172     1.439529     1.431886     1.424243     1.416600     1.408957
      1.401314     1.393671     1.386027     1.378384     1.370741     1.363098     1.355455     1.347812     1.340169     1.332526
      1.324883     1.317240     1.309596     1.301953     1.294310     1.286667     1.279024     1.271381     1.263738     1.256095
      1.248452     1.240808     1.233165     1.225522     1.217879     1.210236     1.202593     1.194950     1.187307     1.179664
      1.172021     1.164377     1.156734     1.149091     1.141448     1.133805     1.126162     1.118519     1.110876     1.103233
      1.095590     1.087946     1.080303     1.072660     1.065017     1.057374     1.049731     1.042088     1.034445     1.026802
      1.019158     1.011515     1.003872     0.996229     0.988586     0.980943     0.973300     0.965657     0.958014     0.950371
      0.942727     0.935084     0.927441     0.919798     0.912155     0.904512     0.896869     0.889226     0.881583     0.873940
      0.866296     0.858653     0.851010     0.843367     0.835724     0.828081     0.820438     0.812795     0.805152     0.797508
      0.789865     0.782222     0.774579     0.766936     0.759293     0.751650     0.744007     0.736364     0.728721     0.721077
      0.713434     0.705791     0.698148     0.690505     0.682862     0.675219     0.667576     0.659933     0.652290     0.644646
      0.637003     0.629360     0.621717     0.614074     0.606431     0.598788     0.591145     0.583502     0.575858     0.568215
      0.560572     0.552929     0.545286     0.537643     0.530000     0.522357     0.514714     0.507071     0.499427     0.491784
      0.484141     0.476498     0.468855     0.461212     0.453569     0.445925     0.438282     0.430639     0.422996     0.415353
      0.407710     0.400067     0.392424     0.384780     0.377137     0.369494     0.361851     0.354208     0.346565     0.338922
      0.331278     0.323635     0.315992     0.308349     0.300706     0.293063     0.285420     0.277777     0.270133     0.262490
      0.254847     0.247204     0.239561     0.231918     0.224275     0.216631     0.208988     0.201345
 NY phased data points follow
  -3.48410E+01 -3.00977E+01 -3.12834E+01 -2.98191E+01 -3.28084E+01 -3.06039E+01 -2.81495E+01 -2.61589E+01 -2.72682E+01 -2.66035E+01
  -2.90666E+01 -2.66502E+01 -2.86972E+01 -2.52509E+01 -2.97563E+01 -2.47180E+01 -2.47887E+01 -2.34288E+01 -2.59653E+01 -2.72542E+01
  -2.73924E+01 -2.49190E+01 -2.39721E+01 -2.17139E+01 -2.50985E+01 -2.48500E+01 -2.54066E+01 -2.17182E+01 -2.64138E+01 -2.34524E+01
  -2.52915E+01 -2.24649E+01 -2.22287E+01 -2.20792E+01 -2.33516E+01 -2.18904E+01 -1.72742E+01 -2.27053E+01 -2.01277E+01 -2.03665E+01
  -1.95082E+01 -2.25616E+01 -2.07930E+01 -1.86734E+01 -2.21931E+01 -1.92314E+01 -1.95470E+01 -1.73499E+01 -1.90880E+01 -1.45257E+01
  -2.13439E+01 -2.23325E+01 -1.95808E+01 -1.81772E+01 -2.05625E+01 -2.14313E+01 -2.00721E+01 -1.67295E+01 -1.94574E+01 -1.85350E+01
  -1.64185E+01 -1.85653E+01 -1.87746E+01 -1.89925E+01 -1.75950E+01 -1.50723E+01 -1.42528E+01 -1.91959E+01 -1.59873E+01 -1.62665E+01
  -1.53788E+01 -1.34513E+01 -1.42688E+01 -1.72118E+01 -1.83407E+01 -1.45137E+01 -1.56690E+01 -1.16778E+01 -1.45766E+01 -1.17435E+01
  -1.27891E+01 -1.40131E+01 -1.65639E+01 -1.25045E+01 -1.34922E+01 -1.15043E+01 -1.19959E+01 -1.15746E+01 -1.11966E+01 -1.09998E+01
  -8.87777E+00 -8.79298E+00 -7.69007E+00 -7.44661E+00 -1.02639E+01 -1.31898E+01 -1.34625E+01 -1.01771E+01 -8.41879E+00 -3.31739E+00
  -5.67696E+00 -2.79109E+00 -4.77547E+00 -7.06451E+00 -3.14114E+00 -5.58518E+00 -8.34957E+00 -7.51816E+00 -1.18327E+01 -9.25694E+00
  -8.17048E+00 -1.24571E+01 -8.85425E+00 -1.04529E+01 -9.22947E+00 -8.92139E+00 -6.70799E+00 -1.13016E+01 -9.63195E+00 -8.29095E+00
  -8.49603E+00 -1.00829E+01 -4.14139E+00 -5.90674E+00 -1.99293E+00 -2.16714E+00 -3.93395E+00 -9.94185E-01 -1.18845E+00 -1.96265E+00
  -2.26482E-01 -3.12009E+00 -6.79456E+00 -4.77075E+00 -9.22812E+00 -5.86827E+00 -4.66986E+00 -3.58181E+00 -5.06791E+00 -5.54292E+00
  -5.40507E+00 -5.52143E+00 -5.29908E+00 -3.54026E+00 -8.70284E+00 -4.95471E+00 -7.23335E+00  5.18679E-01 -3.99561E+00 -2.58155E+00
  -4.97132E+00 -2.62605E+00 -5.50951E+00 -3.75373E+00 -7.42625E+00 -4.73104E+00 -4.51582E+00 -4.46855E+00 -3.24078E+00 -3.28869E+00
  -3.43189E+00 -1.70298E+00 -4.14116E+00 -4.08007E+00 -5.43426E+00 -3.78583E+00 -4.13335E+00 -8.26206E+00 -7.02793E+00 -4.35655E+00
  -4.86422E+00 -1.69307E+00 -2.42782E+00 -3.67282E+00 -5.27754E+00 -5.17434E+00 -5.57725E+00 -5.31462E+00 -5.81891E+00 -4.53400E+00
  -5.86896E+00 -6.14439E+00 -3.05702E+00 -3.68119E+00 -4.87469E+00 -2.42967E+00 -1.86156E+00 -2.15575E+00 -1.57894E+00 -4.26092E+00
  -1.97014E+00 -1.82706E+00 -2.07907E+00 -2.36760E+00 -5.55380E-01 -3.78846E+00 -3.22081E+00 -3.59024E+00 -2.70040E+00 -2.79161E-01
  -8.97372E-01 -2.12730E+00 -8.43315E-01  1.48133E+00 -4.30924E+00 -1.09723E+00  1.52020E+00 -3.74807E+00 -8.33082E-01 -2.87353E+00
  -6.42209E-01 -7.60730E-01 -1.06642E+00 -1.22053E+00  3.07381E+00  2.21129E+00  2.82487E+00  3.07178E-01  2.05379E+00  3.19348E-02
  -6.97141E-01 -2.26164E-02 -2.62622E+00  1.80557E+00 -6.86591E-01 -2.43312E-01  3.97956E-01 -1.80867E+00  9.57012E-01  1.10652E+00
  -1.42388E+00  2.18647E+00  1.79648E+00  4.96495E+00  1.03803E+00  3.44637E+00  2.00417E+00  3.57546E+00  7.69472E-01  3.56904E+00
   2.50625E+00  3.60969E-01  3.08815E+00  3.69903E-01 -6.38226E-01  8.25895E-01  2.59111E+00 -5.39968E-01  2.71280E+00 -1.64237E-01
   1.98367E+00  6.94583E-01  3.13184E+00  3.76065E+00  8.20522E-01  5.49091E+00  8.89238E+00  7.42003E+00  1.06686E+01  1.31881E+01
   1.78124E+01  1.89785E+01  2.00426E+01  1.80063E+01  1.73348E+01  1.69302E+01  1.68620E+01  1.25622E+01  1.26472E+01  1.19193E+01
   1.08910E+01  1.13045E+01  1.08306E+01  8.04335E+00  7.78064E+00  6.75343E+00  7.40760E+00  6.99709E+00  9.18162E+00  5.68933E+00
   6.22442E+00  1.00029E+01  8.47011E+00  8.62333E+00  1.13510E+01  7.35875E+00  4.76750E+00  5.77835E+00  7.19461E+00  8.93383E+00
   7.09575E+00  9.85954E+00  7.05562E+00  8.13787E+00  7.42045E+00  5.43540E+00  1.12510E+01  8.03431E+00  9.72404E+00  8.77703E+00
   8.74754E+00  8.68356E+00  6.81017E+00  7.74206E+00  8.70571E+00  7.95480E+00  8.72754E+00  6.97176E+00  7.69255E+00  9.58545E+00
   7.04433E+00  8.81441E+00  6.84697E+00  5.93577E+00  7.04404E+00  8.11740E+00  1.10603E+01  1.49703E+01  7.67087E+00  1.06020E+01
   9.75597E+00  9.41200E+00  6.35579E+00  8.86155E+00  1.12933E+01  1.04153E+01  5.58759E+00  1.00855E+01  1.05223E+01  1.31928E+01
   1.02304E+01  6.88818E+00  1.15979E+01  1.09688E+01  1.25126E+01  1.04929E+01  1.05433E+01  8.73227E+00  1.06691E+01  1.26882E+01
   1.10945E+01  9.84610E+00  9.16859E+00  8.09793E+00  8.08846E+00  1.06364E+01  1.29763E+01  1.08099E+01  9.82650E+00  1.25981E+01
   1.44394E+01  1.26198E+01  1.23776E+01  9.74193E+00  9.46195E+00  8.89799E+00  8.88142E+00  8.05536E+00  8.66185E+00  8.54400E+00
   5.17530E+00  5.54705E+00  5.01936E+00  5.59193E+00  5.74322E+00  4.17961E+00  5.99948E+00  2.75553E+00  2.81936E+00  2.13367E+00
   2.02727E+00  9.75609E-01  4.38775E+00  5.77796E+00  1.08264E+00  4.38227E+00  1.19566E+00  4.40339E+00  8.48838E-01  1.92017E+00
   2.07587E+00 -2.33793E+00  1.70653E+00  1.51488E+00  1.03690E+00  1.08674E+00  1.11582E+00  1.42578E+00  7.09755E-01  5.63484E-01
  -2.00439E+00  1.70292E+00  3.28469E+00 -6.62313E-01  3.26321E+00 -1.15387E+00  5.82293E-01  8.65803E-01 -9.59593E-01  5.52582E+00
   1.54233E+00  4.86891E+00  1.40462E+00  1.88763E+00  4.69512E+00  2.19042E+00  5.39366E+00  2.24754E+00  5.66562E+00 -1.33440E+00
   3.36904E+00  2.08898E+00  2.78850E+00  2.56020E+00  5.32962E+00  1.07201E+00  4.13603E+00  3.25259E+00  5.49887E+00  8.12618E+00
   3.05576E+00  3.89917E+00  2.28759E+00  3.02475E+00  5.88443E-01  5.88836E+00  1.02567E+00  4.32109E+00  4.89141E+00  5.90031E+00
   2.38212E+00  2.40094E+00  3.88840E+00  2.14225E+00  3.36411E+00  1.92837E-02  1.12810E+00  8.03178E-01  8.30075E-01  1.90293E+00
   1.97813E+00 -7.51194E-01  1.95205E+00  3.52897E+00  1.91760E+00 -7.69660E-01  1.55528E+00  1.07762E+00  5.93324E+00  2.96096E+00
   1.64782E+00  7.54143E-01  3.16289E+00 -1.14673E-01  2.31276E-01  2.75663E+00 -6.20904E-01  3.76974E+00  5.57631E+00 -8.04783E-02
   3.09412E+00  5.12253E+00  1.51570E+00  2.56840E+00  3.59320E+00  3.40351E+00  3.89028E+00  1.52844E+00  5.11448E-01  2.52030E+00
   7.82498E-01  2.70061E+00  2.21171E+00  4.18410E+00  5.02635E+00  6.38462E+00  3.90728E+00  3.21231E+00  5.45011E+00  4.40662E+00
   4.85670E+00  2.37829E-01  4.31396E+00  1.21154E+00  1.89185E+00  3.61539E+00  6.22036E+00  3.13642E+00  4.02222E+00  2.02106E+00
   1.89389E+00  1.66650E+00  3.00539E+00  2.27778E+00  2.71832E+00  3.64224E+00  1.50412E+00  4.91430E+00
 NY points of the fit to the data follow
  -3.10512E+01 -3.07248E+01 -3.03366E+01 -2.98832E+01 -2.93773E+01 -2.88410E+01 -2.83041E+01 -2.78012E+01 -2.73604E+01 -2.69958E+01
  -2.67078E+01 -2.64881E+01 -2.63240E+01 -2.62007E+01 -2.61024E+01 -2.60145E+01 -2.59212E+01 -2.58044E+01 -2.56326E+01 -2.53712E+01
  -2.50358E+01 -2.47387E+01 -2.45535E+01 -2.45035E+01 -2.45656E+01 -2.46600E+01 -2.46682E+01 -2.44896E+01 -2.40860E+01 -2.34939E+01
  -2.28145E+01 -2.21807E+01 -2.17069E+01 -2.14437E+01 -2.13602E+01 -2.13579E+01 -2.13202E+01 -2.12042E+01 -2.10456E+01 -2.09339E+01
  -2.09052E+01 -2.09541E+01 -2.10090E+01 -2.09167E+01 -2.06271E+01 -2.02074E+01 -1.97392E+01 -1.93343E+01 -1.90680E+01 -1.89696E+01
  -1.89717E+01 -1.89698E+01 -1.89293E+01 -1.88573E+01 -1.87688E+01 -1.86701E+01 -1.85568E+01 -1.84339E+01 -1.83095E+01 -1.81791E+01
  -1.80316E+01 -1.78682E+01 -1.76946E+01 -1.75158E+01 -1.73363E+01 -1.71588E+01 -1.69842E+01 -1.68107E+01 -1.66349E+01 -1.64517E+01
  -1.62577E+01 -1.60547E+01 -1.58486E+01 -1.56478E+01 -1.54609E+01 -1.52921E+01 -1.51384E+01 -1.49865E+01 -1.48183E+01 -1.46169E+01
  -1.43633E+01 -1.40586E+01 -1.37166E+01 -1.33544E+01 -1.29974E+01 -1.26726E+01 -1.23895E+01 -1.21564E+01 -1.19900E+01 -1.18927E+01
  -1.18562E+01 -1.18651E+01 -1.18869E+01 -1.18625E+01 -1.17346E+01 -1.14403E+01 -1.09193E+01 -1.01465E+01 -9.18245E+00 -8.15858E+00
  -7.19884E+00 -6.40998E+00 -5.85623E+00 -5.55292E+00 -5.48515E+00 -5.62134E+00 -5.91836E+00 -6.33179E+00 -6.82236E+00 -7.36708E+00
  -7.95788E+00 -8.55505E+00 -9.01385E+00 -9.18000E+00 -9.18269E+00 -9.14641E+00 -9.09105E+00 -9.00525E+00 -8.84672E+00 -8.55624E+00
  -8.07705E+00 -7.38794E+00 -6.52075E+00 -5.54062E+00 -4.54102E+00 -3.63789E+00 -2.93331E+00 -2.48371E+00 -2.29436E+00 -2.33598E+00
  -2.56475E+00 -2.93365E+00 -3.39784E+00 -3.92775E+00 -4.52047E+00 -5.16472E+00 -5.77548E+00 -6.17204E+00 -6.27129E+00 -6.25110E+00
  -6.19493E+00 -6.12003E+00 -6.03294E+00 -5.93879E+00 -5.84154E+00 -5.74426E+00 -5.64881E+00 -5.55486E+00 -5.46333E+00 -5.37399E+00
  -5.28426E+00 -5.19298E+00 -5.10141E+00 -5.01386E+00 -4.93491E+00 -4.86821E+00 -4.81454E+00 -4.76961E+00 -4.72833E+00 -4.68449E+00
  -4.63163E+00 -4.56693E+00 -4.49150E+00 -4.41062E+00 -4.33233E+00 -4.26352E+00 -4.20738E+00 -4.16400E+00 -4.13271E+00 -4.11119E+00
  -4.09664E+00 -4.08918E+00 -4.09421E+00 -4.11633E+00 -4.13916E+00 -4.14553E+00 -4.11962E+00 -4.05889E+00 -3.98247E+00 -3.89939E+00
  -3.81056E+00 -3.71494E+00 -3.60945E+00 -3.48882E+00 -3.34817E+00 -3.18671E+00 -3.01131E+00 -2.84232E+00 -2.70091E+00 -2.58373E+00
  -2.49019E+00 -2.43145E+00 -2.41174E+00 -2.41561E+00 -2.39222E+00 -2.28772E+00 -2.06223E+00 -1.70099E+00 -1.21287E+00 -6.23671E-01
   2.15267E-02  6.19107E-01  1.04853E+00  1.20256E+00  1.01269E+00  4.89759E-01 -2.63881E-01 -1.09169E+00 -1.78674E+00 -2.15089E+00
  -2.08922E+00 -1.60673E+00 -7.78835E-01  2.35376E-01  1.19677E+00  1.89230E+00  2.22452E+00  2.17079E+00  1.78582E+00  1.17668E+00
   4.28096E-01 -4.06896E-01 -1.08622E+00 -1.44063E+00 -1.50452E+00 -1.30725E+00 -8.13384E-01  3.85088E-03  9.47556E-01  1.81659E+00
   2.56373E+00  3.17026E+00  3.57348E+00  3.68948E+00  3.57837E+00  3.44953E+00  3.41654E+00  3.43146E+00  3.45894E+00  3.46657E+00
   3.42392E+00  3.32050E+00  3.15474E+00  2.95247E+00  2.76617E+00  2.62247E+00  2.49922E+00  2.36890E+00  2.30818E+00  2.38116E+00
   2.60289E+00  2.98158E+00  3.56096E+00  4.36724E+00  5.42207E+00  6.87467E+00  8.73698E+00  1.08858E+01  1.31434E+01  1.52794E+01
   1.70110E+01  1.81213E+01  1.85507E+01  1.83645E+01  1.76952E+01  1.66767E+01  1.54223E+01  1.40108E+01  1.24548E+01  1.07295E+01
   8.96223E+00  7.54956E+00  6.89739E+00  6.72943E+00  6.70647E+00  6.75041E+00  6.81248E+00  6.85957E+00  6.90371E+00  6.94273E+00
   6.97253E+00  6.98935E+00  6.98854E+00  6.96780E+00  6.94241E+00  6.92932E+00  6.93043E+00  6.94187E+00  6.96150E+00  6.98727E+00
   7.01605E+00  7.04263E+00  7.06298E+00  7.07975E+00  7.09451E+00  7.10783E+00  7.12079E+00  7.13439E+00  7.14855E+00  7.16242E+00
   7.17580E+00  7.18917E+00  7.20209E+00  7.21395E+00  7.22472E+00  7.23405E+00  7.24185E+00  7.24820E+00  7.25320E+00  7.25697E+00
   7.25964E+00  7.26133E+00  7.26226E+00  7.26283E+00  7.26383E+00  7.26599E+00  7.27019E+00  7.27816E+00  7.29305E+00  7.31758E+00
   7.35261E+00  7.39551E+00  7.43911E+00  7.47482E+00  7.49502E+00  7.49326E+00  7.46819E+00  7.42681E+00  7.38354E+00  7.35730E+00
   7.36510E+00  7.41831E+00  7.52298E+00  7.67864E+00  7.87776E+00  8.11009E+00  8.36975E+00  8.65661E+00  8.96675E+00  9.27585E+00
   9.56513E+00  9.83284E+00  1.00758E+01  1.02858E+01  1.04531E+01  1.05746E+01  1.06647E+01  1.07312E+01  1.07620E+01  1.07490E+01
   1.06883E+01  1.05783E+01  1.04198E+01  1.02151E+01  9.96809E+00  9.68394E+00  9.36873E+00  9.02916E+00  8.67227E+00  8.30500E+00
   7.93399E+00  7.56532E+00  7.20432E+00  6.85545E+00  6.52223E+00  6.20721E+00  5.91208E+00  5.63770E+00  5.38429E+00  5.15146E+00
   4.93840E+00  4.74393E+00  4.56670E+00  4.40526E+00  4.25812E+00  4.12383E+00  4.00105E+00  3.88852E+00  3.78512E+00  3.68992E+00
   3.60212E+00  3.52108E+00  3.44627E+00  3.37731E+00  3.31397E+00  3.25609E+00  3.20368E+00  3.15679E+00  3.11558E+00  3.08027E+00
   3.05116E+00  3.02859E+00  3.01294E+00  3.00454E+00  3.00373E+00  3.01074E+00  3.02573E+00  3.04870E+00  3.07945E+00  3.11754E+00
   3.16229E+00  3.21269E+00  3.26751E+00  3.32518E+00  3.38391E+00  3.44167E+00  3.49632E+00  3.54569E+00  3.58761E+00  3.62007E+00
   3.64129E+00  3.64984E+00  3.64475E+00  3.62550E+00  3.59212E+00  3.54513E+00  3.48551E+00  3.41467E+00  3.33436E+00  3.24657E+00
   3.15343E+00  3.05708E+00  2.95961E+00  2.86295E+00  2.76883E+00  2.67873E+00  2.59380E+00  2.51493E+00  2.44271E+00  2.37745E+00
   2.31929E+00  2.26813E+00  2.22372E+00  2.18570E+00  2.15364E+00  2.12708E+00  2.10554E+00  2.08851E+00  2.07554E+00  2.06618E+00
   2.06003E+00  2.05673E+00  2.05597E+00  2.05743E+00  2.06089E+00  2.06609E+00  2.07287E+00  2.08104E+00  2.09047E+00  2.10101E+00
   2.11256E+00  2.12501E+00  2.13828E+00  2.15228E+00  2.16696E+00  2.18228E+00  2.19818E+00  2.21462E+00  2.23159E+00  2.24903E+00
   2.26694E+00  2.28526E+00  2.30399E+00  2.32310E+00  2.34257E+00  2.36238E+00  2.38251E+00  2.40293E+00  2.42364E+00  2.44462E+00
   2.46586E+00  2.48733E+00  2.50903E+00  2.53094E+00  2.55304E+00  2.57533E+00  2.59781E+00  2.62043E+00  2.64321E+00  2.66612E+00
   2.68916E+00  2.71231E+00  2.73558E+00  2.75893E+00  2.78237E+00  2.80588E+00  2.82945E+00  2.85308E+00  2.87676E+00  2.90047E+00
   2.92422E+00  2.94797E+00  2.97175E+00  2.99553E+00  3.01931E+00  3.04308E+00  3.06684E+00  3.09057E+00
 NY background values follow
    -3.089E+01   -3.067E+01   -3.046E+01   -3.024E+01   -3.003E+01   -2.981E+01   -2.959E+01   -2.938E+01   -2.916E+01   -2.895E+01
    -2.873E+01   -2.852E+01   -2.830E+01   -2.809E+01   -2.787E+01   -2.766E+01   -2.744E+01   -2.723E+01   -2.701E+01   -2.680E+01
    -2.658E+01   -2.637E+01   -2.616E+01   -2.594E+01   -2.573E+01   -2.552E+01   -2.530E+01   -2.509E+01   -2.488E+01   -2.467E+01
    -2.446E+01   -2.424E+01   -2.403E+01   -2.382E+01   -2.361E+01   -2.340E+01   -2.319E+01   -2.299E+01   -2.278E+01   -2.257E+01
    -2.236E+01   -2.216E+01   -2.195E+01   -2.174E+01   -2.154E+01   -2.133E+01   -2.113E+01   -2.093E+01   -2.072E+01   -2.052E+01
    -2.032E+01   -2.012E+01   -1.992E+01   -1.972E+01   -1.952E+01   -1.932E+01   -1.912E+01   -1.893E+01   -1.873E+01   -1.854E+01
    -1.834E+01   -1.815E+01   -1.796E+01   -1.777E+01   -1.758E+01   -1.739E+01   -1.720E+01   -1.701E+01   -1.682E+01   -1.664E+01
    -1.645E+01   -1.627E+01   -1.608E+01   -1.590E+01   -1.572E+01   -1.554E+01   -1.536E+01   -1.518E+01   -1.501E+01   -1.483E+01
    -1.466E+01   -1.448E+01   -1.431E+01   -1.414E+01   -1.397E+01   -1.380E+01   -1.363E+01   -1.347E+01   -1.330E+01   -1.314E+01
    -1.297E+01   -1.281E+01   -1.265E+01   -1.250E+01   -1.234E+01   -1.218E+01   -1.203E+01   -1.187E+01   -1.172E+01   -1.157E+01
    -1.142E+01   -1.127E+01   -1.113E+01   -1.098E+01   -1.083E+01   -1.069E+01   -1.055E+01   -1.041E+01   -1.027E+01   -1.013E+01
    -9.991E+00   -9.855E+00   -9.719E+00   -9.585E+00   -9.452E+00   -9.320E+00   -9.190E+00   -9.060E+00   -8.932E+00   -8.804E+00
    -8.678E+00   -8.553E+00   -8.429E+00   -8.306E+00   -8.184E+00   -8.063E+00   -7.944E+00   -7.825E+00   -7.707E+00   -7.591E+00
    -7.475E+00   -7.361E+00   -7.247E+00   -7.135E+00   -7.023E+00   -6.913E+00   -6.803E+00   -6.695E+00   -6.587E+00   -6.480E+00
    -6.375E+00   -6.270E+00   -6.166E+00   -6.063E+00   -5.961E+00   -5.860E+00   -5.759E+00   -5.659E+00   -5.560E+00   -5.462E+00
    -5.365E+00   -5.268E+00   -5.172E+00   -5.076E+00   -4.981E+00   -4.887E+00   -4.794E+00   -4.701E+00   -4.608E+00   -4.516E+00
    -4.425E+00   -4.334E+00   -4.244E+00   -4.154E+00   -4.064E+00   -3.975E+00   -3.887E+00   -3.799E+00   -3.711E+00   -3.623E+00
    -3.536E+00   -3.449E+00   -3.363E+00   -3.276E+00   -3.190E+00   -3.105E+00   -3.019E+00   -2.934E+00   -2.849E+00   -2.763E+00
    -2.679E+00   -2.594E+00   -2.509E+00   -2.424E+00   -2.340E+00   -2.255E+00   -2.171E+00   -2.087E+00   -2.002E+00   -1.918E+00
    -1.834E+00   -1.749E+00   -1.665E+00   -1.580E+00   -1.496E+00   -1.412E+00   -1.327E+00   -1.243E+00   -1.158E+00   -1.073E+00
    -9.885E-01   -9.036E-01   -8.186E-01   -7.334E-01   -6.482E-01   -5.627E-01   -4.771E-01   -3.914E-01   -3.054E-01   -2.193E-01
    -1.329E-01   -4.639E-02    4.039E-02    1.274E-01    2.147E-01    3.022E-01    3.899E-01    4.780E-01    5.663E-01    6.550E-01
     7.439E-01    8.332E-01    9.228E-01    1.013E+00    1.103E+00    1.194E+00    1.285E+00    1.376E+00    1.468E+00    1.560E+00
     1.652E+00    1.745E+00    1.837E+00    1.930E+00    2.023E+00    2.117E+00    2.210E+00    2.303E+00    2.396E+00    2.489E+00
     2.582E+00    2.675E+00    2.768E+00    2.860E+00    2.952E+00    3.044E+00    3.136E+00    3.227E+00    3.318E+00    3.408E+00
     3.498E+00    3.588E+00    3.677E+00    3.765E+00    3.853E+00    3.940E+00    4.026E+00    4.112E+00    4.197E+00    4.281E+00
     4.364E+00    4.447E+00    4.528E+00    4.609E+00    4.688E+00    4.767E+00    4.844E+00    4.921E+00    4.996E+00    5.070E+00
     5.143E+00    5.215E+00    5.285E+00    5.354E+00    5.422E+00    5.488E+00    5.553E+00    5.616E+00    5.679E+00    5.739E+00
     5.798E+00    5.855E+00    5.911E+00    5.966E+00    6.018E+00    6.069E+00    6.118E+00    6.166E+00    6.211E+00    6.255E+00
     6.297E+00    6.337E+00    6.375E+00    6.411E+00    6.446E+00    6.478E+00    6.508E+00    6.536E+00    6.563E+00    6.587E+00
     6.608E+00    6.628E+00    6.645E+00    6.660E+00    6.673E+00    6.684E+00    6.692E+00    6.698E+00    6.701E+00    6.702E+00
     6.701E+00    6.697E+00    6.690E+00    6.681E+00    6.669E+00    6.655E+00    6.638E+00    6.618E+00    6.596E+00    6.571E+00
     6.544E+00    6.514E+00    6.482E+00    6.447E+00    6.410E+00    6.371E+00    6.330E+00    6.287E+00    6.242E+00    6.196E+00
     6.147E+00    6.097E+00    6.045E+00    5.991E+00    5.936E+00    5.879E+00    5.821E+00    5.762E+00    5.701E+00    5.640E+00
     5.577E+00    5.513E+00    5.448E+00    5.383E+00    5.316E+00    5.249E+00    5.181E+00    5.112E+00    5.043E+00    4.974E+00
     4.904E+00    4.834E+00    4.763E+00    4.692E+00    4.622E+00    4.551E+00    4.480E+00    4.409E+00    4.339E+00    4.268E+00
     4.198E+00    4.129E+00    4.060E+00    3.991E+00    3.923E+00    3.855E+00    3.788E+00    3.722E+00    3.656E+00    3.591E+00
     3.526E+00    3.463E+00    3.399E+00    3.337E+00    3.276E+00    3.215E+00    3.155E+00    3.096E+00    3.037E+00    2.980E+00
     2.923E+00    2.868E+00    2.813E+00    2.759E+00    2.707E+00    2.655E+00    2.604E+00    2.555E+00    2.507E+00    2.459E+00
     2.413E+00    2.368E+00    2.324E+00    2.282E+00    2.240E+00    2.200E+00    2.162E+00    2.124E+00    2.088E+00    2.053E+00
     2.020E+00    1.988E+00    1.957E+00    1.928E+00    1.901E+00    1.875E+00    1.850E+00    1.827E+00    1.806E+00    1.786E+00
     1.767E+00    1.751E+00    1.735E+00    1.721E+00    1.708E+00    1.697E+00    1.687E+00    1.678E+00    1.671E+00    1.665E+00
     1.660E+00    1.656E+00    1.654E+00    1.652E+00    1.652E+00    1.653E+00    1.655E+00    1.658E+00    1.661E+00    1.666E+00
     1.672E+00    1.679E+00    1.686E+00    1.695E+00    1.704E+00    1.714E+00    1.725E+00    1.737E+00    1.749E+00    1.762E+00
     1.776E+00    1.790E+00    1.805E+00    1.821E+00    1.837E+00    1.853E+00    1.870E+00    1.888E+00    1.906E+00    1.924E+00
     1.943E+00    1.962E+00    1.982E+00    2.002E+00    2.022E+00    2.042E+00    2.063E+00    2.084E+00    2.105E+00    2.126E+00
     2.148E+00    2.170E+00    2.192E+00    2.214E+00    2.237E+00    2.259E+00    2.282E+00    2.306E+00    2.329E+00    2.352E+00
     2.376E+00    2.400E+00    2.424E+00    2.448E+00    2.472E+00    2.496E+00    2.520E+00    2.545E+00    2.569E+00    2.594E+00
     2.618E+00    2.643E+00    2.668E+00    2.693E+00    2.718E+00    2.743E+00    2.767E+00    2.792E+00    2.817E+00    2.842E+00
     2.867E+00    2.892E+00    2.916E+00    2.941E+00    2.966E+00    2.991E+00    3.015E+00    3.040E+00
 Ala      Conc. = 4.31E+01
