 LCModel (Version 6.3-1L) Copyright: S.W. Provencher.          Ref.: Magn. Reson. Med. 30:672-679 (1993).                
 Slice#2 Row#13 Col#2  PD_05_press_1_raw_act
 36 lines in following concentration table = NCONC+1
    Conc.  %SD /Cr+PCr  Metabolite                                         
 1.63E+03  19%   1.730 Ala                                                 
   33.267 334% 3.5E-02 Asp                                                 
    0.000 999%   0.000 Cr                                                  
  941.522   5%   1.000 PCr                                                 
   12.147 578% 1.3E-02 GABA                                                
   80.140  88% 8.5E-02 Glc                                                 
    0.000 999%   0.000 Gln                                                 
  824.384  67%   0.876 Glu                                                 
    0.000 999%   0.000 GPC                                                 
  277.718   9%   0.295 PCh                                                 
 1.06E+03  11%   1.121 GSH                                                 
 2.68E+03  14%   2.850 Ins                                                 
  179.948 213%   0.191 Lac                                                 
    0.000 999%   0.000 NAA                                                 
   25.825 205% 2.7E-02 NAAG                                                
   93.344  21% 9.9E-02 Scyllo                                              
  337.274  33%   0.358 Tau                                                 
    0.000 999%   0.000 -CrCH2                                              
  277.718   9%   0.295 GPC+PCh                                             
   25.825 205% 2.7E-02 NAA+NAAG                                            
  941.522   5%   1.000 Cr+PCr                                              
  824.384  67%   0.876 Glu+Gln                                             
    0.000 999%   0.000 Lip13a                                              
    0.000 999%   0.000 Lip13b                                              
    0.000 999%   0.000 Lip09                                               
    5.592 999% 5.9E-03 MM09                                                
    0.000 999%   0.000 Lip20                                               
    0.000 999%   0.000 MM20                                                
    4.907 681% 5.2E-03 MM12                                                
  317.152  28%   0.337 MM14                                                
  116.151  65%   0.123 MM17                                                
    0.000 999%   0.000 Lip13a+Lip13b                                       
  322.059  32%   0.342 MM14+Lip13a+Lip13b+MM12                             
    5.592 999% 5.9E-03 MM09+Lip09                                          
    0.000 999%   0.000 MM20+Lip20                                          
   6 lines in following misc. output table
  FWHM = 0.199 ppm    S/N =   5                                            
  Data shift = 0.008 ppm                                                   
  Ph: -93 deg     -65.9 deg/ppm                                            
  alphaB,S = 3.3E-01,   2.9E+02                                            
   10 spline knots.   Ns = 9(2)                                            
  (15) 2 infls.   ( 5) 1 extrs.                                            
  498 points on ppm-axis = NY
      4.000000     3.992357     3.984714     3.977070     3.969427     3.961784     3.954141     3.946497     3.938854     3.931211
      3.923568     3.915925     3.908281     3.900638     3.892995     3.885352     3.877708     3.870065     3.862422     3.854779
      3.847136     3.839492     3.831849     3.824206     3.816563     3.808919     3.801276     3.793633     3.785990     3.778347
      3.770703     3.763060     3.755417     3.747774     3.740130     3.732487     3.724844     3.717201     3.709558     3.701914
      3.694271     3.686628     3.678985     3.671341     3.663698     3.656055     3.648412     3.640769     3.633125     3.625482
      3.617839     3.610196     3.602552     3.594909     3.587266     3.579623     3.571980     3.564336     3.556693     3.549050
      3.541407     3.533763     3.526120     3.518477     3.510834     3.503191     3.495547     3.487904     3.480261     3.472618
      3.464974     3.457331     3.449688     3.442045     3.434402     3.426758     3.419115     3.411472     3.403829     3.396185
      3.388542     3.380899     3.373256     3.365613     3.357969     3.350326     3.342683     3.335040     3.327396     3.319753
      3.312110     3.304467     3.296824     3.289180     3.281537     3.273894     3.266251     3.258607     3.250964     3.243321
      3.235678     3.228034     3.220391     3.212748     3.205105     3.197462     3.189818     3.182175     3.174532     3.166889
      3.159245     3.151602     3.143959     3.136316     3.128673     3.121029     3.113386     3.105743     3.098100     3.090456
      3.082813     3.075170     3.067527     3.059884     3.052240     3.044597     3.036954     3.029311     3.021667     3.014024
      3.006381     2.998738     2.991095     2.983451     2.975808     2.968165     2.960522     2.952878     2.945235     2.937592
      2.929949     2.922306     2.914662     2.907019     2.899376     2.891733     2.884089     2.876446     2.868803     2.861160
      2.853517     2.845873     2.838230     2.830587     2.822944     2.815300     2.807657     2.800014     2.792371     2.784728
      2.777084     2.769441     2.761798     2.754155     2.746511     2.738868     2.731225     2.723582     2.715939     2.708295
      2.700652     2.693009     2.685366     2.677722     2.670079     2.662436     2.654793     2.647150     2.639506     2.631863
      2.624220     2.616577     2.608933     2.601290     2.593647     2.586004     2.578361     2.570717     2.563074     2.555431
      2.547788     2.540144     2.532501     2.524858     2.517215     2.509572     2.501928     2.494285     2.486642     2.478999
      2.471355     2.463712     2.456069     2.448426     2.440783     2.433139     2.425496     2.417853     2.410210     2.402566
      2.394923     2.387280     2.379637     2.371994     2.364350     2.356707     2.349064     2.341421     2.333777     2.326134
      2.318491     2.310848     2.303205     2.295561     2.287918     2.280275     2.272632     2.264988     2.257345     2.249702
      2.242059     2.234416     2.226772     2.219129     2.211486     2.203843     2.196199     2.188556     2.180913     2.173270
      2.165627     2.157983     2.150340     2.142697     2.135054     2.127410     2.119767     2.112124     2.104481     2.096838
      2.089194     2.081551     2.073908     2.066265     2.058621     2.050978     2.043335     2.035692     2.028049     2.020405
      2.012762     2.005119     1.997476     1.989833     1.982190     1.974546     1.966903     1.959260     1.951617     1.943974
      1.936331     1.928688     1.921045     1.913402     1.905759     1.898115     1.890472     1.882829     1.875186     1.867543
      1.859900     1.852257     1.844614     1.836971     1.829327     1.821684     1.814041     1.806398     1.798755     1.791112
      1.783469     1.775826     1.768183     1.760540     1.752896     1.745253     1.737610     1.729967     1.722324     1.714681
      1.707038     1.699395     1.691752     1.684108     1.676465     1.668822     1.661179     1.653536     1.645893     1.638250
      1.630607     1.622964     1.615321     1.607677     1.600034     1.592391     1.584748     1.577105     1.569462     1.561819
      1.554176     1.546533     1.538890     1.531246     1.523603     1.515960     1.508317     1.500674     1.493031     1.485388
      1.477745     1.470102     1.462458     1.454815     1.447172     1.439529     1.431886     1.424243     1.416600     1.408957
      1.401314     1.393671     1.386027     1.378384     1.370741     1.363098     1.355455     1.347812     1.340169     1.332526
      1.324883     1.317240     1.309596     1.301953     1.294310     1.286667     1.279024     1.271381     1.263738     1.256095
      1.248452     1.240808     1.233165     1.225522     1.217879     1.210236     1.202593     1.194950     1.187307     1.179664
      1.172021     1.164377     1.156734     1.149091     1.141448     1.133805     1.126162     1.118519     1.110876     1.103233
      1.095590     1.087946     1.080303     1.072660     1.065017     1.057374     1.049731     1.042088     1.034445     1.026802
      1.019158     1.011515     1.003872     0.996229     0.988586     0.980943     0.973300     0.965657     0.958014     0.950371
      0.942727     0.935084     0.927441     0.919798     0.912155     0.904512     0.896869     0.889226     0.881583     0.873940
      0.866296     0.858653     0.851010     0.843367     0.835724     0.828081     0.820438     0.812795     0.805152     0.797508
      0.789865     0.782222     0.774579     0.766936     0.759293     0.751650     0.744007     0.736364     0.728721     0.721077
      0.713434     0.705791     0.698148     0.690505     0.682862     0.675219     0.667576     0.659933     0.652290     0.644646
      0.637003     0.629360     0.621717     0.614074     0.606431     0.598788     0.591145     0.583502     0.575858     0.568215
      0.560572     0.552929     0.545286     0.537643     0.530000     0.522357     0.514714     0.507071     0.499427     0.491784
      0.484141     0.476498     0.468855     0.461212     0.453569     0.445925     0.438282     0.430639     0.422996     0.415353
      0.407710     0.400067     0.392424     0.384780     0.377137     0.369494     0.361851     0.354208     0.346565     0.338922
      0.331278     0.323635     0.315992     0.308349     0.300706     0.293063     0.285420     0.277777     0.270133     0.262490
      0.254847     0.247204     0.239561     0.231918     0.224275     0.216631     0.208988     0.201345
 NY phased data points follow
  -3.98582E+01 -3.73669E+01 -3.86027E+01 -3.86822E+01 -3.89404E+01 -3.73805E+01 -3.77842E+01 -3.70196E+01 -3.64076E+01 -3.65484E+01
  -3.58369E+01 -3.56701E+01 -3.61842E+01 -3.38336E+01 -3.33931E+01 -3.23047E+01 -3.29189E+01 -3.21093E+01 -3.17656E+01 -3.14052E+01
  -3.20202E+01 -3.00227E+01 -3.02922E+01 -2.96025E+01 -3.13521E+01 -3.07899E+01 -2.95031E+01 -3.00250E+01 -2.87704E+01 -2.81554E+01
  -2.84597E+01 -2.67504E+01 -2.68005E+01 -2.63096E+01 -2.50489E+01 -2.64562E+01 -2.54071E+01 -2.39789E+01 -2.47023E+01 -2.38482E+01
  -2.56711E+01 -2.37290E+01 -2.39256E+01 -2.29050E+01 -2.41004E+01 -2.31675E+01 -2.18057E+01 -2.13720E+01 -2.32858E+01 -2.02769E+01
  -2.11860E+01 -1.96666E+01 -1.99208E+01 -1.97791E+01 -1.91836E+01 -2.03013E+01 -2.01389E+01 -1.97067E+01 -1.91982E+01 -1.77293E+01
  -1.80701E+01 -1.76790E+01 -1.66603E+01 -1.70700E+01 -1.40489E+01 -1.59724E+01 -1.39513E+01 -1.53769E+01 -1.41734E+01 -1.47287E+01
  -1.45677E+01 -1.43491E+01 -1.44148E+01 -1.21437E+01 -1.38173E+01 -1.30688E+01 -1.25002E+01 -1.36309E+01 -1.07448E+01 -1.23823E+01
  -1.20140E+01 -1.25162E+01 -1.14696E+01 -1.15664E+01 -9.83770E+00 -1.04919E+01 -1.02290E+01 -8.66648E+00 -9.36990E+00 -9.27877E+00
  -8.47474E+00 -7.53118E+00 -7.15201E+00 -7.18012E+00 -7.55464E+00 -6.86963E+00 -7.07122E+00 -7.09930E+00 -5.60293E+00 -6.45257E+00
  -4.14613E+00 -4.07693E+00 -3.86906E+00 -2.79903E+00 -4.42397E+00 -4.22168E+00 -3.66535E+00 -3.96844E+00 -2.67256E+00 -3.28593E+00
  -2.07789E+00 -9.13397E-01 -2.36014E+00  1.12837E-02  6.35729E-01 -5.99556E-01  1.17104E+00  2.38486E-01  1.95805E+00  1.62977E+00
   1.06900E+00  3.48436E+00  2.91632E+00  4.36859E+00  4.79673E+00  5.23998E+00  4.27129E+00  4.04508E+00  4.97239E+00  4.32552E+00
   3.63102E+00  4.00450E+00  5.86264E+00  5.70066E+00  5.00753E+00  4.21571E+00  4.64918E+00  4.98660E+00  5.03648E+00  6.26318E+00
   5.33357E+00  5.41703E+00  5.30880E+00  3.77686E+00  4.68382E+00  5.03903E+00  4.15234E+00  4.13987E+00  3.24499E+00  3.37926E+00
   4.39049E+00  4.48524E+00  4.89685E+00  3.63184E+00  4.17500E+00  4.88044E+00  3.87188E+00  4.72135E+00  4.52830E+00  4.76689E+00
   6.27962E+00  6.46948E+00  6.21749E+00  5.86585E+00  6.71011E+00  7.18669E+00  6.99921E+00  7.69967E+00  7.46836E+00  8.71443E+00
   9.33370E+00  9.08692E+00  1.03454E+01  9.97947E+00  1.09698E+01  1.00612E+01  1.09859E+01  1.20531E+01  1.21693E+01  1.19721E+01
   1.46444E+01  1.37051E+01  1.50489E+01  1.46324E+01  1.55551E+01  1.70902E+01  1.71830E+01  1.86441E+01  1.86683E+01  2.02688E+01
   1.94343E+01  2.10879E+01  2.21471E+01  2.28468E+01  2.26316E+01  2.40227E+01  2.48858E+01  2.54922E+01  2.61439E+01  2.83763E+01
   2.75222E+01  2.89485E+01  2.97938E+01  2.97094E+01  2.90922E+01  2.95757E+01  2.98892E+01  3.08822E+01  3.02088E+01  3.18391E+01
   2.94793E+01  3.01517E+01  2.96087E+01  2.89477E+01  3.06232E+01  3.02769E+01  2.95075E+01  2.93460E+01  2.88823E+01  2.93807E+01
   2.98615E+01  2.85936E+01  2.87168E+01  2.94665E+01  2.90417E+01  2.88749E+01  3.01545E+01  2.98403E+01  3.00840E+01  3.00745E+01
   2.90826E+01  3.11483E+01  2.96618E+01  2.98931E+01  3.00549E+01  2.84211E+01  3.02456E+01  2.92953E+01  3.05789E+01  2.94708E+01
   3.02141E+01  2.89631E+01  2.92068E+01  2.74170E+01  2.90129E+01  2.83823E+01  2.84300E+01  2.81214E+01  2.65302E+01  2.65436E+01
   2.72393E+01  2.74690E+01  2.75868E+01  2.85569E+01  2.59036E+01  2.76706E+01  2.78229E+01  2.73558E+01  2.67360E+01  2.46410E+01
   2.80055E+01  2.58331E+01  2.44501E+01  2.64559E+01  2.53924E+01  2.38532E+01  2.38376E+01  2.39445E+01  2.52664E+01  2.49475E+01
   2.33653E+01  2.40160E+01  2.30532E+01  2.39257E+01  2.20720E+01  2.22846E+01  2.29739E+01  2.33460E+01  2.38367E+01  2.22527E+01
   2.24100E+01  2.28646E+01  2.18156E+01  2.04580E+01  1.97164E+01  2.13454E+01  2.14126E+01  1.98160E+01  2.13715E+01  2.16725E+01
   2.22032E+01  2.30448E+01  2.01508E+01  2.01933E+01  2.13642E+01  2.12063E+01  2.23065E+01  2.17059E+01  2.08334E+01  2.17819E+01
   2.16828E+01  2.24722E+01  2.05353E+01  2.25755E+01  2.16352E+01  2.25886E+01  2.23414E+01  2.08278E+01  2.45732E+01  2.23860E+01
   2.30116E+01  2.41866E+01  2.26941E+01  2.31630E+01  2.43215E+01  2.42955E+01  2.06918E+01  2.45965E+01  2.42675E+01  2.39608E+01
   2.41701E+01  2.28249E+01  2.34724E+01  2.23733E+01  2.48167E+01  2.32278E+01  2.30595E+01  2.31465E+01  2.25295E+01  2.40268E+01
   2.15896E+01  2.15574E+01  2.33740E+01  2.23157E+01  2.18041E+01  2.16830E+01  2.16877E+01  2.29587E+01  2.15971E+01  2.30314E+01
   2.28516E+01  2.16843E+01  2.01193E+01  1.87276E+01  2.10153E+01  2.27370E+01  2.10659E+01  1.88750E+01  2.03045E+01  2.10208E+01
   2.26099E+01  1.94338E+01  1.98879E+01  1.86045E+01  2.01443E+01  2.00005E+01  1.81221E+01  1.81417E+01  2.05509E+01  1.86505E+01
   1.72209E+01  1.71577E+01  1.85520E+01  1.82165E+01  1.66623E+01  1.91694E+01  1.79303E+01  1.79717E+01  1.70959E+01  1.73902E+01
   1.64046E+01  1.71544E+01  1.78192E+01  1.81511E+01  1.78941E+01  1.68561E+01  1.56649E+01  1.68207E+01  1.68450E+01  1.65952E+01
   1.52587E+01  1.63839E+01  1.66706E+01  1.55848E+01  1.37106E+01  1.72290E+01  1.45573E+01  1.37870E+01  1.48038E+01  1.40813E+01
   1.41274E+01  1.42650E+01  1.49559E+01  1.50780E+01  1.39473E+01  1.49315E+01  1.36009E+01  1.32537E+01  1.38125E+01  1.25500E+01
   1.37265E+01  1.25800E+01  1.26620E+01  1.15512E+01  1.12565E+01  1.33874E+01  1.35383E+01  1.27049E+01  1.16420E+01  1.05715E+01
   1.26483E+01  1.26978E+01  1.29223E+01  1.05013E+01  1.09158E+01  1.13492E+01  1.15504E+01  1.13770E+01  1.12030E+01  1.25456E+01
   1.03919E+01  1.12656E+01  1.12962E+01  9.76716E+00  1.11540E+01  9.77081E+00  9.66886E+00  9.53139E+00  1.05916E+01  9.49244E+00
   1.01970E+01  1.00914E+01  9.04408E+00  1.01811E+01  1.01391E+01  1.08940E+01  8.82106E+00  7.53399E+00  8.15664E+00  1.03268E+01
   9.15191E+00  1.06469E+01  9.81165E+00  8.97923E+00  9.99427E+00  7.85234E+00  8.70968E+00  8.12348E+00  7.65455E+00  7.30348E+00
   7.66401E+00  7.11233E+00  6.54519E+00  5.87343E+00  9.44467E+00  7.13524E+00  8.23579E+00  7.49459E+00  6.63960E+00  7.81451E+00
   6.85654E+00  5.52835E+00  7.69039E+00  7.89364E+00  5.68754E+00  8.28841E+00  6.31406E+00  5.53034E+00  5.49902E+00  4.77214E+00
   4.33364E+00  5.70243E+00  4.40024E+00  4.85797E+00  5.45759E+00  5.33242E+00  6.82421E+00  3.55092E+00  5.21905E+00  3.59760E+00
   4.15972E+00  3.23311E+00  5.47340E+00  4.85883E+00  3.92721E+00  3.60748E+00  3.89196E+00  4.59829E+00  4.01877E+00  4.22144E+00
   3.51753E+00  3.88391E+00  4.52923E+00  4.05121E+00  3.71075E+00  2.77107E+00  2.81762E+00  3.94424E+00
 NY points of the fit to the data follow
  -3.99085E+01 -3.92316E+01 -3.88892E+01 -3.83194E+01 -3.80767E+01 -3.75885E+01 -3.73955E+01 -3.69480E+01 -3.68967E+01 -3.64699E+01
  -3.60349E+01 -3.55852E+01 -3.52126E+01 -3.47963E+01 -3.45729E+01 -3.40928E+01 -3.37893E+01 -3.30163E+01 -3.27693E+01 -3.18086E+01
  -3.15488E+01 -3.05196E+01 -3.03697E+01 -2.94723E+01 -2.94858E+01 -2.87621E+01 -2.89092E+01 -2.82917E+01 -2.85519E+01 -2.80029E+01
  -2.81610E+01 -2.70144E+01 -2.68396E+01 -2.57559E+01 -2.56311E+01 -2.47818E+01 -2.46952E+01 -2.40652E+01 -2.39727E+01 -2.35543E+01
  -2.34969E+01 -2.32172E+01 -2.31462E+01 -2.28783E+01 -2.28077E+01 -2.25424E+01 -2.22977E+01 -2.20498E+01 -2.18007E+01 -2.16268E+01
  -2.09683E+01 -2.07714E+01 -2.02575E+01 -2.01535E+01 -1.97638E+01 -1.95684E+01 -1.91167E+01 -1.87990E+01 -1.82626E+01 -1.79167E+01
  -1.73692E+01 -1.70519E+01 -1.65386E+01 -1.63963E+01 -1.59777E+01 -1.59855E+01 -1.56155E+01 -1.56502E+01 -1.51206E+01 -1.51424E+01
  -1.45077E+01 -1.43700E+01 -1.35687E+01 -1.35814E+01 -1.28813E+01 -1.31057E+01 -1.25066E+01 -1.28915E+01 -1.23488E+01 -1.28242E+01
  -1.22461E+01 -1.27403E+01 -1.22059E+01 -1.26145E+01 -1.18923E+01 -1.16944E+01 -1.08500E+01 -1.05885E+01 -9.82542E+00 -9.61952E+00
  -8.94808E+00 -8.71361E+00 -8.10315E+00 -7.80505E+00 -7.22084E+00 -6.83116E+00 -6.24132E+00 -5.85635E+00 -5.31878E+00 -5.00901E+00
  -4.58597E+00 -4.38588E+00 -4.10579E+00 -4.03829E+00 -3.83384E+00 -3.85517E+00 -3.70270E+00 -3.74374E+00 -3.31019E+00 -2.70815E+00
  -2.26589E+00 -1.51162E+00 -1.21872E+00 -3.47030E-01 -9.53868E-02  7.49390E-01  8.08879E-01  1.57616E+00  1.44425E+00  2.15568E+00
   2.01109E+00  2.74922E+00  2.63263E+00  3.33361E+00  3.35073E+00  4.41984E+00  4.47887E+00  5.29289E+00  5.27133E+00  5.77671E+00
   5.72530E+00  5.88578E+00  5.81920E+00  5.66679E+00  5.64023E+00  5.29237E+00  5.35797E+00  4.89445E+00  5.03826E+00  4.44318E+00
   4.61591E+00  3.86332E+00  4.02916E+00  3.10528E+00  3.29624E+00  2.38197E+00  2.62850E+00  1.80408E+00  2.31966E+00  2.21094E+00
   2.84566E+00  2.89594E+00  3.51845E+00  3.75099E+00  4.37966E+00  4.63734E+00  5.10510E+00  5.38345E+00  5.71765E+00  6.05903E+00
   6.38647E+00  6.80793E+00  7.20898E+00  7.65268E+00  8.07990E+00  8.49623E+00  8.92047E+00  9.32573E+00  9.75337E+00  1.01794E+01
   1.06666E+01  1.11563E+01  1.17180E+01  1.22372E+01  1.27914E+01  1.32866E+01  1.37986E+01  1.42292E+01  1.46264E+01  1.51033E+01
   1.55017E+01  1.60480E+01  1.64446E+01  1.70399E+01  1.74173E+01  1.80523E+01  1.84067E+01  1.90753E+01  1.94135E+01  2.01105E+01
   2.04239E+01  2.11302E+01  2.13762E+01  2.20879E+01  2.22800E+01  2.29937E+01  2.31895E+01  2.39484E+01  2.42477E+01  2.50169E+01
   2.53213E+01  2.60310E+01  2.62792E+01  2.68616E+01  2.69792E+01  2.73791E+01  2.74421E+01  2.77999E+01  2.78679E+01  2.82229E+01
   2.83446E+01  2.86793E+01  2.87861E+01  2.90678E+01  2.91169E+01  2.93557E+01  2.93737E+01  2.95960E+01  2.95697E+01  2.97579E+01
   2.96766E+01  2.97950E+01  2.96437E+01  2.96960E+01  2.95189E+01  2.95365E+01  2.94712E+01  2.94842E+01  2.95127E+01  2.94657E+01
   2.95336E+01  2.94086E+01  2.94471E+01  2.92214E+01  2.92587E+01  2.89796E+01  2.90792E+01  2.88082E+01  2.90410E+01  2.87410E+01
   2.89590E+01  2.86052E+01  2.88149E+01  2.84261E+01  2.85852E+01  2.81590E+01  2.83387E+01  2.79376E+01  2.80754E+01  2.77030E+01
   2.77766E+01  2.73953E+01  2.73584E+01  2.70467E+01  2.69943E+01  2.67855E+01  2.67427E+01  2.66747E+01  2.66589E+01  2.65801E+01
   2.64335E+01  2.63239E+01  2.60724E+01  2.59366E+01  2.56091E+01  2.54851E+01  2.52171E+01  2.51347E+01  2.48960E+01  2.48124E+01
   2.45966E+01  2.45024E+01  2.42706E+01  2.41397E+01  2.39026E+01  2.37713E+01  2.35479E+01  2.34228E+01  2.32289E+01  2.30996E+01
   2.29044E+01  2.27667E+01  2.25969E+01  2.24675E+01  2.23261E+01  2.22062E+01  2.20988E+01  2.19849E+01  2.18924E+01  2.17937E+01
   2.17150E+01  2.16293E+01  2.15646E+01  2.14940E+01  2.14425E+01  2.13939E+01  2.13670E+01  2.13450E+01  2.13415E+01  2.13454E+01
   2.13666E+01  2.13989E+01  2.14477E+01  2.15129E+01  2.16027E+01  2.17220E+01  2.18877E+01  2.21295E+01  2.25357E+01  2.31451E+01
   2.32746E+01  2.37530E+01  2.35671E+01  2.38651E+01  2.33938E+01  2.34791E+01  2.26721E+01  2.30731E+01  2.24470E+01  2.29995E+01
   2.24568E+01  2.29783E+01  2.24766E+01  2.29516E+01  2.24735E+01  2.28647E+01  2.24135E+01  2.27065E+01  2.23626E+01  2.25518E+01
   2.22946E+01  2.23418E+01  2.22234E+01  2.21575E+01  2.22199E+01  2.20482E+01  2.22172E+01  2.19662E+01  2.21852E+01  2.17835E+01
   2.19966E+01  2.14247E+01  2.16245E+01  2.09783E+01  2.12879E+01  2.07274E+01  2.11731E+01  2.07281E+01  2.14082E+01  2.12405E+01
   2.16057E+01  2.11675E+01  2.12227E+01  2.06548E+01  2.04663E+01  1.97608E+01  1.93110E+01  1.89620E+01  1.87371E+01  1.84934E+01
   1.83298E+01  1.81207E+01  1.79820E+01  1.77954E+01  1.76777E+01  1.75236E+01  1.74235E+01  1.72962E+01  1.72201E+01  1.71373E+01
   1.70439E+01  1.69204E+01  1.68050E+01  1.66570E+01  1.65251E+01  1.63518E+01  1.62046E+01  1.60725E+01  1.59473E+01  1.58261E+01
   1.57075E+01  1.55906E+01  1.54749E+01  1.53601E+01  1.52460E+01  1.51323E+01  1.50189E+01  1.49058E+01  1.47929E+01  1.46800E+01
   1.45672E+01  1.44543E+01  1.43414E+01  1.42285E+01  1.41154E+01  1.40021E+01  1.38885E+01  1.37747E+01  1.36606E+01  1.35460E+01
   1.34311E+01  1.33157E+01  1.31998E+01  1.30835E+01  1.29666E+01  1.28492E+01  1.27314E+01  1.26131E+01  1.24945E+01  1.23755E+01
   1.22563E+01  1.21370E+01  1.20175E+01  1.18980E+01  1.17786E+01  1.16594E+01  1.15403E+01  1.14216E+01  1.13032E+01  1.11852E+01
   1.10677E+01  1.09506E+01  1.08341E+01  1.07181E+01  1.06027E+01  1.04879E+01  1.03737E+01  1.02601E+01  1.01472E+01  1.00348E+01
   9.92303E+00  9.81181E+00  9.70112E+00  9.59094E+00  9.48126E+00  9.37206E+00  9.26332E+00  9.15503E+00  9.04717E+00  8.93974E+00
   8.83271E+00  8.72609E+00  8.61984E+00  8.51397E+00  8.40845E+00  8.30330E+00  8.19847E+00  8.09398E+00  7.98980E+00  7.88594E+00
   7.78237E+00  7.67910E+00  7.57610E+00  7.47338E+00  7.37091E+00  7.26870E+00  7.16672E+00  7.06498E+00  6.96346E+00  6.86216E+00
   6.76106E+00  6.66016E+00  6.55943E+00  6.45890E+00  6.35852E+00  6.25831E+00  6.15825E+00  6.05833E+00  5.95854E+00  5.85888E+00
   5.75933E+00  5.65989E+00  5.56055E+00  5.46130E+00  5.36213E+00  5.26304E+00  5.16400E+00  5.06503E+00  4.96610E+00  4.86722E+00
   4.76837E+00  4.66955E+00  4.57074E+00  4.47195E+00  4.37316E+00  4.27437E+00  4.17558E+00  4.07677E+00  3.97794E+00  3.87910E+00
   3.78023E+00  3.68133E+00  3.58242E+00  3.48348E+00  3.38454E+00  3.28560E+00  3.18669E+00  3.08785E+00
 NY background values follow
    -5.235E+01   -5.197E+01   -5.158E+01   -5.119E+01   -5.079E+01   -5.039E+01   -4.999E+01   -4.958E+01   -4.916E+01   -4.874E+01
    -4.832E+01   -4.790E+01   -4.747E+01   -4.703E+01   -4.660E+01   -4.616E+01   -4.572E+01   -4.527E+01   -4.483E+01   -4.438E+01
    -4.393E+01   -4.348E+01   -4.302E+01   -4.256E+01   -4.211E+01   -4.165E+01   -4.119E+01   -4.072E+01   -4.026E+01   -3.980E+01
    -3.934E+01   -3.887E+01   -3.841E+01   -3.794E+01   -3.748E+01   -3.702E+01   -3.655E+01   -3.609E+01   -3.563E+01   -3.517E+01
    -3.471E+01   -3.425E+01   -3.380E+01   -3.334E+01   -3.289E+01   -3.244E+01   -3.199E+01   -3.154E+01   -3.110E+01   -3.066E+01
    -3.022E+01   -2.978E+01   -2.935E+01   -2.892E+01   -2.849E+01   -2.807E+01   -2.765E+01   -2.724E+01   -2.682E+01   -2.642E+01
    -2.602E+01   -2.562E+01   -2.523E+01   -2.484E+01   -2.445E+01   -2.408E+01   -2.370E+01   -2.334E+01   -2.298E+01   -2.262E+01
    -2.227E+01   -2.193E+01   -2.159E+01   -2.126E+01   -2.094E+01   -2.062E+01   -2.031E+01   -2.000E+01   -1.970E+01   -1.940E+01
    -1.911E+01   -1.882E+01   -1.854E+01   -1.826E+01   -1.798E+01   -1.771E+01   -1.744E+01   -1.718E+01   -1.692E+01   -1.666E+01
    -1.640E+01   -1.615E+01   -1.590E+01   -1.565E+01   -1.540E+01   -1.516E+01   -1.492E+01   -1.467E+01   -1.443E+01   -1.419E+01
    -1.395E+01   -1.371E+01   -1.348E+01   -1.324E+01   -1.300E+01   -1.276E+01   -1.252E+01   -1.228E+01   -1.204E+01   -1.180E+01
    -1.156E+01   -1.131E+01   -1.107E+01   -1.082E+01   -1.057E+01   -1.032E+01   -1.006E+01   -9.806E+00   -9.546E+00   -9.282E+00
    -9.016E+00   -8.746E+00   -8.472E+00   -8.194E+00   -7.913E+00   -7.627E+00   -7.336E+00   -7.041E+00   -6.741E+00   -6.436E+00
    -6.125E+00   -5.809E+00   -5.487E+00   -5.160E+00   -4.826E+00   -4.486E+00   -4.140E+00   -3.787E+00   -3.426E+00   -3.059E+00
    -2.685E+00   -2.303E+00   -1.913E+00   -1.515E+00   -1.110E+00   -6.976E-01   -2.781E-01    1.481E-01    5.807E-01    1.019E+00
     1.464E+00    1.914E+00    2.369E+00    2.829E+00    3.293E+00    3.762E+00    4.235E+00    4.711E+00    5.191E+00    5.674E+00
     6.159E+00    6.647E+00    7.137E+00    7.629E+00    8.122E+00    8.617E+00    9.112E+00    9.608E+00    1.010E+01    1.060E+01
     1.110E+01    1.159E+01    1.209E+01    1.258E+01    1.307E+01    1.356E+01    1.405E+01    1.453E+01    1.502E+01    1.550E+01
     1.597E+01    1.644E+01    1.691E+01    1.738E+01    1.784E+01    1.829E+01    1.874E+01    1.918E+01    1.962E+01    2.005E+01
     2.048E+01    2.090E+01    2.131E+01    2.171E+01    2.211E+01    2.250E+01    2.288E+01    2.325E+01    2.361E+01    2.397E+01
     2.431E+01    2.465E+01    2.497E+01    2.529E+01    2.559E+01    2.588E+01    2.616E+01    2.643E+01    2.669E+01    2.694E+01
     2.717E+01    2.739E+01    2.760E+01    2.779E+01    2.797E+01    2.814E+01    2.829E+01    2.843E+01    2.856E+01    2.867E+01
     2.877E+01    2.886E+01    2.894E+01    2.901E+01    2.907E+01    2.911E+01    2.915E+01    2.917E+01    2.919E+01    2.919E+01
     2.918E+01    2.917E+01    2.915E+01    2.911E+01    2.907E+01    2.902E+01    2.896E+01    2.890E+01    2.882E+01    2.874E+01
     2.866E+01    2.856E+01    2.846E+01    2.835E+01    2.824E+01    2.812E+01    2.799E+01    2.786E+01    2.773E+01    2.759E+01
     2.744E+01    2.730E+01    2.714E+01    2.699E+01    2.683E+01    2.666E+01    2.650E+01    2.633E+01    2.615E+01    2.598E+01
     2.580E+01    2.563E+01    2.545E+01    2.527E+01    2.509E+01    2.491E+01    2.472E+01    2.454E+01    2.436E+01    2.418E+01
     2.399E+01    2.381E+01    2.363E+01    2.346E+01    2.328E+01    2.310E+01    2.293E+01    2.276E+01    2.259E+01    2.243E+01
     2.227E+01    2.211E+01    2.196E+01    2.181E+01    2.166E+01    2.152E+01    2.138E+01    2.125E+01    2.112E+01    2.099E+01
     2.087E+01    2.075E+01    2.064E+01    2.053E+01    2.043E+01    2.032E+01    2.022E+01    2.013E+01    2.004E+01    1.995E+01
     1.986E+01    1.978E+01    1.970E+01    1.962E+01    1.954E+01    1.947E+01    1.940E+01    1.934E+01    1.927E+01    1.921E+01
     1.915E+01    1.909E+01    1.903E+01    1.898E+01    1.893E+01    1.888E+01    1.883E+01    1.878E+01    1.873E+01    1.869E+01
     1.864E+01    1.860E+01    1.856E+01    1.852E+01    1.848E+01    1.844E+01    1.840E+01    1.837E+01    1.833E+01    1.829E+01
     1.826E+01    1.822E+01    1.819E+01    1.815E+01    1.812E+01    1.808E+01    1.805E+01    1.801E+01    1.797E+01    1.794E+01
     1.790E+01    1.786E+01    1.782E+01    1.778E+01    1.774E+01    1.770E+01    1.766E+01    1.762E+01    1.757E+01    1.753E+01
     1.748E+01    1.743E+01    1.738E+01    1.733E+01    1.727E+01    1.722E+01    1.716E+01    1.710E+01    1.704E+01    1.697E+01
     1.691E+01    1.684E+01    1.677E+01    1.670E+01    1.663E+01    1.655E+01    1.648E+01    1.640E+01    1.632E+01    1.624E+01
     1.616E+01    1.607E+01    1.599E+01    1.590E+01    1.582E+01    1.573E+01    1.564E+01    1.554E+01    1.545E+01    1.536E+01
     1.526E+01    1.517E+01    1.507E+01    1.497E+01    1.487E+01    1.477E+01    1.467E+01    1.457E+01    1.446E+01    1.436E+01
     1.425E+01    1.415E+01    1.404E+01    1.393E+01    1.383E+01    1.372E+01    1.361E+01    1.350E+01    1.339E+01    1.328E+01
     1.317E+01    1.306E+01    1.294E+01    1.283E+01    1.272E+01    1.261E+01    1.249E+01    1.238E+01    1.227E+01    1.215E+01
     1.204E+01    1.192E+01    1.181E+01    1.170E+01    1.158E+01    1.147E+01    1.135E+01    1.124E+01    1.113E+01    1.101E+01
     1.090E+01    1.079E+01    1.067E+01    1.056E+01    1.045E+01    1.034E+01    1.023E+01    1.012E+01    1.001E+01    9.897E+00
     9.788E+00    9.679E+00    9.571E+00    9.463E+00    9.355E+00    9.248E+00    9.141E+00    9.034E+00    8.928E+00    8.823E+00
     8.717E+00    8.612E+00    8.507E+00    8.403E+00    8.299E+00    8.195E+00    8.092E+00    7.989E+00    7.886E+00    7.783E+00
     7.681E+00    7.579E+00    7.477E+00    7.375E+00    7.274E+00    7.173E+00    7.072E+00    6.971E+00    6.871E+00    6.771E+00
     6.671E+00    6.571E+00    6.471E+00    6.371E+00    6.272E+00    6.173E+00    6.073E+00    5.974E+00    5.875E+00    5.777E+00
     5.678E+00    5.579E+00    5.481E+00    5.382E+00    5.284E+00    5.185E+00    5.087E+00    4.989E+00    4.891E+00    4.792E+00
     4.694E+00    4.596E+00    4.498E+00    4.400E+00    4.301E+00    4.203E+00    4.105E+00    4.006E+00    3.908E+00    3.810E+00
     3.711E+00    3.612E+00    3.514E+00    3.415E+00    3.316E+00    3.217E+00    3.118E+00    3.019E+00
 Ala      Conc. = 1.63E+03
