 LCModel (Version 6.3-1L) Copyright: S.W. Provencher.          Ref.: Magn. Reson. Med. 30:672-679 (1993).                
 Slice#3 Row#4 Col#8  PD_05_press_1_raw_act
 36 lines in following concentration table = NCONC+1
    Conc.  %SD /Cr+PCr  Metabolite                                         
  590.010  26%   0.327 Ala                                                 
    0.000 999%   0.000 Asp                                                 
 1.43E+03  18%   0.793 Cr                                                  
  374.092  70%   0.207 PCr                                                 
   64.669 292% 3.6E-02 GABA                                                
    0.000 999%   0.000 Glc                                                 
 1.06E+03  29%   0.589 Gln                                                 
 2.04E+03  17%   1.129 Glu                                                 
  564.373   4%   0.313 GPC                                                 
    0.000 999%   0.000 PCh                                                 
  868.770  10%   0.482 GSH                                                 
 2.46E+03  11%   1.363 Ins                                                 
  449.862  37%   0.249 Lac                                                 
 2.15E+03   4%   1.194 NAA                                                 
    0.000 999%   0.000 NAAG                                                
   58.537  49% 3.2E-02 Scyllo                                              
    0.000 999%   0.000 Tau                                                 
    0.000 999%   0.000 -CrCH2                                              
  564.373   4%   0.313 GPC+PCh                                             
 2.15E+03   4%   1.194 NAA+NAAG                                            
 1.80E+03   4%   1.000 Cr+PCr                                              
 3.10E+03  17%   1.718 Glu+Gln                                             
 1.27E+03  37%   0.707 Lip13a                                              
    0.000 999%   0.000 Lip13b                                              
    0.000 999%   0.000 Lip09                                               
 1.69E+03  13%   0.938 MM09                                                
  110.391 172% 6.1E-02 Lip20                                               
 2.01E+03  19%   1.115 MM20                                                
  822.791  25%   0.456 MM12                                                
 7.85E+03   3%   4.354+MM14                                                
  157.290 149% 8.7E-02 MM17                                                
 1.27E+03  37%   0.707 Lip13a+Lip13b                                       
 9.95E+03   4%   5.517 MM14+Lip13a+Lip13b+MM12                             
 1.69E+03  13%   0.938 MM09+Lip09                                          
 2.12E+03  17%   1.176 MM20+Lip20                                          
   6 lines in following misc. output table
  FWHM = 0.054 ppm    S/N =  10                                            
  Data shift =-0.008 ppm                                                   
  Ph:  20 deg      -2.4 deg/ppm                                            
  alphaB,S = 3.0E+00,   1.5E+02                                            
   14 spline knots.   Ns = 9(1)                                            
  (15) 4 infls.   ( 7) 3 extrs.                                            
  498 points on ppm-axis = NY
      4.000000     3.992357     3.984714     3.977070     3.969427     3.961784     3.954141     3.946497     3.938854     3.931211
      3.923568     3.915925     3.908281     3.900638     3.892995     3.885352     3.877708     3.870065     3.862422     3.854779
      3.847136     3.839492     3.831849     3.824206     3.816563     3.808919     3.801276     3.793633     3.785990     3.778347
      3.770703     3.763060     3.755417     3.747774     3.740130     3.732487     3.724844     3.717201     3.709558     3.701914
      3.694271     3.686628     3.678985     3.671341     3.663698     3.656055     3.648412     3.640769     3.633125     3.625482
      3.617839     3.610196     3.602552     3.594909     3.587266     3.579623     3.571980     3.564336     3.556693     3.549050
      3.541407     3.533763     3.526120     3.518477     3.510834     3.503191     3.495547     3.487904     3.480261     3.472618
      3.464974     3.457331     3.449688     3.442045     3.434402     3.426758     3.419115     3.411472     3.403829     3.396185
      3.388542     3.380899     3.373256     3.365613     3.357969     3.350326     3.342683     3.335040     3.327396     3.319753
      3.312110     3.304467     3.296824     3.289180     3.281537     3.273894     3.266251     3.258607     3.250964     3.243321
      3.235678     3.228034     3.220391     3.212748     3.205105     3.197462     3.189818     3.182175     3.174532     3.166889
      3.159245     3.151602     3.143959     3.136316     3.128673     3.121029     3.113386     3.105743     3.098100     3.090456
      3.082813     3.075170     3.067527     3.059884     3.052240     3.044597     3.036954     3.029311     3.021667     3.014024
      3.006381     2.998738     2.991095     2.983451     2.975808     2.968165     2.960522     2.952878     2.945235     2.937592
      2.929949     2.922306     2.914662     2.907019     2.899376     2.891733     2.884089     2.876446     2.868803     2.861160
      2.853517     2.845873     2.838230     2.830587     2.822944     2.815300     2.807657     2.800014     2.792371     2.784728
      2.777084     2.769441     2.761798     2.754155     2.746511     2.738868     2.731225     2.723582     2.715939     2.708295
      2.700652     2.693009     2.685366     2.677722     2.670079     2.662436     2.654793     2.647150     2.639506     2.631863
      2.624220     2.616577     2.608933     2.601290     2.593647     2.586004     2.578361     2.570717     2.563074     2.555431
      2.547788     2.540144     2.532501     2.524858     2.517215     2.509572     2.501928     2.494285     2.486642     2.478999
      2.471355     2.463712     2.456069     2.448426     2.440783     2.433139     2.425496     2.417853     2.410210     2.402566
      2.394923     2.387280     2.379637     2.371994     2.364350     2.356707     2.349064     2.341421     2.333777     2.326134
      2.318491     2.310848     2.303205     2.295561     2.287918     2.280275     2.272632     2.264988     2.257345     2.249702
      2.242059     2.234416     2.226772     2.219129     2.211486     2.203843     2.196199     2.188556     2.180913     2.173270
      2.165627     2.157983     2.150340     2.142697     2.135054     2.127410     2.119767     2.112124     2.104481     2.096838
      2.089194     2.081551     2.073908     2.066265     2.058621     2.050978     2.043335     2.035692     2.028049     2.020405
      2.012762     2.005119     1.997476     1.989833     1.982190     1.974546     1.966903     1.959260     1.951617     1.943974
      1.936331     1.928688     1.921045     1.913402     1.905759     1.898115     1.890472     1.882829     1.875186     1.867543
      1.859900     1.852257     1.844614     1.836971     1.829327     1.821684     1.814041     1.806398     1.798755     1.791112
      1.783469     1.775826     1.768183     1.760540     1.752896     1.745253     1.737610     1.729967     1.722324     1.714681
      1.707038     1.699395     1.691752     1.684108     1.676465     1.668822     1.661179     1.653536     1.645893     1.638250
      1.630607     1.622964     1.615321     1.607677     1.600034     1.592391     1.584748     1.577105     1.569462     1.561819
      1.554176     1.546533     1.538890     1.531246     1.523603     1.515960     1.508317     1.500674     1.493031     1.485388
      1.477745     1.470102     1.462458     1.454815     1.447172     1.439529     1.431886     1.424243     1.416600     1.408957
      1.401314     1.393671     1.386027     1.378384     1.370741     1.363098     1.355455     1.347812     1.340169     1.332526
      1.324883     1.317240     1.309596     1.301953     1.294310     1.286667     1.279024     1.271381     1.263738     1.256095
      1.248452     1.240808     1.233165     1.225522     1.217879     1.210236     1.202593     1.194950     1.187307     1.179664
      1.172021     1.164377     1.156734     1.149091     1.141448     1.133805     1.126162     1.118519     1.110876     1.103233
      1.095590     1.087946     1.080303     1.072660     1.065017     1.057374     1.049731     1.042088     1.034445     1.026802
      1.019158     1.011515     1.003872     0.996229     0.988586     0.980943     0.973300     0.965657     0.958014     0.950371
      0.942727     0.935084     0.927441     0.919798     0.912155     0.904512     0.896869     0.889226     0.881583     0.873940
      0.866296     0.858653     0.851010     0.843367     0.835724     0.828081     0.820438     0.812795     0.805152     0.797508
      0.789865     0.782222     0.774579     0.766936     0.759293     0.751650     0.744007     0.736364     0.728721     0.721077
      0.713434     0.705791     0.698148     0.690505     0.682862     0.675219     0.667576     0.659933     0.652290     0.644646
      0.637003     0.629360     0.621717     0.614074     0.606431     0.598788     0.591145     0.583502     0.575858     0.568215
      0.560572     0.552929     0.545286     0.537643     0.530000     0.522357     0.514714     0.507071     0.499427     0.491784
      0.484141     0.476498     0.468855     0.461212     0.453569     0.445925     0.438282     0.430639     0.422996     0.415353
      0.407710     0.400067     0.392424     0.384780     0.377137     0.369494     0.361851     0.354208     0.346565     0.338922
      0.331278     0.323635     0.315992     0.308349     0.300706     0.293063     0.285420     0.277777     0.270133     0.262490
      0.254847     0.247204     0.239561     0.231918     0.224275     0.216631     0.208988     0.201345
 NY phased data points follow
   1.67533E+01  1.70697E+01  2.16297E+01  1.88440E+01  2.43761E+01  2.09794E+01  3.11564E+01  3.84066E+01  4.31286E+01  4.56721E+01
   5.01152E+01  4.69480E+01  4.66594E+01  4.31454E+01  3.93362E+01  2.93839E+01  3.03460E+01  2.72056E+01  2.69773E+01  2.10337E+01
   2.24032E+01  2.62364E+01  1.97897E+01  2.15658E+01  2.54513E+01  2.27796E+01  2.05991E+01  2.42991E+01  2.80984E+01  2.80205E+01
   3.40344E+01  2.95604E+01  2.78703E+01  2.52129E+01  2.27276E+01  2.07976E+01  2.20777E+01  2.03972E+01  2.21572E+01  2.59785E+01
   1.97050E+01  2.15119E+01  2.22458E+01  2.58081E+01  2.50549E+01  2.82251E+01  2.61895E+01  2.85277E+01  2.85346E+01  2.40730E+01
   2.55661E+01  2.24780E+01  1.94167E+01  2.02016E+01  2.13937E+01  1.86294E+01  1.92878E+01  2.12587E+01  2.13186E+01  1.73119E+01
   1.85520E+01  1.72241E+01  1.61105E+01  1.09537E+01  9.92337E+00  9.33957E+00  6.57997E+00  8.79506E+00  1.02320E+01  6.40693E+00
   7.63522E+00  8.84898E+00  8.35157E+00  7.94868E+00  7.22178E+00  8.48614E+00  1.28511E+01  8.05692E+00  8.47231E+00  6.61958E+00
   9.65409E+00  8.99644E+00  5.34206E+00  7.99479E+00  1.12491E+01  7.07825E+00  9.79648E+00  5.94801E+00  8.19148E+00  7.85988E+00
   6.71359E+00  1.11716E+01  9.27495E+00  1.29380E+01  1.50181E+01  1.61990E+01  1.31635E+01  1.40827E+01  1.47958E+01  2.24736E+01
   3.19214E+01  4.23197E+01  4.70634E+01  4.75140E+01  4.77271E+01  4.36945E+01  3.70220E+01  3.17714E+01  2.55433E+01  2.46420E+01
   2.12150E+01  1.81957E+01  1.57925E+01  1.52874E+01  1.12174E+01  1.59263E+01  1.29534E+01  1.38000E+01  1.92765E+01  1.97930E+01
   1.35109E+01  1.96613E+01  2.11603E+01  2.85501E+01  4.07307E+01  4.84701E+01  5.59874E+01  6.00684E+01  5.55589E+01  4.67682E+01
   3.88388E+01  3.54983E+01  3.06386E+01  2.65445E+01  1.94004E+01  1.54440E+01  1.39532E+01  1.10024E+01  7.88573E+00  1.18360E+01
   6.04495E+00  9.75969E+00  9.72304E+00  8.89469E+00  9.24012E+00  1.03432E+01  1.08208E+01  8.77538E+00  9.35580E+00  8.38642E+00
   7.93115E+00  5.92454E+00  7.11312E+00  3.52036E+00  6.94745E+00  6.24591E+00  5.53405E+00  8.83033E+00  6.03414E+00  3.41199E+00
   5.90561E+00  1.56697E+00  9.70321E-01  1.58114E+00  6.62019E+00  2.93863E+00  8.55201E+00  4.35564E+00  2.83436E+00 -6.23654E-01
   1.85421E+00  3.50363E+00 -1.98690E+00 -3.20586E+00 -7.07701E+00 -5.79393E+00 -5.08168E+00 -3.33264E+00 -7.04229E+00 -7.02260E+00
  -5.20390E+00 -1.83160E+00 -3.82821E+00 -6.41311E+00 -7.19186E+00 -6.73049E+00 -1.64109E+00 -6.09718E-01  7.05232E-01  1.98543E+00
   2.37790E+00  3.24508E+00  7.16298E+00  7.01245E+00  9.27347E+00  4.45824E+00  5.43747E+00  5.38244E+00  4.23110E+00  3.17125E+00
   2.88535E+00  3.55068E+00  8.62993E+00  3.98544E+00  7.10992E+00  2.25462E+00  7.21838E+00  2.71261E+00  9.51425E-01  3.55123E-01
   3.70448E+00  2.34672E+00  5.27512E+00  8.61333E+00  1.09634E+01  1.71011E+01  1.35833E+01  1.74871E+01  8.45349E+00  4.98806E+00
   3.48108E+00  2.69914E-01 -1.13606E+00  2.92083E+00  7.23246E+00  9.91691E+00  3.96607E+00  6.34433E+00  8.69902E+00  7.74455E+00
   1.15618E+01  1.05576E+01  5.53597E+00  8.37958E+00  9.77788E+00  8.06116E+00  6.39885E+00  6.72323E+00  5.60520E+00  7.82005E+00
   4.23058E+00  5.96223E+00  8.58990E+00  7.80238E+00  8.97735E+00  1.11696E+01  1.00915E+01  1.24343E+01  1.33748E+01  1.03581E+01
   1.50921E+01  2.01838E+01  1.90112E+01  2.34837E+01  1.78738E+01  2.23889E+01  3.40584E+01  4.71014E+01  6.27679E+01  7.23989E+01
   7.44112E+01  6.99666E+01  6.08547E+01  4.89897E+01  4.22088E+01  3.34796E+01  2.73636E+01  1.60389E+01  2.00135E+01  1.28587E+01
   7.78598E+00  7.74777E+00  8.36477E+00  8.03059E+00  6.57283E+00  7.95536E+00  1.09999E+01  3.76874E+00  5.00722E+00  5.01706E+00
   6.27082E+00  7.09482E+00  7.24034E+00  4.32233E+00  5.70352E+00  3.19294E+00  2.96151E+00  3.81123E+00  4.89222E+00  2.69632E+00
   5.03359E+00  1.39986E+00  3.35068E+00  4.06828E+00  6.08747E-01  1.15638E+00  1.19702E+00  1.38997E+00  2.34938E+00  1.24277E+00
   4.13384E+00  2.38715E+00  3.25342E+00  1.45673E+00  4.87466E+00  1.69211E+00  2.56572E+00  6.04734E+00  4.89347E+00  7.87402E+00
   6.41840E+00  7.09764E+00  1.24138E+01  9.04384E+00  8.30661E+00  1.11599E+01  1.17761E+01  1.36197E+01  9.55385E+00  1.52771E+01
   1.50845E+01  1.91425E+01  1.87608E+01  2.32219E+01  2.26938E+01  2.52409E+01  2.96748E+01  3.28584E+01  3.47926E+01  3.92157E+01
   4.36060E+01  4.58436E+01  5.46073E+01  5.73047E+01  6.24775E+01  7.02023E+01  6.86896E+01  7.06017E+01  7.29163E+01  7.36979E+01
   7.10487E+01  7.12929E+01  6.57404E+01  5.88063E+01  5.52226E+01  5.47402E+01  4.65554E+01  4.32368E+01  4.10694E+01  3.56782E+01
   3.20665E+01  2.62934E+01  2.59035E+01  2.62913E+01  2.49415E+01  2.46859E+01  1.95438E+01  2.38626E+01  1.75072E+01  1.68502E+01
   1.53806E+01  1.58905E+01  1.24763E+01  1.41822E+01  1.65663E+01  1.92954E+01  1.24635E+01  1.64252E+01  1.24542E+01  1.33501E+01
   1.52021E+01  1.79161E+01  1.18823E+01  1.64013E+01  1.40481E+01  1.53513E+01  1.07412E+01  1.25771E+01  1.17609E+01  1.00969E+01
   1.33883E+01  1.34274E+01  1.12722E+01  8.55362E+00  9.91464E+00  1.06869E+01  9.02934E+00  1.05693E+01  8.61740E+00  1.17096E+01
   9.72614E+00  1.09230E+01  1.25765E+01  9.18391E+00  1.08017E+01  1.41274E+01  1.12575E+01  9.23812E+00  1.03805E+01  1.13087E+01
   1.20710E+01  9.87389E+00  1.63297E+01  9.60951E+00  1.33864E+01  1.10576E+01  1.37547E+01  1.50284E+01  1.36132E+01  1.45193E+01
   1.33362E+01  1.37737E+01  1.32957E+01  9.39437E+00  1.12627E+01  1.09933E+01  1.34586E+01  1.26901E+01  1.28385E+01  1.05333E+01
   8.69012E+00  7.14457E+00  7.39240E+00  8.96169E+00  5.99250E+00  6.50163E+00  1.08610E+01  8.84682E+00  5.80731E+00  5.14235E+00
   8.07588E+00  5.23086E+00  5.49381E+00  5.96808E+00  6.33686E+00  2.43204E+00  5.28372E+00  5.25320E+00  8.02669E+00  6.10230E+00
   4.58909E+00  7.45081E+00  4.60698E+00  3.96334E+00  8.74127E+00  4.82653E+00  7.80630E+00  5.94396E+00  5.97324E+00  2.89401E+00
   7.53140E+00  9.94734E-01  3.97493E+00  5.90303E+00  8.11867E+00  3.26080E+00  4.92915E+00  4.95152E+00  3.36079E+00  4.10145E+00
   4.35021E+00  2.42257E+00  5.57434E+00  3.45066E+00  3.69861E+00  8.19585E+00  5.33562E+00  5.18460E+00  2.88685E+00  5.01919E+00
   5.85002E+00  4.87698E+00  6.07028E+00  5.05966E+00  6.08726E+00  4.18233E+00  2.81624E+00  6.06215E+00  3.24504E+00  2.11992E+00
   4.83929E+00  2.88499E+00  2.84327E+00  1.87878E+00  1.47706E+00  4.93311E+00  3.50114E+00  2.09646E+00  4.69879E+00  2.19229E+00
   5.86292E+00  6.38086E+00  3.74535E+00  2.56192E+00  6.04413E+00  4.46960E+00  8.53508E+00  2.92469E+00
 NY points of the fit to the data follow
   1.84150E+01  1.86996E+01  1.99910E+01  2.17956E+01  2.32217E+01  2.50843E+01  2.86819E+01  3.41377E+01  4.02562E+01  4.53705E+01
   4.80691E+01  4.78193E+01  4.50440E+01  4.07928E+01  3.62552E+01  3.22828E+01  2.90798E+01  2.64668E+01  2.42920E+01  2.23612E+01
   2.11238E+01  2.04908E+01  1.97505E+01  1.91540E+01  1.90092E+01  1.98644E+01  2.18664E+01  2.47585E+01  2.80385E+01  3.08057E+01
   3.22330E+01  3.21880E+01  3.07746E+01  2.83475E+01  2.54762E+01  2.26729E+01  2.02678E+01  1.88322E+01  1.85176E+01  1.82654E+01
   1.77955E+01  1.79250E+01  1.91232E+01  2.15170E+01  2.44533E+01  2.69013E+01  2.79940E+01  2.74142E+01  2.54076E+01  2.26492E+01
   2.00125E+01  1.80201E+01  1.66574E+01  1.56945E+01  1.51665E+01  1.51091E+01  1.52620E+01  1.55510E+01  1.60768E+01  1.64620E+01
   1.62398E+01  1.53775E+01  1.43634E+01  1.35235E+01  1.29527E+01  1.27022E+01  1.28182E+01  1.32395E+01  1.37186E+01  1.40852E+01
   1.42976E+01  1.43126E+01  1.41664E+01  1.38794E+01  1.35156E+01  1.31490E+01  1.27898E+01  1.24188E+01  1.20483E+01  1.15443E+01
   1.10251E+01  1.05760E+01  1.02095E+01  9.80101E+00  9.24030E+00  8.52045E+00  7.75811E+00  7.16981E+00  6.81163E+00  6.77485E+00
   7.11790E+00  7.75237E+00  8.48493E+00  9.33482E+00  1.13710E+01  1.45402E+01  1.60098E+01  1.62882E+01  1.81452E+01  2.33620E+01
   3.15436E+01  4.05114E+01  4.75402E+01  5.06965E+01  4.94749E+01  4.47064E+01  3.82369E+01  3.19848E+01  2.68137E+01  2.26957E+01
   1.93797E+01  1.66676E+01  1.40821E+01  1.11976E+01  8.93057E+00  8.23862E+00  8.29782E+00  9.29148E+00  1.26491E+01  1.60051E+01
   1.74240E+01  1.89624E+01  2.33903E+01  3.15376E+01  4.19006E+01  5.14188E+01  5.72472E+01  5.82991E+01  5.50357E+01  4.89911E+01
   4.22191E+01  3.59189E+01  3.03053E+01  2.51080E+01  2.03342E+01  1.61653E+01  1.23995E+01  9.31552E+00  8.28092E+00  8.72153E+00
   9.31756E+00  9.60208E+00  9.47233E+00  9.07162E+00  8.68212E+00  8.38688E+00  8.10647E+00  7.83249E+00  7.49828E+00  7.05474E+00
   6.57126E+00  6.05801E+00  5.55218E+00  5.23958E+00  5.14328E+00  5.15866E+00  5.14141E+00  4.82638E+00  4.29060E+00  3.82266E+00
   3.61726E+00  3.66711E+00  3.84231E+00  3.97251E+00  3.91796E+00  3.61913E+00  3.11695E+00  2.50924E+00  2.03839E+00  1.82220E+00
   1.66133E+00  1.32816E+00  6.95729E-01  7.94245E-02 -2.92677E-01 -4.28561E-01 -4.42320E-01 -4.86024E-01 -6.29115E-01 -6.71910E-01
  -5.68482E-01 -4.33963E-01 -3.55365E-01 -3.13679E-01 -2.01830E-01  2.39047E-01  1.21118E+00  2.53227E+00  3.89933E+00  5.02198E+00
   5.78774E+00  5.98337E+00  5.52137E+00  4.60332E+00  3.64464E+00  3.07738E+00  3.09388E+00  3.67953E+00  4.61977E+00  5.85294E+00
   7.10737E+00  7.99759E+00  8.75369E+00  9.13594E+00  8.56799E+00  7.13319E+00  5.29073E+00  3.70336E+00  2.29626E+00  1.22010E+00
   1.17740E+00  2.51699E+00  4.86812E+00  7.25662E+00  9.06796E+00  1.02116E+01  1.03390E+01  8.93578E+00  6.27317E+00  3.30758E+00
   9.02072E-01 -5.12643E-01 -6.39903E-01  5.03952E-01  2.49229E+00  4.54597E+00  5.95219E+00  6.77393E+00  7.33453E+00  7.60950E+00
   7.62666E+00  7.75833E+00  8.34491E+00  9.08777E+00  9.60174E+00  1.00759E+01  1.05688E+01  1.06544E+01  1.00174E+01  8.84190E+00
   7.59313E+00  6.71080E+00  6.34490E+00  6.53833E+00  7.31595E+00  8.37706E+00  9.22098E+00  9.59471E+00  9.78996E+00  1.00005E+01
   1.09956E+01  1.56178E+01  2.08606E+01  2.27533E+01  2.36032E+01  2.76172E+01  3.65822E+01  4.89469E+01  6.11918E+01  6.96634E+01
   7.21942E+01  6.86003E+01  6.05695E+01  5.09989E+01  4.22979E+01  3.52009E+01  2.94029E+01  2.46549E+01  2.06570E+01  1.63478E+01
   1.15841E+01  8.81654E+00  8.05432E+00  7.72544E+00  7.50568E+00  7.32192E+00  7.09677E+00  6.79599E+00  6.47158E+00  6.14928E+00
   5.85057E+00  5.59478E+00  5.37946E+00  5.17863E+00  4.99178E+00  4.83137E+00  4.69447E+00  4.57520E+00  4.47149E+00  4.38318E+00
   4.31230E+00  4.25418E+00  4.20095E+00  4.15578E+00  4.12058E+00  4.09375E+00  4.07457E+00  4.06463E+00  4.06406E+00  4.07060E+00
   4.08356E+00  4.10406E+00  4.13167E+00  4.16629E+00  4.21003E+00  4.26554E+00  4.33778E+00  4.43434E+00  4.56511E+00  4.74234E+00
   4.98125E+00  5.30083E+00  5.72461E+00  6.28206E+00  7.01188E+00  7.97056E+00  9.26740E+00  1.09725E+01  1.26129E+01  1.42180E+01
   1.63208E+01  1.91355E+01  2.23820E+01  2.55319E+01  2.81806E+01  3.05979E+01  3.28946E+01  3.48468E+01  3.67153E+01  3.91061E+01
   4.24493E+01  4.67491E+01  5.16548E+01  5.66215E+01  6.10531E+01  6.44727E+01  6.68076E+01  6.83812E+01  6.92159E+01  6.89353E+01
   6.77492E+01  6.61658E+01  6.44023E+01  6.21798E+01  5.90402E+01  5.51183E+01  5.08754E+01  4.61651E+01  4.10536E+01  3.60601E+01
   3.18163E+01  2.86659E+01  2.65747E+01  2.52590E+01  2.43469E+01  2.34739E+01  2.23964E+01  2.11932E+01  2.01203E+01  1.91418E+01
   1.82358E+01  1.74298E+01  1.67424E+01  1.61374E+01  1.54802E+01  1.47582E+01  1.41725E+01  1.37062E+01  1.33000E+01  1.29274E+01
   1.25753E+01  1.22366E+01  1.19083E+01  1.15901E+01  1.12833E+01  1.09907E+01  1.07154E+01  1.04610E+01  1.02314E+01  1.00302E+01
   9.86103E+00  9.72695E+00  9.63052E+00  9.57375E+00  9.55815E+00  9.58476E+00  9.65393E+00  9.76527E+00  9.91764E+00  1.01092E+01
   1.03373E+01  1.05987E+01  1.08891E+01  1.12035E+01  1.15357E+01  1.18791E+01  1.22264E+01  1.25699E+01  1.29014E+01  1.32125E+01
   1.34951E+01  1.37416E+01  1.39449E+01  1.40992E+01  1.41996E+01  1.42425E+01  1.42259E+01  1.41496E+01  1.40148E+01  1.38241E+01
   1.35815E+01  1.32922E+01  1.29620E+01  1.25979E+01  1.22070E+01  1.17963E+01  1.13728E+01  1.09430E+01  1.05131E+01  1.00886E+01
   9.67403E+00  9.27319E+00  8.88900E+00  8.52367E+00  8.17877E+00  7.85520E+00  7.55323E+00  7.27263E+00  7.01280E+00  6.77297E+00
   6.55219E+00  6.34936E+00  6.16319E+00  5.99235E+00  5.83561E+00  5.69182E+00  5.55991E+00  5.43880E+00  5.32743E+00  5.22483E+00
   5.13020E+00  5.04287E+00  4.96218E+00  4.88749E+00  4.81817E+00  4.75370E+00  4.69370E+00  4.63783E+00  4.58575E+00  4.53708E+00
   4.49146E+00  4.44866E+00  4.40851E+00  4.37087E+00  4.33551E+00  4.30219E+00  4.27073E+00  4.24102E+00  4.21301E+00  4.18660E+00
   4.16163E+00  4.13794E+00  4.11544E+00  4.09411E+00  4.07395E+00  4.05484E+00  4.03668E+00  4.01934E+00  4.00281E+00  3.98712E+00
   3.97223E+00  3.95807E+00  3.94453E+00  3.93155E+00  3.91917E+00  3.90740E+00  3.89621E+00  3.88550E+00  3.87520E+00  3.86530E+00
   3.85584E+00  3.84684E+00  3.83824E+00  3.82995E+00  3.82192E+00  3.81418E+00  3.80678E+00  3.79971E+00  3.79288E+00  3.78622E+00
   3.77973E+00  3.77345E+00  3.76741E+00  3.76156E+00  3.75582E+00  3.75014E+00  3.74453E+00  3.73905E+00
 NY background values follow
     9.878E+00    9.839E+00    9.800E+00    9.761E+00    9.722E+00    9.683E+00    9.644E+00    9.605E+00    9.566E+00    9.527E+00
     9.488E+00    9.449E+00    9.410E+00    9.371E+00    9.332E+00    9.293E+00    9.255E+00    9.216E+00    9.177E+00    9.138E+00
     9.099E+00    9.060E+00    9.021E+00    8.982E+00    8.943E+00    8.904E+00    8.865E+00    8.826E+00    8.787E+00    8.748E+00
     8.709E+00    8.671E+00    8.632E+00    8.593E+00    8.554E+00    8.515E+00    8.476E+00    8.438E+00    8.399E+00    8.360E+00
     8.321E+00    8.283E+00    8.244E+00    8.205E+00    8.166E+00    8.128E+00    8.089E+00    8.051E+00    8.012E+00    7.973E+00
     7.935E+00    7.896E+00    7.858E+00    7.820E+00    7.781E+00    7.743E+00    7.704E+00    7.666E+00    7.628E+00    7.590E+00
     7.552E+00    7.513E+00    7.475E+00    7.437E+00    7.399E+00    7.362E+00    7.324E+00    7.286E+00    7.248E+00    7.210E+00
     7.173E+00    7.135E+00    7.098E+00    7.060E+00    7.023E+00    6.986E+00    6.948E+00    6.911E+00    6.874E+00    6.837E+00
     6.800E+00    6.763E+00    6.727E+00    6.690E+00    6.653E+00    6.617E+00    6.580E+00    6.544E+00    6.508E+00    6.472E+00
     6.436E+00    6.400E+00    6.364E+00    6.328E+00    6.292E+00    6.257E+00    6.221E+00    6.186E+00    6.150E+00    6.115E+00
     6.080E+00    6.045E+00    6.010E+00    5.975E+00    5.941E+00    5.906E+00    5.872E+00    5.837E+00    5.803E+00    5.769E+00
     5.735E+00    5.701E+00    5.667E+00    5.633E+00    5.600E+00    5.566E+00    5.533E+00    5.499E+00    5.466E+00    5.433E+00
     5.400E+00    5.367E+00    5.334E+00    5.302E+00    5.269E+00    5.237E+00    5.204E+00    5.172E+00    5.140E+00    5.108E+00
     5.076E+00    5.045E+00    5.013E+00    4.981E+00    4.950E+00    4.919E+00    4.888E+00    4.857E+00    4.826E+00    4.795E+00
     4.764E+00    4.734E+00    4.703E+00    4.673E+00    4.643E+00    4.613E+00    4.583E+00    4.553E+00    4.524E+00    4.494E+00
     4.465E+00    4.436E+00    4.407E+00    4.378E+00    4.349E+00    4.320E+00    4.292E+00    4.264E+00    4.236E+00    4.208E+00
     4.180E+00    4.152E+00    4.124E+00    4.097E+00    4.070E+00    4.043E+00    4.016E+00    3.989E+00    3.963E+00    3.936E+00
     3.910E+00    3.884E+00    3.858E+00    3.833E+00    3.807E+00    3.782E+00    3.757E+00    3.732E+00    3.707E+00    3.682E+00
     3.658E+00    3.634E+00    3.610E+00    3.586E+00    3.562E+00    3.539E+00    3.516E+00    3.493E+00    3.470E+00    3.447E+00
     3.424E+00    3.402E+00    3.380E+00    3.358E+00    3.336E+00    3.315E+00    3.293E+00    3.272E+00    3.251E+00    3.230E+00
     3.209E+00    3.189E+00    3.168E+00    3.148E+00    3.128E+00    3.108E+00    3.089E+00    3.069E+00    3.050E+00    3.031E+00
     3.012E+00    2.993E+00    2.974E+00    2.956E+00    2.938E+00    2.919E+00    2.901E+00    2.884E+00    2.866E+00    2.849E+00
     2.831E+00    2.814E+00    2.797E+00    2.780E+00    2.764E+00    2.747E+00    2.731E+00    2.715E+00    2.699E+00    2.683E+00
     2.667E+00    2.652E+00    2.637E+00    2.621E+00    2.606E+00    2.591E+00    2.577E+00    2.562E+00    2.548E+00    2.534E+00
     2.520E+00    2.506E+00    2.492E+00    2.478E+00    2.465E+00    2.452E+00    2.439E+00    2.426E+00    2.413E+00    2.400E+00
     2.388E+00    2.376E+00    2.364E+00    2.352E+00    2.340E+00    2.328E+00    2.317E+00    2.306E+00    2.295E+00    2.284E+00
     2.273E+00    2.262E+00    2.252E+00    2.242E+00    2.231E+00    2.222E+00    2.212E+00    2.202E+00    2.193E+00    2.183E+00
     2.174E+00    2.165E+00    2.157E+00    2.148E+00    2.140E+00    2.131E+00    2.123E+00    2.115E+00    2.107E+00    2.100E+00
     2.092E+00    2.085E+00    2.078E+00    2.071E+00    2.064E+00    2.057E+00    2.051E+00    2.044E+00    2.038E+00    2.032E+00
     2.026E+00    2.020E+00    2.015E+00    2.009E+00    2.004E+00    1.999E+00    1.994E+00    1.989E+00    1.984E+00    1.980E+00
     1.975E+00    1.971E+00    1.967E+00    1.962E+00    1.959E+00    1.955E+00    1.951E+00    1.948E+00    1.944E+00    1.941E+00
     1.938E+00    1.935E+00    1.932E+00    1.930E+00    1.927E+00    1.924E+00    1.922E+00    1.920E+00    1.918E+00    1.916E+00
     1.914E+00    1.912E+00    1.911E+00    1.909E+00    1.908E+00    1.907E+00    1.906E+00    1.905E+00    1.904E+00    1.903E+00
     1.902E+00    1.902E+00    1.902E+00    1.901E+00    1.901E+00    1.901E+00    1.901E+00    1.901E+00    1.901E+00    1.901E+00
     1.902E+00    1.902E+00    1.903E+00    1.904E+00    1.904E+00    1.905E+00    1.906E+00    1.907E+00    1.908E+00    1.910E+00
     1.911E+00    1.912E+00    1.914E+00    1.916E+00    1.917E+00    1.919E+00    1.921E+00    1.923E+00    1.925E+00    1.927E+00
     1.929E+00    1.931E+00    1.933E+00    1.936E+00    1.938E+00    1.941E+00    1.943E+00    1.946E+00    1.949E+00    1.951E+00
     1.954E+00    1.957E+00    1.960E+00    1.963E+00    1.966E+00    1.970E+00    1.973E+00    1.976E+00    1.980E+00    1.983E+00
     1.987E+00    1.990E+00    1.994E+00    1.998E+00    2.001E+00    2.005E+00    2.009E+00    2.013E+00    2.017E+00    2.021E+00
     2.025E+00    2.029E+00    2.034E+00    2.038E+00    2.042E+00    2.047E+00    2.051E+00    2.056E+00    2.060E+00    2.065E+00
     2.070E+00    2.074E+00    2.079E+00    2.084E+00    2.089E+00    2.094E+00    2.099E+00    2.104E+00    2.109E+00    2.114E+00
     2.119E+00    2.124E+00    2.130E+00    2.135E+00    2.140E+00    2.146E+00    2.151E+00    2.156E+00    2.162E+00    2.168E+00
     2.173E+00    2.179E+00    2.184E+00    2.190E+00    2.196E+00    2.202E+00    2.207E+00    2.213E+00    2.219E+00    2.225E+00
     2.231E+00    2.237E+00    2.243E+00    2.249E+00    2.255E+00    2.261E+00    2.267E+00    2.273E+00    2.279E+00    2.286E+00
     2.292E+00    2.298E+00    2.304E+00    2.310E+00    2.317E+00    2.323E+00    2.329E+00    2.335E+00    2.342E+00    2.348E+00
     2.355E+00    2.361E+00    2.367E+00    2.374E+00    2.380E+00    2.386E+00    2.393E+00    2.399E+00    2.406E+00    2.412E+00
     2.419E+00    2.425E+00    2.432E+00    2.438E+00    2.445E+00    2.451E+00    2.458E+00    2.464E+00    2.471E+00    2.477E+00
     2.484E+00    2.490E+00    2.497E+00    2.503E+00    2.510E+00    2.516E+00    2.523E+00    2.530E+00    2.536E+00    2.543E+00
     2.549E+00    2.556E+00    2.562E+00    2.569E+00    2.576E+00    2.582E+00    2.589E+00    2.595E+00    2.602E+00    2.608E+00
     2.615E+00    2.622E+00    2.628E+00    2.635E+00    2.641E+00    2.648E+00    2.655E+00    2.661E+00
 Ala      Conc. = 5.90E+02
