 LCModel (Version 6.3-1L) Copyright: S.W. Provencher.          Ref.: Magn. Reson. Med. 30:672-679 (1993).                
 Slice#1 Row#9 Col#4  PD_05_press_1_raw_act
 36 lines in following concentration table = NCONC+1
    Conc.  %SD /Cr+PCr  Metabolite                                         
  183.491  46%   0.285 Ala                                                 
    0.000 999%   0.000 Asp                                                 
  285.426  51%   0.443 Cr                                                  
  358.337  41%   0.557 PCr                                                 
    0.000 999%   0.000 GABA                                                
    1.138 999% 1.8E-03 Glc                                                 
  459.237  39%   0.713 Gln                                                 
 1.00E+03  20%   1.554 Glu                                                 
  254.063   6%   0.395 GPC                                                 
    0.000 999%   0.000 PCh                                                 
  279.978  19%   0.435 GSH                                                 
  684.449  26%   1.063 Ins                                                 
    0.000 999%   0.000 Lac                                                 
 1.71E+03   7%   2.661 NAA                                                 
  118.858 106%   0.185 NAAG                                                
   40.524  46% 6.3E-02 Scyllo                                              
   54.926 245% 8.5E-02 Tau                                                 
    0.000 999%   0.000 -CrCH2                                              
  254.063   6%   0.395 GPC+PCh                                             
 1.83E+03   4%   2.846 NAA+NAAG                                            
  643.763   6%   1.000 Cr+PCr                                              
 1.46E+03  20%   2.268 Glu+Gln                                             
  889.731  39%   1.382 Lip13a                                              
    0.000 999%   0.000 Lip13b                                              
   90.643 173%   0.141 Lip09                                               
 1.00E+03  19%   1.555 MM09                                                
  126.784  85%   0.197 Lip20                                               
 2.05E+03  13%   3.189 MM20                                                
  380.490  32%   0.591 MM12                                                
  947.405  26%   1.472 MM14                                                
  462.369  31%   0.718 MM17                                                
  889.731  39%   1.382 Lip13a+Lip13b                                       
 2.22E+03  11%   3.445 MM14+Lip13a+Lip13b+MM12                             
 1.09E+03  12%   1.696 MM09+Lip09                                          
 2.18E+03  12%   3.386 MM20+Lip20                                          
   6 lines in following misc. output table
  FWHM = 0.061 ppm    S/N =  12                                            
  Data shift = 0.000 ppm                                                   
  Ph: -11 deg       1.2 deg/ppm                                            
  alphaB,S = 1.7E+00,   1.7E+02                                            
   14 spline knots.   Ns = 7(1)                                            
  (12) 2 infls.   ( 5) 1 extrs.                                            
  498 points on ppm-axis = NY
      4.000000     3.992357     3.984714     3.977070     3.969427     3.961784     3.954141     3.946497     3.938854     3.931211
      3.923568     3.915925     3.908281     3.900638     3.892995     3.885352     3.877708     3.870065     3.862422     3.854779
      3.847136     3.839492     3.831849     3.824206     3.816563     3.808919     3.801276     3.793633     3.785990     3.778347
      3.770703     3.763060     3.755417     3.747774     3.740130     3.732487     3.724844     3.717201     3.709558     3.701914
      3.694271     3.686628     3.678985     3.671341     3.663698     3.656055     3.648412     3.640769     3.633125     3.625482
      3.617839     3.610196     3.602552     3.594909     3.587266     3.579623     3.571980     3.564336     3.556693     3.549050
      3.541407     3.533763     3.526120     3.518477     3.510834     3.503191     3.495547     3.487904     3.480261     3.472618
      3.464974     3.457331     3.449688     3.442045     3.434402     3.426758     3.419115     3.411472     3.403829     3.396185
      3.388542     3.380899     3.373256     3.365613     3.357969     3.350326     3.342683     3.335040     3.327396     3.319753
      3.312110     3.304467     3.296824     3.289180     3.281537     3.273894     3.266251     3.258607     3.250964     3.243321
      3.235678     3.228034     3.220391     3.212748     3.205105     3.197462     3.189818     3.182175     3.174532     3.166889
      3.159245     3.151602     3.143959     3.136316     3.128673     3.121029     3.113386     3.105743     3.098100     3.090456
      3.082813     3.075170     3.067527     3.059884     3.052240     3.044597     3.036954     3.029311     3.021667     3.014024
      3.006381     2.998738     2.991095     2.983451     2.975808     2.968165     2.960522     2.952878     2.945235     2.937592
      2.929949     2.922306     2.914662     2.907019     2.899376     2.891733     2.884089     2.876446     2.868803     2.861160
      2.853517     2.845873     2.838230     2.830587     2.822944     2.815300     2.807657     2.800014     2.792371     2.784728
      2.777084     2.769441     2.761798     2.754155     2.746511     2.738868     2.731225     2.723582     2.715939     2.708295
      2.700652     2.693009     2.685366     2.677722     2.670079     2.662436     2.654793     2.647150     2.639506     2.631863
      2.624220     2.616577     2.608933     2.601290     2.593647     2.586004     2.578361     2.570717     2.563074     2.555431
      2.547788     2.540144     2.532501     2.524858     2.517215     2.509572     2.501928     2.494285     2.486642     2.478999
      2.471355     2.463712     2.456069     2.448426     2.440783     2.433139     2.425496     2.417853     2.410210     2.402566
      2.394923     2.387280     2.379637     2.371994     2.364350     2.356707     2.349064     2.341421     2.333777     2.326134
      2.318491     2.310848     2.303205     2.295561     2.287918     2.280275     2.272632     2.264988     2.257345     2.249702
      2.242059     2.234416     2.226772     2.219129     2.211486     2.203843     2.196199     2.188556     2.180913     2.173270
      2.165627     2.157983     2.150340     2.142697     2.135054     2.127410     2.119767     2.112124     2.104481     2.096838
      2.089194     2.081551     2.073908     2.066265     2.058621     2.050978     2.043335     2.035692     2.028049     2.020405
      2.012762     2.005119     1.997476     1.989833     1.982190     1.974546     1.966903     1.959260     1.951617     1.943974
      1.936331     1.928688     1.921045     1.913402     1.905759     1.898115     1.890472     1.882829     1.875186     1.867543
      1.859900     1.852257     1.844614     1.836971     1.829327     1.821684     1.814041     1.806398     1.798755     1.791112
      1.783469     1.775826     1.768183     1.760540     1.752896     1.745253     1.737610     1.729967     1.722324     1.714681
      1.707038     1.699395     1.691752     1.684108     1.676465     1.668822     1.661179     1.653536     1.645893     1.638250
      1.630607     1.622964     1.615321     1.607677     1.600034     1.592391     1.584748     1.577105     1.569462     1.561819
      1.554176     1.546533     1.538890     1.531246     1.523603     1.515960     1.508317     1.500674     1.493031     1.485388
      1.477745     1.470102     1.462458     1.454815     1.447172     1.439529     1.431886     1.424243     1.416600     1.408957
      1.401314     1.393671     1.386027     1.378384     1.370741     1.363098     1.355455     1.347812     1.340169     1.332526
      1.324883     1.317240     1.309596     1.301953     1.294310     1.286667     1.279024     1.271381     1.263738     1.256095
      1.248452     1.240808     1.233165     1.225522     1.217879     1.210236     1.202593     1.194950     1.187307     1.179664
      1.172021     1.164377     1.156734     1.149091     1.141448     1.133805     1.126162     1.118519     1.110876     1.103233
      1.095590     1.087946     1.080303     1.072660     1.065017     1.057374     1.049731     1.042088     1.034445     1.026802
      1.019158     1.011515     1.003872     0.996229     0.988586     0.980943     0.973300     0.965657     0.958014     0.950371
      0.942727     0.935084     0.927441     0.919798     0.912155     0.904512     0.896869     0.889226     0.881583     0.873940
      0.866296     0.858653     0.851010     0.843367     0.835724     0.828081     0.820438     0.812795     0.805152     0.797508
      0.789865     0.782222     0.774579     0.766936     0.759293     0.751650     0.744007     0.736364     0.728721     0.721077
      0.713434     0.705791     0.698148     0.690505     0.682862     0.675219     0.667576     0.659933     0.652290     0.644646
      0.637003     0.629360     0.621717     0.614074     0.606431     0.598788     0.591145     0.583502     0.575858     0.568215
      0.560572     0.552929     0.545286     0.537643     0.530000     0.522357     0.514714     0.507071     0.499427     0.491784
      0.484141     0.476498     0.468855     0.461212     0.453569     0.445925     0.438282     0.430639     0.422996     0.415353
      0.407710     0.400067     0.392424     0.384780     0.377137     0.369494     0.361851     0.354208     0.346565     0.338922
      0.331278     0.323635     0.315992     0.308349     0.300706     0.293063     0.285420     0.277777     0.270133     0.262490
      0.254847     0.247204     0.239561     0.231918     0.224275     0.216631     0.208988     0.201345
 NY phased data points follow
   1.21586E+01  1.29550E+01  1.62044E+01  1.17893E+01  1.64304E+01  1.61747E+01  2.03325E+01  1.93097E+01  2.08682E+01  2.32731E+01
   2.29580E+01  2.14932E+01  2.05728E+01  1.95519E+01  1.96909E+01  1.70306E+01  1.61539E+01  1.01905E+01  1.35706E+01  1.20226E+01
   1.47033E+01  1.28187E+01  1.24376E+01  1.04278E+01  1.33397E+01  1.20017E+01  1.51488E+01  1.45469E+01  1.41192E+01  1.27220E+01
   1.46927E+01  1.29432E+01  1.22144E+01  1.15770E+01  1.39101E+01  1.59560E+01  1.15101E+01  1.18838E+01  1.17519E+01  1.02998E+01
   1.28403E+01  1.32291E+01  1.05956E+01  1.14954E+01  1.10996E+01  1.43202E+01  1.30279E+01  1.43642E+01  1.34596E+01  1.28395E+01
   1.28706E+01  1.16317E+01  1.27586E+01  1.19714E+01  1.18954E+01  1.14782E+01  8.48764E+00  7.48995E+00  8.41199E+00  7.49293E+00
   8.71004E+00  9.58480E+00  5.28060E+00  4.36580E+00  7.19113E+00  7.13102E+00  1.13782E+01  2.96582E+00  7.37671E+00  9.20751E+00
   7.30355E+00  7.24614E+00  5.91092E+00  5.94754E+00  6.31019E+00  5.79188E+00  7.90885E+00  5.38632E+00  4.58528E+00  2.72192E+00
   3.75448E+00  2.26389E+00  5.79791E+00  6.91326E+00  5.50983E+00  5.00496E+00  6.20233E+00  7.74896E+00  8.45947E+00  7.72499E+00
   8.22267E+00  4.75810E+00  1.34017E+01  4.67688E+00  8.67619E+00  7.47963E+00  8.60814E+00  6.59870E+00  1.15630E+01  1.23570E+01
   1.86451E+01  2.23919E+01  2.64241E+01  2.96875E+01  2.49155E+01  2.05076E+01  2.00652E+01  1.63219E+01  1.40472E+01  9.35023E+00
   8.69960E+00  1.04809E+01  1.22674E+01  7.40720E+00  6.46731E+00  8.05125E+00  8.21385E+00  7.53102E+00  6.39202E+00  7.72854E+00
   9.81673E+00  9.03365E+00  9.34496E+00  1.06438E+01  1.65215E+01  2.00989E+01  2.33064E+01  2.65040E+01  2.53171E+01  2.19883E+01
   1.83376E+01  1.64678E+01  1.38625E+01  1.10222E+01  7.58785E+00  8.95471E+00  7.00731E+00  6.37291E+00  5.49148E+00  5.25313E+00
   5.26527E+00  2.12350E+00  2.48991E+00  1.90402E+00  6.30548E+00  5.74093E+00  3.34626E+00  3.15792E+00  2.64767E+00  3.46534E+00
   3.98024E+00  1.50722E-01  2.27397E+00  4.02484E+00  6.42387E+00  2.61006E+00  2.82022E+00  5.00565E+00  4.25140E+00 -2.43889E+00
   2.44432E+00  2.28582E+00  8.93788E-01  3.24481E+00  1.53841E-01  4.19700E+00  6.96115E+00 -5.15613E-01  7.12602E-02 -2.70542E+00
  -4.61968E+00 -4.19222E+00 -6.29808E-01 -4.95120E+00 -7.27801E+00 -8.85988E+00 -6.70932E+00 -6.72046E+00 -6.34084E+00 -7.47873E+00
  -3.79480E-02 -5.24651E+00 -3.56707E+00 -4.14597E+00 -4.72028E+00 -1.39311E+00  1.58790E-01 -3.35452E+00 -3.60034E-01 -4.62766E+00
   3.11492E+00 -4.20756E-01  4.79980E-02 -3.10464E+00 -3.67979E+00 -4.12303E+00 -3.34071E+00 -1.33832E+00 -5.37448E+00 -2.77044E+00
   2.45047E+00 -2.34037E+00 -1.90619E+00  5.85969E+00  1.34506E+00  3.07691E+00  4.57293E-01  3.46033E+00  6.62768E-01  1.11435E+00
   3.41660E+00  2.46072E+00  4.62060E+00  5.68113E+00  7.88097E+00  8.00409E+00  7.80093E+00  5.57182E+00  8.39273E+00  4.94020E+00
   5.04776E+00  7.17207E-02  2.25343E+00 -7.96771E-01 -2.84316E+00  2.85017E+00  1.26349E+00  5.91210E+00  6.76318E+00  8.92092E+00
   4.49995E+00  6.57781E+00  4.47777E+00  3.78742E+00  8.78957E+00  4.18500E+00  3.61647E+00  6.37813E+00  5.51788E+00  8.13492E+00
   8.94086E+00  3.45297E+00  3.71463E+00  5.92634E+00  2.56356E+00  1.02185E+01  7.68772E+00  1.05853E+01  8.16711E+00  1.11072E+01
   9.18438E+00  1.05071E+01  1.28651E+01  1.57627E+01  2.45019E+01  3.02033E+01  3.97752E+01  4.52544E+01  5.48198E+01  5.79759E+01
   6.25592E+01  6.41919E+01  5.54185E+01  4.09159E+01  2.90157E+01  2.11265E+01  1.53781E+01  1.16957E+01  1.07286E+01  6.94989E+00
   4.76673E+00  3.28241E+00  6.88741E+00  6.18878E+00  3.66844E+00  5.78319E-01  2.60550E+00  4.80936E-01 -5.13883E-01  2.45210E+00
   1.60608E+00  1.88340E+00  3.57288E+00 -6.27016E-01  1.75043E+00 -5.21312E-01  1.58402E+00  2.44039E+00 -3.89940E-01 -3.82674E-01
   9.10378E-01  2.91147E+00  1.20634E+00  2.19364E+00  2.14262E-01  1.33989E+00  9.75408E-01  8.33875E-01  6.14573E-01 -1.20516E+00
   6.03795E+00  5.03414E+00  4.32747E+00  3.87713E+00  5.34991E+00  4.61848E+00  1.78698E+00  4.66825E+00  2.28429E+00  7.58651E-01
   4.96430E+00  3.83290E+00  6.46370E+00  1.90645E+00  2.74979E+00  3.39564E+00  2.78010E+00  1.70158E+00  4.32163E+00  5.80738E+00
   5.53720E+00  6.68363E+00  3.94224E+00  2.52383E+00  5.94797E+00  4.10228E-01  3.98995E+00  5.16013E+00  5.26893E+00  4.74064E+00
   3.53805E+00  4.80011E+00  3.61639E+00  1.77871E+00  1.92213E+00  6.87129E+00  2.62622E+00  3.74706E+00  6.78551E+00  8.17935E+00
   6.58246E+00  8.38779E+00  6.39264E+00  8.68747E+00  7.31555E+00  8.19818E+00  7.50926E+00  4.98454E+00  7.40599E+00  8.29068E+00
   7.79858E+00  5.15997E+00  6.02410E+00  7.38036E+00  5.41592E+00  4.24656E+00  8.97069E+00  2.86100E+00  6.48242E+00  1.88082E+00
   2.52461E+00  3.32905E+00  3.78296E+00  4.69195E+00  7.18623E+00  4.74964E+00  6.37113E+00  7.83761E+00  7.63083E+00  7.98053E+00
   4.50385E+00  4.37615E+00  6.58542E+00  7.33208E+00  7.56105E+00  5.07326E+00  4.88757E+00  6.01717E-01  5.56270E+00  3.07192E+00
   5.47269E+00  2.77088E+00  2.54152E+00  1.33412E+00  4.22269E+00  4.17786E+00  2.33909E+00  1.23959E+00  3.89092E+00  4.27749E+00
   4.43759E+00  2.26974E+00  6.57876E+00  1.59048E+00  5.31171E+00  3.07531E+00  7.50321E+00  4.95052E+00  8.57391E+00  5.46869E+00
   5.65835E+00  3.81737E+00  7.37000E+00  6.73555E+00  9.94538E+00  1.07135E+01  7.53809E+00  6.18605E+00  7.26883E+00  7.08065E+00
   8.80173E+00  7.46018E+00  6.23403E+00  6.10705E+00  4.25974E+00  4.15186E+00  2.96911E+00  1.08292E+00  1.50236E+00  2.42000E+00
   3.46155E+00  5.66243E-01  1.77425E+00  1.22335E+00  2.28574E+00  1.28826E+00  1.49880E+00 -6.94186E-02  2.51698E+00  1.51351E+00
   4.47333E+00  3.59577E+00  3.36431E+00  1.96408E+00 -8.50344E-01 -1.21319E-01  2.35969E+00  6.13755E-01  1.57765E+00 -5.00313E-01
   2.48501E+00  2.02035E+00  1.05402E+00  2.65131E+00  2.08315E+00 -7.98018E-01 -1.05989E+00 -2.08991E+00  8.25007E-01  2.78154E+00
   4.01481E+00 -2.40783E+00  1.31914E+00  4.43251E-01 -1.19866E+00 -1.25434E-01  1.37530E+00 -2.27685E+00  1.37843E+00  7.75995E-01
  -6.78690E-01  1.53126E+00 -2.07185E-01 -2.14931E+00 -3.87724E-01  4.39840E-01  2.94176E-01 -3.31241E-01  1.29036E+00  2.39992E+00
   6.97047E-01 -1.01853E+00  4.12498E+00  1.07281E-01  2.43210E+00  7.30658E-01  3.16737E+00 -1.22538E+00 -1.03074E+00 -1.15351E+00
   1.98801E+00  1.75342E+00  6.53660E-01 -6.94410E-01  9.56675E-01  3.74885E-01  1.79768E+00  8.06808E-01  1.38260E+00  1.91064E+00
   1.67740E+00  3.53442E+00  1.36349E+00 -7.30214E-01  1.68258E+00 -2.29186E+00 -3.32715E-01 -3.70996E-01
 NY points of the fit to the data follow
   1.14630E+01  1.14185E+01  1.18693E+01  1.27671E+01  1.40169E+01  1.57051E+01  1.76656E+01  1.96346E+01  2.13678E+01  2.26053E+01
   2.30982E+01  2.27121E+01  2.15280E+01  1.97996E+01  1.78352E+01  1.59209E+01  1.42486E+01  1.29349E+01  1.20902E+01  1.15491E+01
   1.11693E+01  1.09612E+01  1.08988E+01  1.10544E+01  1.13336E+01  1.17390E+01  1.23251E+01  1.30987E+01  1.39957E+01  1.48507E+01
   1.54765E+01  1.56900E+01  1.53854E+01  1.46426E+01  1.36358E+01  1.24830E+01  1.13140E+01  1.02457E+01  9.45869E+00  9.13432E+00
   9.25159E+00  9.76805E+00  1.05151E+01  1.13385E+01  1.21423E+01  1.28078E+01  1.32431E+01  1.33417E+01  1.30067E+01  1.22531E+01
   1.12114E+01  1.01011E+01  9.17947E+00  8.56683E+00  8.22155E+00  8.10153E+00  8.19141E+00  8.41672E+00  8.64183E+00  8.77262E+00
   8.77222E+00  8.61513E+00  8.31914E+00  7.94073E+00  7.57845E+00  7.34009E+00  7.24952E+00  7.27311E+00  7.38539E+00  7.55018E+00
   7.71098E+00  7.82682E+00  7.86458E+00  7.81091E+00  7.67090E+00  7.47306E+00  7.25727E+00  7.04912E+00  6.87377E+00  6.76717E+00
   6.77292E+00  6.84927E+00  6.93340E+00  7.00124E+00  7.03970E+00  7.02630E+00  6.92794E+00  6.72887E+00  6.44336E+00  6.14145E+00
   5.91112E+00  5.80248E+00  5.80922E+00  5.88101E+00  5.99788E+00  6.31004E+00  7.41725E+00  9.57385E+00  1.23297E+01  1.54539E+01
   1.88324E+01  2.21910E+01  2.50110E+01  2.66331E+01  2.64652E+01  2.43338E+01  2.07446E+01  1.66794E+01  1.30203E+01  1.01261E+01
   7.90309E+00  6.21141E+00  5.26834E+00  5.01669E+00  4.96608E+00  4.97338E+00  5.01380E+00  5.09956E+00  5.26883E+00  5.68830E+00
   6.84337E+00  8.91160E+00  1.15500E+01  1.45200E+01  1.76714E+01  2.07406E+01  2.33000E+01  2.47826E+01  2.46608E+01  2.28067E+01
   1.96748E+01  1.60754E+01  1.27270E+01  9.91501E+00  7.59981E+00  5.75608E+00  4.63795E+00  4.23721E+00  4.21591E+00  4.38514E+00
   4.61103E+00  4.79053E+00  4.87535E+00  4.83205E+00  4.65801E+00  4.40711E+00  4.12818E+00  3.84294E+00  3.57544E+00  3.33414E+00
   3.13509E+00  2.97725E+00  2.85325E+00  2.73004E+00  2.55430E+00  2.34619E+00  2.13067E+00  1.93451E+00  1.77345E+00  1.59961E+00
   1.42576E+00  1.30671E+00  1.27477E+00  1.29414E+00  1.27714E+00  1.13950E+00  8.47476E-01  4.50517E-01  2.65952E-02 -4.16833E-01
  -8.45613E-01 -1.19506E+00 -1.47438E+00 -1.69651E+00 -1.87924E+00 -2.00752E+00 -2.02827E+00 -1.93465E+00 -1.79719E+00 -1.72474E+00
  -1.77899E+00 -1.84954E+00 -1.80947E+00 -1.59851E+00 -1.23195E+00 -7.53144E-01 -1.33577E-01  6.39221E-01  1.51311E+00  2.34478E+00
   2.92443E+00  3.13586E+00  3.01676E+00  2.67400E+00  2.23764E+00  1.82992E+00  1.57986E+00  1.62003E+00  1.96948E+00  2.58987E+00
   3.38197E+00  4.16298E+00  4.72114E+00  4.82456E+00  4.43367E+00  3.59594E+00  2.35883E+00  9.32086E-01 -3.50237E-01 -1.15644E+00
  -1.24300E+00 -6.44563E-01  5.38919E-01  2.09406E+00  3.69718E+00  4.95292E+00  5.47847E+00  5.12197E+00  4.02045E+00  2.41549E+00
   7.44925E-01 -5.69787E-01 -1.28930E+00 -1.26863E+00 -5.47975E-01  7.07788E-01  2.21422E+00  3.54996E+00  4.48745E+00  5.00450E+00
   5.26660E+00  5.39300E+00  5.42812E+00  5.50342E+00  5.72951E+00  6.03933E+00  6.28387E+00  6.41009E+00  6.43313E+00  6.35622E+00
   6.16847E+00  5.94751E+00  5.84229E+00  5.95423E+00  6.29116E+00  6.79316E+00  7.41329E+00  8.04588E+00  8.62585E+00  9.26511E+00
   1.00196E+01  1.09311E+01  1.25466E+01  1.66643E+01  2.30772E+01  3.05906E+01  3.86476E+01  4.68167E+01  5.42998E+01  5.98429E+01
   6.20210E+01  5.96820E+01  5.28539E+01  4.32029E+01  3.31752E+01  2.45779E+01  1.77906E+01  1.23467E+01  8.15436E+00  6.05052E+00
   5.19110E+00  4.65626E+00  4.26970E+00  3.98689E+00  3.77183E+00  3.56855E+00  3.35696E+00  3.13042E+00  2.89058E+00  2.65161E+00
   2.42806E+00  2.22453E+00  2.04466E+00  1.89747E+00  1.78462E+00  1.69780E+00  1.62883E+00  1.57666E+00  1.54473E+00  1.53576E+00
   1.54885E+00  1.58497E+00  1.64453E+00  1.72532E+00  1.82324E+00  1.93518E+00  2.05896E+00  2.19303E+00  2.33534E+00  2.48369E+00
   2.63563E+00  2.78865E+00  2.93829E+00  3.07914E+00  3.20626E+00  3.31598E+00  3.40597E+00  3.47483E+00  3.52190E+00  3.54850E+00
   3.55724E+00  3.55139E+00  3.53520E+00  3.51364E+00  3.49221E+00  3.47720E+00  3.47591E+00  3.49694E+00  3.55159E+00  3.65916E+00
   3.86049E+00  4.15862E+00  4.45410E+00  4.69876E+00  4.87299E+00  4.93846E+00  4.83947E+00  4.52281E+00  4.00439E+00  3.44876E+00
   3.00996E+00  2.80910E+00  2.92009E+00  3.33747E+00  3.99217E+00  4.79181E+00  5.64415E+00  6.40744E+00  6.90931E+00  7.13347E+00
   7.16111E+00  7.08852E+00  6.97276E+00  6.82175E+00  6.65364E+00  6.53984E+00  6.47225E+00  6.42649E+00  6.39251E+00  6.36554E+00
   6.34270E+00  6.32181E+00  6.30084E+00  6.27782E+00  6.25083E+00  6.21799E+00  6.17749E+00  6.12753E+00  6.06644E+00  5.99285E+00
   5.90576E+00  5.80458E+00  5.68915E+00  5.55966E+00  5.41672E+00  5.26143E+00  5.09536E+00  4.92048E+00  4.73899E+00  4.55332E+00
   4.36611E+00  4.18017E+00  3.99845E+00  3.82387E+00  3.65929E+00  3.50746E+00  3.37105E+00  3.25267E+00  3.15480E+00  3.07976E+00
   3.02959E+00  3.00621E+00  3.01134E+00  3.04653E+00  3.11305E+00  3.21175E+00  3.34306E+00  3.50691E+00  3.70266E+00  3.92903E+00
   4.18385E+00  4.46405E+00  4.76559E+00  5.08352E+00  5.41202E+00  5.74442E+00  6.07332E+00  6.39079E+00  6.68871E+00  6.95906E+00
   7.19424E+00  7.38737E+00  7.53253E+00  7.62510E+00  7.66202E+00  7.64191E+00  7.56513E+00  7.43364E+00  7.25094E+00  7.02190E+00
   6.75249E+00  6.44953E+00  6.12029E+00  5.77215E+00  5.41231E+00  5.04758E+00  4.68422E+00  4.32770E+00  3.98257E+00  3.65245E+00
   3.34003E+00  3.04718E+00  2.77505E+00  2.52405E+00  2.29405E+00  2.08439E+00  1.89412E+00  1.72210E+00  1.56704E+00  1.42756E+00
   1.30224E+00  1.18967E+00  1.08856E+00  9.97703E-01  9.16024E-01  8.42494E-01  7.76168E-01  7.16210E-01  6.61918E-01  6.12693E-01
   5.67995E-01  5.27313E-01  4.90187E-01  4.56240E-01  4.25172E-01  3.96725E-01  3.70643E-01  3.46672E-01  3.24593E-01  3.04242E-01
   2.85499E-01  2.68246E-01  2.52344E-01  2.37654E-01  2.24067E-01  2.11522E-01  1.99969E-01  1.89337E-01  1.79535E-01  1.70476E-01
   1.62113E-01  1.54427E-01  1.47394E-01  1.40963E-01  1.35063E-01  1.29647E-01  1.24701E-01  1.20225E-01  1.16198E-01  1.12571E-01
   1.09294E-01  1.06345E-01  1.03734E-01  1.01465E-01  9.95112E-02  9.78270E-02  9.63798E-02  9.51687E-02  9.42085E-02  9.34955E-02
   9.29967E-02  9.26726E-02  9.25082E-02  9.25173E-02  9.27138E-02  9.30842E-02  9.35915E-02  9.42057E-02  9.49278E-02  9.57767E-02
   9.67580E-02  9.78459E-02  9.90032E-02  1.00213E-01  1.01487E-01  1.02842E-01  1.04272E-01  1.05739E-01
 NY background values follow
     8.546E+00    8.500E+00    8.454E+00    8.408E+00    8.361E+00    8.315E+00    8.269E+00    8.223E+00    8.177E+00    8.130E+00
     8.084E+00    8.038E+00    7.992E+00    7.946E+00    7.899E+00    7.853E+00    7.807E+00    7.761E+00    7.714E+00    7.668E+00
     7.622E+00    7.576E+00    7.530E+00    7.483E+00    7.437E+00    7.391E+00    7.345E+00    7.299E+00    7.253E+00    7.207E+00
     7.160E+00    7.114E+00    7.068E+00    7.022E+00    6.976E+00    6.930E+00    6.884E+00    6.838E+00    6.792E+00    6.746E+00
     6.700E+00    6.654E+00    6.608E+00    6.562E+00    6.517E+00    6.471E+00    6.425E+00    6.379E+00    6.333E+00    6.288E+00
     6.242E+00    6.196E+00    6.151E+00    6.105E+00    6.059E+00    6.014E+00    5.968E+00    5.923E+00    5.877E+00    5.832E+00
     5.787E+00    5.741E+00    5.696E+00    5.651E+00    5.606E+00    5.561E+00    5.515E+00    5.470E+00    5.425E+00    5.381E+00
     5.336E+00    5.291E+00    5.246E+00    5.201E+00    5.157E+00    5.112E+00    5.068E+00    5.023E+00    4.979E+00    4.935E+00
     4.890E+00    4.846E+00    4.802E+00    4.758E+00    4.714E+00    4.670E+00    4.627E+00    4.583E+00    4.539E+00    4.496E+00
     4.452E+00    4.409E+00    4.365E+00    4.322E+00    4.279E+00    4.236E+00    4.193E+00    4.150E+00    4.107E+00    4.065E+00
     4.022E+00    3.980E+00    3.937E+00    3.895E+00    3.853E+00    3.811E+00    3.769E+00    3.727E+00    3.685E+00    3.643E+00
     3.602E+00    3.560E+00    3.519E+00    3.477E+00    3.436E+00    3.395E+00    3.354E+00    3.313E+00    3.273E+00    3.232E+00
     3.192E+00    3.151E+00    3.111E+00    3.071E+00    3.031E+00    2.991E+00    2.951E+00    2.912E+00    2.872E+00    2.833E+00
     2.794E+00    2.755E+00    2.716E+00    2.677E+00    2.638E+00    2.600E+00    2.561E+00    2.523E+00    2.485E+00    2.447E+00
     2.409E+00    2.371E+00    2.334E+00    2.297E+00    2.259E+00    2.222E+00    2.185E+00    2.149E+00    2.112E+00    2.076E+00
     2.039E+00    2.003E+00    1.967E+00    1.932E+00    1.896E+00    1.861E+00    1.826E+00    1.791E+00    1.756E+00    1.721E+00
     1.687E+00    1.653E+00    1.619E+00    1.585E+00    1.551E+00    1.518E+00    1.485E+00    1.452E+00    1.419E+00    1.386E+00
     1.354E+00    1.322E+00    1.290E+00    1.258E+00    1.227E+00    1.196E+00    1.165E+00    1.134E+00    1.103E+00    1.073E+00
     1.043E+00    1.013E+00    9.836E-01    9.543E-01    9.253E-01    8.964E-01    8.679E-01    8.395E-01    8.114E-01    7.835E-01
     7.559E-01    7.285E-01    7.013E-01    6.744E-01    6.477E-01    6.212E-01    5.950E-01    5.689E-01    5.432E-01    5.176E-01
     4.923E-01    4.672E-01    4.423E-01    4.176E-01    3.931E-01    3.689E-01    3.449E-01    3.211E-01    2.976E-01    2.742E-01
     2.511E-01    2.281E-01    2.054E-01    1.829E-01    1.606E-01    1.385E-01    1.166E-01    9.497E-02    7.350E-02    5.224E-02
     3.118E-02    1.033E-02   -1.032E-02   -3.078E-02   -5.103E-02   -7.109E-02   -9.094E-02   -1.106E-01   -1.301E-01   -1.493E-01
    -1.684E-01   -1.873E-01   -2.060E-01   -2.245E-01   -2.428E-01   -2.609E-01   -2.788E-01   -2.965E-01   -3.140E-01   -3.313E-01
    -3.485E-01   -3.654E-01   -3.822E-01   -3.987E-01   -4.151E-01   -4.313E-01   -4.473E-01   -4.631E-01   -4.787E-01   -4.941E-01
    -5.094E-01   -5.244E-01   -5.393E-01   -5.540E-01   -5.684E-01   -5.827E-01   -5.969E-01   -6.108E-01   -6.245E-01   -6.381E-01
    -6.514E-01   -6.646E-01   -6.776E-01   -6.904E-01   -7.030E-01   -7.155E-01   -7.278E-01   -7.398E-01   -7.517E-01   -7.634E-01
    -7.750E-01   -7.863E-01   -7.975E-01   -8.085E-01   -8.193E-01   -8.299E-01   -8.403E-01   -8.506E-01   -8.607E-01   -8.706E-01
    -8.804E-01   -8.899E-01   -8.993E-01   -9.086E-01   -9.176E-01   -9.265E-01   -9.352E-01   -9.438E-01   -9.522E-01   -9.604E-01
    -9.684E-01   -9.763E-01   -9.840E-01   -9.916E-01   -9.990E-01   -1.006E+00   -1.013E+00   -1.020E+00   -1.027E+00   -1.034E+00
    -1.040E+00   -1.046E+00   -1.052E+00   -1.058E+00   -1.064E+00   -1.070E+00   -1.075E+00   -1.081E+00   -1.086E+00   -1.091E+00
    -1.096E+00   -1.101E+00   -1.105E+00   -1.110E+00   -1.114E+00   -1.118E+00   -1.123E+00   -1.126E+00   -1.130E+00   -1.134E+00
    -1.137E+00   -1.141E+00   -1.144E+00   -1.147E+00   -1.150E+00   -1.153E+00   -1.155E+00   -1.158E+00   -1.160E+00   -1.163E+00
    -1.165E+00   -1.167E+00   -1.169E+00   -1.171E+00   -1.172E+00   -1.174E+00   -1.175E+00   -1.177E+00   -1.178E+00   -1.179E+00
    -1.180E+00   -1.181E+00   -1.181E+00   -1.182E+00   -1.183E+00   -1.183E+00   -1.183E+00   -1.183E+00   -1.183E+00   -1.183E+00
    -1.183E+00   -1.183E+00   -1.183E+00   -1.182E+00   -1.181E+00   -1.181E+00   -1.180E+00   -1.179E+00   -1.178E+00   -1.177E+00
    -1.176E+00   -1.175E+00   -1.173E+00   -1.172E+00   -1.170E+00   -1.169E+00   -1.167E+00   -1.165E+00   -1.163E+00   -1.161E+00
    -1.159E+00   -1.157E+00   -1.155E+00   -1.152E+00   -1.150E+00   -1.147E+00   -1.145E+00   -1.142E+00   -1.139E+00   -1.136E+00
    -1.133E+00   -1.130E+00   -1.127E+00   -1.124E+00   -1.121E+00   -1.117E+00   -1.114E+00   -1.111E+00   -1.107E+00   -1.103E+00
    -1.100E+00   -1.096E+00   -1.092E+00   -1.088E+00   -1.084E+00   -1.080E+00   -1.076E+00   -1.071E+00   -1.067E+00   -1.063E+00
    -1.058E+00   -1.054E+00   -1.049E+00   -1.044E+00   -1.040E+00   -1.035E+00   -1.030E+00   -1.025E+00   -1.020E+00   -1.015E+00
    -1.010E+00   -1.005E+00   -9.996E-01   -9.943E-01   -9.889E-01   -9.835E-01   -9.780E-01   -9.725E-01   -9.669E-01   -9.613E-01
    -9.556E-01   -9.498E-01   -9.440E-01   -9.382E-01   -9.323E-01   -9.264E-01   -9.204E-01   -9.144E-01   -9.083E-01   -9.022E-01
    -8.960E-01   -8.898E-01   -8.836E-01   -8.773E-01   -8.710E-01   -8.646E-01   -8.582E-01   -8.518E-01   -8.454E-01   -8.389E-01
    -8.323E-01   -8.258E-01   -8.192E-01   -8.126E-01   -8.059E-01   -7.992E-01   -7.925E-01   -7.858E-01   -7.790E-01   -7.723E-01
    -7.654E-01   -7.586E-01   -7.518E-01   -7.449E-01   -7.380E-01   -7.311E-01   -7.242E-01   -7.173E-01   -7.103E-01   -7.033E-01
    -6.963E-01   -6.893E-01   -6.823E-01   -6.753E-01   -6.682E-01   -6.612E-01   -6.541E-01   -6.470E-01   -6.399E-01   -6.328E-01
    -6.257E-01   -6.186E-01   -6.114E-01   -6.043E-01   -5.971E-01   -5.900E-01   -5.828E-01   -5.756E-01   -5.685E-01   -5.613E-01
    -5.541E-01   -5.469E-01   -5.397E-01   -5.325E-01   -5.253E-01   -5.181E-01   -5.109E-01   -5.037E-01   -4.965E-01   -4.893E-01
    -4.821E-01   -4.749E-01   -4.677E-01   -4.605E-01   -4.533E-01   -4.461E-01   -4.389E-01   -4.317E-01
 Ala      Conc. = 1.83E+02
