 LCModel (Version 6.3-1L) Copyright: S.W. Provencher.          Ref.: Magn. Reson. Med. 30:672-679 (1993).                
 Slice#3 Row#10 Col#6  PD_05_press_1_raw_act
 36 lines in following concentration table = NCONC+1
    Conc.  %SD /Cr+PCr  Metabolite                                         
   33.199 188% 2.9E-02 Ala                                                 
    0.000 999%   0.000 Asp                                                 
  522.550  24%   0.463 Cr                                                  
  605.128  22%   0.537 PCr                                                 
    0.000 999%   0.000 GABA                                                
    0.000 999%   0.000 Glc                                                 
  615.570  22%   0.546 Gln                                                 
 1.35E+03  11%   1.196 Glu                                                 
  339.655   4%   0.301 GPC                                                 
    0.000 999%   0.000 PCh                                                 
  329.338  12%   0.292 GSH                                                 
  348.240  42%   0.309 Ins                                                 
   54.946 131% 4.9E-02 Lac                                                 
 1.70E+03   5%   1.507 NAA                                                 
  162.784  50%   0.144 NAAG                                                
    8.518 182% 7.6E-03 Scyllo                                              
    0.000 999%   0.000 Tau                                                 
    0.000 999%   0.000 -CrCH2                                              
  339.655   4%   0.301 GPC+PCh                                             
 1.86E+03   3%   1.651 NAA+NAAG                                            
 1.13E+03   3%   1.000 Cr+PCr                                              
 1.96E+03  11%   1.742 Glu+Gln                                             
  303.071 121%   0.269 Lip13a                                              
  145.252 145%   0.129 Lip13b                                              
    0.000 999%   0.000 Lip09                                               
  855.683  16%   0.759 MM09                                                
   92.508  85% 8.2E-02 Lip20                                               
 2.08E+03  11%   1.848 MM20                                                
  297.496  30%   0.264 MM12                                                
  620.472  32%   0.550 MM14                                                
  497.735  30%   0.441 MM17                                                
  448.323  49%   0.398 Lip13a+Lip13b                                       
 1.37E+03  21%   1.212 MM14+Lip13a+Lip13b+MM12                             
  855.683  16%   0.759 MM09+Lip09                                          
 2.18E+03  11%   1.930 MM20+Lip20                                          
   6 lines in following misc. output table
  FWHM = 0.054 ppm    S/N =  16                                            
  Data shift = 0.015 ppm                                                   
  Ph:  10 deg       0.0 deg/ppm                                            
  alphaB,S = 6.7E-01,   1.6E+02                                            
   14 spline knots.   Ns = 7(1)                                            
  (13) 2 infls.   (11) 1 extrs.                                            
  498 points on ppm-axis = NY
      4.000000     3.992357     3.984714     3.977070     3.969427     3.961784     3.954141     3.946497     3.938854     3.931211
      3.923568     3.915925     3.908281     3.900638     3.892995     3.885352     3.877708     3.870065     3.862422     3.854779
      3.847136     3.839492     3.831849     3.824206     3.816563     3.808919     3.801276     3.793633     3.785990     3.778347
      3.770703     3.763060     3.755417     3.747774     3.740130     3.732487     3.724844     3.717201     3.709558     3.701914
      3.694271     3.686628     3.678985     3.671341     3.663698     3.656055     3.648412     3.640769     3.633125     3.625482
      3.617839     3.610196     3.602552     3.594909     3.587266     3.579623     3.571980     3.564336     3.556693     3.549050
      3.541407     3.533763     3.526120     3.518477     3.510834     3.503191     3.495547     3.487904     3.480261     3.472618
      3.464974     3.457331     3.449688     3.442045     3.434402     3.426758     3.419115     3.411472     3.403829     3.396185
      3.388542     3.380899     3.373256     3.365613     3.357969     3.350326     3.342683     3.335040     3.327396     3.319753
      3.312110     3.304467     3.296824     3.289180     3.281537     3.273894     3.266251     3.258607     3.250964     3.243321
      3.235678     3.228034     3.220391     3.212748     3.205105     3.197462     3.189818     3.182175     3.174532     3.166889
      3.159245     3.151602     3.143959     3.136316     3.128673     3.121029     3.113386     3.105743     3.098100     3.090456
      3.082813     3.075170     3.067527     3.059884     3.052240     3.044597     3.036954     3.029311     3.021667     3.014024
      3.006381     2.998738     2.991095     2.983451     2.975808     2.968165     2.960522     2.952878     2.945235     2.937592
      2.929949     2.922306     2.914662     2.907019     2.899376     2.891733     2.884089     2.876446     2.868803     2.861160
      2.853517     2.845873     2.838230     2.830587     2.822944     2.815300     2.807657     2.800014     2.792371     2.784728
      2.777084     2.769441     2.761798     2.754155     2.746511     2.738868     2.731225     2.723582     2.715939     2.708295
      2.700652     2.693009     2.685366     2.677722     2.670079     2.662436     2.654793     2.647150     2.639506     2.631863
      2.624220     2.616577     2.608933     2.601290     2.593647     2.586004     2.578361     2.570717     2.563074     2.555431
      2.547788     2.540144     2.532501     2.524858     2.517215     2.509572     2.501928     2.494285     2.486642     2.478999
      2.471355     2.463712     2.456069     2.448426     2.440783     2.433139     2.425496     2.417853     2.410210     2.402566
      2.394923     2.387280     2.379637     2.371994     2.364350     2.356707     2.349064     2.341421     2.333777     2.326134
      2.318491     2.310848     2.303205     2.295561     2.287918     2.280275     2.272632     2.264988     2.257345     2.249702
      2.242059     2.234416     2.226772     2.219129     2.211486     2.203843     2.196199     2.188556     2.180913     2.173270
      2.165627     2.157983     2.150340     2.142697     2.135054     2.127410     2.119767     2.112124     2.104481     2.096838
      2.089194     2.081551     2.073908     2.066265     2.058621     2.050978     2.043335     2.035692     2.028049     2.020405
      2.012762     2.005119     1.997476     1.989833     1.982190     1.974546     1.966903     1.959260     1.951617     1.943974
      1.936331     1.928688     1.921045     1.913402     1.905759     1.898115     1.890472     1.882829     1.875186     1.867543
      1.859900     1.852257     1.844614     1.836971     1.829327     1.821684     1.814041     1.806398     1.798755     1.791112
      1.783469     1.775826     1.768183     1.760540     1.752896     1.745253     1.737610     1.729967     1.722324     1.714681
      1.707038     1.699395     1.691752     1.684108     1.676465     1.668822     1.661179     1.653536     1.645893     1.638250
      1.630607     1.622964     1.615321     1.607677     1.600034     1.592391     1.584748     1.577105     1.569462     1.561819
      1.554176     1.546533     1.538890     1.531246     1.523603     1.515960     1.508317     1.500674     1.493031     1.485388
      1.477745     1.470102     1.462458     1.454815     1.447172     1.439529     1.431886     1.424243     1.416600     1.408957
      1.401314     1.393671     1.386027     1.378384     1.370741     1.363098     1.355455     1.347812     1.340169     1.332526
      1.324883     1.317240     1.309596     1.301953     1.294310     1.286667     1.279024     1.271381     1.263738     1.256095
      1.248452     1.240808     1.233165     1.225522     1.217879     1.210236     1.202593     1.194950     1.187307     1.179664
      1.172021     1.164377     1.156734     1.149091     1.141448     1.133805     1.126162     1.118519     1.110876     1.103233
      1.095590     1.087946     1.080303     1.072660     1.065017     1.057374     1.049731     1.042088     1.034445     1.026802
      1.019158     1.011515     1.003872     0.996229     0.988586     0.980943     0.973300     0.965657     0.958014     0.950371
      0.942727     0.935084     0.927441     0.919798     0.912155     0.904512     0.896869     0.889226     0.881583     0.873940
      0.866296     0.858653     0.851010     0.843367     0.835724     0.828081     0.820438     0.812795     0.805152     0.797508
      0.789865     0.782222     0.774579     0.766936     0.759293     0.751650     0.744007     0.736364     0.728721     0.721077
      0.713434     0.705791     0.698148     0.690505     0.682862     0.675219     0.667576     0.659933     0.652290     0.644646
      0.637003     0.629360     0.621717     0.614074     0.606431     0.598788     0.591145     0.583502     0.575858     0.568215
      0.560572     0.552929     0.545286     0.537643     0.530000     0.522357     0.514714     0.507071     0.499427     0.491784
      0.484141     0.476498     0.468855     0.461212     0.453569     0.445925     0.438282     0.430639     0.422996     0.415353
      0.407710     0.400067     0.392424     0.384780     0.377137     0.369494     0.361851     0.354208     0.346565     0.338922
      0.331278     0.323635     0.315992     0.308349     0.300706     0.293063     0.285420     0.277777     0.270133     0.262490
      0.254847     0.247204     0.239561     0.231918     0.224275     0.216631     0.208988     0.201345
 NY phased data points follow
   4.33228E+01  4.43582E+01  4.19451E+01  4.42251E+01  4.42366E+01  4.88528E+01  4.94744E+01  5.59818E+01  5.80850E+01  6.00885E+01
   6.22963E+01  6.57169E+01  6.38953E+01  6.19598E+01  5.39786E+01  5.33130E+01  4.69964E+01  4.55682E+01  4.20897E+01  4.42183E+01
   4.13257E+01  4.00329E+01  4.14240E+01  4.17192E+01  4.04461E+01  3.89293E+01  3.93952E+01  4.07463E+01  4.16923E+01  4.14449E+01
   4.23980E+01  4.07831E+01  4.26099E+01  4.07406E+01  4.04512E+01  3.58459E+01  3.55062E+01  3.57809E+01  3.53577E+01  3.58439E+01
   3.13859E+01  3.52032E+01  3.22157E+01  3.57285E+01  3.41852E+01  3.47439E+01  3.63680E+01  3.77925E+01  3.58518E+01  3.70983E+01
   3.57642E+01  3.44661E+01  2.87326E+01  3.00284E+01  2.69423E+01  2.71596E+01  2.93876E+01  2.93871E+01  2.92982E+01  2.83879E+01
   2.65489E+01  2.74066E+01  2.42622E+01  2.58400E+01  2.49329E+01  2.34347E+01  2.18275E+01  2.22783E+01  1.93195E+01  2.35296E+01
   2.29954E+01  2.28634E+01  2.15973E+01  1.95117E+01  2.22963E+01  2.11429E+01  2.14224E+01  2.43897E+01  1.81924E+01  1.96874E+01
   1.94546E+01  1.90027E+01  1.93203E+01  2.40478E+01  1.91421E+01  1.83918E+01  2.15941E+01  2.10036E+01  1.88790E+01  2.06768E+01
   2.12587E+01  1.96334E+01  1.98215E+01  1.85937E+01  2.00803E+01  2.24083E+01  1.98767E+01  2.24018E+01  2.35823E+01  2.72359E+01
   3.16935E+01  3.77917E+01  4.33738E+01  4.79583E+01  4.74998E+01  4.64964E+01  3.92514E+01  3.68456E+01  3.23922E+01  2.93660E+01
   2.49965E+01  2.32755E+01  2.08202E+01  2.19075E+01  1.90546E+01  1.88575E+01  1.86766E+01  1.81970E+01  1.83221E+01  1.89337E+01
   1.79358E+01  1.90260E+01  2.13841E+01  2.79607E+01  2.99927E+01  3.91027E+01  4.63949E+01  5.24454E+01  5.11435E+01  4.82004E+01
   4.24640E+01  3.68708E+01  3.25243E+01  2.54466E+01  2.05408E+01  1.94082E+01  1.67190E+01  1.81114E+01  1.55263E+01  1.32287E+01
   1.51704E+01  1.46349E+01  1.43602E+01  1.45171E+01  1.63971E+01  1.25040E+01  1.19662E+01  1.35210E+01  1.33085E+01  1.05154E+01
   1.09856E+01  1.02239E+01  1.14100E+01  1.05546E+01  8.01312E+00  1.28155E+01  1.07579E+01  1.16091E+01  1.21151E+01  9.98322E+00
   8.94657E+00  8.86467E+00  7.30646E+00  8.48297E+00  9.44621E+00  8.05950E+00  1.05759E+01  7.99201E+00  9.08099E+00  6.24779E+00
   7.41036E+00  7.24182E+00  5.28958E+00  3.70206E+00  3.60970E+00  1.04522E+00 -1.07719E+00  2.58719E+00  4.38125E+00  3.06260E+00
   5.10704E+00  2.09401E+00  6.22229E-01  1.17918E+00  3.35573E+00  1.77085E+00  2.96645E+00  7.39733E+00  4.58769E+00  9.11766E+00
   8.91828E+00  1.09760E+01  1.24003E+01  1.45422E+01  1.19784E+01  1.03973E+01  1.02720E+01  9.60639E+00  9.17846E+00  7.74576E+00
   6.40254E+00  1.18639E+01  1.17424E+01  1.10003E+01  1.19879E+01  1.10699E+01  9.07285E+00  5.37769E+00  3.50842E+00  5.17601E+00
   7.04486E+00  8.82253E+00  8.86394E+00  1.08724E+01  1.34433E+01  1.67918E+01  1.67273E+01  1.79170E+01  1.50594E+01  1.02915E+01
   6.59517E+00  8.19188E+00  4.23326E+00  5.55287E+00  7.37599E+00  1.24864E+01  1.31629E+01  1.50770E+01  1.33024E+01  1.41189E+01
   1.28570E+01  1.44693E+01  1.29305E+01  1.52004E+01  1.59364E+01  1.30704E+01  1.36899E+01  1.17441E+01  1.24086E+01  1.16889E+01
   1.41793E+01  1.22859E+01  1.05394E+01  1.12585E+01  1.36894E+01  1.35868E+01  1.44479E+01  1.87634E+01  1.52914E+01  1.60219E+01
   1.51290E+01  1.88728E+01  1.86387E+01  2.31874E+01  2.61203E+01  3.41909E+01  3.83543E+01  4.65888E+01  5.61205E+01  6.41637E+01
   7.14523E+01  7.32015E+01  6.62177E+01  5.35201E+01  4.23354E+01  3.42958E+01  2.65906E+01  2.20627E+01  1.84288E+01  1.67684E+01
   1.43232E+01  1.43606E+01  1.28128E+01  1.18891E+01  1.40365E+01  1.08649E+01  8.61688E+00  1.13478E+01  7.57815E+00  7.18941E+00
   9.31883E+00  1.01186E+01  9.51280E+00  1.04947E+01  9.17183E+00  8.70539E+00  9.81038E+00  6.42033E+00  8.98462E+00  9.05110E+00
   7.78554E+00  9.39648E+00  8.48523E+00  1.06171E+01  1.03145E+01  8.69742E+00  6.49133E+00  1.07512E+01  8.88539E+00  8.95767E+00
   8.73603E+00  6.91553E+00  8.85590E+00  1.08240E+01  1.05398E+01  9.48981E+00  9.99492E+00  8.58258E+00  8.64921E+00  9.79647E+00
   1.00989E+01  1.11832E+01  9.22202E+00  1.04535E+01  1.18086E+01  9.95032E+00  9.23903E+00  9.26973E+00  9.03600E+00  1.30462E+01
   9.76063E+00  1.24959E+01  8.93905E+00  1.08190E+01  1.00426E+01  1.13619E+01  9.38922E+00  1.00375E+01  7.93563E+00  7.98037E+00
   7.42121E+00  1.09912E+01  1.01992E+01  1.15873E+01  8.60147E+00  8.41618E+00  1.05978E+01  8.78501E+00  5.71648E+00  9.93344E+00
   9.70928E+00  1.06256E+01  7.62023E+00  7.97393E+00  9.22190E+00  1.01103E+01  1.05782E+01  1.10457E+01  8.65162E+00  8.98357E+00
   9.65717E+00  9.85638E+00  9.10525E+00  9.37134E+00  9.37263E+00  9.49885E+00  1.22372E+01  1.11217E+01  1.03581E+01  1.03706E+01
   1.05572E+01  1.06491E+01  8.86342E+00  7.81468E+00  7.86975E+00  1.08147E+01  1.03650E+01  7.34324E+00  6.86795E+00  8.29502E+00
   7.25328E+00  8.91734E+00  1.05074E+01  8.06440E+00  5.61493E+00  1.03594E+01  6.76224E+00  8.18844E+00  9.76179E+00  4.71597E+00
   7.36940E+00  6.85879E+00  4.49921E+00  6.37444E+00  6.25447E+00  6.80003E+00  6.68618E+00  6.50567E+00  6.27118E+00  5.42529E+00
   4.34172E+00  8.09837E+00  5.44763E+00  1.06073E+01  8.25331E+00  5.90556E+00  8.35340E+00  1.11436E+01  8.50002E+00  6.87930E+00
   1.05668E+01  1.15434E+01  7.74470E+00  9.88207E+00  7.70231E+00  1.14374E+01  1.14527E+01  1.17726E+01  1.08985E+01  8.26548E+00
   7.97148E+00  9.54443E+00  7.03529E+00  8.82669E+00  6.97194E+00  9.68921E+00  9.92252E+00  3.84773E+00  7.10302E+00  5.01446E+00
   5.71893E+00  6.10187E+00  5.97522E+00  5.25096E+00  6.59088E+00  5.82279E+00  8.25896E+00  3.58165E+00  4.89281E+00  5.08590E+00
   5.43091E+00  5.88609E+00  5.01639E+00  6.86496E+00  3.01162E+00  3.95281E+00  5.31782E+00  3.88972E+00  4.31123E+00  4.83272E+00
   4.31728E+00  5.03415E+00  4.92529E+00  1.79253E+00  3.89997E+00  4.17884E+00  4.96554E+00  2.12782E+00  3.31983E+00  3.86472E+00
   4.77057E+00  4.34783E+00  3.77961E+00  2.40775E+00  5.06535E+00  4.91282E+00  3.16666E+00  4.14114E+00  3.15812E+00  2.60384E+00
   4.51036E+00  3.04360E+00  2.02656E+00  2.99218E+00  1.90902E+00  3.45525E+00  2.05908E+00  5.36061E+00  1.72308E+00  3.58158E+00
   5.20460E+00  3.51002E+00  4.73589E+00  3.70952E+00  4.50845E+00  2.77316E+00  3.56054E+00  5.76550E+00  5.16557E+00  4.77973E+00
   1.43319E+00  2.89727E+00  4.41649E+00  4.43940E+00  3.88182E+00  4.05214E+00  3.29274E+00  3.62526E+00  2.17499E+00  6.19195E+00
   2.95028E+00 -3.05020E-02  1.05433E+00  3.73774E+00 -1.37968E-01  3.15816E+00  4.85882E+00  4.03553E+00
 NY points of the fit to the data follow
   4.25211E+01  4.22950E+01  4.24364E+01  4.31896E+01  4.45520E+01  4.67245E+01  4.97051E+01  5.33591E+01  5.73277E+01  6.09421E+01
   6.33267E+01  6.37963E+01  6.22324E+01  5.91518E+01  5.53829E+01  5.16872E+01  4.84457E+01  4.56769E+01  4.34397E+01  4.18254E+01
   4.05794E+01  3.97384E+01  3.91686E+01  3.88220E+01  3.85930E+01  3.85577E+01  3.88848E+01  3.97033E+01  4.09303E+01  4.22539E+01
   4.32587E+01  4.35611E+01  4.29921E+01  4.16772E+01  3.98636E+01  3.78156E+01  3.58782E+01  3.42977E+01  3.33625E+01  3.31285E+01
   3.32477E+01  3.35408E+01  3.38422E+01  3.41049E+01  3.43580E+01  3.45613E+01  3.46480E+01  3.44909E+01  3.40200E+01  3.33232E+01
   3.25012E+01  3.16348E+01  3.08352E+01  3.01704E+01  2.95952E+01  2.90835E+01  2.86942E+01  2.84410E+01  2.82401E+01  2.80150E+01
   2.77431E+01  2.73903E+01  2.69487E+01  2.64515E+01  2.59613E+01  2.55502E+01  2.52386E+01  2.50024E+01  2.48208E+01  2.46800E+01
   2.45524E+01  2.44159E+01  2.42416E+01  2.40153E+01  2.37416E+01  2.34393E+01  2.31347E+01  2.28452E+01  2.25758E+01  2.23299E+01
   2.20935E+01  2.18629E+01  2.16306E+01  2.13912E+01  2.11318E+01  2.08328E+01  2.04868E+01  2.01162E+01  1.97705E+01  1.95060E+01
   1.93519E+01  1.92897E+01  1.92803E+01  1.92919E+01  1.93224E+01  1.94474E+01  2.00188E+01  2.16449E+01  2.42022E+01  2.76096E+01
   3.20807E+01  3.75772E+01  4.32324E+01  4.74975E+01  4.88827E+01  4.68588E+01  4.22481E+01  3.66902E+01  3.15427E+01  2.73193E+01
   2.38753E+01  2.08832E+01  1.85406E+01  1.74665E+01  1.70587E+01  1.68329E+01  1.66828E+01  1.65908E+01  1.65777E+01  1.67556E+01
   1.76716E+01  1.99595E+01  2.33097E+01  2.76561E+01  3.32323E+01  3.98684E+01  4.64099E+01  5.09965E+01  5.20078E+01  4.91185E+01
   4.35485E+01  3.71993E+01  3.13944E+01  2.64641E+01  2.21664E+01  1.82783E+01  1.54313E+01  1.43457E+01  1.41382E+01  1.42603E+01
   1.44530E+01  1.45600E+01  1.45442E+01  1.43921E+01  1.41117E+01  1.37687E+01  1.34035E+01  1.30206E+01  1.26457E+01  1.22827E+01
   1.19613E+01  1.16845E+01  1.14474E+01  1.12492E+01  1.10571E+01  1.08603E+01  1.06589E+01  1.04299E+01  1.01576E+01  9.82289E+00
   9.47022E+00  9.21606E+00  9.14116E+00  9.19589E+00  9.23041E+00  9.10700E+00  8.77826E+00  8.31686E+00  7.85252E+00  7.44422E+00
   7.04419E+00  6.65886E+00  6.27668E+00  5.88222E+00  5.52478E+00  5.26232E+00  5.16483E+00  5.24104E+00  5.37617E+00  5.43055E+00
   5.34265E+00  5.20950E+00  5.18622E+00  5.32768E+00  5.60037E+00  5.96575E+00  6.47208E+00  7.24042E+00  8.23563E+00  9.24331E+00
   9.96055E+00  1.01992E+01  1.00083E+01  9.54272E+00  9.00377E+00  8.57202E+00  8.34096E+00  8.44080E+00  8.95498E+00  9.80691E+00
   1.08331E+01  1.18438E+01  1.25953E+01  1.28087E+01  1.24197E+01  1.14045E+01  9.80805E+00  7.89206E+00  6.16207E+00  5.18480E+00
   5.21435E+00  6.20602E+00  7.97681E+00  1.02300E+01  1.24605E+01  1.40066E+01  1.43295E+01  1.33517E+01  1.13541E+01  8.73778E+00
   6.24697E+00  4.49989E+00  3.82578E+00  4.35154E+00  5.87377E+00  8.01357E+00  1.01190E+01  1.16969E+01  1.26423E+01  1.30698E+01
   1.32195E+01  1.31882E+01  1.30705E+01  1.30838E+01  1.33451E+01  1.37141E+01  1.40281E+01  1.42088E+01  1.42050E+01  1.39638E+01
   1.34731E+01  1.29212E+01  1.25855E+01  1.26311E+01  1.30301E+01  1.36216E+01  1.42954E+01  1.49007E+01  1.54115E+01  1.60006E+01
   1.67911E+01  1.78061E+01  1.92021E+01  2.19822E+01  2.68094E+01  3.27707E+01  3.96099E+01  4.77504E+01  5.70062E+01  6.56652E+01
   7.10263E+01  7.08222E+01  6.48045E+01  5.50671E+01  4.46833E+01  3.57617E+01  2.86577E+01  2.27197E+01  1.74334E+01  1.37620E+01
   1.23697E+01  1.17590E+01  1.14063E+01  1.12079E+01  1.10637E+01  1.08853E+01  1.06688E+01  1.04175E+01  1.01496E+01  9.88863E+00
   9.64938E+00  9.43231E+00  9.24635E+00  9.10026E+00  8.98442E+00  8.88424E+00  8.79213E+00  8.71150E+00  8.64931E+00  8.60768E+00
   8.58523E+00  8.58567E+00  8.60843E+00  8.64932E+00  8.70209E+00  8.76414E+00  8.83523E+00  8.91556E+00  9.00563E+00  9.10560E+00
   9.21419E+00  9.33046E+00  9.45047E+00  9.56875E+00  9.68023E+00  9.78104E+00  9.86866E+00  9.94113E+00  9.99626E+00  1.00340E+01
   1.00545E+01  1.00583E+01  1.00468E+01  1.00223E+01  9.98715E+00  9.94447E+00  9.89741E+00  9.84961E+00  9.80543E+00  9.77113E+00
   9.75459E+00  9.74994E+00  9.74898E+00  9.75082E+00  9.74966E+00  9.72826E+00  9.66492E+00  9.54872E+00  9.40007E+00  9.25871E+00
   9.15556E+00  9.10881E+00  9.12427E+00  9.19773E+00  9.31324E+00  9.44668E+00  9.57252E+00  9.65473E+00  9.68191E+00  9.67918E+00
   9.68028E+00  9.69368E+00  9.70512E+00  9.71112E+00  9.72099E+00  9.72590E+00  9.68679E+00  9.58146E+00  9.44079E+00  9.32308E+00
   9.27971E+00  9.34424E+00  9.52133E+00  9.78643E+00  1.00891E+01  1.03666E+01  1.05675E+01  1.06395E+01  1.05608E+01  1.03703E+01
   1.01134E+01  9.82148E+00  9.50857E+00  9.18201E+00  8.87558E+00  8.60801E+00  8.37091E+00  8.15900E+00  7.96854E+00  7.79608E+00
   7.63862E+00  7.49376E+00  7.35986E+00  7.23611E+00  7.12247E+00  7.01946E+00  6.92790E+00  6.84881E+00  6.78330E+00  6.73260E+00
   6.69800E+00  6.68076E+00  6.68198E+00  6.70264E+00  6.74365E+00  6.80581E+00  6.88978E+00  6.99593E+00  7.12423E+00  7.27424E+00
   7.44511E+00  7.63545E+00  7.84330E+00  8.06593E+00  8.29983E+00  8.54084E+00  8.78417E+00  9.02455E+00  9.25621E+00  9.47309E+00
   9.66905E+00  9.83823E+00  9.97526E+00  1.00755E+01  1.01352E+01  1.01516E+01  1.01233E+01  1.00501E+01  9.93352E+00  9.77590E+00
   9.58086E+00  9.35287E+00  9.09717E+00  8.81949E+00  8.52580E+00  8.22200E+00  7.91365E+00  7.60586E+00  7.30321E+00  7.00962E+00
   6.72828E+00  6.46156E+00  6.21107E+00  5.97781E+00  5.76223E+00  5.56431E+00  5.38361E+00  5.21934E+00  5.07047E+00  4.93588E+00
   4.81443E+00  4.70496E+00  4.60630E+00  4.51725E+00  4.43675E+00  4.36383E+00  4.29767E+00  4.23750E+00  4.18261E+00  4.13232E+00
   4.08607E+00  4.04344E+00  4.00406E+00  3.96756E+00  3.93358E+00  3.90182E+00  3.87204E+00  3.84408E+00  3.81778E+00  3.79296E+00
   3.76943E+00  3.74705E+00  3.72574E+00  3.70544E+00  3.68607E+00  3.66753E+00  3.64971E+00  3.63254E+00  3.61602E+00  3.60013E+00
   3.58480E+00  3.56996E+00  3.55555E+00  3.54155E+00  3.52799E+00  3.51484E+00  3.50205E+00  3.48955E+00  3.47732E+00  3.46538E+00
   3.45374E+00  3.44238E+00  3.43125E+00  3.42030E+00  3.40953E+00  3.39899E+00  3.38868E+00  3.37855E+00  3.36855E+00  3.35867E+00
   3.34894E+00  3.33938E+00  3.32997E+00  3.32069E+00  3.31149E+00  3.30238E+00  3.29339E+00  3.28454E+00  3.27582E+00  3.26716E+00
   3.25857E+00  3.25005E+00  3.24166E+00  3.23340E+00  3.22523E+00  3.21712E+00  3.20908E+00  3.20115E+00
 NY background values follow
     4.117E+01    4.090E+01    4.064E+01    4.037E+01    4.011E+01    3.984E+01    3.957E+01    3.931E+01    3.904E+01    3.878E+01
     3.851E+01    3.824E+01    3.798E+01    3.771E+01    3.745E+01    3.718E+01    3.691E+01    3.665E+01    3.638E+01    3.612E+01
     3.585E+01    3.559E+01    3.533E+01    3.506E+01    3.480E+01    3.454E+01    3.427E+01    3.401E+01    3.375E+01    3.349E+01
     3.323E+01    3.297E+01    3.271E+01    3.245E+01    3.219E+01    3.193E+01    3.168E+01    3.142E+01    3.116E+01    3.091E+01
     3.065E+01    3.040E+01    3.015E+01    2.990E+01    2.965E+01    2.940E+01    2.915E+01    2.890E+01    2.865E+01    2.841E+01
     2.816E+01    2.792E+01    2.768E+01    2.743E+01    2.719E+01    2.695E+01    2.672E+01    2.648E+01    2.624E+01    2.601E+01
     2.577E+01    2.554E+01    2.531E+01    2.508E+01    2.485E+01    2.462E+01    2.439E+01    2.417E+01    2.394E+01    2.372E+01
     2.350E+01    2.328E+01    2.306E+01    2.284E+01    2.263E+01    2.241E+01    2.220E+01    2.199E+01    2.178E+01    2.157E+01
     2.136E+01    2.116E+01    2.095E+01    2.075E+01    2.055E+01    2.035E+01    2.015E+01    1.995E+01    1.976E+01    1.956E+01
     1.937E+01    1.918E+01    1.899E+01    1.881E+01    1.862E+01    1.844E+01    1.826E+01    1.808E+01    1.790E+01    1.772E+01
     1.755E+01    1.737E+01    1.720E+01    1.703E+01    1.686E+01    1.669E+01    1.653E+01    1.636E+01    1.620E+01    1.604E+01
     1.588E+01    1.572E+01    1.557E+01    1.541E+01    1.526E+01    1.511E+01    1.496E+01    1.481E+01    1.466E+01    1.451E+01
     1.437E+01    1.423E+01    1.408E+01    1.394E+01    1.381E+01    1.367E+01    1.353E+01    1.340E+01    1.327E+01    1.313E+01
     1.300E+01    1.288E+01    1.275E+01    1.262E+01    1.250E+01    1.237E+01    1.225E+01    1.213E+01    1.201E+01    1.190E+01
     1.178E+01    1.166E+01    1.155E+01    1.144E+01    1.133E+01    1.122E+01    1.111E+01    1.101E+01    1.090E+01    1.080E+01
     1.070E+01    1.060E+01    1.050E+01    1.040E+01    1.030E+01    1.021E+01    1.012E+01    1.003E+01    9.936E+00    9.848E+00
     9.762E+00    9.677E+00    9.594E+00    9.512E+00    9.432E+00    9.353E+00    9.277E+00    9.201E+00    9.128E+00    9.056E+00
     8.986E+00    8.917E+00    8.850E+00    8.785E+00    8.722E+00    8.660E+00    8.600E+00    8.542E+00    8.485E+00    8.430E+00
     8.377E+00    8.326E+00    8.276E+00    8.228E+00    8.182E+00    8.137E+00    8.094E+00    8.053E+00    8.013E+00    7.974E+00
     7.937E+00    7.902E+00    7.867E+00    7.834E+00    7.802E+00    7.772E+00    7.742E+00    7.714E+00    7.687E+00    7.661E+00
     7.636E+00    7.612E+00    7.589E+00    7.566E+00    7.545E+00    7.524E+00    7.505E+00    7.485E+00    7.467E+00    7.449E+00
     7.432E+00    7.416E+00    7.399E+00    7.384E+00    7.369E+00    7.354E+00    7.340E+00    7.325E+00    7.312E+00    7.298E+00
     7.285E+00    7.272E+00    7.258E+00    7.245E+00    7.232E+00    7.219E+00    7.206E+00    7.193E+00    7.180E+00    7.167E+00
     7.153E+00    7.140E+00    7.126E+00    7.113E+00    7.099E+00    7.085E+00    7.071E+00    7.057E+00    7.043E+00    7.029E+00
     7.015E+00    7.000E+00    6.986E+00    6.971E+00    6.957E+00    6.942E+00    6.927E+00    6.912E+00    6.897E+00    6.882E+00
     6.867E+00    6.852E+00    6.836E+00    6.821E+00    6.806E+00    6.790E+00    6.774E+00    6.759E+00    6.743E+00    6.727E+00
     6.711E+00    6.695E+00    6.678E+00    6.662E+00    6.646E+00    6.629E+00    6.613E+00    6.596E+00    6.579E+00    6.563E+00
     6.546E+00    6.529E+00    6.512E+00    6.495E+00    6.477E+00    6.460E+00    6.443E+00    6.425E+00    6.407E+00    6.390E+00
     6.372E+00    6.354E+00    6.336E+00    6.318E+00    6.300E+00    6.282E+00    6.263E+00    6.245E+00    6.227E+00    6.208E+00
     6.189E+00    6.170E+00    6.152E+00    6.133E+00    6.113E+00    6.094E+00    6.075E+00    6.056E+00    6.036E+00    6.017E+00
     5.997E+00    5.977E+00    5.957E+00    5.937E+00    5.917E+00    5.897E+00    5.877E+00    5.857E+00    5.836E+00    5.815E+00
     5.795E+00    5.774E+00    5.753E+00    5.732E+00    5.711E+00    5.690E+00    5.669E+00    5.647E+00    5.626E+00    5.604E+00
     5.582E+00    5.561E+00    5.539E+00    5.517E+00    5.495E+00    5.473E+00    5.450E+00    5.428E+00    5.406E+00    5.383E+00
     5.361E+00    5.338E+00    5.316E+00    5.293E+00    5.271E+00    5.248E+00    5.225E+00    5.202E+00    5.180E+00    5.157E+00
     5.134E+00    5.111E+00    5.088E+00    5.065E+00    5.042E+00    5.019E+00    4.997E+00    4.974E+00    4.951E+00    4.928E+00
     4.905E+00    4.882E+00    4.859E+00    4.836E+00    4.813E+00    4.791E+00    4.768E+00    4.745E+00    4.723E+00    4.700E+00
     4.677E+00    4.655E+00    4.632E+00    4.610E+00    4.588E+00    4.565E+00    4.543E+00    4.521E+00    4.499E+00    4.477E+00
     4.455E+00    4.433E+00    4.412E+00    4.390E+00    4.369E+00    4.348E+00    4.327E+00    4.306E+00    4.285E+00    4.264E+00
     4.244E+00    4.223E+00    4.203E+00    4.183E+00    4.163E+00    4.144E+00    4.124E+00    4.105E+00    4.086E+00    4.067E+00
     4.048E+00    4.030E+00    4.012E+00    3.994E+00    3.976E+00    3.959E+00    3.942E+00    3.925E+00    3.908E+00    3.892E+00
     3.875E+00    3.860E+00    3.844E+00    3.829E+00    3.814E+00    3.799E+00    3.785E+00    3.771E+00    3.757E+00    3.744E+00
     3.730E+00    3.718E+00    3.705E+00    3.693E+00    3.681E+00    3.669E+00    3.658E+00    3.647E+00    3.636E+00    3.625E+00
     3.615E+00    3.604E+00    3.594E+00    3.585E+00    3.575E+00    3.566E+00    3.557E+00    3.548E+00    3.539E+00    3.530E+00
     3.522E+00    3.514E+00    3.506E+00    3.498E+00    3.490E+00    3.483E+00    3.475E+00    3.468E+00    3.461E+00    3.454E+00
     3.447E+00    3.440E+00    3.433E+00    3.426E+00    3.420E+00    3.413E+00    3.407E+00    3.400E+00    3.394E+00    3.388E+00
     3.382E+00    3.375E+00    3.369E+00    3.363E+00    3.357E+00    3.351E+00    3.345E+00    3.339E+00    3.333E+00    3.327E+00
     3.321E+00    3.315E+00    3.309E+00    3.304E+00    3.298E+00    3.292E+00    3.286E+00    3.280E+00    3.274E+00    3.269E+00
     3.263E+00    3.257E+00    3.251E+00    3.245E+00    3.240E+00    3.234E+00    3.228E+00    3.222E+00    3.216E+00    3.210E+00
     3.205E+00    3.199E+00    3.193E+00    3.187E+00    3.181E+00    3.175E+00    3.169E+00    3.163E+00    3.157E+00    3.151E+00
     3.145E+00    3.139E+00    3.133E+00    3.127E+00    3.121E+00    3.115E+00    3.109E+00    3.103E+00
 Ala      Conc. = 3.32E+01
