 LCModel (Version 6.3-1L) Copyright: S.W. Provencher.          Ref.: Magn. Reson. Med. 30:672-679 (1993).                
 Slice#3 Row#14 Col#14  PD_05_press_1_raw_act
 36 lines in following concentration table = NCONC+1
    Conc.  %SD /Cr+PCr  Metabolite                                         
    0.000 999%   0.000 Ala                                                 
    5.075 120%   0.166 Asp                                                 
   26.015 149%   0.850 Cr                                                  
    4.591 856%   0.150 PCr                                                 
    3.900  93%   0.127 GABA                                                
    3.815  96%   0.125 Glc                                                 
  109.802  51%   3.588 Gln                                                 
   40.829 144%   1.334 Glu                                                 
    0.000 999%   0.000 GPC                                                 
   11.027  37%   0.360 PCh                                                 
    0.000 999%   0.000 GSH                                                 
    0.000 999%   0.000 Ins                                                 
    0.000 999%   0.000 Lac                                                 
   59.572  22%   1.946 NAA                                                 
    0.000 999%   0.000 NAAG                                                
    1.299  92% 4.2E-02 Scyllo                                              
    6.423  94%   0.210 Tau                                                 
    6.207 125%   0.203 -CrCH2                                              
   11.027  37%   0.360 GPC+PCh                                             
   59.572  22%   1.946 NAA+NAAG                                            
   30.606  37%   1.000 Cr+PCr                                              
  150.631  57%   4.922 Glu+Gln                                             
   27.561 205%   0.900 Lip13a                                              
    0.000 999%   0.000 Lip13b                                              
    8.285 210%   0.271 Lip09                                               
   30.444  97%   0.995 MM09                                                
    3.416 307%   0.112 Lip20                                               
   39.182 115%   1.280 MM20                                                
    9.245 108%   0.302 MM12                                                
   32.239  89%   1.053 MM14                                                
    9.467 171%   0.309 MM17                                                
   27.561 205%   0.900 Lip13a+Lip13b                                       
   69.045  71%   2.256 MM14+Lip13a+Lip13b+MM12                             
   38.729  66%   1.265 MM09+Lip09                                          
   42.597  99%   1.392 MM20+Lip20                                          
   6 lines in following misc. output table
  FWHM = 0.061 ppm    S/N =   1                                            
  Data shift = 0.015 ppm                                                   
  Ph: -12 deg     -14.5 deg/ppm                                            
  alphaB,S = 8.5E+01,   2.6E+01                                            
   14 spline knots.   Ns = 6(1)                                            
   2 inflections.     1 extrema                                            
  498 points on ppm-axis = NY
      4.000000     3.992357     3.984714     3.977070     3.969427     3.961784     3.954141     3.946497     3.938854     3.931211
      3.923568     3.915925     3.908281     3.900638     3.892995     3.885352     3.877708     3.870065     3.862422     3.854779
      3.847136     3.839492     3.831849     3.824206     3.816563     3.808919     3.801276     3.793633     3.785990     3.778347
      3.770703     3.763060     3.755417     3.747774     3.740130     3.732487     3.724844     3.717201     3.709558     3.701914
      3.694271     3.686628     3.678985     3.671341     3.663698     3.656055     3.648412     3.640769     3.633125     3.625482
      3.617839     3.610196     3.602552     3.594909     3.587266     3.579623     3.571980     3.564336     3.556693     3.549050
      3.541407     3.533763     3.526120     3.518477     3.510834     3.503191     3.495547     3.487904     3.480261     3.472618
      3.464974     3.457331     3.449688     3.442045     3.434402     3.426758     3.419115     3.411472     3.403829     3.396185
      3.388542     3.380899     3.373256     3.365613     3.357969     3.350326     3.342683     3.335040     3.327396     3.319753
      3.312110     3.304467     3.296824     3.289180     3.281537     3.273894     3.266251     3.258607     3.250964     3.243321
      3.235678     3.228034     3.220391     3.212748     3.205105     3.197462     3.189818     3.182175     3.174532     3.166889
      3.159245     3.151602     3.143959     3.136316     3.128673     3.121029     3.113386     3.105743     3.098100     3.090456
      3.082813     3.075170     3.067527     3.059884     3.052240     3.044597     3.036954     3.029311     3.021667     3.014024
      3.006381     2.998738     2.991095     2.983451     2.975808     2.968165     2.960522     2.952878     2.945235     2.937592
      2.929949     2.922306     2.914662     2.907019     2.899376     2.891733     2.884089     2.876446     2.868803     2.861160
      2.853517     2.845873     2.838230     2.830587     2.822944     2.815300     2.807657     2.800014     2.792371     2.784728
      2.777084     2.769441     2.761798     2.754155     2.746511     2.738868     2.731225     2.723582     2.715939     2.708295
      2.700652     2.693009     2.685366     2.677722     2.670079     2.662436     2.654793     2.647150     2.639506     2.631863
      2.624220     2.616577     2.608933     2.601290     2.593647     2.586004     2.578361     2.570717     2.563074     2.555431
      2.547788     2.540144     2.532501     2.524858     2.517215     2.509572     2.501928     2.494285     2.486642     2.478999
      2.471355     2.463712     2.456069     2.448426     2.440783     2.433139     2.425496     2.417853     2.410210     2.402566
      2.394923     2.387280     2.379637     2.371994     2.364350     2.356707     2.349064     2.341421     2.333777     2.326134
      2.318491     2.310848     2.303205     2.295561     2.287918     2.280275     2.272632     2.264988     2.257345     2.249702
      2.242059     2.234416     2.226772     2.219129     2.211486     2.203843     2.196199     2.188556     2.180913     2.173270
      2.165627     2.157983     2.150340     2.142697     2.135054     2.127410     2.119767     2.112124     2.104481     2.096838
      2.089194     2.081551     2.073908     2.066265     2.058621     2.050978     2.043335     2.035692     2.028049     2.020405
      2.012762     2.005119     1.997476     1.989833     1.982190     1.974546     1.966903     1.959260     1.951617     1.943974
      1.936331     1.928688     1.921045     1.913402     1.905759     1.898115     1.890472     1.882829     1.875186     1.867543
      1.859900     1.852257     1.844614     1.836971     1.829327     1.821684     1.814041     1.806398     1.798755     1.791112
      1.783469     1.775826     1.768183     1.760540     1.752896     1.745253     1.737610     1.729967     1.722324     1.714681
      1.707038     1.699395     1.691752     1.684108     1.676465     1.668822     1.661179     1.653536     1.645893     1.638250
      1.630607     1.622964     1.615321     1.607677     1.600034     1.592391     1.584748     1.577105     1.569462     1.561819
      1.554176     1.546533     1.538890     1.531246     1.523603     1.515960     1.508317     1.500674     1.493031     1.485388
      1.477745     1.470102     1.462458     1.454815     1.447172     1.439529     1.431886     1.424243     1.416600     1.408957
      1.401314     1.393671     1.386027     1.378384     1.370741     1.363098     1.355455     1.347812     1.340169     1.332526
      1.324883     1.317240     1.309596     1.301953     1.294310     1.286667     1.279024     1.271381     1.263738     1.256095
      1.248452     1.240808     1.233165     1.225522     1.217879     1.210236     1.202593     1.194950     1.187307     1.179664
      1.172021     1.164377     1.156734     1.149091     1.141448     1.133805     1.126162     1.118519     1.110876     1.103233
      1.095590     1.087946     1.080303     1.072660     1.065017     1.057374     1.049731     1.042088     1.034445     1.026802
      1.019158     1.011515     1.003872     0.996229     0.988586     0.980943     0.973300     0.965657     0.958014     0.950371
      0.942727     0.935084     0.927441     0.919798     0.912155     0.904512     0.896869     0.889226     0.881583     0.873940
      0.866296     0.858653     0.851010     0.843367     0.835724     0.828081     0.820438     0.812795     0.805152     0.797508
      0.789865     0.782222     0.774579     0.766936     0.759293     0.751650     0.744007     0.736364     0.728721     0.721077
      0.713434     0.705791     0.698148     0.690505     0.682862     0.675219     0.667576     0.659933     0.652290     0.644646
      0.637003     0.629360     0.621717     0.614074     0.606431     0.598788     0.591145     0.583502     0.575858     0.568215
      0.560572     0.552929     0.545286     0.537643     0.530000     0.522357     0.514714     0.507071     0.499427     0.491784
      0.484141     0.476498     0.468855     0.461212     0.453569     0.445925     0.438282     0.430639     0.422996     0.415353
      0.407710     0.400067     0.392424     0.384780     0.377137     0.369494     0.361851     0.354208     0.346565     0.338922
      0.331278     0.323635     0.315992     0.308349     0.300706     0.293063     0.285420     0.277777     0.270133     0.262490
      0.254847     0.247204     0.239561     0.231918     0.224275     0.216631     0.208988     0.201345
 NY phased data points follow
  -1.55993E+00  9.31064E-01 -1.90865E+00 -3.83788E-01  3.49680E-01 -1.36035E+00 -3.77105E-01  5.29111E-01  2.54346E-01 -1.88969E-01
  -1.35659E+00 -2.99725E-01  1.05926E-01 -1.43621E+00  1.37628E+00  1.18649E-01  3.82555E-01 -3.23033E-01  1.05991E-01 -9.45736E-01
  -1.81871E+00  7.35755E-02 -9.03929E-01  1.23493E-01 -1.56678E+00 -4.75311E-01  9.53604E-02  3.30454E-01 -1.03311E-01 -8.61634E-01
   1.20423E-01 -2.16898E-01 -1.51450E+00 -1.27758E+00  2.04853E+00  1.19692E-01 -3.85989E-01  4.28129E-01 -1.52771E+00  5.07712E-01
   2.32020E-01  3.83404E-01 -1.06077E-01 -5.97915E-01  3.20610E-01 -3.25350E-01  4.31801E-01 -1.39594E-02 -4.39936E-01 -5.29688E-01
  -8.08871E-01 -1.98651E+00 -1.22118E-01  6.69398E-01  8.74114E-02 -1.05803E+00 -4.00211E-01 -8.53536E-01  1.89219E-01 -9.23949E-01
  -5.07636E-01 -1.29793E+00  4.23149E-01  1.14980E-01 -5.24169E-01 -4.06795E-02  3.81933E-01  3.18255E-02  1.32533E-01 -1.68814E+00
  -1.97309E-01 -2.30838E-01 -3.03681E-01 -9.56650E-01  4.24291E-01  7.66817E-01  1.28017E+00 -1.62569E-01 -1.43880E+00 -7.54087E-01
  -8.48709E-02  9.93062E-01  4.05236E-01 -5.78542E-01 -1.90312E+00  6.72204E-01  1.75224E+00 -8.01492E-01  5.57338E-01 -1.74319E+00
  -1.29865E+00  1.83283E-02 -8.44444E-02  1.03391E-01  1.36988E-01  2.41478E-01  5.39538E-01 -1.75120E-01 -3.07121E-01 -2.45963E-01
  -8.31832E-02  5.94710E-01  2.12025E+00  6.36494E-01 -7.02950E-02  1.77676E+00  7.37903E-01 -6.50867E-01 -1.38634E-01 -1.34103E-01
  -1.37349E-01  9.03087E-02 -1.51929E+00 -2.67631E-01 -2.66730E-01 -1.23461E+00 -7.63674E-01 -1.17691E-02  8.74859E-01  6.12583E-02
   8.60044E-03 -4.08852E-01 -3.98232E-01  2.87937E-01  6.98749E-01  1.52432E+00  1.13694E+00  1.55310E+00  1.22117E+00  7.33398E-01
  -1.03965E+00 -8.19980E-02  4.36939E-01 -1.82080E+00 -6.65241E-01 -1.16849E+00  2.72124E+00 -8.74872E-02  1.61152E+00  5.25139E-01
  -6.62352E-01 -3.39734E-01  8.40353E-01  1.09856E-01 -1.25353E+00 -2.35586E-01  2.09945E-01  1.61561E-01 -1.90985E+00 -1.93046E-01
  -5.29157E-01  8.20950E-01 -4.71865E-01  1.27804E-01 -8.20700E-01  4.93428E-02  6.37604E-01  3.17943E-01  6.93521E-01 -6.60058E-01
   9.32921E-01  9.85897E-01 -5.39746E-02  7.22919E-01  7.00398E-01 -2.67792E-01  3.47821E-01 -4.92064E-01  4.10443E-03  1.43440E-02
  -2.78203E+00 -1.35533E-01 -1.94056E-01 -9.54923E-01 -1.41283E-01 -1.42745E-02 -6.46006E-01 -1.62056E+00 -1.68759E+00 -2.09226E-01
   1.22033E+00 -2.73826E-01 -7.32156E-01 -1.63171E+00 -1.34634E+00 -6.21641E-01 -1.97272E+00  1.99674E-01 -1.13619E-01  7.03304E-01
  -4.01710E-01 -3.60332E-01 -3.60987E-01 -6.22356E-01 -1.73210E+00 -4.41748E-01 -3.25005E-02 -1.97612E-02  7.45242E-02  1.00342E+00
   1.68944E+00  1.60789E+00  2.95062E-01  7.72077E-01 -2.78773E-01  4.35811E-01 -1.45974E+00 -3.80477E-01 -9.40001E-01 -2.26148E+00
   1.86624E-01  2.85151E-01 -1.10656E+00  1.89443E-01  7.57624E-01 -5.20712E-01  1.33101E-02  6.56128E-01  4.46894E-01 -1.09148E+00
  -1.43620E-01  6.55457E-01  1.85255E-02 -3.18938E-01 -1.26703E+00 -3.60520E-02 -1.37662E-01  1.30198E-01 -1.91332E-01 -1.25857E+00
  -3.73544E-01  2.83934E-01 -1.77691E+00 -6.50136E-01  1.04450E+00  9.32300E-01  4.29959E-01 -6.19503E-01  5.58333E-02 -2.76724E-01
  -1.39431E+00 -7.16603E-01  3.95397E-01  4.01835E-01 -9.52421E-01  6.33651E-01 -1.53790E-01  2.83584E-01  6.07801E-01 -5.37835E-01
  -8.15606E-01 -1.19770E-01  3.90320E-01  6.81396E-01 -5.07056E-01  1.16874E+00  1.17941E+00  8.34579E-01  1.65839E+00  7.83395E-01
   1.60639E+00  2.52170E+00  2.43346E+00  2.85938E+00 -1.46147E-01  8.98962E-01 -5.17303E-01  9.43717E-01 -9.80835E-02 -2.28228E-01
  -9.03720E-02 -8.02366E-01 -8.49286E-02 -2.69010E-01  4.46791E-01  1.20107E+00  7.57242E-01 -4.58437E-02  6.80156E-01 -1.45352E+00
   1.67375E+00 -5.72331E-01 -6.42123E-01 -1.68866E+00 -6.04268E-01 -1.85807E+00  2.44621E-01 -3.22707E+00 -1.97715E+00  1.17424E-02
   1.90742E-01  1.23420E+00 -1.28457E+00 -1.16550E+00 -1.94098E+00  7.51909E-01  6.38558E-01  1.27564E+00  1.82630E-01  6.01224E-02
  -1.08288E+00 -1.00899E+00 -4.44214E-01 -2.67971E-01  1.03811E-01  2.05636E+00  2.57352E-01 -1.04457E+00  8.97213E-01 -7.35557E-01
  -9.17092E-03 -5.30276E-01  2.09484E-01  1.09878E-01  7.66067E-01  1.01116E+00  2.48509E-01 -2.14690E-01  1.51248E+00  3.43760E-01
   3.66461E-01  1.13762E+00  7.03704E-01  4.86811E-01  1.16413E+00  1.67031E+00 -4.80590E-01  1.26912E+00  1.49123E+00  5.30032E-01
   9.12567E-01  2.46519E-01  5.07794E-01  1.94883E+00  1.28066E+00  2.04299E-01 -4.64092E-01 -1.10420E+00 -3.04595E-01  8.81304E-01
   3.37450E-01 -7.95462E-01  1.03045E-01  3.54136E-01 -3.95829E-01 -9.64220E-01  5.38442E-01  1.15396E+00  9.42866E-01 -6.00557E-01
  -1.36549E+00  8.78340E-01 -5.29370E-02  6.99861E-01  7.81720E-01  1.21476E+00  4.91279E-02 -4.38324E-02  4.59879E-02  1.43567E+00
  -1.23782E+00  4.92592E-01 -2.03521E-01  1.01938E+00 -3.38768E-02 -1.02072E+00  1.54391E+00 -4.55891E-01  3.45430E-01 -5.63635E-01
   6.06591E-01  7.84473E-01 -4.47832E-01  8.37063E-01 -3.93600E-03  5.99814E-01  8.76684E-01  5.65513E-01  1.81301E+00 -3.61072E-01
  -5.76936E-01 -1.41658E-01  1.56218E-01  1.45337E+00 -2.39766E-01  1.04138E+00  9.23554E-01  1.14342E+00 -1.90017E-01 -5.65170E-02
   1.39550E+00  7.30860E-02  6.48649E-01 -2.08798E-01  7.49139E-01 -1.44871E-01  1.35546E-01  2.11946E-01  1.47734E-01  2.13053E+00
   1.48672E+00  1.98604E+00 -8.74470E-02 -4.02143E-01  2.44105E-01  1.36110E+00 -3.18678E-01  6.36207E-01  9.00303E-01  1.21747E+00
   3.11090E-02 -1.55535E+00 -1.51592E-01 -1.95061E-03 -7.22227E-01  1.27387E+00  2.54968E-01  9.39374E-01 -8.70803E-01  2.03111E-01
  -1.11977E+00  1.41240E+00  1.03306E+00  6.48246E-01 -3.97189E-01 -2.20469E-01  4.90428E-01 -2.00091E-02 -1.10643E+00  9.83874E-01
   2.06703E+00 -3.38471E-01  6.42131E-01  1.46605E+00  1.50918E+00 -9.13067E-01  4.75989E-01  1.49181E+00  2.59617E-01 -1.07985E+00
   1.85780E-01  2.15891E-01  2.74224E-01  5.60851E-01  1.67990E-01  8.11327E-02 -2.11546E-01  7.00421E-01  2.44258E-01 -5.55416E-01
   1.69700E+00 -1.57709E-02  6.19383E-01 -3.08839E-01 -9.61229E-01  1.45957E+00  2.26151E-01  2.61760E-01  8.00524E-02  8.63951E-01
   1.35806E-01  1.42259E-01  4.64396E-01  2.77124E-01 -5.72511E-01 -1.59955E+00 -3.94630E-01 -1.07535E-01  1.20116E+00  2.79460E-01
  -8.11521E-02 -8.63497E-01 -4.75612E-01 -2.87064E-01 -3.38481E-01  6.52586E-01 -9.66083E-01  1.27591E+00 -3.71797E-02 -1.43866E+00
  -1.74589E+00  4.35671E-01  7.82647E-01  2.18329E+00  9.04473E-01  1.62365E+00  2.57225E-01 -1.81993E-01 -3.74989E-01 -1.27328E+00
   9.59984E-01 -8.11340E-02 -2.79340E-01  6.22909E-01  5.16249E-01 -1.27568E-01 -2.72597E-01  1.27628E+00
 NY points of the fit to the data follow
  -4.19081E-01 -4.15696E-01 -4.14195E-01 -4.17166E-01 -4.14537E-01 -3.64484E-01 -2.54250E-01 -1.28335E-01 -2.45296E-02  4.58629E-02
   9.33477E-02  1.32635E-01  1.55927E-01  1.29515E-01  3.52703E-02 -9.11922E-02 -1.94183E-01 -2.46620E-01 -2.49878E-01 -2.23861E-01
  -2.06140E-01 -2.15255E-01 -2.53086E-01 -3.09690E-01 -3.72049E-01 -4.17821E-01 -4.08471E-01 -3.53353E-01 -2.79773E-01 -1.99785E-01
  -1.25805E-01 -7.31987E-02 -5.22971E-02 -6.59420E-02 -1.24629E-01 -2.26139E-01 -3.33742E-01 -4.09786E-01 -4.32341E-01 -3.97977E-01
  -3.28172E-01 -2.55870E-01 -2.12038E-01 -2.06346E-01 -2.26036E-01 -2.52730E-01 -2.73632E-01 -2.85545E-01 -2.90664E-01 -2.92379E-01
  -2.93202E-01 -2.93862E-01 -2.94612E-01 -2.94985E-01 -2.94721E-01 -2.95037E-01 -2.97108E-01 -3.00424E-01 -3.03922E-01 -3.06328E-01
  -3.06487E-01 -3.04318E-01 -3.01674E-01 -2.99163E-01 -2.97687E-01 -2.97801E-01 -2.98547E-01 -2.99138E-01 -3.00023E-01 -2.99200E-01
  -2.93828E-01 -2.85824E-01 -2.78441E-01 -2.73159E-01 -2.70825E-01 -2.71182E-01 -2.72337E-01 -2.74686E-01 -2.80182E-01 -2.86846E-01
  -2.85386E-01 -2.71929E-01 -2.52401E-01 -2.33637E-01 -2.20164E-01 -2.12448E-01 -2.08197E-01 -2.08217E-01 -2.17642E-01 -2.38332E-01
  -2.63920E-01 -2.85571E-01 -2.97675E-01 -2.98946E-01 -2.94843E-01 -2.88062E-01 -2.67889E-01 -1.78195E-01  2.99055E-02  2.82095E-01
   4.96870E-01  6.40603E-01  7.24085E-01  7.74166E-01  7.91887E-01  7.30986E-01  5.50710E-01  2.93656E-01  6.03883E-02 -9.12028E-02
  -1.61786E-01 -1.85986E-01 -1.98366E-01 -2.06597E-01 -2.12608E-01 -2.17083E-01 -2.20096E-01 -2.22039E-01 -2.22470E-01 -2.17887E-01
  -1.86120E-01 -5.69226E-02  1.60657E-01  3.83097E-01  5.55355E-01  6.67261E-01  7.36178E-01  7.77775E-01  7.70192E-01  6.62455E-01
   4.47800E-01  2.03252E-01  1.23641E-02 -9.67768E-02 -1.40664E-01 -1.56728E-01 -1.65860E-01 -1.71479E-01 -1.74948E-01 -1.76898E-01
  -1.77019E-01 -1.76138E-01 -1.76121E-01 -1.77423E-01 -1.79199E-01 -1.80313E-01 -1.80677E-01 -1.81315E-01 -1.83145E-01 -1.86031E-01
  -1.88680E-01 -1.89987E-01 -1.89898E-01 -1.89081E-01 -1.89461E-01 -1.95678E-01 -2.08133E-01 -2.21651E-01 -2.31197E-01 -2.32502E-01
  -2.28910E-01 -2.26923E-01 -2.27203E-01 -2.25577E-01 -2.19129E-01 -2.11116E-01 -2.08306E-01 -2.15308E-01 -2.30647E-01 -2.47566E-01
  -2.63546E-01 -2.79166E-01 -2.88885E-01 -2.91073E-01 -2.88415E-01 -2.87352E-01 -2.90495E-01 -2.92221E-01 -2.85992E-01 -2.70926E-01
  -2.55915E-01 -2.52148E-01 -2.56618E-01 -2.55437E-01 -2.41512E-01 -2.18885E-01 -1.97199E-01 -1.84480E-01 -1.84824E-01 -1.90742E-01
  -2.05793E-01 -2.31145E-01 -2.64919E-01 -3.03319E-01 -3.35298E-01 -3.34755E-01 -2.83905E-01 -1.90743E-01 -7.28307E-02  6.03457E-02
   1.85927E-01  2.77480E-01  3.11759E-01  2.48647E-01  5.25350E-02 -2.04679E-01 -4.30455E-01 -5.94682E-01 -6.95061E-01 -7.25155E-01
  -6.66493E-01 -5.08462E-01 -2.64964E-01  1.60084E-04  1.98160E-01  2.89437E-01  2.82389E-01  2.05539E-01  1.00659E-01 -3.78994E-04
  -7.48486E-02 -1.09162E-01 -1.06546E-01 -7.44841E-02 -1.87486E-02  5.01870E-02  1.10130E-01  1.43299E-01  1.46083E-01  1.11277E-01
   2.98872E-02 -6.15183E-02 -1.22683E-01 -1.33070E-01 -8.89401E-02 -7.26602E-04  9.00457E-02  1.53015E-01  2.03211E-01  2.40056E-01
   2.34478E-01  1.71007E-01  5.45669E-02 -9.59275E-02 -2.31588E-01 -2.98504E-01 -2.81408E-01 -2.01890E-01 -8.93666E-02  2.80710E-02
   1.30157E-01  2.10522E-01  2.66561E-01  3.13281E-01  4.62390E-01  8.02749E-01  1.19978E+00  1.52299E+00  1.73223E+00  1.85205E+00
   1.92431E+00  1.94187E+00  1.81180E+00  1.46115E+00  9.79739E-01  5.53631E-01  2.80943E-01  1.55832E-01  1.14359E-01  9.47903E-02
   8.36872E-02  7.83034E-02  7.66500E-02  7.76039E-02  8.00684E-02  8.16503E-02  8.03060E-02  7.54477E-02  6.79272E-02  5.92996E-02
   5.14148E-02  4.54830E-02  4.18038E-02  4.04426E-02  4.11444E-02  4.31028E-02  4.56520E-02  4.83731E-02  5.07673E-02  5.27240E-02
   5.44775E-02  5.63003E-02  5.83201E-02  6.06091E-02  6.32308E-02  6.61978E-02  6.95117E-02  7.31796E-02  7.70933E-02  8.11257E-02
   8.51644E-02  8.90912E-02  9.28402E-02  9.63811E-02  9.96969E-02  1.02773E-01  1.05594E-01  1.08166E-01  1.10514E-01  1.12700E-01
   1.14812E-01  1.16944E-01  1.19176E-01  1.21587E-01  1.24262E-01  1.27290E-01  1.30747E-01  1.34687E-01  1.39139E-01  1.44128E-01
   1.49665E-01  1.55746E-01  1.62339E-01  1.69386E-01  1.76807E-01  1.84521E-01  1.92439E-01  2.00463E-01  2.08477E-01  2.16364E-01
   2.24011E-01  2.31324E-01  2.38222E-01  2.44636E-01  2.50504E-01  2.55784E-01  2.60458E-01  2.64538E-01  2.68048E-01  2.71028E-01
   2.73521E-01  2.75581E-01  2.77274E-01  2.78670E-01  2.79832E-01  2.80808E-01  2.81630E-01  2.82323E-01  2.82902E-01  2.83370E-01
   2.83708E-01  2.83882E-01  2.83844E-01  2.83552E-01  2.82961E-01  2.82031E-01  2.80714E-01  2.78974E-01  2.76784E-01  2.74141E-01
   2.71054E-01  2.67545E-01  2.63642E-01  2.59391E-01  2.54848E-01  2.50091E-01  2.45198E-01  2.40251E-01  2.35329E-01  2.30517E-01
   2.25903E-01  2.21576E-01  2.17618E-01  2.14103E-01  2.11101E-01  2.08682E-01  2.06915E-01  2.05872E-01  2.05613E-01  2.06197E-01
   2.07678E-01  2.10121E-01  2.13584E-01  2.18124E-01  2.23786E-01  2.30604E-01  2.38601E-01  2.47788E-01  2.58149E-01  2.69640E-01
   2.82173E-01  2.95625E-01  3.09831E-01  3.24587E-01  3.39641E-01  3.54703E-01  3.69443E-01  3.83513E-01  3.96560E-01  4.08237E-01
   4.18213E-01  4.26192E-01  4.31929E-01  4.35247E-01  4.36046E-01  4.34309E-01  4.30090E-01  4.23526E-01  4.14819E-01  4.04239E-01
   3.92099E-01  3.78740E-01  3.64511E-01  3.49758E-01  3.34813E-01  3.19980E-01  3.05527E-01  2.91675E-01  2.78592E-01  2.66407E-01
   2.55202E-01  2.45026E-01  2.35888E-01  2.27768E-01  2.20620E-01  2.14388E-01  2.09003E-01  2.04398E-01  2.00493E-01  1.97213E-01
   1.94482E-01  1.92236E-01  1.90415E-01  1.88968E-01  1.87842E-01  1.86993E-01  1.86380E-01  1.85977E-01  1.85754E-01  1.85692E-01
   1.85764E-01  1.85954E-01  1.86245E-01  1.86629E-01  1.87095E-01  1.87633E-01  1.88232E-01  1.88886E-01  1.89587E-01  1.90335E-01
   1.91125E-01  1.91952E-01  1.92809E-01  1.93695E-01  1.94607E-01  1.95547E-01  1.96510E-01  1.97494E-01  1.98494E-01  1.99511E-01
   2.00544E-01  2.01596E-01  2.02662E-01  2.03740E-01  2.04828E-01  2.05928E-01  2.07039E-01  2.08163E-01  2.09295E-01  2.10434E-01
   2.11579E-01  2.12733E-01  2.13897E-01  2.15069E-01  2.16247E-01  2.17429E-01  2.18617E-01  2.19812E-01  2.21015E-01  2.22225E-01
   2.23438E-01  2.24655E-01  2.25877E-01  2.27107E-01  2.28344E-01  2.29586E-01  2.30831E-01  2.32082E-01  2.33339E-01  2.34604E-01
   2.35877E-01  2.37155E-01  2.38437E-01  2.39728E-01  2.41028E-01  2.42339E-01  2.43659E-01  2.44989E-01
 NY background values follow
    -3.938E-01   -3.925E-01   -3.912E-01   -3.900E-01   -3.887E-01   -3.875E-01   -3.862E-01   -3.850E-01   -3.837E-01   -3.825E-01
    -3.812E-01   -3.799E-01   -3.787E-01   -3.774E-01   -3.762E-01   -3.749E-01   -3.737E-01   -3.724E-01   -3.711E-01   -3.699E-01
    -3.686E-01   -3.674E-01   -3.661E-01   -3.648E-01   -3.636E-01   -3.623E-01   -3.611E-01   -3.598E-01   -3.585E-01   -3.573E-01
    -3.560E-01   -3.547E-01   -3.535E-01   -3.522E-01   -3.509E-01   -3.497E-01   -3.484E-01   -3.471E-01   -3.459E-01   -3.446E-01
    -3.433E-01   -3.421E-01   -3.408E-01   -3.395E-01   -3.383E-01   -3.370E-01   -3.357E-01   -3.345E-01   -3.332E-01   -3.319E-01
    -3.306E-01   -3.294E-01   -3.281E-01   -3.268E-01   -3.256E-01   -3.243E-01   -3.230E-01   -3.217E-01   -3.205E-01   -3.192E-01
    -3.179E-01   -3.166E-01   -3.154E-01   -3.141E-01   -3.128E-01   -3.115E-01   -3.103E-01   -3.090E-01   -3.077E-01   -3.064E-01
    -3.051E-01   -3.039E-01   -3.026E-01   -3.013E-01   -3.000E-01   -2.988E-01   -2.975E-01   -2.962E-01   -2.949E-01   -2.936E-01
    -2.924E-01   -2.911E-01   -2.898E-01   -2.885E-01   -2.872E-01   -2.859E-01   -2.847E-01   -2.834E-01   -2.821E-01   -2.808E-01
    -2.795E-01   -2.782E-01   -2.770E-01   -2.757E-01   -2.744E-01   -2.731E-01   -2.718E-01   -2.705E-01   -2.692E-01   -2.680E-01
    -2.667E-01   -2.654E-01   -2.641E-01   -2.628E-01   -2.615E-01   -2.602E-01   -2.589E-01   -2.577E-01   -2.564E-01   -2.551E-01
    -2.538E-01   -2.525E-01   -2.512E-01   -2.499E-01   -2.486E-01   -2.473E-01   -2.461E-01   -2.448E-01   -2.435E-01   -2.422E-01
    -2.409E-01   -2.396E-01   -2.383E-01   -2.370E-01   -2.357E-01   -2.344E-01   -2.331E-01   -2.318E-01   -2.305E-01   -2.293E-01
    -2.280E-01   -2.267E-01   -2.254E-01   -2.241E-01   -2.228E-01   -2.215E-01   -2.202E-01   -2.189E-01   -2.176E-01   -2.163E-01
    -2.150E-01   -2.137E-01   -2.124E-01   -2.111E-01   -2.098E-01   -2.085E-01   -2.072E-01   -2.059E-01   -2.046E-01   -2.033E-01
    -2.020E-01   -2.007E-01   -1.994E-01   -1.981E-01   -1.968E-01   -1.955E-01   -1.942E-01   -1.929E-01   -1.916E-01   -1.903E-01
    -1.890E-01   -1.877E-01   -1.864E-01   -1.851E-01   -1.838E-01   -1.825E-01   -1.812E-01   -1.799E-01   -1.786E-01   -1.773E-01
    -1.760E-01   -1.747E-01   -1.734E-01   -1.721E-01   -1.708E-01   -1.695E-01   -1.682E-01   -1.669E-01   -1.656E-01   -1.643E-01
    -1.630E-01   -1.617E-01   -1.604E-01   -1.591E-01   -1.578E-01   -1.565E-01   -1.552E-01   -1.539E-01   -1.526E-01   -1.513E-01
    -1.500E-01   -1.487E-01   -1.474E-01   -1.461E-01   -1.448E-01   -1.434E-01   -1.421E-01   -1.408E-01   -1.395E-01   -1.382E-01
    -1.369E-01   -1.356E-01   -1.343E-01   -1.330E-01   -1.317E-01   -1.304E-01   -1.291E-01   -1.278E-01   -1.265E-01   -1.252E-01
    -1.239E-01   -1.225E-01   -1.212E-01   -1.199E-01   -1.186E-01   -1.173E-01   -1.160E-01   -1.147E-01   -1.134E-01   -1.121E-01
    -1.108E-01   -1.095E-01   -1.082E-01   -1.068E-01   -1.055E-01   -1.042E-01   -1.029E-01   -1.016E-01   -1.003E-01   -9.900E-02
    -9.769E-02   -9.638E-02   -9.507E-02   -9.376E-02   -9.245E-02   -9.114E-02   -8.983E-02   -8.852E-02   -8.722E-02   -8.591E-02
    -8.460E-02   -8.329E-02   -8.198E-02   -8.067E-02   -7.936E-02   -7.805E-02   -7.674E-02   -7.543E-02   -7.412E-02   -7.281E-02
    -7.150E-02   -7.019E-02   -6.888E-02   -6.757E-02   -6.626E-02   -6.495E-02   -6.364E-02   -6.233E-02   -6.102E-02   -5.970E-02
    -5.839E-02   -5.708E-02   -5.577E-02   -5.446E-02   -5.315E-02   -5.184E-02   -5.053E-02   -4.922E-02   -4.791E-02   -4.660E-02
    -4.529E-02   -4.398E-02   -4.267E-02   -4.136E-02   -4.005E-02   -3.873E-02   -3.742E-02   -3.611E-02   -3.480E-02   -3.349E-02
    -3.218E-02   -3.087E-02   -2.956E-02   -2.825E-02   -2.694E-02   -2.563E-02   -2.432E-02   -2.301E-02   -2.169E-02   -2.038E-02
    -1.907E-02   -1.776E-02   -1.645E-02   -1.514E-02   -1.383E-02   -1.252E-02   -1.121E-02   -9.899E-03   -8.589E-03   -7.278E-03
    -5.968E-03   -4.658E-03   -3.347E-03   -2.037E-03   -7.265E-04    5.838E-04    1.894E-03    3.204E-03    4.514E-03    5.824E-03
     7.135E-03    8.445E-03    9.755E-03    1.106E-02    1.237E-02    1.368E-02    1.499E-02    1.630E-02    1.761E-02    1.892E-02
     2.023E-02    2.154E-02    2.285E-02    2.416E-02    2.547E-02    2.678E-02    2.809E-02    2.940E-02    3.071E-02    3.202E-02
     3.332E-02    3.463E-02    3.594E-02    3.725E-02    3.856E-02    3.987E-02    4.118E-02    4.248E-02    4.379E-02    4.510E-02
     4.641E-02    4.772E-02    4.902E-02    5.033E-02    5.164E-02    5.295E-02    5.425E-02    5.556E-02    5.687E-02    5.818E-02
     5.948E-02    6.079E-02    6.210E-02    6.340E-02    6.471E-02    6.602E-02    6.732E-02    6.863E-02    6.994E-02    7.124E-02
     7.255E-02    7.385E-02    7.516E-02    7.646E-02    7.777E-02    7.908E-02    8.038E-02    8.169E-02    8.299E-02    8.429E-02
     8.560E-02    8.690E-02    8.821E-02    8.951E-02    9.082E-02    9.212E-02    9.342E-02    9.473E-02    9.603E-02    9.733E-02
     9.864E-02    9.994E-02    1.012E-01    1.025E-01    1.038E-01    1.052E-01    1.065E-01    1.078E-01    1.091E-01    1.104E-01
     1.117E-01    1.130E-01    1.143E-01    1.156E-01    1.169E-01    1.182E-01    1.195E-01    1.208E-01    1.221E-01    1.234E-01
     1.247E-01    1.260E-01    1.273E-01    1.286E-01    1.299E-01    1.312E-01    1.325E-01    1.338E-01    1.351E-01    1.364E-01
     1.377E-01    1.390E-01    1.403E-01    1.415E-01    1.428E-01    1.441E-01    1.454E-01    1.467E-01    1.480E-01    1.493E-01
     1.506E-01    1.519E-01    1.532E-01    1.545E-01    1.558E-01    1.571E-01    1.584E-01    1.597E-01    1.610E-01    1.623E-01
     1.636E-01    1.649E-01    1.662E-01    1.675E-01    1.687E-01    1.700E-01    1.713E-01    1.726E-01    1.739E-01    1.752E-01
     1.765E-01    1.778E-01    1.791E-01    1.804E-01    1.817E-01    1.830E-01    1.842E-01    1.855E-01    1.868E-01    1.881E-01
     1.894E-01    1.907E-01    1.920E-01    1.933E-01    1.946E-01    1.958E-01    1.971E-01    1.984E-01    1.997E-01    2.010E-01
     2.023E-01    2.036E-01    2.048E-01    2.061E-01    2.074E-01    2.087E-01    2.100E-01    2.113E-01    2.126E-01    2.138E-01
     2.151E-01    2.164E-01    2.177E-01    2.190E-01    2.203E-01    2.215E-01    2.228E-01    2.241E-01    2.254E-01    2.267E-01
     2.279E-01    2.292E-01    2.305E-01    2.318E-01    2.331E-01    2.343E-01    2.356E-01    2.369E-01    2.382E-01    2.395E-01
     2.407E-01    2.420E-01    2.433E-01    2.446E-01    2.458E-01    2.471E-01    2.484E-01    2.497E-01
 Asp      Conc. = 5.07E+00
