 LCModel (Version 6.3-1L) Copyright: S.W. Provencher.          Ref.: Magn. Reson. Med. 30:672-679 (1993).                
 Slice#3 Row#9 Col#11  PD_05_press_1_raw_act
 36 lines in following concentration table = NCONC+1
    Conc.  %SD /Cr+PCr  Metabolite                                         
    0.000 999%   0.000 Ala                                                 
    0.000 999%   0.000 Asp                                                 
  113.021 139%   0.161 Cr                                                  
  586.914  28%   0.839 PCr                                                 
    0.000 999%   0.000 GABA                                                
    0.000 999%   0.000 Glc                                                 
  468.685  30%   0.670 Gln                                                 
  941.520  16%   1.345 Glu                                                 
  168.159   7%   0.240 GPC                                                 
    0.000 999%   0.000 PCh                                                 
  203.906  20%   0.291 GSH                                                 
  456.695  31%   0.652 Ins                                                 
  119.322  58%   0.170 Lac                                                 
 1.34E+03   7%   1.920 NAA                                                 
  222.325  44%   0.318 NAAG                                                
   21.714  65% 3.1E-02 Scyllo                                              
    0.000 999%   0.000 Tau                                                 
  376.513  16%   0.538 -CrCH2                                              
  168.159   7%   0.240 GPC+PCh                                             
 1.57E+03   3%   2.238 NAA+NAAG                                            
  699.934   4%   1.000 Cr+PCr                                              
 1.41E+03  16%   2.015 Glu+Gln                                             
    0.000 999%   0.000 Lip13a                                              
    0.000 999%   0.000 Lip13b                                              
    0.000 999%   0.000 Lip09                                               
  481.366  19%   0.688 MM09                                                
    0.137 999% 2.0E-04 Lip20                                               
 1.39E+03  12%   1.980+MM20                                                
   98.569  53%   0.141 MM12                                                
  409.455  27%   0.585 MM14                                                
  139.701  67%   0.200 MM17                                                
    0.000 999%   0.000 Lip13a+Lip13b                                       
  508.024  26%   0.726 MM14+Lip13a+Lip13b+MM12                             
  481.366  19%   0.688 MM09+Lip09                                          
 1.39E+03  12%   1.980 MM20+Lip20                                          
   6 lines in following misc. output table
  FWHM = 0.054 ppm    S/N =  13                                            
  Data shift = 0.015 ppm                                                   
  Ph:   0 deg     -13.9 deg/ppm                                            
  alphaB,S = 7.4E-01,   1.7E+02                                            
   14 spline knots.   Ns = 8(1)                                            
  (10) 2 infls.   ( 7) 1 extrs.                                            
  498 points on ppm-axis = NY
      4.000000     3.992357     3.984714     3.977070     3.969427     3.961784     3.954141     3.946497     3.938854     3.931211
      3.923568     3.915925     3.908281     3.900638     3.892995     3.885352     3.877708     3.870065     3.862422     3.854779
      3.847136     3.839492     3.831849     3.824206     3.816563     3.808919     3.801276     3.793633     3.785990     3.778347
      3.770703     3.763060     3.755417     3.747774     3.740130     3.732487     3.724844     3.717201     3.709558     3.701914
      3.694271     3.686628     3.678985     3.671341     3.663698     3.656055     3.648412     3.640769     3.633125     3.625482
      3.617839     3.610196     3.602552     3.594909     3.587266     3.579623     3.571980     3.564336     3.556693     3.549050
      3.541407     3.533763     3.526120     3.518477     3.510834     3.503191     3.495547     3.487904     3.480261     3.472618
      3.464974     3.457331     3.449688     3.442045     3.434402     3.426758     3.419115     3.411472     3.403829     3.396185
      3.388542     3.380899     3.373256     3.365613     3.357969     3.350326     3.342683     3.335040     3.327396     3.319753
      3.312110     3.304467     3.296824     3.289180     3.281537     3.273894     3.266251     3.258607     3.250964     3.243321
      3.235678     3.228034     3.220391     3.212748     3.205105     3.197462     3.189818     3.182175     3.174532     3.166889
      3.159245     3.151602     3.143959     3.136316     3.128673     3.121029     3.113386     3.105743     3.098100     3.090456
      3.082813     3.075170     3.067527     3.059884     3.052240     3.044597     3.036954     3.029311     3.021667     3.014024
      3.006381     2.998738     2.991095     2.983451     2.975808     2.968165     2.960522     2.952878     2.945235     2.937592
      2.929949     2.922306     2.914662     2.907019     2.899376     2.891733     2.884089     2.876446     2.868803     2.861160
      2.853517     2.845873     2.838230     2.830587     2.822944     2.815300     2.807657     2.800014     2.792371     2.784728
      2.777084     2.769441     2.761798     2.754155     2.746511     2.738868     2.731225     2.723582     2.715939     2.708295
      2.700652     2.693009     2.685366     2.677722     2.670079     2.662436     2.654793     2.647150     2.639506     2.631863
      2.624220     2.616577     2.608933     2.601290     2.593647     2.586004     2.578361     2.570717     2.563074     2.555431
      2.547788     2.540144     2.532501     2.524858     2.517215     2.509572     2.501928     2.494285     2.486642     2.478999
      2.471355     2.463712     2.456069     2.448426     2.440783     2.433139     2.425496     2.417853     2.410210     2.402566
      2.394923     2.387280     2.379637     2.371994     2.364350     2.356707     2.349064     2.341421     2.333777     2.326134
      2.318491     2.310848     2.303205     2.295561     2.287918     2.280275     2.272632     2.264988     2.257345     2.249702
      2.242059     2.234416     2.226772     2.219129     2.211486     2.203843     2.196199     2.188556     2.180913     2.173270
      2.165627     2.157983     2.150340     2.142697     2.135054     2.127410     2.119767     2.112124     2.104481     2.096838
      2.089194     2.081551     2.073908     2.066265     2.058621     2.050978     2.043335     2.035692     2.028049     2.020405
      2.012762     2.005119     1.997476     1.989833     1.982190     1.974546     1.966903     1.959260     1.951617     1.943974
      1.936331     1.928688     1.921045     1.913402     1.905759     1.898115     1.890472     1.882829     1.875186     1.867543
      1.859900     1.852257     1.844614     1.836971     1.829327     1.821684     1.814041     1.806398     1.798755     1.791112
      1.783469     1.775826     1.768183     1.760540     1.752896     1.745253     1.737610     1.729967     1.722324     1.714681
      1.707038     1.699395     1.691752     1.684108     1.676465     1.668822     1.661179     1.653536     1.645893     1.638250
      1.630607     1.622964     1.615321     1.607677     1.600034     1.592391     1.584748     1.577105     1.569462     1.561819
      1.554176     1.546533     1.538890     1.531246     1.523603     1.515960     1.508317     1.500674     1.493031     1.485388
      1.477745     1.470102     1.462458     1.454815     1.447172     1.439529     1.431886     1.424243     1.416600     1.408957
      1.401314     1.393671     1.386027     1.378384     1.370741     1.363098     1.355455     1.347812     1.340169     1.332526
      1.324883     1.317240     1.309596     1.301953     1.294310     1.286667     1.279024     1.271381     1.263738     1.256095
      1.248452     1.240808     1.233165     1.225522     1.217879     1.210236     1.202593     1.194950     1.187307     1.179664
      1.172021     1.164377     1.156734     1.149091     1.141448     1.133805     1.126162     1.118519     1.110876     1.103233
      1.095590     1.087946     1.080303     1.072660     1.065017     1.057374     1.049731     1.042088     1.034445     1.026802
      1.019158     1.011515     1.003872     0.996229     0.988586     0.980943     0.973300     0.965657     0.958014     0.950371
      0.942727     0.935084     0.927441     0.919798     0.912155     0.904512     0.896869     0.889226     0.881583     0.873940
      0.866296     0.858653     0.851010     0.843367     0.835724     0.828081     0.820438     0.812795     0.805152     0.797508
      0.789865     0.782222     0.774579     0.766936     0.759293     0.751650     0.744007     0.736364     0.728721     0.721077
      0.713434     0.705791     0.698148     0.690505     0.682862     0.675219     0.667576     0.659933     0.652290     0.644646
      0.637003     0.629360     0.621717     0.614074     0.606431     0.598788     0.591145     0.583502     0.575858     0.568215
      0.560572     0.552929     0.545286     0.537643     0.530000     0.522357     0.514714     0.507071     0.499427     0.491784
      0.484141     0.476498     0.468855     0.461212     0.453569     0.445925     0.438282     0.430639     0.422996     0.415353
      0.407710     0.400067     0.392424     0.384780     0.377137     0.369494     0.361851     0.354208     0.346565     0.338922
      0.331278     0.323635     0.315992     0.308349     0.300706     0.293063     0.285420     0.277777     0.270133     0.262490
      0.254847     0.247204     0.239561     0.231918     0.224275     0.216631     0.208988     0.201345
 NY phased data points follow
   4.83461E+00  4.61244E+00  6.54528E+00  5.59479E+00  7.37639E+00  2.71026E+00  6.42290E+00  6.83610E+00  7.80635E+00  1.04275E+01
   1.03466E+01  1.26736E+01  1.04940E+01  9.50232E+00  1.10326E+01  9.10318E+00  6.08048E+00  7.15647E+00  6.28200E+00  7.38282E+00
   6.06441E+00  5.42532E+00  4.57366E+00  5.78017E+00  7.74435E+00  8.75912E+00  7.80975E+00  8.73160E+00  6.88269E+00  7.38484E+00
   6.83785E+00  7.88576E+00  1.06046E+01  5.91294E+00  9.72734E+00  7.50189E+00  5.74502E+00  5.12316E+00  5.35198E+00  7.13674E+00
   6.16856E+00  6.84478E+00  6.28712E+00  7.19315E+00  8.82105E+00  7.55880E+00  1.05871E+01  9.57747E+00  1.26459E+01  8.39480E+00
   7.15127E+00  9.07109E+00  8.46693E+00  6.49153E+00  6.08928E+00  6.89786E+00  6.10680E+00  8.01758E+00  6.56742E+00  5.40774E+00
   3.40854E+00  3.88900E+00  3.43988E+00  2.02955E+00  5.54693E+00  2.55871E+00  3.56712E+00  2.38950E+00  2.49787E+00  3.76642E+00
   5.03663E+00  1.30548E+00  5.18034E+00  4.01193E+00  3.46252E+00  3.11275E+00  4.59650E+00  4.23037E+00  6.45031E+00  2.12853E+00
   3.93203E+00  2.91724E+00  3.27243E+00  6.04190E+00  4.80596E+00  5.56184E+00  4.72980E+00  3.70577E+00  5.34384E+00  3.98200E+00
   5.10493E+00  4.58521E+00  3.48892E+00  5.76128E+00  6.26933E+00  6.52763E+00  7.74972E+00  6.89470E+00  8.79737E+00  1.03984E+01
   1.07322E+01  1.52726E+01  1.75690E+01  1.87420E+01  1.77400E+01  1.88579E+01  1.53202E+01  1.38749E+01  1.19184E+01  8.22068E+00
   5.32752E+00  6.19216E+00  3.92750E+00  5.29924E+00  5.19508E+00  4.93364E+00  5.43401E+00  5.59017E+00  5.12484E+00  7.83666E+00
   8.87261E+00  1.10053E+01  1.01646E+01  1.20691E+01  1.55330E+01  1.79980E+01  2.55595E+01  2.84606E+01  2.85058E+01  2.86106E+01
   2.19708E+01  2.01467E+01  1.54918E+01  1.34317E+01  1.06414E+01  8.73427E+00  7.17015E+00  6.96611E+00  6.07867E+00  6.10780E+00
   6.09010E+00  7.88934E+00  8.14326E+00  6.53013E+00  7.67540E+00  6.70192E+00  8.17253E+00  6.24438E+00  8.92378E+00  6.29567E+00
   7.25475E+00  6.86891E+00  8.73855E+00  6.21212E+00  7.17146E+00  5.32641E+00  6.75000E+00  5.78939E+00  6.14755E+00  5.11006E+00
   6.21283E+00  5.93498E+00  5.20558E+00  4.89223E+00  4.76565E+00  5.13176E+00  4.61096E+00  4.58020E+00  5.01989E+00  2.96835E+00
   1.14570E+00  3.16644E+00  2.62544E+00  1.01393E+00 -3.64723E-01 -1.89985E+00 -1.69477E+00  5.00313E-01  5.52497E-01  1.74674E+00
   3.89096E+00  3.03553E+00  2.72857E+00  5.74469E+00  2.51715E+00  3.87022E+00  3.24660E+00  4.64634E+00  1.87525E+00  3.87937E+00
   4.44990E+00  6.60464E+00  6.99511E+00  7.54397E+00  5.70577E+00  4.58829E+00  3.99582E+00  5.13436E+00  3.77909E+00  4.85817E+00
   3.85258E+00  6.92057E+00  7.03893E+00  7.03583E+00  7.52947E+00  1.01299E+01  6.36328E+00  8.45559E+00  7.45657E+00  5.66753E+00
   7.71318E+00  7.97045E+00  9.07305E+00  1.12085E+01  1.34140E+01  1.55028E+01  1.45535E+01  1.42100E+01  1.23176E+01  1.22812E+01
   5.68717E+00  7.49922E+00  7.13239E+00  8.26614E+00  8.52882E+00  8.45974E+00  9.25366E+00  1.03287E+01  1.09684E+01  1.05833E+01
   9.61743E+00  1.41266E+01  1.33085E+01  1.03318E+01  1.14325E+01  1.08921E+01  1.06310E+01  1.03631E+01  1.06693E+01  1.10668E+01
   8.41835E+00  9.12200E+00  7.93204E+00  9.60468E+00  1.09313E+01  1.07588E+01  1.09686E+01  1.18348E+01  1.26893E+01  1.33534E+01
   1.49925E+01  1.66358E+01  1.69673E+01  1.92180E+01  2.56271E+01  2.92860E+01  3.47587E+01  3.95523E+01  4.59713E+01  5.03569E+01
   5.43880E+01  5.24903E+01  4.88092E+01  4.36200E+01  3.62209E+01  2.73601E+01  2.10602E+01  1.63213E+01  1.35825E+01  1.12767E+01
   1.14482E+01  9.73026E+00  1.15411E+01  1.31321E+01  6.99584E+00  1.02093E+01  8.03609E+00  8.34253E+00  7.89138E+00  9.79209E+00
   9.64616E+00  9.97292E+00  7.73673E+00  5.74906E+00  7.59376E+00  6.62365E+00  6.17990E+00  5.93320E+00  4.87538E+00  5.82889E+00
   5.87886E+00  5.76203E+00  6.52537E+00  5.16339E+00  6.78544E+00  7.13556E+00  6.93841E+00  7.15727E+00  6.36858E+00  7.04437E+00
   6.81500E+00  4.94133E+00  3.54130E+00  6.14378E+00  3.41572E+00  4.60347E+00  5.24226E+00  5.65312E+00  6.38718E+00  4.75882E+00
   5.92133E+00  8.58079E+00  5.46812E+00  5.84273E+00  5.76048E+00  6.43553E+00  8.11773E+00  6.62676E+00  4.74363E+00  6.56501E+00
   5.73051E+00  6.37901E+00  2.97086E+00  3.22467E+00  3.62129E+00  2.31875E+00  7.65821E-01  4.49830E+00  3.13860E+00  5.48713E+00
   6.29036E+00  6.11048E+00  6.62284E+00  6.44282E+00  7.46278E+00  8.92225E+00  6.86490E+00  7.82608E+00  9.15014E+00  7.64162E+00
   9.14073E+00  4.65725E+00  5.76576E+00  6.20530E+00  7.04454E+00  6.09240E+00  7.07261E+00  5.68504E+00  6.11034E+00  5.44630E+00
   3.46962E+00  2.67261E+00  2.83796E+00  2.01434E+00  3.84120E+00  4.77737E+00  2.33595E+00  2.72195E+00  4.84421E+00  2.62160E+00
   4.66817E+00  3.58262E+00  4.87657E+00  3.46112E+00  2.12124E+00  4.18040E+00  1.91889E+00  4.39895E+00  1.75723E+00  1.88654E+00
   3.40729E+00  2.09739E+00  3.78003E+00  1.58653E+00  4.53975E+00  3.46899E+00  1.31847E+00  5.18605E+00  8.71085E-01  2.34754E+00
   2.89445E+00  2.03269E+00  3.43612E-02  4.54271E-01  1.15482E+00  1.55473E+00  5.67310E-01  2.93169E+00  7.70056E-01  1.60882E+00
   5.32641E+00  3.65796E+00  4.09113E+00  2.36040E+00  3.38153E+00  5.62205E+00  2.66514E+00  4.63065E+00  2.95965E+00  3.46838E+00
   5.18048E+00  5.06827E+00  5.19842E+00  3.93583E+00  4.52775E+00  5.46761E+00  5.97392E+00  3.97341E+00  4.39140E+00  4.93745E+00
   4.18479E+00  3.75108E+00  4.70679E+00  1.25459E+00  4.16822E+00  3.95009E+00  3.40257E+00  4.82503E+00  3.01997E+00  4.69019E+00
   2.61686E+00  1.38135E+00  6.84056E-01  2.00866E+00  8.53356E-01  2.27527E+00  3.44696E+00  4.14783E+00  1.64048E+00  3.38498E+00
   2.16973E+00  2.05083E+00  2.55088E-01  1.42163E+00  1.80453E+00  3.05622E+00  2.55637E+00  2.11715E+00 -2.68684E-01  9.93761E-01
   1.91743E+00  1.42724E+00  3.40670E+00  5.27208E-01  2.10017E+00  1.74795E+00  1.22857E+00  3.33251E-01  9.05234E-01  3.06234E-01
   2.41898E+00  2.52881E+00  2.41774E+00  2.27277E+00  1.93490E+00  1.64406E+00 -5.06840E-02  3.47185E-01 -7.37406E-01  1.02659E+00
   1.99160E+00  7.79507E-01  1.30023E+00 -5.89936E-01  1.31094E+00 -4.80201E-01  1.82416E+00  5.94143E-01  8.18631E-01  5.79229E-01
   2.58915E+00 -5.96940E-02  4.93124E-01  1.43069E+00 -4.51407E-01 -7.93137E-01  1.06094E+00 -5.53973E-01  9.97039E-01  8.50671E-01
  -7.57672E-01 -3.80814E-01 -6.36422E-01  2.63469E+00  5.37909E-01  3.06784E+00  1.26288E+00  1.98505E+00  8.89867E-01  6.30379E-01
   3.55638E-02  7.37240E-01  6.78938E-01 -1.77635E-01  3.14750E-01  1.38117E+00  1.25962E+00  2.68718E-01
 NY points of the fit to the data follow
   4.34402E+00  4.13128E+00  4.20586E+00  4.53151E+00  5.01296E+00  5.60887E+00  6.38973E+00  7.42608E+00  8.67830E+00  9.94062E+00
   1.09145E+01  1.13810E+01  1.12712E+01  1.06644E+01  9.74535E+00  8.72542E+00  7.79248E+00  7.05361E+00  6.49175E+00  6.08371E+00
   5.81712E+00  5.65483E+00  5.64409E+00  5.70788E+00  5.81676E+00  6.00234E+00  6.34601E+00  6.91683E+00  7.69139E+00  8.56639E+00
   9.38200E+00  9.96449E+00  1.01723E+01  9.91387E+00  9.20453E+00  8.19585E+00  7.10394E+00  6.13307E+00  5.43257E+00  5.13730E+00
   5.25569E+00  5.62271E+00  6.10395E+00  6.62469E+00  7.16814E+00  7.70443E+00  8.14528E+00  8.39010E+00  8.36200E+00  8.04491E+00
   7.49890E+00  6.83788E+00  6.19543E+00  5.67931E+00  5.33627E+00  5.15625E+00  5.11951E+00  5.20551E+00  5.36658E+00  5.52914E+00
   5.62602E+00  5.61729E+00  5.49578E+00  5.29237E+00  5.07077E+00  4.88858E+00  4.78319E+00  4.76531E+00  4.82470E+00  4.94188E+00
   5.08285E+00  5.20715E+00  5.28397E+00  5.29883E+00  5.25790E+00  5.17827E+00  5.08136E+00  4.99258E+00  4.94343E+00  4.93463E+00
   4.93234E+00  4.92678E+00  4.93753E+00  4.97083E+00  5.00521E+00  5.00035E+00  4.92407E+00  4.77496E+00  4.59028E+00  4.41744E+00
   4.29217E+00  4.23929E+00  4.26736E+00  4.37164E+00  4.62250E+00  5.29517E+00  6.29620E+00  7.40047E+00  8.66332E+00  1.03404E+01
   1.25633E+01  1.51023E+01  1.73782E+01  1.87504E+01  1.88725E+01  1.77742E+01  1.57660E+01  1.33173E+01  1.09060E+01  8.89261E+00
   7.41532E+00  6.39891E+00  5.75490E+00  5.48727E+00  5.42198E+00  5.41445E+00  5.43768E+00  5.49845E+00  5.68532E+00  6.40542E+00
   7.78735E+00  9.46946E+00  1.13874E+01  1.38148E+01  1.69913E+01  2.07304E+01  2.43065E+01  2.67551E+01  2.74438E+01  2.63094E+01
   2.37147E+01  2.02777E+01  1.66586E+01  1.34007E+01  1.07972E+01  8.84885E+00  7.47144E+00  6.73110E+00  6.51995E+00  6.55639E+00
   6.70882E+00  6.87845E+00  6.99220E+00  7.02199E+00  6.96522E+00  6.83813E+00  6.67178E+00  6.49345E+00  6.32589E+00  6.18178E+00
   6.05860E+00  5.95759E+00  5.86686E+00  5.76104E+00  5.65312E+00  5.57221E+00  5.52290E+00  5.48707E+00  5.40914E+00  5.26014E+00
   5.08076E+00  4.94275E+00  4.88561E+00  4.89806E+00  4.92657E+00  4.90535E+00  4.79468E+00  4.58356E+00  4.28897E+00  3.97652E+00
   3.72408E+00  3.53329E+00  3.36426E+00  3.17058E+00  2.97193E+00  2.84555E+00  2.83109E+00  2.90355E+00  3.00684E+00  3.08511E+00
   3.14792E+00  3.24523E+00  3.39629E+00  3.59850E+00  3.86287E+00  4.20483E+00  4.63944E+00  5.18827E+00  5.82829E+00  6.47768E+00
   7.01391E+00  7.34073E+00  7.42895E+00  7.32189E+00  7.10004E+00  6.87095E+00  6.76392E+00  6.85611E+00  7.17385E+00  7.67841E+00
   8.27591E+00  8.84127E+00  9.22244E+00  9.35282E+00  9.15578E+00  8.55057E+00  7.58255E+00  6.44837E+00  5.45522E+00  4.83120E+00
   4.67970E+00  5.06687E+00  5.99018E+00  7.30797E+00  8.69153E+00  9.74584E+00  1.02181E+01  1.00311E+01  9.19943E+00  7.85996E+00
   6.30751E+00  4.98741E+00  4.26973E+00  4.29171E+00  4.98387E+00  6.14873E+00  7.52619E+00  8.78554E+00  9.67897E+00  1.01792E+01
   1.03650E+01  1.03604E+01  1.02791E+01  1.02230E+01  1.02625E+01  1.03999E+01  1.06001E+01  1.08041E+01  1.09183E+01  1.08587E+01
   1.06245E+01  1.02911E+01  9.99719E+00  9.87824E+00  9.99386E+00  1.03294E+01  1.08249E+01  1.14465E+01  1.22272E+01  1.30939E+01
   1.39949E+01  1.51704E+01  1.74318E+01  2.10902E+01  2.53496E+01  2.97544E+01  3.44850E+01  3.98467E+01  4.55615E+01  5.05435E+01
   5.33218E+01  5.29247E+01  4.93323E+01  4.32572E+01  3.58259E+01  2.83210E+01  2.18408E+01  1.68868E+01  1.33430E+01  1.09038E+01
   9.51958E+00  8.94220E+00  8.64974E+00  8.46229E+00  8.32156E+00  8.18826E+00  8.03637E+00  7.86304E+00  7.67195E+00  7.47615E+00
   7.29284E+00  7.13414E+00  7.00088E+00  6.88905E+00  6.79523E+00  6.71301E+00  6.63448E+00  6.55559E+00  6.47941E+00  6.41251E+00
   6.35898E+00  6.31827E+00  6.28907E+00  6.26858E+00  6.25172E+00  6.23301E+00  6.20962E+00  6.18133E+00  6.15013E+00  6.11903E+00
   6.08969E+00  6.06238E+00  6.03677E+00  6.01090E+00  5.98215E+00  5.94860E+00  5.90929E+00  5.86464E+00  5.81550E+00  5.76295E+00
   5.70871E+00  5.65458E+00  5.60194E+00  5.55239E+00  5.50740E+00  5.46843E+00  5.43673E+00  5.41357E+00  5.39994E+00  5.39680E+00
   5.40471E+00  5.42404E+00  5.45470E+00  5.49643E+00  5.54853E+00  5.61010E+00  5.67979E+00  5.75599E+00  5.83668E+00  5.91977E+00
   6.00293E+00  6.08389E+00  6.16033E+00  6.23019E+00  6.29175E+00  6.34415E+00  6.38762E+00  6.42472E+00  6.46313E+00  6.52014E+00
   6.58017E+00  6.60125E+00  6.58523E+00  6.54871E+00  6.48279E+00  6.33911E+00  6.05744E+00  5.63998E+00  5.13400E+00  4.58942E+00
   4.07533E+00  3.68129E+00  3.48893E+00  3.53025E+00  3.76242E+00  4.08124E+00  4.38023E+00  4.59386E+00  4.68062E+00  4.63090E+00
   4.48397E+00  4.29107E+00  4.09489E+00  3.91462E+00  3.75372E+00  3.62548E+00  3.53016E+00  3.45280E+00  3.38612E+00  3.32685E+00
   3.27317E+00  3.22416E+00  3.17923E+00  3.13821E+00  3.10105E+00  3.06800E+00  3.03928E+00  3.01535E+00  2.99657E+00  2.98351E+00
   2.97668E+00  2.97673E+00  2.98427E+00  2.99999E+00  3.02450E+00  3.05849E+00  3.10257E+00  3.15736E+00  3.22328E+00  3.30068E+00
   3.38959E+00  3.48990E+00  3.60110E+00  3.72238E+00  3.85238E+00  3.98937E+00  4.13106E+00  4.27481E+00  4.41747E+00  4.55561E+00
   4.68546E+00  4.80323E+00  4.90510E+00  4.98755E+00  5.04737E+00  5.08194E+00  5.08925E+00  5.06816E+00  5.01834E+00  4.94040E+00
   4.83574E+00  4.70660E+00  4.55581E+00  4.38681E+00  4.20333E+00  4.00936E+00  3.80880E+00  3.60547E+00  3.40281E+00  3.20397E+00
   3.01156E+00  2.82774E+00  2.65405E+00  2.49161E+00  2.34101E+00  2.20253E+00  2.07602E+00  1.96111E+00  1.85717E+00  1.76348E+00
   1.67917E+00  1.60344E+00  1.53539E+00  1.47422E+00  1.41907E+00  1.36926E+00  1.32409E+00  1.28302E+00  1.24548E+00  1.21105E+00
   1.17927E+00  1.14985E+00  1.12245E+00  1.09687E+00  1.07283E+00  1.05019E+00  1.02872E+00  1.00834E+00  9.88894E-01  9.70324E-01
   9.52482E-01  9.35325E-01  9.18736E-01  9.02717E-01  8.87178E-01  8.72120E-01  8.57442E-01  8.43152E-01  8.29178E-01  8.15553E-01
   8.02208E-01  7.89159E-01  7.76330E-01  7.63750E-01  7.51369E-01  7.39228E-01  7.27264E-01  7.15502E-01  7.03875E-01  6.92427E-01
   6.81115E-01  6.69984E-01  6.58972E-01  6.48110E-01  6.37344E-01  6.26726E-01  6.16213E-01  6.05848E-01  5.95569E-01  5.85410E-01
   5.75328E-01  5.65377E-01  5.55518E-01  5.45789E-01  5.36131E-01  5.26589E-01  5.17125E-01  5.07800E-01  4.98568E-01  4.89469E-01
   4.80450E-01  4.71565E-01  4.62787E-01  4.54176E-01  4.45691E-01  4.37375E-01  4.29192E-01  4.21212E-01
 NY background values follow
     3.455E+00    3.462E+00    3.469E+00    3.477E+00    3.484E+00    3.491E+00    3.499E+00    3.506E+00    3.513E+00    3.521E+00
     3.528E+00    3.535E+00    3.543E+00    3.550E+00    3.557E+00    3.565E+00    3.572E+00    3.580E+00    3.587E+00    3.594E+00
     3.602E+00    3.609E+00    3.617E+00    3.625E+00    3.632E+00    3.640E+00    3.647E+00    3.655E+00    3.663E+00    3.671E+00
     3.678E+00    3.686E+00    3.694E+00    3.702E+00    3.710E+00    3.718E+00    3.726E+00    3.734E+00    3.743E+00    3.751E+00
     3.759E+00    3.767E+00    3.776E+00    3.784E+00    3.793E+00    3.801E+00    3.810E+00    3.819E+00    3.828E+00    3.836E+00
     3.845E+00    3.854E+00    3.864E+00    3.873E+00    3.882E+00    3.891E+00    3.901E+00    3.910E+00    3.920E+00    3.930E+00
     3.939E+00    3.949E+00    3.959E+00    3.969E+00    3.980E+00    3.990E+00    4.000E+00    4.011E+00    4.022E+00    4.033E+00
     4.043E+00    4.054E+00    4.066E+00    4.077E+00    4.088E+00    4.100E+00    4.112E+00    4.123E+00    4.135E+00    4.147E+00
     4.160E+00    4.172E+00    4.185E+00    4.197E+00    4.210E+00    4.223E+00    4.236E+00    4.250E+00    4.263E+00    4.277E+00
     4.291E+00    4.305E+00    4.319E+00    4.333E+00    4.348E+00    4.362E+00    4.377E+00    4.392E+00    4.407E+00    4.422E+00
     4.437E+00    4.453E+00    4.468E+00    4.484E+00    4.500E+00    4.516E+00    4.532E+00    4.548E+00    4.564E+00    4.581E+00
     4.597E+00    4.614E+00    4.630E+00    4.647E+00    4.664E+00    4.680E+00    4.697E+00    4.714E+00    4.731E+00    4.748E+00
     4.765E+00    4.783E+00    4.800E+00    4.817E+00    4.834E+00    4.852E+00    4.869E+00    4.886E+00    4.903E+00    4.921E+00
     4.938E+00    4.956E+00    4.973E+00    4.990E+00    5.008E+00    5.025E+00    5.042E+00    5.059E+00    5.077E+00    5.094E+00
     5.111E+00    5.128E+00    5.145E+00    5.163E+00    5.180E+00    5.197E+00    5.214E+00    5.231E+00    5.248E+00    5.265E+00
     5.282E+00    5.298E+00    5.315E+00    5.332E+00    5.349E+00    5.366E+00    5.382E+00    5.399E+00    5.416E+00    5.432E+00
     5.449E+00    5.465E+00    5.482E+00    5.498E+00    5.514E+00    5.531E+00    5.547E+00    5.563E+00    5.580E+00    5.596E+00
     5.612E+00    5.628E+00    5.644E+00    5.660E+00    5.676E+00    5.692E+00    5.708E+00    5.723E+00    5.739E+00    5.755E+00
     5.770E+00    5.786E+00    5.801E+00    5.817E+00    5.832E+00    5.847E+00    5.863E+00    5.878E+00    5.893E+00    5.907E+00
     5.922E+00    5.936E+00    5.951E+00    5.965E+00    5.978E+00    5.992E+00    6.005E+00    6.018E+00    6.031E+00    6.044E+00
     6.056E+00    6.068E+00    6.080E+00    6.091E+00    6.102E+00    6.113E+00    6.123E+00    6.133E+00    6.143E+00    6.152E+00
     6.160E+00    6.169E+00    6.177E+00    6.184E+00    6.191E+00    6.197E+00    6.203E+00    6.209E+00    6.214E+00    6.218E+00
     6.222E+00    6.225E+00    6.228E+00    6.230E+00    6.232E+00    6.233E+00    6.233E+00    6.233E+00    6.232E+00    6.230E+00
     6.228E+00    6.226E+00    6.222E+00    6.218E+00    6.214E+00    6.208E+00    6.203E+00    6.196E+00    6.189E+00    6.182E+00
     6.174E+00    6.165E+00    6.156E+00    6.146E+00    6.136E+00    6.125E+00    6.113E+00    6.101E+00    6.089E+00    6.076E+00
     6.062E+00    6.048E+00    6.033E+00    6.018E+00    6.003E+00    5.986E+00    5.970E+00    5.952E+00    5.935E+00    5.916E+00
     5.898E+00    5.878E+00    5.859E+00    5.838E+00    5.818E+00    5.797E+00    5.775E+00    5.753E+00    5.730E+00    5.707E+00
     5.684E+00    5.660E+00    5.636E+00    5.611E+00    5.586E+00    5.560E+00    5.534E+00    5.508E+00    5.481E+00    5.454E+00
     5.426E+00    5.398E+00    5.370E+00    5.341E+00    5.312E+00    5.283E+00    5.253E+00    5.223E+00    5.193E+00    5.162E+00
     5.132E+00    5.100E+00    5.069E+00    5.037E+00    5.005E+00    4.973E+00    4.941E+00    4.908E+00    4.875E+00    4.842E+00
     4.808E+00    4.775E+00    4.741E+00    4.707E+00    4.673E+00    4.639E+00    4.604E+00    4.570E+00    4.535E+00    4.500E+00
     4.465E+00    4.430E+00    4.395E+00    4.360E+00    4.324E+00    4.289E+00    4.253E+00    4.217E+00    4.182E+00    4.146E+00
     4.110E+00    4.074E+00    4.038E+00    4.003E+00    3.967E+00    3.931E+00    3.895E+00    3.859E+00    3.823E+00    3.787E+00
     3.752E+00    3.716E+00    3.680E+00    3.644E+00    3.609E+00    3.573E+00    3.538E+00    3.502E+00    3.467E+00    3.432E+00
     3.397E+00    3.362E+00    3.327E+00    3.292E+00    3.258E+00    3.224E+00    3.189E+00    3.155E+00    3.121E+00    3.088E+00
     3.054E+00    3.021E+00    2.988E+00    2.955E+00    2.922E+00    2.889E+00    2.857E+00    2.825E+00    2.793E+00    2.762E+00
     2.731E+00    2.700E+00    2.669E+00    2.638E+00    2.608E+00    2.578E+00    2.549E+00    2.520E+00    2.491E+00    2.462E+00
     2.433E+00    2.405E+00    2.377E+00    2.350E+00    2.322E+00    2.295E+00    2.269E+00    2.242E+00    2.216E+00    2.190E+00
     2.165E+00    2.139E+00    2.114E+00    2.090E+00    2.065E+00    2.041E+00    2.017E+00    1.993E+00    1.970E+00    1.947E+00
     1.924E+00    1.902E+00    1.880E+00    1.858E+00    1.836E+00    1.815E+00    1.794E+00    1.773E+00    1.753E+00    1.733E+00
     1.713E+00    1.693E+00    1.674E+00    1.655E+00    1.637E+00    1.618E+00    1.600E+00    1.582E+00    1.565E+00    1.548E+00
     1.531E+00    1.514E+00    1.498E+00    1.481E+00    1.466E+00    1.450E+00    1.435E+00    1.419E+00    1.405E+00    1.390E+00
     1.375E+00    1.361E+00    1.347E+00    1.333E+00    1.320E+00    1.306E+00    1.293E+00    1.280E+00    1.267E+00    1.254E+00
     1.242E+00    1.229E+00    1.217E+00    1.205E+00    1.193E+00    1.181E+00    1.170E+00    1.158E+00    1.147E+00    1.136E+00
     1.124E+00    1.113E+00    1.102E+00    1.091E+00    1.081E+00    1.070E+00    1.059E+00    1.049E+00    1.038E+00    1.028E+00
     1.018E+00    1.007E+00    9.970E-01    9.868E-01    9.766E-01    9.665E-01    9.564E-01    9.463E-01    9.363E-01    9.263E-01
     9.163E-01    9.064E-01    8.965E-01    8.867E-01    8.768E-01    8.670E-01    8.573E-01    8.475E-01    8.378E-01    8.282E-01
     8.185E-01    8.089E-01    7.993E-01    7.897E-01    7.801E-01    7.706E-01    7.611E-01    7.516E-01    7.421E-01    7.327E-01
     7.232E-01    7.138E-01    7.044E-01    6.950E-01    6.857E-01    6.763E-01    6.670E-01    6.576E-01    6.483E-01    6.390E-01
     6.297E-01    6.204E-01    6.111E-01    6.019E-01    5.926E-01    5.833E-01    5.741E-01    5.648E-01
 Cr       Conc. = 1.13E+02
