 LCModel (Version 6.3-1L) Copyright: S.W. Provencher.          Ref.: Magn. Reson. Med. 30:672-679 (1993).                
 Slice#1 Row#6 Col#5  PD_05_press_1_raw_act
 36 lines in following concentration table = NCONC+1
    Conc.  %SD /Cr+PCr  Metabolite                                         
  243.926  39%   0.329 Ala                                                 
    0.000 999%   0.000 Asp                                                 
  299.999  62%   0.404 Cr                                                  
  441.949  43%   0.596 PCr                                                 
   47.662 220% 6.4E-02 GABA                                                
  103.784 100%   0.140 Glc                                                 
  498.755  39%   0.672 Gln                                                 
 1.27E+03  18%   1.716 Glu                                                 
  356.928   5%   0.481 GPC                                                 
    0.000 999%   0.000 PCh                                                 
  344.150  18%   0.464 GSH                                                 
 1.03E+03  21%   1.395 Ins                                                 
    0.000 999%   0.000 Lac                                                 
 1.58E+03   6%   2.136 NAA                                                 
  182.031  61%   0.245 NAAG                                                
  101.606  22%   0.137 Scyllo                                              
  297.731  52%   0.401 Tau                                                 
  267.903  33%   0.361 -CrCH2                                              
  356.928   5%   0.481 GPC+PCh                                             
 1.77E+03   4%   2.381 NAA+NAAG                                            
  741.948   6%   1.000 Cr+PCr                                              
 1.77E+03  18%   2.388 Glu+Gln                                             
 1.59E+03  32%   2.147 Lip13a                                              
    0.000 999%   0.000 Lip13b                                              
  164.580 112%   0.222 Lip09                                               
 1.06E+03  20%   1.424 MM09                                                
  264.455  44%   0.356 Lip20                                               
 1.96E+03  16%   2.637 MM20                                                
  338.032  29%   0.456 MM12                                                
 1.47E+03  20%   1.980 MM14                                                
  593.339  29%   0.800 MM17                                                
 1.59E+03  32%   2.147 Lip13a+Lip13b                                       
 3.40E+03  13%   4.583 MM14+Lip13a+Lip13b+MM12                             
 1.22E+03  15%   1.646 MM09+Lip09                                          
 2.22E+03  13%   2.993 MM20+Lip20                                          
   6 lines in following misc. output table
  FWHM = 0.061 ppm    S/N =  10                                            
  Data shift =-0.008 ppm                                                   
  Ph: -48 deg      -4.4 deg/ppm                                            
  alphaB,S = 5.3E-01,   1.8E+02                                            
   14 spline knots.   Ns = 7(1)                                            
  ( 7) 4 infls.   ( 5) 1 extrs.                                            
  498 points on ppm-axis = NY
      4.000000     3.992357     3.984714     3.977070     3.969427     3.961784     3.954141     3.946497     3.938854     3.931211
      3.923568     3.915925     3.908281     3.900638     3.892995     3.885352     3.877708     3.870065     3.862422     3.854779
      3.847136     3.839492     3.831849     3.824206     3.816563     3.808919     3.801276     3.793633     3.785990     3.778347
      3.770703     3.763060     3.755417     3.747774     3.740130     3.732487     3.724844     3.717201     3.709558     3.701914
      3.694271     3.686628     3.678985     3.671341     3.663698     3.656055     3.648412     3.640769     3.633125     3.625482
      3.617839     3.610196     3.602552     3.594909     3.587266     3.579623     3.571980     3.564336     3.556693     3.549050
      3.541407     3.533763     3.526120     3.518477     3.510834     3.503191     3.495547     3.487904     3.480261     3.472618
      3.464974     3.457331     3.449688     3.442045     3.434402     3.426758     3.419115     3.411472     3.403829     3.396185
      3.388542     3.380899     3.373256     3.365613     3.357969     3.350326     3.342683     3.335040     3.327396     3.319753
      3.312110     3.304467     3.296824     3.289180     3.281537     3.273894     3.266251     3.258607     3.250964     3.243321
      3.235678     3.228034     3.220391     3.212748     3.205105     3.197462     3.189818     3.182175     3.174532     3.166889
      3.159245     3.151602     3.143959     3.136316     3.128673     3.121029     3.113386     3.105743     3.098100     3.090456
      3.082813     3.075170     3.067527     3.059884     3.052240     3.044597     3.036954     3.029311     3.021667     3.014024
      3.006381     2.998738     2.991095     2.983451     2.975808     2.968165     2.960522     2.952878     2.945235     2.937592
      2.929949     2.922306     2.914662     2.907019     2.899376     2.891733     2.884089     2.876446     2.868803     2.861160
      2.853517     2.845873     2.838230     2.830587     2.822944     2.815300     2.807657     2.800014     2.792371     2.784728
      2.777084     2.769441     2.761798     2.754155     2.746511     2.738868     2.731225     2.723582     2.715939     2.708295
      2.700652     2.693009     2.685366     2.677722     2.670079     2.662436     2.654793     2.647150     2.639506     2.631863
      2.624220     2.616577     2.608933     2.601290     2.593647     2.586004     2.578361     2.570717     2.563074     2.555431
      2.547788     2.540144     2.532501     2.524858     2.517215     2.509572     2.501928     2.494285     2.486642     2.478999
      2.471355     2.463712     2.456069     2.448426     2.440783     2.433139     2.425496     2.417853     2.410210     2.402566
      2.394923     2.387280     2.379637     2.371994     2.364350     2.356707     2.349064     2.341421     2.333777     2.326134
      2.318491     2.310848     2.303205     2.295561     2.287918     2.280275     2.272632     2.264988     2.257345     2.249702
      2.242059     2.234416     2.226772     2.219129     2.211486     2.203843     2.196199     2.188556     2.180913     2.173270
      2.165627     2.157983     2.150340     2.142697     2.135054     2.127410     2.119767     2.112124     2.104481     2.096838
      2.089194     2.081551     2.073908     2.066265     2.058621     2.050978     2.043335     2.035692     2.028049     2.020405
      2.012762     2.005119     1.997476     1.989833     1.982190     1.974546     1.966903     1.959260     1.951617     1.943974
      1.936331     1.928688     1.921045     1.913402     1.905759     1.898115     1.890472     1.882829     1.875186     1.867543
      1.859900     1.852257     1.844614     1.836971     1.829327     1.821684     1.814041     1.806398     1.798755     1.791112
      1.783469     1.775826     1.768183     1.760540     1.752896     1.745253     1.737610     1.729967     1.722324     1.714681
      1.707038     1.699395     1.691752     1.684108     1.676465     1.668822     1.661179     1.653536     1.645893     1.638250
      1.630607     1.622964     1.615321     1.607677     1.600034     1.592391     1.584748     1.577105     1.569462     1.561819
      1.554176     1.546533     1.538890     1.531246     1.523603     1.515960     1.508317     1.500674     1.493031     1.485388
      1.477745     1.470102     1.462458     1.454815     1.447172     1.439529     1.431886     1.424243     1.416600     1.408957
      1.401314     1.393671     1.386027     1.378384     1.370741     1.363098     1.355455     1.347812     1.340169     1.332526
      1.324883     1.317240     1.309596     1.301953     1.294310     1.286667     1.279024     1.271381     1.263738     1.256095
      1.248452     1.240808     1.233165     1.225522     1.217879     1.210236     1.202593     1.194950     1.187307     1.179664
      1.172021     1.164377     1.156734     1.149091     1.141448     1.133805     1.126162     1.118519     1.110876     1.103233
      1.095590     1.087946     1.080303     1.072660     1.065017     1.057374     1.049731     1.042088     1.034445     1.026802
      1.019158     1.011515     1.003872     0.996229     0.988586     0.980943     0.973300     0.965657     0.958014     0.950371
      0.942727     0.935084     0.927441     0.919798     0.912155     0.904512     0.896869     0.889226     0.881583     0.873940
      0.866296     0.858653     0.851010     0.843367     0.835724     0.828081     0.820438     0.812795     0.805152     0.797508
      0.789865     0.782222     0.774579     0.766936     0.759293     0.751650     0.744007     0.736364     0.728721     0.721077
      0.713434     0.705791     0.698148     0.690505     0.682862     0.675219     0.667576     0.659933     0.652290     0.644646
      0.637003     0.629360     0.621717     0.614074     0.606431     0.598788     0.591145     0.583502     0.575858     0.568215
      0.560572     0.552929     0.545286     0.537643     0.530000     0.522357     0.514714     0.507071     0.499427     0.491784
      0.484141     0.476498     0.468855     0.461212     0.453569     0.445925     0.438282     0.430639     0.422996     0.415353
      0.407710     0.400067     0.392424     0.384780     0.377137     0.369494     0.361851     0.354208     0.346565     0.338922
      0.331278     0.323635     0.315992     0.308349     0.300706     0.293063     0.285420     0.277777     0.270133     0.262490
      0.254847     0.247204     0.239561     0.231918     0.224275     0.216631     0.208988     0.201345
 NY phased data points follow
  -4.52444E+01 -4.23264E+01 -4.05733E+01 -4.02379E+01 -4.06639E+01 -3.53568E+01 -3.45338E+01 -3.36903E+01 -2.86059E+01 -2.79341E+01
  -2.57691E+01 -2.69974E+01 -2.86342E+01 -3.31244E+01 -3.46942E+01 -2.99952E+01 -3.55391E+01 -3.38044E+01 -3.84233E+01 -3.43568E+01
  -3.64287E+01 -3.59059E+01 -3.27168E+01 -2.87392E+01 -3.31425E+01 -3.04685E+01 -3.47533E+01 -2.55983E+01 -3.08751E+01 -2.90655E+01
  -2.50964E+01 -2.61126E+01 -2.65488E+01 -2.52369E+01 -2.97812E+01 -3.03694E+01 -2.87525E+01 -3.19023E+01 -3.22658E+01 -2.80779E+01
  -2.79473E+01 -2.82377E+01 -2.58341E+01 -2.41627E+01 -2.16766E+01 -2.17063E+01 -2.23007E+01 -2.51026E+01 -2.22502E+01 -2.50632E+01
  -2.30380E+01 -2.83060E+01 -2.66770E+01 -2.49472E+01 -2.61414E+01 -2.56747E+01 -2.43911E+01 -2.78714E+01 -2.25272E+01 -2.69000E+01
  -2.36388E+01 -2.63314E+01 -2.65468E+01 -2.69527E+01 -2.83505E+01 -3.01127E+01 -2.91660E+01 -2.67824E+01 -2.49758E+01 -2.46264E+01
  -2.52919E+01 -2.38360E+01 -2.41513E+01 -2.12274E+01 -2.35420E+01 -2.53740E+01 -2.03071E+01 -2.18678E+01 -2.19578E+01 -2.09200E+01
  -2.32757E+01 -1.84118E+01 -2.26944E+01 -2.23187E+01 -2.22419E+01 -2.26499E+01 -2.06056E+01 -2.05706E+01 -1.67366E+01 -1.53035E+01
  -1.71349E+01 -1.91456E+01 -1.86802E+01 -2.19360E+01 -1.72874E+01 -1.69383E+01 -1.36535E+01 -5.39309E+00 -8.16326E+00 -4.24348E+00
   1.17049E+00  3.46727E+00  1.35230E+01  9.09397E+00  7.57051E+00  5.89463E-01 -6.36785E+00 -1.33263E+01 -1.55508E+01 -1.60730E+01
  -1.70802E+01 -1.91109E+01 -1.69637E+01 -2.05300E+01 -1.50608E+01 -1.95141E+01 -2.01801E+01 -1.87183E+01 -1.86490E+01 -1.59118E+01
  -1.35717E+01 -1.06621E+01 -1.30894E+01 -4.37088E+00 -7.51059E+00  3.18590E+00  2.79264E+00  5.66783E+00  5.58128E+00  2.37589E+00
  -7.18085E+00 -8.13725E+00 -1.49381E+01 -1.66592E+01 -1.74129E+01 -2.07606E+01 -1.76976E+01 -1.57458E+01 -1.92529E+01 -2.04085E+01
  -1.87987E+01 -1.52940E+01 -1.87854E+01 -1.38434E+01 -1.67185E+01 -1.99969E+01 -1.32473E+01 -2.06366E+01 -1.38762E+01 -1.59712E+01
  -1.84751E+01 -1.96763E+01 -1.68281E+01 -1.74605E+01 -1.69991E+01 -1.50698E+01 -1.71270E+01 -1.93646E+01 -1.78567E+01 -1.85821E+01
  -1.90526E+01 -1.79234E+01 -1.84193E+01 -2.09762E+01 -1.99634E+01 -1.84335E+01 -2.28705E+01 -1.92986E+01 -1.88707E+01 -2.15225E+01
  -2.10647E+01 -2.58650E+01 -2.04539E+01 -1.96809E+01 -2.15254E+01 -2.46616E+01 -2.61048E+01 -2.42487E+01 -2.41887E+01 -2.13365E+01
  -2.43082E+01 -2.20714E+01 -2.25712E+01 -2.14504E+01 -1.99319E+01 -2.03961E+01 -1.72184E+01 -1.82583E+01 -1.53492E+01 -1.62686E+01
  -1.70140E+01 -1.72168E+01 -1.37891E+01 -1.16295E+01 -1.45638E+01 -1.84162E+01 -1.80272E+01 -1.87588E+01 -1.64989E+01 -1.54357E+01
  -1.62576E+01 -1.42966E+01 -1.37860E+01 -1.15379E+01 -1.18181E+01 -1.32898E+01 -9.77679E+00 -1.22723E+01 -1.35976E+01 -1.24080E+01
  -1.12173E+01 -1.40006E+01 -1.18541E+01 -7.03988E+00 -6.39715E+00 -5.69687E+00 -2.69167E+00 -2.47056E+00 -3.42688E+00 -7.50282E+00
  -1.17881E+01 -1.20869E+01 -1.21457E+01 -1.57149E+01 -1.84001E+01 -1.28752E+01 -6.68827E+00 -4.43699E+00 -4.66233E+00 -4.93107E+00
  -7.88106E+00 -6.74780E+00 -8.48240E+00 -9.66823E+00 -1.29499E+00 -2.55096E+00 -8.12861E+00 -8.24239E+00 -4.84867E+00 -2.76727E+00
  -4.89385E+00 -6.03217E+00 -9.57024E+00 -7.81424E+00 -4.78111E+00 -6.67539E+00 -1.37284E+00 -2.37322E+00 -3.62651E-01  5.21652E+00
   2.13112E+00  4.16364E+00  5.00262E+00  8.85935E+00  1.77695E+01  2.06248E+01  2.95717E+01  3.29875E+01  3.98828E+01  4.26800E+01
   4.79510E+01  5.01139E+01  4.76900E+01  3.03978E+01  1.64969E+01  4.27128E+00  8.29695E-01 -1.79698E+00 -4.29646E+00 -6.00413E+00
  -3.62303E+00 -4.27949E+00 -1.97017E+00 -6.60054E+00 -9.75176E-01 -4.23822E+00 -3.59907E+00 -5.71066E+00 -8.76132E+00 -8.17026E+00
  -1.03760E+01 -9.03732E+00 -6.86103E+00 -1.25235E+01 -7.42354E+00 -6.40821E+00 -5.34121E+00 -7.09471E+00 -6.82373E+00 -3.30101E+00
  -8.72761E+00 -9.27151E+00 -9.56622E+00 -8.37240E+00 -9.61558E+00 -9.91505E+00 -1.16480E+01 -1.13059E+01 -7.72960E+00 -4.27603E+00
  -6.34849E+00 -5.76172E+00 -9.97928E+00 -7.75469E+00 -9.26110E-01 -4.36770E+00 -5.79750E+00 -7.66237E+00 -5.41214E+00 -3.04964E+00
  -4.77501E+00 -3.07029E+00 -4.94332E+00  8.85682E-01 -6.30712E+00  2.93607E-01 -1.66538E+00 -2.37951E+00 -2.18431E+00 -2.70260E+00
  -3.55625E-01 -2.84679E+00 -6.42931E-01 -2.15966E+00 -1.63357E+00 -1.97406E+00 -5.14311E+00 -5.54780E+00 -4.28306E+00 -5.23157E+00
  -3.26188E+00 -3.20303E+00  1.86270E+00 -4.53177E+00 -5.32420E-02  1.39550E+00  5.32353E-01  5.68057E+00  1.81899E+00  2.63748E+00
   6.31379E+00  7.69531E+00  1.07166E+01  8.04108E+00  6.56687E+00  5.29472E+00  7.07945E+00  9.21501E+00  5.51541E+00  5.40305E+00
   4.37851E+00  8.74797E+00  7.94473E+00  4.42336E+00  6.06493E-03  1.08884E+00  1.75869E+00 -3.59289E+00 -2.23630E+00 -2.11923E+00
  -3.71497E+00 -4.72605E+00  2.93724E+00 -6.81843E+00 -2.73611E+00  1.89045E+00  2.54029E-01 -1.23386E+00 -3.43991E+00 -1.24015E+00
  -2.93290E+00 -3.37440E+00 -3.73067E+00 -3.34430E+00 -4.43884E+00 -7.02665E+00 -7.67461E+00 -8.28560E+00 -9.29903E+00 -7.62552E+00
  -4.02919E+00 -1.06799E+01 -6.54983E+00 -7.92262E+00 -1.03666E+01 -5.01090E+00 -8.30595E+00 -9.43722E+00 -6.95633E+00 -6.90405E+00
  -7.04554E+00 -1.14574E+01 -1.17173E+01 -7.33945E+00 -5.60567E+00 -4.80472E+00 -7.73723E+00 -1.07164E+01 -7.17588E+00 -9.28318E+00
  -6.16234E+00 -7.28804E+00 -4.09389E+00 -3.12989E+00 -1.83200E+00 -1.85540E+00 -1.84801E+00 -3.91774E+00 -5.85861E+00  8.07952E-01
   2.05272E+00 -1.64602E+00 -1.74478E-01 -1.83306E+00 -2.88043E+00 -2.99825E+00 -2.37452E+00 -3.98527E+00 -8.50684E+00 -6.25595E+00
  -7.29587E+00 -6.08313E+00 -8.85415E+00 -1.02767E+01 -5.52489E+00 -9.70736E+00 -8.00241E+00 -6.19490E+00 -7.19300E+00 -1.03658E+01
  -6.03012E+00 -9.80763E+00 -8.67538E+00 -1.01959E+01 -9.53386E+00 -6.89506E+00 -1.06629E+01 -8.55777E+00 -1.21075E+01 -6.20539E+00
  -1.28099E+01 -7.45417E+00 -1.19275E+01 -9.10521E+00 -1.12020E+01 -8.74200E+00 -1.33884E+01 -1.25990E+01 -8.02678E+00 -1.41078E+01
  -9.48091E+00 -1.00679E+01 -9.24001E+00 -1.04951E+01 -1.02881E+01 -9.42636E+00 -7.12506E+00 -5.21336E+00 -1.00277E+01 -1.00162E+01
  -8.90206E+00 -8.61848E+00 -9.98504E+00 -1.06856E+01 -6.40262E+00 -7.58603E+00 -9.66227E+00 -8.31067E+00 -1.19377E+01 -6.51471E+00
  -7.53714E+00 -1.20681E+01 -2.92851E+00 -5.81859E+00 -1.62307E+00 -1.07439E+01 -7.07235E+00 -9.38076E+00 -6.58545E+00 -8.27090E+00
  -7.18408E+00 -6.98314E+00 -9.39647E+00 -6.03527E+00 -8.19334E+00 -8.87372E+00 -1.13368E+01 -1.13423E+01 -6.57368E+00 -1.16992E+01
  -8.51634E+00 -6.20672E+00 -9.39837E+00 -1.04859E+01 -8.84704E+00 -8.62294E+00 -9.87170E+00 -8.56711E+00
 NY points of the fit to the data follow
  -4.04444E+01 -4.01860E+01 -3.95109E+01 -3.84448E+01 -3.69289E+01 -3.51772E+01 -3.34315E+01 -3.17554E+01 -3.01842E+01 -2.88390E+01
  -2.79715E+01 -2.78516E+01 -2.85756E+01 -2.99661E+01 -3.16247E+01 -3.31072E+01 -3.41581E+01 -3.47580E+01 -3.49756E+01 -3.49677E+01
  -3.47913E+01 -3.45675E+01 -3.42568E+01 -3.35929E+01 -3.27761E+01 -3.19364E+01 -3.09977E+01 -2.98348E+01 -2.84158E+01 -2.69105E+01
  -2.55563E+01 -2.46773E+01 -2.45525E+01 -2.51850E+01 -2.62780E+01 -2.75469E+01 -2.88474E+01 -3.01128E+01 -3.10708E+01 -3.12918E+01
  -3.06348E+01 -2.93319E+01 -2.77475E+01 -2.61556E+01 -2.47225E+01 -2.35553E+01 -2.27679E+01 -2.25429E+01 -2.30511E+01 -2.42660E+01
  -2.58727E+01 -2.73522E+01 -2.82850E+01 -2.85888E+01 -2.83814E+01 -2.78708E+01 -2.72383E+01 -2.66138E+01 -2.60750E+01 -2.56590E+01
  -2.54175E+01 -2.54278E+01 -2.56590E+01 -2.59822E+01 -2.61872E+01 -2.61352E+01 -2.58212E+01 -2.53413E+01 -2.47767E+01 -2.41701E+01
  -2.36263E+01 -2.32223E+01 -2.29599E+01 -2.28174E+01 -2.27643E+01 -2.27468E+01 -2.27576E+01 -2.28529E+01 -2.30591E+01 -2.32736E+01
  -2.31656E+01 -2.27507E+01 -2.21891E+01 -2.15569E+01 -2.08845E+01 -2.02051E+01 -1.96139E+01 -1.92729E+01 -1.93037E+01 -1.97118E+01
  -2.03719E+01 -2.10016E+01 -2.13298E+01 -2.13027E+01 -2.07569E+01 -1.86652E+01 -1.49019E+01 -1.06982E+01 -6.51360E+00 -2.19430E+00
   2.29945E+00  6.53567E+00  9.49934E+00  9.91495E+00  7.02086E+00  1.31716E+00 -5.49819E+00 -1.15505E+01 -1.58351E+01 -1.84094E+01
  -1.97877E+01 -2.03429E+01 -2.04539E+01 -2.04497E+01 -2.03941E+01 -2.02921E+01 -2.01439E+01 -1.99172E+01 -1.95061E+01 -1.83826E+01
  -1.58526E+01 -1.26704E+01 -9.48594E+00 -6.29980E+00 -2.94737E+00  4.72674E-01  3.43256E+00  4.97861E+00  4.15631E+00  8.32466E-01
  -4.03612E+00 -8.97951E+00 -1.28927E+01 -1.55327E+01 -1.72213E+01 -1.82778E+01 -1.88549E+01 -1.90962E+01 -1.89899E+01 -1.85590E+01
  -1.79495E+01 -1.73604E+01 -1.69536E+01 -1.68162E+01 -1.69299E+01 -1.71855E+01 -1.74695E+01 -1.77193E+01 -1.79127E+01 -1.80474E+01
  -1.81351E+01 -1.81910E+01 -1.82224E+01 -1.82542E+01 -1.83463E+01 -1.84612E+01 -1.85377E+01 -1.85535E+01 -1.85181E+01 -1.85445E+01
  -1.86761E+01 -1.88341E+01 -1.89074E+01 -1.88473E+01 -1.87023E+01 -1.86001E+01 -1.86671E+01 -1.89321E+01 -1.93248E+01 -1.97577E+01
  -2.01126E+01 -2.02851E+01 -2.03283E+01 -2.03521E+01 -2.04497E+01 -2.05753E+01 -2.05983E+01 -2.04411E+01 -2.01586E+01 -1.98839E+01
  -1.97550E+01 -1.97081E+01 -1.95746E+01 -1.92446E+01 -1.87100E+01 -1.80355E+01 -1.72898E+01 -1.64793E+01 -1.55747E+01 -1.46414E+01
  -1.38611E+01 -1.34617E+01 -1.34784E+01 -1.38145E+01 -1.42873E+01 -1.46984E+01 -1.48674E+01 -1.46470E+01 -1.40349E+01 -1.31264E+01
  -1.20721E+01 -1.11105E+01 -1.04710E+01 -1.03635E+01 -1.07481E+01 -1.15422E+01 -1.27359E+01 -1.41270E+01 -1.53433E+01 -1.59679E+01
  -1.56926E+01 -1.46825E+01 -1.31361E+01 -1.12555E+01 -9.33902E+00 -7.81693E+00 -7.16782E+00 -7.58390E+00 -8.91485E+00 -1.08950E+01
  -1.30667E+01 -1.48513E+01 -1.58015E+01 -1.56782E+01 -1.45160E+01 -1.25630E+01 -1.02450E+01 -8.15259E+00 -6.73855E+00 -6.09818E+00
  -5.93872E+00 -5.96442E+00 -6.00234E+00 -5.87518E+00 -5.51237E+00 -5.04599E+00 -4.67248E+00 -4.47713E+00 -4.43298E+00 -4.54346E+00
  -4.84564E+00 -5.24231E+00 -5.50597E+00 -5.43487E+00 -4.95490E+00 -4.11211E+00 -3.02441E+00 -1.88966E+00 -8.24287E-01  2.96887E-01
   1.43435E+00  2.59682E+00  4.31997E+00  8.58436E+00  1.54302E+01  2.26362E+01  2.91915E+01  3.51710E+01  4.07581E+01  4.55357E+01
   4.83124E+01  4.73639E+01  4.15227E+01  3.15071E+01  1.99671E+01  9.81115E+00  2.51207E+00 -2.06302E+00 -4.70033E+00 -5.95669E+00
  -6.45570E+00 -6.72146E+00 -6.86795E+00 -6.92183E+00 -6.92242E+00 -6.92410E+00 -6.96601E+00 -7.07416E+00 -7.24837E+00 -7.45755E+00
  -7.66393E+00 -7.84247E+00 -7.97984E+00 -8.06969E+00 -8.11665E+00 -8.13313E+00 -8.13395E+00 -8.12892E+00 -8.11903E+00 -8.09970E+00
  -8.06549E+00 -8.01106E+00 -7.93484E+00 -7.83769E+00 -7.72210E+00 -7.59015E+00 -7.44175E+00 -7.27441E+00 -7.08556E+00 -6.87353E+00
  -6.63789E+00 -6.37990E+00 -6.10413E+00 -5.81767E+00 -5.52837E+00 -5.24355E+00 -4.96974E+00 -4.71268E+00 -4.47735E+00 -4.26725E+00
  -4.08507E+00 -3.93243E+00 -3.80935E+00 -3.71373E+00 -3.64104E+00 -3.58375E+00 -3.53096E+00 -3.46714E+00 -3.36850E+00 -3.19012E+00
  -2.87209E+00 -2.53439E+00 -2.31576E+00 -2.19310E+00 -2.12166E+00 -2.11952E+00 -2.26965E+00 -2.66182E+00 -3.18909E+00 -3.61530E+00
  -3.78627E+00 -3.55278E+00 -2.82805E+00 -1.64371E+00 -1.22655E-01  1.56702E+00  3.21027E+00  4.54408E+00  5.39468E+00  5.78135E+00
   5.86283E+00  5.81741E+00  5.74735E+00  5.67548E+00  5.60694E+00  5.53186E+00  5.42089E+00  5.26139E+00  5.05058E+00  4.78982E+00
   4.48251E+00  4.13304E+00  3.74624E+00  3.32705E+00  2.88032E+00  2.41063E+00  1.92216E+00  1.41879E+00  9.04103E-01  3.81534E-01
  -1.45621E-01 -6.74160E-01 -1.20101E+00 -1.72313E+00 -2.23751E+00 -2.74115E+00 -3.23115E+00 -3.70478E+00 -4.15958E+00 -4.59326E+00
  -5.00383E+00 -5.38949E+00 -5.74883E+00 -6.08074E+00 -6.38444E+00 -6.65939E+00 -6.90525E+00 -7.12183E+00 -7.30912E+00 -7.46723E+00
  -7.59631E+00 -7.69645E+00 -7.76767E+00 -7.80990E+00 -7.82298E+00 -7.80664E+00 -7.76052E+00 -7.68408E+00 -7.57674E+00 -7.43795E+00
  -7.26733E+00 -7.06471E+00 -6.83028E+00 -6.56469E+00 -6.26926E+00 -5.94613E+00 -5.59845E+00 -5.23038E+00 -4.84717E+00 -4.45514E+00
  -4.06169E+00 -3.67515E+00 -3.30455E+00 -2.95927E+00 -2.64873E+00 -2.38197E+00 -2.16731E+00 -2.01188E+00 -1.92133E+00 -1.89943E+00
  -1.94786E+00 -2.06616E+00 -2.25173E+00 -2.49995E+00 -2.80440E+00 -3.15717E+00 -3.54926E+00 -3.97104E+00 -4.41274E+00 -4.86475E+00
  -5.31805E+00 -5.76444E+00 -6.19687E+00 -6.60949E+00 -6.99782E+00 -7.35861E+00 -7.68980E+00 -7.99041E+00 -8.26038E+00 -8.50048E+00
  -8.71202E+00 -8.89674E+00 -9.05664E+00 -9.19384E+00 -9.31056E+00 -9.40895E+00 -9.49111E+00 -9.55893E+00 -9.61415E+00 -9.65832E+00
  -9.69287E+00 -9.71905E+00 -9.73795E+00 -9.75048E+00 -9.75743E+00 -9.75950E+00 -9.75731E+00 -9.75140E+00 -9.74220E+00 -9.73007E+00
  -9.71535E+00 -9.69831E+00 -9.67924E+00 -9.65836E+00 -9.63584E+00 -9.61181E+00 -9.58642E+00 -9.55981E+00 -9.53210E+00 -9.50340E+00
  -9.47377E+00 -9.44328E+00 -9.41201E+00 -9.38004E+00 -9.34744E+00 -9.31425E+00 -9.28050E+00 -9.24624E+00 -9.21152E+00 -9.17639E+00
  -9.14089E+00 -9.10504E+00 -9.06885E+00 -9.03236E+00 -8.99559E+00 -8.95861E+00 -8.92141E+00 -8.88400E+00 -8.84640E+00 -8.80864E+00
  -8.77075E+00 -8.73275E+00 -8.69465E+00 -8.65645E+00 -8.61815E+00 -8.57979E+00 -8.54138E+00 -8.50294E+00 -8.46446E+00 -8.42594E+00
  -8.38738E+00 -8.34881E+00 -8.31025E+00 -8.27168E+00 -8.23308E+00 -8.19444E+00 -8.15577E+00 -8.11707E+00
 NY background values follow
    -4.351E+01   -4.327E+01   -4.304E+01   -4.280E+01   -4.257E+01   -4.233E+01   -4.210E+01   -4.186E+01   -4.163E+01   -4.139E+01
    -4.116E+01   -4.093E+01   -4.069E+01   -4.046E+01   -4.022E+01   -3.999E+01   -3.976E+01   -3.953E+01   -3.929E+01   -3.906E+01
    -3.883E+01   -3.860E+01   -3.837E+01   -3.814E+01   -3.791E+01   -3.768E+01   -3.745E+01   -3.722E+01   -3.700E+01   -3.677E+01
    -3.654E+01   -3.632E+01   -3.609E+01   -3.587E+01   -3.565E+01   -3.543E+01   -3.521E+01   -3.498E+01   -3.477E+01   -3.455E+01
    -3.433E+01   -3.411E+01   -3.390E+01   -3.368E+01   -3.347E+01   -3.326E+01   -3.305E+01   -3.284E+01   -3.263E+01   -3.242E+01
    -3.221E+01   -3.201E+01   -3.180E+01   -3.160E+01   -3.140E+01   -3.120E+01   -3.100E+01   -3.080E+01   -3.060E+01   -3.041E+01
    -3.021E+01   -3.002E+01   -2.983E+01   -2.964E+01   -2.945E+01   -2.927E+01   -2.908E+01   -2.890E+01   -2.872E+01   -2.854E+01
    -2.836E+01   -2.818E+01   -2.800E+01   -2.783E+01   -2.766E+01   -2.749E+01   -2.732E+01   -2.715E+01   -2.698E+01   -2.682E+01
    -2.666E+01   -2.650E+01   -2.634E+01   -2.618E+01   -2.603E+01   -2.587E+01   -2.572E+01   -2.557E+01   -2.542E+01   -2.528E+01
    -2.514E+01   -2.499E+01   -2.485E+01   -2.472E+01   -2.458E+01   -2.445E+01   -2.431E+01   -2.418E+01   -2.406E+01   -2.393E+01
    -2.380E+01   -2.368E+01   -2.356E+01   -2.344E+01   -2.332E+01   -2.321E+01   -2.309E+01   -2.298E+01   -2.287E+01   -2.276E+01
    -2.265E+01   -2.254E+01   -2.244E+01   -2.233E+01   -2.223E+01   -2.213E+01   -2.203E+01   -2.193E+01   -2.184E+01   -2.174E+01
    -2.165E+01   -2.155E+01   -2.146E+01   -2.137E+01   -2.128E+01   -2.120E+01   -2.111E+01   -2.103E+01   -2.094E+01   -2.086E+01
    -2.078E+01   -2.070E+01   -2.062E+01   -2.054E+01   -2.046E+01   -2.039E+01   -2.031E+01   -2.024E+01   -2.016E+01   -2.009E+01
    -2.002E+01   -1.995E+01   -1.988E+01   -1.981E+01   -1.974E+01   -1.967E+01   -1.960E+01   -1.954E+01   -1.947E+01   -1.940E+01
    -1.934E+01   -1.927E+01   -1.921E+01   -1.914E+01   -1.908E+01   -1.901E+01   -1.895E+01   -1.888E+01   -1.882E+01   -1.875E+01
    -1.869E+01   -1.862E+01   -1.856E+01   -1.849E+01   -1.843E+01   -1.836E+01   -1.829E+01   -1.823E+01   -1.816E+01   -1.809E+01
    -1.802E+01   -1.796E+01   -1.789E+01   -1.782E+01   -1.774E+01   -1.767E+01   -1.760E+01   -1.753E+01   -1.745E+01   -1.738E+01
    -1.730E+01   -1.722E+01   -1.714E+01   -1.706E+01   -1.698E+01   -1.690E+01   -1.682E+01   -1.674E+01   -1.665E+01   -1.657E+01
    -1.648E+01   -1.639E+01   -1.631E+01   -1.622E+01   -1.613E+01   -1.604E+01   -1.595E+01   -1.586E+01   -1.577E+01   -1.568E+01
    -1.559E+01   -1.550E+01   -1.541E+01   -1.532E+01   -1.523E+01   -1.514E+01   -1.504E+01   -1.495E+01   -1.486E+01   -1.477E+01
    -1.468E+01   -1.459E+01   -1.450E+01   -1.441E+01   -1.432E+01   -1.423E+01   -1.414E+01   -1.405E+01   -1.396E+01   -1.387E+01
    -1.379E+01   -1.370E+01   -1.361E+01   -1.353E+01   -1.344E+01   -1.336E+01   -1.328E+01   -1.320E+01   -1.312E+01   -1.304E+01
    -1.296E+01   -1.288E+01   -1.280E+01   -1.273E+01   -1.265E+01   -1.258E+01   -1.250E+01   -1.243E+01   -1.236E+01   -1.229E+01
    -1.222E+01   -1.215E+01   -1.208E+01   -1.201E+01   -1.195E+01   -1.188E+01   -1.182E+01   -1.175E+01   -1.169E+01   -1.163E+01
    -1.157E+01   -1.151E+01   -1.145E+01   -1.140E+01   -1.134E+01   -1.128E+01   -1.123E+01   -1.118E+01   -1.112E+01   -1.107E+01
    -1.102E+01   -1.097E+01   -1.092E+01   -1.088E+01   -1.083E+01   -1.078E+01   -1.074E+01   -1.069E+01   -1.065E+01   -1.061E+01
    -1.057E+01   -1.053E+01   -1.049E+01   -1.045E+01   -1.042E+01   -1.038E+01   -1.035E+01   -1.031E+01   -1.028E+01   -1.025E+01
    -1.022E+01   -1.019E+01   -1.016E+01   -1.013E+01   -1.011E+01   -1.008E+01   -1.005E+01   -1.003E+01   -1.001E+01   -9.985E+00
    -9.964E+00   -9.943E+00   -9.924E+00   -9.905E+00   -9.887E+00   -9.870E+00   -9.854E+00   -9.839E+00   -9.824E+00   -9.810E+00
    -9.798E+00   -9.786E+00   -9.775E+00   -9.764E+00   -9.755E+00   -9.746E+00   -9.738E+00   -9.731E+00   -9.725E+00   -9.719E+00
    -9.714E+00   -9.710E+00   -9.707E+00   -9.704E+00   -9.702E+00   -9.701E+00   -9.701E+00   -9.701E+00   -9.703E+00   -9.704E+00
    -9.707E+00   -9.710E+00   -9.714E+00   -9.718E+00   -9.723E+00   -9.729E+00   -9.735E+00   -9.742E+00   -9.750E+00   -9.758E+00
    -9.766E+00   -9.775E+00   -9.785E+00   -9.795E+00   -9.805E+00   -9.816E+00   -9.828E+00   -9.840E+00   -9.852E+00   -9.865E+00
    -9.878E+00   -9.892E+00   -9.906E+00   -9.920E+00   -9.935E+00   -9.950E+00   -9.965E+00   -9.981E+00   -9.997E+00   -1.001E+01
    -1.003E+01   -1.005E+01   -1.006E+01   -1.008E+01   -1.010E+01   -1.011E+01   -1.013E+01   -1.015E+01   -1.017E+01   -1.019E+01
    -1.020E+01   -1.022E+01   -1.024E+01   -1.026E+01   -1.028E+01   -1.030E+01   -1.032E+01   -1.033E+01   -1.035E+01   -1.037E+01
    -1.039E+01   -1.041E+01   -1.043E+01   -1.044E+01   -1.046E+01   -1.048E+01   -1.050E+01   -1.051E+01   -1.053E+01   -1.054E+01
    -1.056E+01   -1.058E+01   -1.059E+01   -1.060E+01   -1.062E+01   -1.063E+01   -1.064E+01   -1.066E+01   -1.067E+01   -1.068E+01
    -1.069E+01   -1.070E+01   -1.071E+01   -1.071E+01   -1.072E+01   -1.073E+01   -1.073E+01   -1.074E+01   -1.074E+01   -1.074E+01
    -1.074E+01   -1.074E+01   -1.074E+01   -1.074E+01   -1.074E+01   -1.074E+01   -1.073E+01   -1.073E+01   -1.072E+01   -1.071E+01
    -1.070E+01   -1.069E+01   -1.068E+01   -1.067E+01   -1.065E+01   -1.064E+01   -1.062E+01   -1.061E+01   -1.059E+01   -1.057E+01
    -1.055E+01   -1.053E+01   -1.051E+01   -1.049E+01   -1.047E+01   -1.044E+01   -1.042E+01   -1.039E+01   -1.037E+01   -1.034E+01
    -1.031E+01   -1.029E+01   -1.026E+01   -1.023E+01   -1.020E+01   -1.017E+01   -1.014E+01   -1.011E+01   -1.007E+01   -1.004E+01
    -1.001E+01   -9.975E+00   -9.941E+00   -9.907E+00   -9.873E+00   -9.838E+00   -9.802E+00   -9.766E+00   -9.730E+00   -9.694E+00
    -9.657E+00   -9.621E+00   -9.584E+00   -9.546E+00   -9.509E+00   -9.471E+00   -9.433E+00   -9.395E+00   -9.357E+00   -9.319E+00
    -9.281E+00   -9.242E+00   -9.203E+00   -9.165E+00   -9.126E+00   -9.087E+00   -9.048E+00   -9.009E+00   -8.969E+00   -8.930E+00
    -8.891E+00   -8.852E+00   -8.812E+00   -8.773E+00   -8.734E+00   -8.694E+00   -8.655E+00   -8.616E+00   -8.576E+00   -8.537E+00
    -8.498E+00   -8.459E+00   -8.420E+00   -8.381E+00   -8.342E+00   -8.303E+00   -8.265E+00   -8.226E+00   -8.188E+00   -8.150E+00
    -8.112E+00   -8.074E+00   -8.036E+00   -7.999E+00   -7.961E+00   -7.924E+00   -7.887E+00   -7.850E+00
 Ala      Conc. = 2.44E+02
