 LCModel (Version 6.3-1L) Copyright: S.W. Provencher.          Ref.: Magn. Reson. Med. 30:672-679 (1993).                
 Slice#1 Row#6 Col#11  PD_05_press_1_raw_act
 36 lines in following concentration table = NCONC+1
    Conc.  %SD /Cr+PCr  Metabolite                                         
   76.114 115%   0.116 Ala                                                 
    0.000 999%   0.000 Asp                                                 
   73.842 254%   0.113 Cr                                                  
  581.857  33%   0.887 PCr                                                 
    0.000 999%   0.000 GABA                                                
   53.387 183% 8.1E-02 Glc                                                 
  367.560  50%   0.561 Gln                                                 
 1.07E+03  19%   1.634 Glu                                                 
  208.343   8%   0.318 GPC                                                 
    0.000 999%   0.000 PCh                                                 
  160.909  35%   0.245 GSH                                                 
  480.243  38%   0.732 Ins                                                 
    0.000 999%   0.000 Lac                                                 
 1.75E+03   5%   2.669 NAA                                                 
  235.493  42%   0.359 NAAG                                                
   55.497  35% 8.5E-02 Scyllo                                              
  295.259  46%   0.450 Tau                                                 
  412.961  18%   0.630 -CrCH2                                              
  208.343   8%   0.318 GPC+PCh                                             
 1.99E+03   3%   3.028 NAA+NAAG                                            
  655.699   6%   1.000 Cr+PCr                                              
 1.44E+03  20%   2.195 Glu+Gln                                             
 2.43E+03  16%   3.703 Lip13a                                              
    0.000 999%   0.000 Lip13b                                              
    0.000 999%   0.000 Lip09                                               
  945.237  13%   1.442 MM09                                                
  747.262  25%   1.140 Lip20                                               
 2.10E+03  12%   3.204 MM20                                                
  295.773  30%   0.451 MM12                                                
  779.707  32%   1.189 MM14                                                
  564.734  25%   0.861 MM17                                                
 2.43E+03  16%   3.703 Lip13a+Lip13b                                       
 3.50E+03   8%   5.343 MM14+Lip13a+Lip13b+MM12                             
  945.237  13%   1.442 MM09+Lip09                                          
 2.85E+03   9%   4.344 MM20+Lip20                                          
   6 lines in following misc. output table
  FWHM = 0.054 ppm    S/N =  12                                            
  Data shift = 0.015 ppm                                                   
  Ph: -24 deg      -4.9 deg/ppm                                            
  alphaB,S = 8.5E+01,   1.9E+02                                            
   14 spline knots.   Ns = 7(1)                                            
   2 inflections.     1 extrema                                            
  498 points on ppm-axis = NY
      4.000000     3.992357     3.984714     3.977070     3.969427     3.961784     3.954141     3.946497     3.938854     3.931211
      3.923568     3.915925     3.908281     3.900638     3.892995     3.885352     3.877708     3.870065     3.862422     3.854779
      3.847136     3.839492     3.831849     3.824206     3.816563     3.808919     3.801276     3.793633     3.785990     3.778347
      3.770703     3.763060     3.755417     3.747774     3.740130     3.732487     3.724844     3.717201     3.709558     3.701914
      3.694271     3.686628     3.678985     3.671341     3.663698     3.656055     3.648412     3.640769     3.633125     3.625482
      3.617839     3.610196     3.602552     3.594909     3.587266     3.579623     3.571980     3.564336     3.556693     3.549050
      3.541407     3.533763     3.526120     3.518477     3.510834     3.503191     3.495547     3.487904     3.480261     3.472618
      3.464974     3.457331     3.449688     3.442045     3.434402     3.426758     3.419115     3.411472     3.403829     3.396185
      3.388542     3.380899     3.373256     3.365613     3.357969     3.350326     3.342683     3.335040     3.327396     3.319753
      3.312110     3.304467     3.296824     3.289180     3.281537     3.273894     3.266251     3.258607     3.250964     3.243321
      3.235678     3.228034     3.220391     3.212748     3.205105     3.197462     3.189818     3.182175     3.174532     3.166889
      3.159245     3.151602     3.143959     3.136316     3.128673     3.121029     3.113386     3.105743     3.098100     3.090456
      3.082813     3.075170     3.067527     3.059884     3.052240     3.044597     3.036954     3.029311     3.021667     3.014024
      3.006381     2.998738     2.991095     2.983451     2.975808     2.968165     2.960522     2.952878     2.945235     2.937592
      2.929949     2.922306     2.914662     2.907019     2.899376     2.891733     2.884089     2.876446     2.868803     2.861160
      2.853517     2.845873     2.838230     2.830587     2.822944     2.815300     2.807657     2.800014     2.792371     2.784728
      2.777084     2.769441     2.761798     2.754155     2.746511     2.738868     2.731225     2.723582     2.715939     2.708295
      2.700652     2.693009     2.685366     2.677722     2.670079     2.662436     2.654793     2.647150     2.639506     2.631863
      2.624220     2.616577     2.608933     2.601290     2.593647     2.586004     2.578361     2.570717     2.563074     2.555431
      2.547788     2.540144     2.532501     2.524858     2.517215     2.509572     2.501928     2.494285     2.486642     2.478999
      2.471355     2.463712     2.456069     2.448426     2.440783     2.433139     2.425496     2.417853     2.410210     2.402566
      2.394923     2.387280     2.379637     2.371994     2.364350     2.356707     2.349064     2.341421     2.333777     2.326134
      2.318491     2.310848     2.303205     2.295561     2.287918     2.280275     2.272632     2.264988     2.257345     2.249702
      2.242059     2.234416     2.226772     2.219129     2.211486     2.203843     2.196199     2.188556     2.180913     2.173270
      2.165627     2.157983     2.150340     2.142697     2.135054     2.127410     2.119767     2.112124     2.104481     2.096838
      2.089194     2.081551     2.073908     2.066265     2.058621     2.050978     2.043335     2.035692     2.028049     2.020405
      2.012762     2.005119     1.997476     1.989833     1.982190     1.974546     1.966903     1.959260     1.951617     1.943974
      1.936331     1.928688     1.921045     1.913402     1.905759     1.898115     1.890472     1.882829     1.875186     1.867543
      1.859900     1.852257     1.844614     1.836971     1.829327     1.821684     1.814041     1.806398     1.798755     1.791112
      1.783469     1.775826     1.768183     1.760540     1.752896     1.745253     1.737610     1.729967     1.722324     1.714681
      1.707038     1.699395     1.691752     1.684108     1.676465     1.668822     1.661179     1.653536     1.645893     1.638250
      1.630607     1.622964     1.615321     1.607677     1.600034     1.592391     1.584748     1.577105     1.569462     1.561819
      1.554176     1.546533     1.538890     1.531246     1.523603     1.515960     1.508317     1.500674     1.493031     1.485388
      1.477745     1.470102     1.462458     1.454815     1.447172     1.439529     1.431886     1.424243     1.416600     1.408957
      1.401314     1.393671     1.386027     1.378384     1.370741     1.363098     1.355455     1.347812     1.340169     1.332526
      1.324883     1.317240     1.309596     1.301953     1.294310     1.286667     1.279024     1.271381     1.263738     1.256095
      1.248452     1.240808     1.233165     1.225522     1.217879     1.210236     1.202593     1.194950     1.187307     1.179664
      1.172021     1.164377     1.156734     1.149091     1.141448     1.133805     1.126162     1.118519     1.110876     1.103233
      1.095590     1.087946     1.080303     1.072660     1.065017     1.057374     1.049731     1.042088     1.034445     1.026802
      1.019158     1.011515     1.003872     0.996229     0.988586     0.980943     0.973300     0.965657     0.958014     0.950371
      0.942727     0.935084     0.927441     0.919798     0.912155     0.904512     0.896869     0.889226     0.881583     0.873940
      0.866296     0.858653     0.851010     0.843367     0.835724     0.828081     0.820438     0.812795     0.805152     0.797508
      0.789865     0.782222     0.774579     0.766936     0.759293     0.751650     0.744007     0.736364     0.728721     0.721077
      0.713434     0.705791     0.698148     0.690505     0.682862     0.675219     0.667576     0.659933     0.652290     0.644646
      0.637003     0.629360     0.621717     0.614074     0.606431     0.598788     0.591145     0.583502     0.575858     0.568215
      0.560572     0.552929     0.545286     0.537643     0.530000     0.522357     0.514714     0.507071     0.499427     0.491784
      0.484141     0.476498     0.468855     0.461212     0.453569     0.445925     0.438282     0.430639     0.422996     0.415353
      0.407710     0.400067     0.392424     0.384780     0.377137     0.369494     0.361851     0.354208     0.346565     0.338922
      0.331278     0.323635     0.315992     0.308349     0.300706     0.293063     0.285420     0.277777     0.270133     0.262490
      0.254847     0.247204     0.239561     0.231918     0.224275     0.216631     0.208988     0.201345
 NY phased data points follow
   2.38129E+00  3.91792E+00  3.87173E+00  3.14317E+00  3.82832E+00  8.07062E+00  5.69561E+00  5.49463E+00  6.04272E+00  7.69712E+00
   1.09281E+01  7.49084E+00  6.89166E+00  8.02049E+00  8.80171E+00  3.94154E+00  2.52869E-01  3.68555E+00  6.55160E+00  4.64696E+00
   2.50404E+00  3.59213E+00  6.62442E+00  4.23577E+00  3.20995E+00  3.63452E+00  7.31865E+00  4.70779E+00  1.50198E+00  7.33921E+00
   7.43636E+00  6.69228E+00  4.30655E+00  3.77793E+00  5.32406E+00  5.12298E+00  5.29622E+00  3.39735E+00  5.17262E+00  8.06401E+00
   2.24067E+00  4.13155E+00  7.42282E+00  4.96193E+00  1.05758E+01  4.54027E+00  1.03252E+01  1.02943E+01  8.69252E+00  2.25152E+00
   3.36507E+00  7.34172E+00  5.59203E+00  3.39667E-01  5.35876E+00  4.20190E+00  6.68159E+00  4.71015E+00  2.05292E+00  6.19373E+00
   6.23634E+00  5.90365E+00  6.46473E-01 -1.41490E+00  3.93513E+00  2.16455E+00 -2.92482E-01  3.23072E+00  9.15351E-01  1.24924E+00
   7.58433E+00  2.30691E+00  5.37370E+00  6.44069E+00  3.17355E+00  1.19810E+00  3.54300E+00  9.11136E+00  4.04011E+00  3.10924E+00
   4.11428E+00  6.25859E+00  3.01989E+00  7.03321E-01  3.10846E+00  3.28001E+00  7.34384E+00  3.34935E+00  5.65452E+00  6.29677E+00
   5.49160E+00  2.02011E+00  7.39872E+00  7.42692E+00  5.47652E+00  8.45984E+00  5.38487E+00  6.47834E+00  1.17946E+01  1.41110E+01
   1.59536E+01  1.86894E+01  2.55074E+01  2.57766E+01  1.62753E+01  1.21040E+01  1.13295E+01  1.21168E+01  7.72466E+00  5.20076E+00
   5.60167E+00  8.94791E+00  3.76904E+00  7.79683E+00  5.86542E+00  6.16281E+00  6.94294E+00  3.87086E+00  6.57993E+00  7.32220E+00
   7.28093E+00  5.92301E+00  5.29315E+00  1.33151E+01  1.41798E+01  2.14448E+01  2.40465E+01  2.81606E+01  2.35030E+01  2.09030E+01
   1.75125E+01  1.25695E+01  1.02976E+01  7.41246E+00  6.53805E+00  8.53358E+00  5.89361E+00  8.32179E+00  2.05363E+00  6.29563E+00
   4.22988E+00  6.83112E+00  1.49466E+00  2.76753E+00  3.71430E+00  7.63114E+00  2.93194E+00  4.72979E+00  5.80081E+00  6.34756E+00
   5.26494E+00  3.61447E+00  7.54740E+00  8.89954E+00  4.58254E+00  3.94861E+00  3.35868E+00  5.46546E+00  3.01067E+00  6.24417E-01
   1.84901E+00  5.54031E+00  9.18638E-01  2.74449E+00  5.42637E+00  1.53535E-01  4.53797E+00  3.38295E-01 -4.99383E+00 -3.26131E+00
  -1.24130E+00 -3.59115E+00 -3.73328E+00 -5.95160E+00 -4.89218E+00 -7.71866E+00 -6.96885E+00 -8.71938E+00 -7.35214E+00 -6.07240E+00
  -5.59941E+00 -4.01105E+00 -5.44573E+00 -6.44641E-01 -4.32574E+00 -2.62178E+00  9.43790E-01 -1.01990E+00 -1.91702E+00  2.62942E-01
   4.66879E+00 -1.32527E+00  3.06540E+00  9.24192E-01  2.18731E+00  3.45565E+00 -2.63929E+00 -5.63551E+00 -2.69354E+00 -5.88535E+00
  -4.53117E+00 -3.50283E-01  1.88339E+00  2.54776E+00  1.82374E+00  4.59769E+00  4.48217E+00  3.01711E+00  3.37338E+00  1.00045E+00
   4.81252E+00  2.01581E+00  7.53017E+00  7.31992E+00  1.25902E+01  1.05459E+01  1.48072E+01  1.22761E+01  9.79792E+00  1.09180E+01
   4.96030E+00  3.32699E+00  3.01778E+00  3.77872E-01 -8.23324E-01  7.28976E+00  8.60532E+00  5.13146E+00  7.07177E+00  6.16769E+00
   7.34342E+00  7.35543E+00  9.87552E+00  8.19536E+00  9.03520E+00  9.58004E+00  6.47141E+00  1.13901E+01  9.22745E+00  6.68789E+00
   6.25229E+00  6.07044E+00  8.65033E+00  4.95526E+00  7.40577E+00  5.04641E+00  1.07191E+01  1.29190E+01  1.00505E+01  1.03709E+01
   1.80891E+01  1.59195E+01  1.78659E+01  2.28162E+01  2.63374E+01  3.11753E+01  3.37759E+01  4.37229E+01  5.02220E+01  6.16873E+01
   6.90877E+01  7.33730E+01  6.57167E+01  5.28762E+01  4.11960E+01  3.13720E+01  2.60082E+01  1.86428E+01  1.67540E+01  1.27587E+01
   1.06402E+01  8.00055E+00  5.89112E+00  6.82615E+00  4.29586E+00  7.51885E+00  4.85069E+00  4.50126E+00  3.43724E+00  6.76206E+00
   7.48333E+00  1.81266E+00  3.80031E+00  5.45986E+00  3.54907E+00  4.37032E+00  1.69680E+00  2.47001E+00  3.09113E+00  3.45090E+00
   1.71734E+00  2.94649E+00  3.63768E+00  4.18094E+00  4.31634E-01  2.81358E+00  4.55356E+00  5.76236E+00  4.55545E+00  4.85647E+00
   3.52596E+00  3.92160E+00  6.74562E+00  2.73823E+00  4.11721E+00  3.71103E+00  3.59680E+00  5.12986E+00  9.07905E+00  6.36223E+00
   8.39100E+00  5.62769E+00  5.47743E+00  5.07518E+00  6.94645E+00  4.85103E+00  4.29109E+00  3.61067E+00  5.48697E+00  5.98265E+00
   6.33056E+00  4.06187E+00  7.62764E+00  6.20463E+00  8.13370E-01  2.53694E+00  4.87815E+00  6.65458E+00  3.38114E+00  4.40944E+00
   6.64836E+00  6.21482E+00  2.46193E+00  6.37005E+00  9.31104E+00  9.58215E+00  9.06769E+00  6.13113E+00  1.23100E+01  9.84306E+00
   8.92936E+00  8.99093E+00  1.17976E+01  9.95966E+00  1.06397E+01  9.81915E+00  1.01835E+01  1.36756E+01  1.06178E+01  1.26059E+01
   1.33014E+01  1.42687E+01  1.00327E+01  1.40310E+01  1.55486E+01  1.42660E+01  1.25396E+01  1.27307E+01  1.24003E+01  1.09875E+01
   8.98742E+00  8.60455E+00  9.20000E+00  1.07950E+01  8.34687E+00  9.49448E+00  1.21827E+01  1.12595E+01  1.41582E+01  8.92319E+00
   8.59698E+00  1.01543E+01  8.02858E+00  6.52964E+00  6.79589E+00  7.43080E+00  4.99953E+00  4.66649E+00  3.80579E+00  2.69167E+00
   2.32316E+00  4.69101E-01  3.89830E+00  1.95612E+00  1.32461E+00  1.75770E+00  9.74826E-02  2.04673E+00  7.44223E-01  3.03012E+00
   1.89242E+00  7.81454E-01  3.62927E+00  4.71152E+00  5.37103E+00  3.05851E+00  5.72196E+00  5.40354E+00  6.06377E+00  4.69768E+00
   4.63216E+00  7.48308E+00  1.57045E+00  6.22361E+00  4.11325E+00  6.67369E+00  6.14951E+00  7.77721E+00  6.98694E+00  6.14103E+00
   5.51727E+00  4.92674E+00  4.02695E+00  3.32373E+00  5.08764E+00  3.43960E+00  5.23578E+00  3.85805E+00  4.13356E+00  2.16577E+00
   5.77438E+00  3.67151E+00 -1.71007E+00  7.89290E-01  4.04048E+00 -2.59012E-01 -2.67409E+00  3.87878E+00  1.65803E+00 -2.49086E+00
  -2.88690E+00 -1.09397E+00 -4.28901E-01 -2.45855E+00 -1.56974E+00 -1.94152E+00 -1.91126E+00 -4.73953E-01 -1.83896E-01  7.20066E-01
   5.49683E-03 -1.20983E+00  2.29320E+00 -1.34902E+00 -2.98157E+00 -1.14189E-01  1.00411E-01  1.53423E+00 -1.68267E+00 -1.07290E+00
  -2.60223E+00 -5.22976E-01 -2.58409E+00 -1.60830E+00 -1.41803E+00 -1.58319E+00 -1.39666E+00 -2.90484E+00 -3.51491E+00 -1.58302E+00
  -1.74807E-01 -4.71548E-01  8.82681E-01 -3.33007E+00 -2.02911E+00 -1.55242E+00  9.87307E-01  7.18740E-01 -1.17670E+00  9.82421E-01
  -1.85186E+00 -2.10554E-01 -1.63141E+00  4.15989E-01 -8.63280E-01 -7.32527E-01  1.02683E+00 -7.53659E-01  8.04666E-01 -1.22814E+00
  -2.06815E+00 -2.09481E-01  1.84648E-01 -3.28512E+00  7.04646E-02 -2.68997E+00 -1.41036E+00  4.17958E-02 -7.33001E-01 -8.55351E-01
  -1.94073E+00 -2.48166E+00 -1.82143E+00 -1.90913E+00 -2.13122E+00 -3.05897E-01 -2.77711E+00 -1.11497E+00
 NY points of the fit to the data follow
   3.48021E+00  3.42569E+00  3.59880E+00  3.96766E+00  4.54174E+00  5.32783E+00  6.24538E+00  7.18780E+00  8.01000E+00  8.54913E+00
   8.68966E+00  8.42854E+00  7.87472E+00  7.17629E+00  6.46032E+00  5.80137E+00  5.23220E+00  4.78253E+00  4.50320E+00  4.35039E+00
   4.30597E+00  4.30843E+00  4.26753E+00  4.24584E+00  4.24808E+00  4.28852E+00  4.44523E+00  4.80330E+00  5.42654E+00  6.26007E+00
   7.16165E+00  7.92831E+00  8.34814E+00  8.30144E+00  7.82379E+00  6.99380E+00  5.95698E+00  4.88286E+00  3.99656E+00  3.54820E+00
   3.56364E+00  3.94400E+00  4.55483E+00  5.27186E+00  6.02292E+00  6.70584E+00  7.20265E+00  7.37765E+00  7.12785E+00  6.50182E+00
   5.70341E+00  4.92704E+00  4.29535E+00  3.83463E+00  3.55139E+00  3.44683E+00  3.51138E+00  3.69677E+00  3.92099E+00  4.09835E+00
   4.17645E+00  4.12225E+00  3.97461E+00  3.80201E+00  3.66889E+00  3.61776E+00  3.63176E+00  3.66677E+00  3.72611E+00  3.83834E+00
   3.99071E+00  4.16273E+00  4.34232E+00  4.49914E+00  4.58844E+00  4.57626E+00  4.42922E+00  4.12301E+00  3.73819E+00  3.42737E+00
   3.34310E+00  3.48594E+00  3.79930E+00  4.20833E+00  4.64702E+00  5.04882E+00  5.28228E+00  5.23921E+00  4.92288E+00  4.44851E+00
   3.94554E+00  3.50474E+00  3.16208E+00  2.89856E+00  2.84668E+00  3.54454E+00  5.15968E+00  7.45072E+00  1.03998E+01  1.38924E+01
   1.74851E+01  2.04659E+01  2.20058E+01  2.15773E+01  1.93907E+01  1.62892E+01  1.31378E+01  1.03984E+01  8.12356E+00  6.19274E+00
   4.66135E+00  3.83446E+00  3.52144E+00  3.34047E+00  3.21397E+00  3.12872E+00  3.07301E+00  3.06711E+00  3.14986E+00  3.54420E+00
   4.72944E+00  6.64807E+00  9.22917E+00  1.25426E+01  1.64201E+01  2.03035E+01  2.33113E+01  2.45491E+01  2.36174E+01  2.09688E+01
   1.75918E+01  1.43108E+01  1.14443E+01  8.93872E+00  6.73277E+00  5.04931E+00  4.20979E+00  3.88767E+00  3.81433E+00  3.89651E+00
   4.04736E+00  4.19100E+00  4.28737E+00  4.31988E+00  4.28126E+00  4.19246E+00  4.07957E+00  3.95000E+00  3.81295E+00  3.68092E+00
   3.55966E+00  3.45906E+00  3.38020E+00  3.32368E+00  3.26712E+00  3.18426E+00  3.07586E+00  2.92005E+00  2.71008E+00  2.45106E+00
   2.16257E+00  1.93579E+00  1.84842E+00  1.88142E+00  1.93008E+00  1.86330E+00  1.60861E+00  1.20722E+00  7.65166E-01  3.47658E-01
  -6.81184E-02 -4.79850E-01 -8.74267E-01 -1.25326E+00 -1.58366E+00 -1.83092E+00 -1.94316E+00 -1.88954E+00 -1.74219E+00 -1.61957E+00
  -1.59785E+00 -1.64345E+00 -1.61771E+00 -1.45794E+00 -1.19385E+00 -8.63301E-01 -4.48280E-01  1.50564E-01  9.55126E-01  1.83490E+00
   2.58755E+00  3.04190E+00  3.18904E+00  3.12582E+00  2.96593E+00  2.79833E+00  2.66650E+00  2.64975E+00  2.83722E+00  3.22065E+00
   3.76593E+00  4.37340E+00  4.89722E+00  5.14915E+00  5.02246E+00  4.46119E+00  3.46609E+00  2.17466E+00  9.05639E-01  1.65209E-02
  -2.06708E-01  2.40158E-01  1.28430E+00  2.81478E+00  4.57255E+00  6.12781E+00  6.98273E+00  6.82354E+00  5.70948E+00  3.94799E+00
   2.03999E+00  4.76740E-01 -4.19456E-01 -4.41143E-01  4.52547E-01  2.02077E+00  3.85874E+00  5.47261E+00  6.63687E+00  7.34665E+00
   7.72173E+00  7.86178E+00  7.84255E+00  7.83725E+00  7.99144E+00  8.27610E+00  8.58414E+00  8.83457E+00  8.96333E+00  8.92932E+00
   8.73595E+00  8.48596E+00  8.37107E+00  8.53494E+00  8.98650E+00  9.62927E+00  1.03570E+01  1.10690E+01  1.17762E+01  1.26602E+01
   1.37388E+01  1.50488E+01  1.67443E+01  1.94813E+01  2.42788E+01  3.04571E+01  3.75109E+01  4.55251E+01  5.42253E+01  6.24114E+01
   6.79561E+01  6.86422E+01  6.36577E+01  5.44792E+01  4.39187E+01  3.42363E+01  2.60796E+01  1.92138E+01  1.34821E+01  9.42670E+00
   7.59406E+00  6.77319E+00  6.24871E+00  5.87830E+00  5.59507E+00  5.32640E+00  5.04698E+00  4.75936E+00  4.47365E+00  4.20549E+00
   3.96539E+00  3.75454E+00  3.57429E+00  3.43070E+00  3.32190E+00  3.23610E+00  3.16581E+00  3.11440E+00  3.08885E+00  3.09337E+00
   3.12819E+00  3.19337E+00  3.28663E+00  3.40048E+00  3.52719E+00  3.66295E+00  3.80642E+00  3.95686E+00  4.11294E+00  4.27286E+00
   4.43535E+00  4.59776E+00  4.75349E+00  4.89527E+00  5.01745E+00  5.11613E+00  5.18927E+00  5.23555E+00  5.25489E+00  5.24986E+00
   5.22379E+00  5.18046E+00  5.12482E+00  5.06238E+00  4.99894E+00  4.94040E+00  4.89318E+00  4.86408E+00  4.86130E+00  4.89687E+00
   4.98649E+00  5.11379E+00  5.25892E+00  5.41481E+00  5.55981E+00  5.65732E+00  5.67048E+00  5.58407E+00  5.44824E+00  5.35125E+00
   5.36051E+00  5.51798E+00  5.83373E+00  6.29146E+00  6.85737E+00  7.47894E+00  8.08667E+00  8.60028E+00  8.99870E+00  9.32084E+00
   9.60805E+00  9.88164E+00  1.01451E+01  1.04011E+01  1.06744E+01  1.09767E+01  1.12899E+01  1.16011E+01  1.19015E+01  1.21829E+01
   1.24375E+01  1.26580E+01  1.28371E+01  1.29683E+01  1.30457E+01  1.30645E+01  1.30215E+01  1.29146E+01  1.27437E+01  1.25101E+01
   1.22164E+01  1.18672E+01  1.14680E+01  1.10257E+01  1.05478E+01  1.00422E+01  9.51719E+00  8.98087E+00  8.44130E+00  7.90586E+00
   7.38133E+00  6.87354E+00  6.38769E+00  5.92801E+00  5.49806E+00  5.10040E+00  4.73698E+00  4.40900E+00  4.11734E+00  3.86238E+00
   3.64435E+00  3.46307E+00  3.31834E+00  3.20980E+00  3.13727E+00  3.10041E+00  3.09898E+00  3.13246E+00  3.20033E+00  3.30172E+00
   3.43564E+00  3.60046E+00  3.79405E+00  4.01342E+00  4.25491E+00  4.51396E+00  4.78526E+00  5.06253E+00  5.33883E+00  5.60650E+00
   5.85773E+00  6.08454E+00  6.27936E+00  6.43500E+00  6.54532E+00  6.60524E+00  6.61136E+00  6.56184E+00  6.45669E+00  6.29748E+00
   6.08759E+00  5.83172E+00  5.53602E+00  5.20738E+00  4.85339E+00  4.48164E+00  4.09978E+00  3.71492E+00  3.33372E+00  2.96180E+00
   2.60396E+00  2.26380E+00  1.94407E+00  1.64650E+00  1.37212E+00  1.12100E+00  8.92751E-01  6.86331E-01  5.00549E-01  3.33873E-01
   1.84781E-01  5.15175E-02 -6.75306E-02 -1.74038E-01 -2.69384E-01 -3.54958E-01 -4.31894E-01 -5.01383E-01 -5.64346E-01 -6.21698E-01
  -6.74058E-01 -7.22097E-01 -7.66289E-01 -8.07211E-01 -8.45212E-01 -8.80698E-01 -9.13853E-01 -9.44990E-01 -9.74277E-01 -1.00202E+00
  -1.02831E+00 -1.05333E+00 -1.07712E+00 -1.09985E+00 -1.12157E+00 -1.14248E+00 -1.16257E+00 -1.18194E+00 -1.20056E+00 -1.21858E+00
  -1.23600E+00 -1.25297E+00 -1.26940E+00 -1.28539E+00 -1.30089E+00 -1.31602E+00 -1.33078E+00 -1.34525E+00 -1.35935E+00 -1.37314E+00
  -1.38660E+00 -1.39983E+00 -1.41280E+00 -1.42557E+00 -1.43804E+00 -1.45030E+00 -1.46231E+00 -1.47418E+00 -1.48584E+00 -1.49736E+00
  -1.50863E+00 -1.51974E+00 -1.53065E+00 -1.54148E+00 -1.55212E+00 -1.56262E+00 -1.57290E+00 -1.58306E+00 -1.59305E+00 -1.60295E+00
  -1.61266E+00 -1.62223E+00 -1.63158E+00 -1.64081E+00 -1.64986E+00 -1.65879E+00 -1.66748E+00 -1.67598E+00
 NY background values follow
     2.456E+00    2.448E+00    2.440E+00    2.432E+00    2.424E+00    2.416E+00    2.408E+00    2.400E+00    2.392E+00    2.384E+00
     2.376E+00    2.368E+00    2.360E+00    2.352E+00    2.344E+00    2.336E+00    2.328E+00    2.320E+00    2.312E+00    2.304E+00
     2.297E+00    2.289E+00    2.281E+00    2.273E+00    2.265E+00    2.257E+00    2.249E+00    2.241E+00    2.233E+00    2.225E+00
     2.217E+00    2.209E+00    2.201E+00    2.193E+00    2.185E+00    2.177E+00    2.169E+00    2.161E+00    2.153E+00    2.145E+00
     2.137E+00    2.129E+00    2.121E+00    2.113E+00    2.105E+00    2.097E+00    2.089E+00    2.081E+00    2.073E+00    2.065E+00
     2.057E+00    2.049E+00    2.041E+00    2.033E+00    2.025E+00    2.017E+00    2.009E+00    2.001E+00    1.993E+00    1.985E+00
     1.977E+00    1.969E+00    1.961E+00    1.953E+00    1.945E+00    1.937E+00    1.929E+00    1.921E+00    1.913E+00    1.905E+00
     1.897E+00    1.889E+00    1.881E+00    1.873E+00    1.865E+00    1.857E+00    1.849E+00    1.841E+00    1.833E+00    1.825E+00
     1.817E+00    1.809E+00    1.801E+00    1.793E+00    1.785E+00    1.777E+00    1.769E+00    1.761E+00    1.753E+00    1.745E+00
     1.737E+00    1.729E+00    1.721E+00    1.713E+00    1.705E+00    1.697E+00    1.689E+00    1.680E+00    1.672E+00    1.664E+00
     1.656E+00    1.648E+00    1.640E+00    1.632E+00    1.624E+00    1.616E+00    1.608E+00    1.600E+00    1.592E+00    1.584E+00
     1.576E+00    1.568E+00    1.560E+00    1.552E+00    1.544E+00    1.536E+00    1.528E+00    1.520E+00    1.512E+00    1.504E+00
     1.496E+00    1.488E+00    1.479E+00    1.471E+00    1.463E+00    1.455E+00    1.447E+00    1.439E+00    1.431E+00    1.423E+00
     1.415E+00    1.407E+00    1.399E+00    1.391E+00    1.383E+00    1.375E+00    1.367E+00    1.359E+00    1.351E+00    1.343E+00
     1.334E+00    1.326E+00    1.318E+00    1.310E+00    1.302E+00    1.294E+00    1.286E+00    1.278E+00    1.270E+00    1.262E+00
     1.254E+00    1.246E+00    1.238E+00    1.230E+00    1.222E+00    1.214E+00    1.205E+00    1.197E+00    1.189E+00    1.181E+00
     1.173E+00    1.165E+00    1.157E+00    1.149E+00    1.141E+00    1.133E+00    1.125E+00    1.117E+00    1.109E+00    1.101E+00
     1.092E+00    1.084E+00    1.076E+00    1.068E+00    1.060E+00    1.052E+00    1.044E+00    1.036E+00    1.028E+00    1.020E+00
     1.012E+00    1.004E+00    9.956E-01    9.875E-01    9.794E-01    9.713E-01    9.632E-01    9.552E-01    9.471E-01    9.390E-01
     9.309E-01    9.228E-01    9.148E-01    9.067E-01    8.986E-01    8.905E-01    8.824E-01    8.743E-01    8.663E-01    8.582E-01
     8.501E-01    8.420E-01    8.339E-01    8.258E-01    8.178E-01    8.097E-01    8.016E-01    7.935E-01    7.854E-01    7.773E-01
     7.692E-01    7.612E-01    7.531E-01    7.450E-01    7.369E-01    7.288E-01    7.207E-01    7.126E-01    7.046E-01    6.965E-01
     6.884E-01    6.803E-01    6.722E-01    6.641E-01    6.560E-01    6.479E-01    6.398E-01    6.318E-01    6.237E-01    6.156E-01
     6.075E-01    5.994E-01    5.913E-01    5.832E-01    5.751E-01    5.670E-01    5.589E-01    5.509E-01    5.428E-01    5.347E-01
     5.266E-01    5.185E-01    5.104E-01    5.023E-01    4.942E-01    4.861E-01    4.780E-01    4.699E-01    4.619E-01    4.538E-01
     4.457E-01    4.376E-01    4.295E-01    4.214E-01    4.133E-01    4.052E-01    3.971E-01    3.890E-01    3.809E-01    3.728E-01
     3.647E-01    3.567E-01    3.486E-01    3.405E-01    3.324E-01    3.243E-01    3.162E-01    3.081E-01    3.000E-01    2.919E-01
     2.838E-01    2.757E-01    2.676E-01    2.595E-01    2.514E-01    2.434E-01    2.353E-01    2.272E-01    2.191E-01    2.110E-01
     2.029E-01    1.948E-01    1.867E-01    1.786E-01    1.705E-01    1.624E-01    1.543E-01    1.463E-01    1.382E-01    1.301E-01
     1.220E-01    1.139E-01    1.058E-01    9.770E-02    8.961E-02    8.152E-02    7.343E-02    6.534E-02    5.725E-02    4.916E-02
     4.107E-02    3.298E-02    2.489E-02    1.680E-02    8.709E-03    6.199E-04   -7.469E-03   -1.556E-02   -2.365E-02   -3.174E-02
    -3.982E-02   -4.791E-02   -5.600E-02   -6.409E-02   -7.218E-02   -8.026E-02   -8.835E-02   -9.644E-02   -1.045E-01   -1.126E-01
    -1.207E-01   -1.288E-01   -1.369E-01   -1.450E-01   -1.530E-01   -1.611E-01   -1.692E-01   -1.773E-01   -1.854E-01   -1.935E-01
    -2.015E-01   -2.096E-01   -2.177E-01   -2.258E-01   -2.339E-01   -2.420E-01   -2.500E-01   -2.581E-01   -2.662E-01   -2.743E-01
    -2.824E-01   -2.904E-01   -2.985E-01   -3.066E-01   -3.147E-01   -3.228E-01   -3.308E-01   -3.389E-01   -3.470E-01   -3.551E-01
    -3.632E-01   -3.712E-01   -3.793E-01   -3.874E-01   -3.955E-01   -4.035E-01   -4.116E-01   -4.197E-01   -4.278E-01   -4.358E-01
    -4.439E-01   -4.520E-01   -4.601E-01   -4.681E-01   -4.762E-01   -4.843E-01   -4.923E-01   -5.004E-01   -5.085E-01   -5.166E-01
    -5.246E-01   -5.327E-01   -5.408E-01   -5.488E-01   -5.569E-01   -5.650E-01   -5.730E-01   -5.811E-01   -5.892E-01   -5.972E-01
    -6.053E-01   -6.133E-01   -6.214E-01   -6.295E-01   -6.375E-01   -6.456E-01   -6.537E-01   -6.617E-01   -6.698E-01   -6.778E-01
    -6.859E-01   -6.940E-01   -7.020E-01   -7.101E-01   -7.181E-01   -7.262E-01   -7.342E-01   -7.423E-01   -7.504E-01   -7.584E-01
    -7.665E-01   -7.745E-01   -7.826E-01   -7.906E-01   -7.987E-01   -8.067E-01   -8.148E-01   -8.228E-01   -8.309E-01   -8.389E-01
    -8.470E-01   -8.550E-01   -8.631E-01   -8.711E-01   -8.791E-01   -8.872E-01   -8.952E-01   -9.033E-01   -9.113E-01   -9.194E-01
    -9.274E-01   -9.354E-01   -9.435E-01   -9.515E-01   -9.596E-01   -9.676E-01   -9.756E-01   -9.837E-01   -9.917E-01   -9.997E-01
    -1.008E+00   -1.016E+00   -1.024E+00   -1.032E+00   -1.040E+00   -1.048E+00   -1.056E+00   -1.064E+00   -1.072E+00   -1.080E+00
    -1.088E+00   -1.096E+00   -1.104E+00   -1.112E+00   -1.120E+00   -1.128E+00   -1.136E+00   -1.144E+00   -1.152E+00   -1.160E+00
    -1.168E+00   -1.176E+00   -1.184E+00   -1.192E+00   -1.200E+00   -1.208E+00   -1.216E+00   -1.224E+00   -1.232E+00   -1.240E+00
    -1.248E+00   -1.256E+00   -1.264E+00   -1.272E+00   -1.280E+00   -1.288E+00   -1.296E+00   -1.304E+00   -1.312E+00   -1.320E+00
    -1.328E+00   -1.336E+00   -1.344E+00   -1.352E+00   -1.360E+00   -1.368E+00   -1.376E+00   -1.384E+00   -1.392E+00   -1.400E+00
    -1.408E+00   -1.416E+00   -1.424E+00   -1.432E+00   -1.440E+00   -1.448E+00   -1.456E+00   -1.464E+00   -1.472E+00   -1.480E+00
    -1.488E+00   -1.496E+00   -1.504E+00   -1.512E+00   -1.520E+00   -1.528E+00   -1.536E+00   -1.544E+00
 Ala      Conc. = 7.61E+01
