 LCModel (Version 6.3-1L) Copyright: S.W. Provencher.          Ref.: Magn. Reson. Med. 30:672-679 (1993).                
 Slice#1 Row#11 Col#5  PD_05_press_1_raw_act
 36 lines in following concentration table = NCONC+1
    Conc.  %SD /Cr+PCr  Metabolite                                         
  208.459  46%   0.245 Ala                                                 
    0.000 999%   0.000 Asp                                                 
  534.209  29%   0.628 Cr                                                  
  316.269  51%   0.372 PCr                                                 
    0.000 999%   0.000 GABA                                                
    0.000 999%   0.000 Glc                                                 
  874.855  24%   1.029 Gln                                                 
  773.492  30%   0.909 Glu                                                 
  268.168   6%   0.315 GPC                                                 
    0.000 999%   0.000 PCh                                                 
  385.637  15%   0.453 GSH                                                 
 1.26E+03  16%   1.487 Ins                                                 
    0.000 999%   0.000 Lac                                                 
 1.77E+03   7%   2.079 NAA                                                 
   61.175 229% 7.2E-02 NAAG                                                
   86.807  23%   0.102 Scyllo                                              
  165.269  84%   0.194 Tau                                                 
   96.091  86%   0.113 -CrCH2                                              
  268.168   6%   0.315 GPC+PCh                                             
 1.83E+03   4%   2.151 NAA+NAAG                                            
  850.478   5%   1.000 Cr+PCr                                              
 1.65E+03  22%   1.938 Glu+Gln                                             
 2.82E+03  21%   3.315 Lip13a                                              
    0.000 999%   0.000 Lip13b                                              
  698.861  38%   0.822 Lip09                                               
  783.763  36%   0.922 MM09                                                
  684.972  25%   0.805 Lip20                                               
 1.48E+03  20%   1.738 MM20                                                
  268.487  75%   0.316 MM12                                                
  259.839 102%   0.306 MM14                                                
  161.107  78%   0.189 MM17                                                
 2.82E+03  21%   3.315 Lip13a+Lip13b                                       
 3.35E+03  11%   3.936 MM14+Lip13a+Lip13b+MM12                             
 1.48E+03  10%   1.743 MM09+Lip09                                          
 2.16E+03  12%   2.543 MM20+Lip20                                          
   6 lines in following misc. output table
  FWHM = 0.061 ppm    S/N =  12                                            
  Data shift = 0.000 ppm                                                   
  Ph:   1 deg      10.4 deg/ppm                                            
  alphaB,S = 1.9E+00,   1.9E+02                                            
   14 spline knots.   Ns = 8(1)                                            
  (15) 4 infls.   (17) 1 extrs.                                            
  498 points on ppm-axis = NY
      4.000000     3.992357     3.984714     3.977070     3.969427     3.961784     3.954141     3.946497     3.938854     3.931211
      3.923568     3.915925     3.908281     3.900638     3.892995     3.885352     3.877708     3.870065     3.862422     3.854779
      3.847136     3.839492     3.831849     3.824206     3.816563     3.808919     3.801276     3.793633     3.785990     3.778347
      3.770703     3.763060     3.755417     3.747774     3.740130     3.732487     3.724844     3.717201     3.709558     3.701914
      3.694271     3.686628     3.678985     3.671341     3.663698     3.656055     3.648412     3.640769     3.633125     3.625482
      3.617839     3.610196     3.602552     3.594909     3.587266     3.579623     3.571980     3.564336     3.556693     3.549050
      3.541407     3.533763     3.526120     3.518477     3.510834     3.503191     3.495547     3.487904     3.480261     3.472618
      3.464974     3.457331     3.449688     3.442045     3.434402     3.426758     3.419115     3.411472     3.403829     3.396185
      3.388542     3.380899     3.373256     3.365613     3.357969     3.350326     3.342683     3.335040     3.327396     3.319753
      3.312110     3.304467     3.296824     3.289180     3.281537     3.273894     3.266251     3.258607     3.250964     3.243321
      3.235678     3.228034     3.220391     3.212748     3.205105     3.197462     3.189818     3.182175     3.174532     3.166889
      3.159245     3.151602     3.143959     3.136316     3.128673     3.121029     3.113386     3.105743     3.098100     3.090456
      3.082813     3.075170     3.067527     3.059884     3.052240     3.044597     3.036954     3.029311     3.021667     3.014024
      3.006381     2.998738     2.991095     2.983451     2.975808     2.968165     2.960522     2.952878     2.945235     2.937592
      2.929949     2.922306     2.914662     2.907019     2.899376     2.891733     2.884089     2.876446     2.868803     2.861160
      2.853517     2.845873     2.838230     2.830587     2.822944     2.815300     2.807657     2.800014     2.792371     2.784728
      2.777084     2.769441     2.761798     2.754155     2.746511     2.738868     2.731225     2.723582     2.715939     2.708295
      2.700652     2.693009     2.685366     2.677722     2.670079     2.662436     2.654793     2.647150     2.639506     2.631863
      2.624220     2.616577     2.608933     2.601290     2.593647     2.586004     2.578361     2.570717     2.563074     2.555431
      2.547788     2.540144     2.532501     2.524858     2.517215     2.509572     2.501928     2.494285     2.486642     2.478999
      2.471355     2.463712     2.456069     2.448426     2.440783     2.433139     2.425496     2.417853     2.410210     2.402566
      2.394923     2.387280     2.379637     2.371994     2.364350     2.356707     2.349064     2.341421     2.333777     2.326134
      2.318491     2.310848     2.303205     2.295561     2.287918     2.280275     2.272632     2.264988     2.257345     2.249702
      2.242059     2.234416     2.226772     2.219129     2.211486     2.203843     2.196199     2.188556     2.180913     2.173270
      2.165627     2.157983     2.150340     2.142697     2.135054     2.127410     2.119767     2.112124     2.104481     2.096838
      2.089194     2.081551     2.073908     2.066265     2.058621     2.050978     2.043335     2.035692     2.028049     2.020405
      2.012762     2.005119     1.997476     1.989833     1.982190     1.974546     1.966903     1.959260     1.951617     1.943974
      1.936331     1.928688     1.921045     1.913402     1.905759     1.898115     1.890472     1.882829     1.875186     1.867543
      1.859900     1.852257     1.844614     1.836971     1.829327     1.821684     1.814041     1.806398     1.798755     1.791112
      1.783469     1.775826     1.768183     1.760540     1.752896     1.745253     1.737610     1.729967     1.722324     1.714681
      1.707038     1.699395     1.691752     1.684108     1.676465     1.668822     1.661179     1.653536     1.645893     1.638250
      1.630607     1.622964     1.615321     1.607677     1.600034     1.592391     1.584748     1.577105     1.569462     1.561819
      1.554176     1.546533     1.538890     1.531246     1.523603     1.515960     1.508317     1.500674     1.493031     1.485388
      1.477745     1.470102     1.462458     1.454815     1.447172     1.439529     1.431886     1.424243     1.416600     1.408957
      1.401314     1.393671     1.386027     1.378384     1.370741     1.363098     1.355455     1.347812     1.340169     1.332526
      1.324883     1.317240     1.309596     1.301953     1.294310     1.286667     1.279024     1.271381     1.263738     1.256095
      1.248452     1.240808     1.233165     1.225522     1.217879     1.210236     1.202593     1.194950     1.187307     1.179664
      1.172021     1.164377     1.156734     1.149091     1.141448     1.133805     1.126162     1.118519     1.110876     1.103233
      1.095590     1.087946     1.080303     1.072660     1.065017     1.057374     1.049731     1.042088     1.034445     1.026802
      1.019158     1.011515     1.003872     0.996229     0.988586     0.980943     0.973300     0.965657     0.958014     0.950371
      0.942727     0.935084     0.927441     0.919798     0.912155     0.904512     0.896869     0.889226     0.881583     0.873940
      0.866296     0.858653     0.851010     0.843367     0.835724     0.828081     0.820438     0.812795     0.805152     0.797508
      0.789865     0.782222     0.774579     0.766936     0.759293     0.751650     0.744007     0.736364     0.728721     0.721077
      0.713434     0.705791     0.698148     0.690505     0.682862     0.675219     0.667576     0.659933     0.652290     0.644646
      0.637003     0.629360     0.621717     0.614074     0.606431     0.598788     0.591145     0.583502     0.575858     0.568215
      0.560572     0.552929     0.545286     0.537643     0.530000     0.522357     0.514714     0.507071     0.499427     0.491784
      0.484141     0.476498     0.468855     0.461212     0.453569     0.445925     0.438282     0.430639     0.422996     0.415353
      0.407710     0.400067     0.392424     0.384780     0.377137     0.369494     0.361851     0.354208     0.346565     0.338922
      0.331278     0.323635     0.315992     0.308349     0.300706     0.293063     0.285420     0.277777     0.270133     0.262490
      0.254847     0.247204     0.239561     0.231918     0.224275     0.216631     0.208988     0.201345
 NY phased data points follow
   3.13880E+00  2.78145E+00  8.51068E+00  3.88597E+00  8.87090E+00  5.20307E+00  8.49492E+00  1.00078E+01  1.22645E+01  1.35511E+01
   1.76234E+01  1.39346E+01  1.90283E+01  1.38212E+01  1.54700E+01  1.08479E+01  1.24750E+01  9.79593E+00  9.04441E+00  7.63160E+00
   7.77770E+00  8.75651E+00  7.89474E+00  3.91190E+00  9.12351E+00  5.43614E+00  8.47030E+00  8.83203E+00  8.35244E+00  8.54053E+00
   7.14244E+00  9.85527E+00  1.31997E+01  6.35166E+00  1.18556E+01  3.72445E+00  6.26233E+00  4.19837E+00  7.38401E+00  6.47139E+00
   6.12179E+00  6.76546E+00  6.34833E+00  5.88543E+00  1.01368E+01  8.29515E+00  1.09235E+01  7.90317E+00  1.12659E+01  7.94526E+00
   8.99292E+00  5.73953E+00  6.67240E+00  8.60826E+00  5.79507E+00  8.12653E+00  8.42087E+00  5.84650E+00  8.41254E+00  3.61192E+00
   4.84041E+00  4.07035E+00  2.98829E+00  3.71021E+00  3.44237E+00  1.63255E+00  3.46676E+00  2.76813E+00  4.20836E+00  1.11974E+00
   4.80253E+00  4.27676E+00  3.67468E+00 -7.41674E-01  3.26905E+00  1.52936E+00  1.74957E+00  8.93616E-01  1.22817E+00  1.70149E+00
   2.65815E+00  3.30424E+00  9.41118E-01  2.40074E+00  1.12711E+00  2.35025E+00  2.20327E+00  2.88097E+00  4.39318E+00  3.22250E+00
   4.75729E+00  2.13502E+00  3.64614E+00  3.90129E+00  2.46590E+00  3.22378E+00  5.87542E+00  3.94809E+00  5.82283E+00  5.48162E+00
   7.15073E+00  1.10592E+01  1.72666E+01  1.97556E+01  2.06116E+01  1.81647E+01  1.64029E+01  1.61467E+01  1.21685E+01  1.21132E+01
   7.95360E+00  6.22713E+00  5.22122E+00  3.68829E+00  7.27590E+00  2.29390E+00  4.72504E+00  5.49300E+00  2.27549E+00  3.47624E+00
   3.44742E+00  5.16748E+00  7.07806E+00  8.88207E+00  1.29469E+01  1.74621E+01  2.01702E+01  2.16397E+01  2.64382E+01  2.25113E+01
   2.16622E+01  1.78491E+01  1.27949E+01  1.04203E+01  9.57713E+00  7.11711E+00  2.52861E+00  2.93672E+00  3.72401E+00  2.77410E+00
   4.47859E+00  2.42755E-03  1.92158E+00  3.89307E+00  3.19518E+00  1.60969E+00  4.92371E+00 -2.81244E+00  3.11314E+00  5.03735E-01
  -8.99742E-01 -4.23216E-01  7.02606E-01  3.58224E-01  2.63339E+00 -6.98106E-02  2.70105E+00 -2.16503E-01  8.44789E-01 -4.48371E-01
   5.50227E-01 -7.45447E-02  5.82155E-01 -4.31159E-01  8.18394E-01 -4.57491E+00  4.58059E+00 -2.64882E+00  1.10051E+00 -4.73676E+00
  -4.95838E+00 -7.45614E+00 -7.29224E+00 -7.37465E+00 -4.76660E+00 -8.58844E+00 -1.04318E+01 -9.29988E+00 -8.06252E+00 -1.07334E+01
  -9.96176E+00 -1.08648E+01 -8.66959E+00 -6.18877E+00 -2.89015E+00 -5.87967E+00 -4.18288E+00 -4.80264E+00 -5.35271E+00 -4.65914E+00
  -7.59232E-01 -2.44659E+00 -3.74717E+00 -5.44152E+00 -4.99728E+00 -6.53085E+00 -8.11731E+00 -7.02237E+00 -6.01991E+00 -5.26301E+00
  -3.84841E+00 -7.58607E+00 -2.02356E+00 -2.91621E+00 -1.29537E+00 -2.65795E+00 -4.26367E+00 -2.09281E-01 -4.04958E+00 -2.30860E+00
  -3.15798E+00 -2.08684E+00 -6.10277E-01  3.60109E-01  4.80251E-01  2.16204E+00  5.90417E+00  6.08530E+00  2.53441E+00  1.49220E+00
   2.42383E+00 -1.78167E+00  1.37611E+00 -3.69942E+00 -2.04992E+00  3.05883E+00  4.63155E+00  3.95707E+00  5.23852E+00  1.92620E+00
   2.44357E+00 -1.75322E-01  3.13004E+00  3.81381E+00  5.14506E+00  5.11981E+00  6.33585E-02  1.66178E+00  2.13741E+00  2.50587E+00
   3.49424E+00  1.31979E+00 -1.30022E-01  8.79300E-01 -9.07099E-01 -1.97543E+00  3.60141E+00  7.66200E+00  5.40857E+00  8.98923E+00
   7.40462E+00  1.08959E+01  9.94919E+00  1.59201E+01  1.95548E+01  2.47109E+01  3.35809E+01  3.98119E+01  4.74748E+01  5.28475E+01
   5.50935E+01  5.64818E+01  5.55384E+01  4.07541E+01  3.04527E+01  2.32070E+01  1.97771E+01  1.53590E+01  9.49818E+00  5.83922E+00
   4.49046E+00  8.23557E-01  2.48527E+00 -2.46112E-01  2.26373E+00  2.23803E-01 -2.73649E+00 -1.53290E+00 -1.91769E+00 -2.01255E+00
  -8.92226E-01  1.12682E+00 -8.90806E-02 -2.29510E+00  8.16140E-01 -2.01117E+00 -2.20892E+00 -5.71877E+00 -4.37516E+00 -4.38686E+00
  -1.67119E+00 -4.77102E+00 -7.52916E-02 -2.10437E+00 -1.93398E-01 -3.58971E+00 -3.38474E+00 -1.15616E+00 -1.69664E+00 -2.82606E+00
  -5.66459E-01 -2.19000E+00 -1.54249E+00 -2.86360E-01 -2.02912E+00 -1.24792E+00  2.00212E+00 -1.34168E+00 -8.58983E-01 -8.92418E-01
   1.78594E+00  2.45847E+00  7.98082E-01  1.99410E+00 -1.53854E+00  5.72397E-01 -5.08211E-02  1.65288E+00  2.08431E-01  7.22912E-01
   3.65576E+00 -1.00181E+00 -8.44867E-01  2.48706E-01  2.45297E+00 -1.69785E+00  4.36364E-01  8.18353E-01  5.32327E-01  2.92431E+00
   5.18400E+00  1.63410E+00 -2.44127E+00 -9.04370E-01 -9.74687E-01  1.93020E+00  2.46124E+00  3.55508E+00  4.93470E+00  4.37447E+00
   5.64653E+00  6.38207E+00  7.38692E+00  6.36611E+00  5.29749E+00  7.23116E+00  7.74071E+00  6.63399E+00  7.95690E+00  8.65024E+00
   6.18915E+00  7.10960E+00  7.06606E+00  8.42478E+00  8.35932E+00  7.61194E+00  6.35911E+00  7.71593E+00  8.36272E+00  5.56853E+00
   2.54591E+00  6.95436E+00  6.76760E+00  5.91227E+00  7.20769E+00  6.49123E+00  1.04840E+01  8.17895E+00  9.66107E+00  4.46469E+00
   6.08561E+00  5.96649E+00  3.03746E+00  4.59008E+00  8.68881E+00  5.09885E+00  4.55922E+00  6.71436E+00  4.73029E+00  4.43554E+00
   5.68305E+00  4.38345E+00  2.83953E+00  3.59848E+00  4.57596E+00  2.38180E+00  3.46934E+00  5.25011E+00  4.43600E+00  4.63861E+00
   5.16929E+00  6.30686E+00  5.00259E+00  7.31761E+00  8.16246E+00  7.70641E+00  6.43706E+00  6.31905E+00  7.42497E+00  7.89747E+00
   7.79651E+00  8.53179E+00  7.97439E+00  6.62832E+00  8.63596E+00  6.63712E+00  7.93857E+00  5.75474E+00  1.04265E+01  5.88373E+00
   8.87333E+00  6.82017E+00  7.49202E+00  6.53824E+00  4.52822E+00  3.28042E+00  2.54284E+00  1.82365E+00  3.44091E+00  2.69176E+00
   3.36021E+00  1.85686E-01  3.16822E+00 -2.14350E+00  1.07823E+00  8.35780E-01  1.03532E+00 -1.57449E-01 -1.45938E+00  2.55331E+00
   1.47712E+00  3.03576E+00 -3.52042E-01 -1.03228E+00  6.16608E-01 -1.91381E-01 -1.99568E+00 -4.83221E+00 -3.67027E+00 -3.22088E-01
  -2.06927E+00 -3.37780E+00 -2.05372E+00 -2.06204E+00 -3.56394E+00 -2.23261E+00  1.06207E+00 -1.70054E+00 -2.68618E-01 -2.90722E-01
  -3.06400E-02 -1.52270E+00 -4.65187E+00 -5.39296E+00  1.98228E+00 -6.52323E-01 -2.64263E+00  5.72903E-01 -1.41952E+00 -4.59621E-01
  -1.25918E+00 -7.22654E-01  1.02450E+00 -5.02535E-01 -9.67162E-01 -2.53090E+00 -2.18711E+00 -1.10354E+00 -4.83893E-01 -1.56226E+00
  -1.90524E+00 -1.60012E+00  8.50060E-01 -3.25058E+00 -1.30365E+00  1.29560E-01 -8.59371E-02 -2.92464E+00 -1.18889E+00 -1.27518E-02
  -3.28921E+00 -1.79330E+00 -6.74927E-01 -2.57113E-01 -1.89989E+00 -1.73156E+00 -6.38361E-01  4.84982E-01  4.94017E-01 -6.49843E-01
  -2.55968E+00 -8.56960E-01  1.26162E-01 -1.20599E-01  6.66264E-01 -2.16434E+00 -1.51121E+00  1.44685E+00
 NY points of the fit to the data follow
   4.68274E+00  4.29149E+00  4.27490E+00  4.61193E+00  5.44548E+00  6.76804E+00  8.40628E+00  1.02429E+01  1.21984E+01  1.41020E+01
   1.56794E+01  1.66408E+01  1.68189E+01  1.62037E+01  1.49097E+01  1.31773E+01  1.13665E+01  9.77511E+00  8.44396E+00  7.31366E+00
   6.23877E+00  5.36610E+00  5.11462E+00  5.24496E+00  5.55933E+00  6.06589E+00  6.85300E+00  7.92127E+00  9.15483E+00  1.03883E+01
   1.13698E+01  1.17738E+01  1.14381E+01  1.04684E+01  9.17012E+00  7.86043E+00  6.65976E+00  5.56771E+00  4.65025E+00  4.26251E+00
   4.53670E+00  5.13452E+00  5.93914E+00  6.93360E+00  8.07804E+00  9.17695E+00  9.96106E+00  1.02394E+01  9.88425E+00  8.85705E+00
   7.40931E+00  5.99584E+00  4.94586E+00  4.33828E+00  4.01161E+00  3.77489E+00  3.66010E+00  3.83808E+00  4.23250E+00  4.57738E+00
   4.69021E+00  4.56266E+00  4.21580E+00  3.76947E+00  3.38467E+00  3.15980E+00  3.11024E+00  3.18264E+00  3.33376E+00  3.53155E+00
   3.72525E+00  3.89424E+00  3.99980E+00  4.00031E+00  3.88224E+00  3.65707E+00  3.36970E+00  3.07050E+00  2.78555E+00  2.63497E+00
   2.57274E+00  2.57870E+00  2.68149E+00  2.85174E+00  3.02889E+00  3.16826E+00  3.23004E+00  3.16405E+00  2.95956E+00  2.60161E+00
   2.15721E+00  1.77509E+00  1.52048E+00  1.33606E+00  1.15530E+00  1.12923E+00  1.83895E+00  3.32201E+00  5.15239E+00  7.30530E+00
   9.94158E+00  1.29800E+01  1.60540E+01  1.86453E+01  2.02134E+01  2.02929E+01  1.87033E+01  1.58122E+01  1.25486E+01  9.72847E+00
   7.49450E+00  5.50660E+00  3.49517E+00  1.69321E+00  7.24773E-01  3.90021E-01  2.44289E-01  2.00628E-01  3.54884E-01  1.08927E+00
   2.68588E+00  4.82689E+00  7.32623E+00  1.02847E+01  1.37251E+01  1.73951E+01  2.07653E+01  2.31969E+01  2.41515E+01  2.32888E+01
   2.07158E+01  1.71808E+01  1.36349E+01  1.06052E+01  7.98418E+00  5.44962E+00  3.06252E+00  1.44227E+00  9.31723E-01  1.02403E+00
   1.27830E+00  1.50351E+00  1.63111E+00  1.68632E+00  1.67803E+00  1.60064E+00  1.48364E+00  1.33530E+00  1.15555E+00  9.71958E-01
   7.96272E-01  6.66115E-01  5.67447E-01  4.39070E-01  2.97386E-01  1.61695E-01  3.41548E-02 -8.60764E-02 -2.55464E-01 -4.76993E-01
  -7.04309E-01 -8.89128E-01 -1.00816E+00 -1.07262E+00 -1.14414E+00 -1.31383E+00 -1.63877E+00 -2.10765E+00 -2.64570E+00 -3.11932E+00
  -3.48344E+00 -3.84469E+00 -4.24791E+00 -4.69364E+00 -5.07314E+00 -5.29122E+00 -5.39696E+00 -5.43513E+00 -5.43575E+00 -5.46760E+00
  -5.53191E+00 -5.58848E+00 -5.56060E+00 -5.36448E+00 -4.98540E+00 -4.50971E+00 -4.01252E+00 -3.43076E+00 -2.72360E+00 -1.99762E+00
  -1.47076E+00 -1.29442E+00 -1.43839E+00 -1.75179E+00 -2.08004E+00 -2.28730E+00 -2.26254E+00 -1.99432E+00 -1.46192E+00 -7.13926E-01
   1.27439E-01  8.46167E-01  1.20092E+00  1.15266E+00  6.60679E-01 -3.06310E-01 -1.60588E+00 -2.97916E+00 -4.11391E+00 -4.76394E+00
  -4.82284E+00 -4.22937E+00 -3.09588E+00 -1.71082E+00 -4.17048E-01  5.56815E-01  1.16776E+00  1.39291E+00  1.16346E+00  5.12490E-01
  -3.06800E-01 -8.59964E-01 -1.02427E+00 -9.02979E-01 -5.00691E-01  1.74406E-01  1.00709E+00  1.68440E+00  2.03779E+00  2.22322E+00
   2.35887E+00  2.45316E+00  2.50431E+00  2.58122E+00  2.72534E+00  2.90848E+00  3.08486E+00  3.25045E+00  3.35336E+00  3.29108E+00
   3.01783E+00  2.58667E+00  2.18421E+00  2.00897E+00  2.13604E+00  2.53255E+00  3.13913E+00  3.93069E+00  4.81655E+00  5.73568E+00
   6.73788E+00  8.18892E+00  1.13432E+01  1.59804E+01  2.10487E+01  2.66001E+01  3.29896E+01  4.00282E+01  4.68806E+01  5.24052E+01
   5.54570E+01  5.49874E+01  5.04606E+01  4.27235E+01  3.40310E+01  2.64806E+01  2.05868E+01  1.54959E+01  1.03659E+01  5.62165E+00
   2.94932E+00  1.97331E+00  1.41595E+00  1.01231E+00  7.07163E-01  4.54530E-01  2.13542E-01 -1.74383E-02 -2.36632E-01 -4.37031E-01
  -6.14606E-01 -7.72366E-01 -9.16107E-01 -1.04168E+00 -1.14247E+00 -1.22180E+00 -1.28685E+00 -1.34056E+00 -1.38097E+00 -1.40620E+00
  -1.41846E+00 -1.42150E+00 -1.41450E+00 -1.39689E+00 -1.36977E+00 -1.33491E+00 -1.29308E+00 -1.24463E+00 -1.19018E+00 -1.13035E+00
  -1.06596E+00 -9.98249E-01 -9.28209E-01 -8.57370E-01 -7.87406E-01 -7.19440E-01 -6.54146E-01 -5.91799E-01 -5.32554E-01 -4.76236E-01
  -4.21697E-01 -3.67302E-01 -3.11290E-01 -2.51251E-01 -1.84248E-01 -1.06384E-01 -1.23148E-02  1.06129E-01  2.64495E-01  4.96475E-01
   7.91765E-01  1.06129E+00  1.29599E+00  1.50785E+00  1.67058E+00  1.72337E+00  1.60219E+00  1.30462E+00  9.31918E-01  5.30739E-01
   1.78237E-01  2.31093E-02  1.83767E-01  6.53732E-01  1.33476E+00  2.12580E+00  2.96806E+00  3.81376E+00  4.54204E+00  5.02247E+00
   5.32526E+00  5.56820E+00  5.80453E+00  6.01124E+00  6.14484E+00  6.23552E+00  6.38899E+00  6.59281E+00  6.81390E+00  7.03699E+00
   7.25299E+00  7.45526E+00  7.63829E+00  7.79752E+00  7.92907E+00  8.02985E+00  8.09731E+00  8.12957E+00  8.12537E+00  8.08431E+00
   8.00674E+00  7.89383E+00  7.74732E+00  7.56963E+00  7.36371E+00  7.13314E+00  6.88193E+00  6.61446E+00  6.33520E+00  6.04879E+00
   5.75990E+00  5.47329E+00  5.19355E+00  4.92516E+00  4.67225E+00  4.43879E+00  4.22846E+00  4.04481E+00  3.89101E+00  3.76998E+00
   3.68420E+00  3.63595E+00  3.62711E+00  3.65924E+00  3.73332E+00  3.84974E+00  4.00816E+00  4.20752E+00  4.44585E+00  4.72022E+00
   5.02649E+00  5.35940E+00  5.71249E+00  6.07836E+00  6.44859E+00  6.81405E+00  7.16500E+00  7.49154E+00  7.78396E+00  8.03317E+00
   8.23100E+00  8.37058E+00  8.44653E+00  8.45538E+00  8.39562E+00  8.26783E+00  8.07450E+00  7.81992E+00  7.50986E+00  7.15145E+00
   6.75272E+00  6.32229E+00  5.86891E+00  5.40114E+00  4.92708E+00  4.45418E+00  3.98902E+00  3.53724E+00  3.10331E+00  2.69072E+00
   2.30189E+00  1.93847E+00  1.60122E+00  1.29028E+00  1.00511E+00  7.44790E-01  5.08061E-01  2.93533E-01  9.96296E-02 -7.52671E-02
  -2.32858E-01 -3.74734E-01 -5.02420E-01 -6.17276E-01 -7.20628E-01 -8.13673E-01 -8.97562E-01 -9.73251E-01 -1.04161E+00 -1.10336E+00
  -1.15922E+00 -1.20980E+00 -1.25570E+00 -1.29736E+00 -1.33519E+00 -1.36951E+00 -1.40069E+00 -1.42905E+00 -1.45487E+00 -1.47833E+00
  -1.49963E+00 -1.51892E+00 -1.53642E+00 -1.55227E+00 -1.56663E+00 -1.57956E+00 -1.59116E+00 -1.60152E+00 -1.61078E+00 -1.61902E+00
  -1.62631E+00 -1.63265E+00 -1.63813E+00 -1.64280E+00 -1.64676E+00 -1.65004E+00 -1.65267E+00 -1.65465E+00 -1.65603E+00 -1.65687E+00
  -1.65724E+00 -1.65711E+00 -1.65652E+00 -1.65545E+00 -1.65397E+00 -1.65210E+00 -1.64989E+00 -1.64732E+00 -1.64438E+00 -1.64109E+00
  -1.63751E+00 -1.63365E+00 -1.62953E+00 -1.62511E+00 -1.62041E+00 -1.61543E+00 -1.61024E+00 -1.60483E+00 -1.59920E+00 -1.59332E+00
  -1.58720E+00 -1.58086E+00 -1.57434E+00 -1.56762E+00 -1.56070E+00 -1.55352E+00 -1.54613E+00 -1.53852E+00
 NY background values follow
     1.519E+00    1.495E+00    1.471E+00    1.447E+00    1.423E+00    1.400E+00    1.376E+00    1.352E+00    1.328E+00    1.304E+00
     1.280E+00    1.256E+00    1.232E+00    1.208E+00    1.185E+00    1.161E+00    1.137E+00    1.113E+00    1.089E+00    1.065E+00
     1.041E+00    1.017E+00    9.934E-01    9.695E-01    9.456E-01    9.217E-01    8.979E-01    8.740E-01    8.501E-01    8.262E-01
     8.023E-01    7.785E-01    7.546E-01    7.307E-01    7.069E-01    6.830E-01    6.592E-01    6.353E-01    6.114E-01    5.876E-01
     5.637E-01    5.399E-01    5.161E-01    4.922E-01    4.684E-01    4.446E-01    4.208E-01    3.969E-01    3.731E-01    3.493E-01
     3.255E-01    3.017E-01    2.779E-01    2.542E-01    2.304E-01    2.066E-01    1.829E-01    1.591E-01    1.354E-01    1.117E-01
     8.795E-02    6.425E-02    4.056E-02    1.688E-02   -6.784E-03   -3.044E-02   -5.407E-02   -7.770E-02   -1.013E-01   -1.249E-01
    -1.485E-01   -1.720E-01   -1.956E-01   -2.191E-01   -2.426E-01   -2.661E-01   -2.896E-01   -3.130E-01   -3.365E-01   -3.599E-01
    -3.833E-01   -4.067E-01   -4.300E-01   -4.533E-01   -4.767E-01   -4.999E-01   -5.232E-01   -5.464E-01   -5.697E-01   -5.928E-01
    -6.160E-01   -6.391E-01   -6.623E-01   -6.853E-01   -7.084E-01   -7.314E-01   -7.544E-01   -7.774E-01   -8.003E-01   -8.232E-01
    -8.461E-01   -8.689E-01   -8.917E-01   -9.145E-01   -9.372E-01   -9.599E-01   -9.826E-01   -1.005E+00   -1.028E+00   -1.050E+00
    -1.073E+00   -1.095E+00   -1.118E+00   -1.140E+00   -1.162E+00   -1.185E+00   -1.207E+00   -1.229E+00   -1.251E+00   -1.273E+00
    -1.295E+00   -1.317E+00   -1.339E+00   -1.361E+00   -1.383E+00   -1.405E+00   -1.427E+00   -1.448E+00   -1.470E+00   -1.492E+00
    -1.513E+00   -1.535E+00   -1.556E+00   -1.577E+00   -1.599E+00   -1.620E+00   -1.641E+00   -1.662E+00   -1.683E+00   -1.704E+00
    -1.725E+00   -1.746E+00   -1.767E+00   -1.787E+00   -1.808E+00   -1.829E+00   -1.849E+00   -1.869E+00   -1.890E+00   -1.910E+00
    -1.930E+00   -1.950E+00   -1.970E+00   -1.990E+00   -2.010E+00   -2.029E+00   -2.049E+00   -2.068E+00   -2.088E+00   -2.107E+00
    -2.126E+00   -2.145E+00   -2.164E+00   -2.183E+00   -2.201E+00   -2.220E+00   -2.238E+00   -2.257E+00   -2.275E+00   -2.293E+00
    -2.311E+00   -2.329E+00   -2.346E+00   -2.364E+00   -2.381E+00   -2.398E+00   -2.416E+00   -2.433E+00   -2.449E+00   -2.466E+00
    -2.483E+00   -2.499E+00   -2.515E+00   -2.531E+00   -2.547E+00   -2.563E+00   -2.579E+00   -2.594E+00   -2.610E+00   -2.625E+00
    -2.640E+00   -2.655E+00   -2.670E+00   -2.684E+00   -2.699E+00   -2.713E+00   -2.727E+00   -2.741E+00   -2.755E+00   -2.769E+00
    -2.782E+00   -2.796E+00   -2.809E+00   -2.822E+00   -2.835E+00   -2.848E+00   -2.861E+00   -2.873E+00   -2.886E+00   -2.898E+00
    -2.910E+00   -2.922E+00   -2.934E+00   -2.945E+00   -2.957E+00   -2.968E+00   -2.979E+00   -2.990E+00   -3.001E+00   -3.012E+00
    -3.023E+00   -3.033E+00   -3.044E+00   -3.054E+00   -3.064E+00   -3.074E+00   -3.084E+00   -3.093E+00   -3.103E+00   -3.112E+00
    -3.121E+00   -3.130E+00   -3.139E+00   -3.148E+00   -3.157E+00   -3.165E+00   -3.173E+00   -3.182E+00   -3.190E+00   -3.198E+00
    -3.205E+00   -3.213E+00   -3.220E+00   -3.228E+00   -3.235E+00   -3.242E+00   -3.249E+00   -3.256E+00   -3.262E+00   -3.269E+00
    -3.275E+00   -3.281E+00   -3.287E+00   -3.293E+00   -3.299E+00   -3.305E+00   -3.310E+00   -3.315E+00   -3.321E+00   -3.326E+00
    -3.331E+00   -3.335E+00   -3.340E+00   -3.344E+00   -3.349E+00   -3.353E+00   -3.357E+00   -3.361E+00   -3.365E+00   -3.368E+00
    -3.372E+00   -3.375E+00   -3.378E+00   -3.381E+00   -3.384E+00   -3.387E+00   -3.390E+00   -3.392E+00   -3.395E+00   -3.397E+00
    -3.399E+00   -3.401E+00   -3.403E+00   -3.404E+00   -3.406E+00   -3.407E+00   -3.409E+00   -3.410E+00   -3.411E+00   -3.412E+00
    -3.413E+00   -3.413E+00   -3.414E+00   -3.414E+00   -3.414E+00   -3.414E+00   -3.414E+00   -3.414E+00   -3.414E+00   -3.413E+00
    -3.413E+00   -3.412E+00   -3.412E+00   -3.411E+00   -3.410E+00   -3.408E+00   -3.407E+00   -3.406E+00   -3.404E+00   -3.403E+00
    -3.401E+00   -3.399E+00   -3.397E+00   -3.395E+00   -3.393E+00   -3.390E+00   -3.388E+00   -3.385E+00   -3.383E+00   -3.380E+00
    -3.377E+00   -3.374E+00   -3.371E+00   -3.368E+00   -3.364E+00   -3.361E+00   -3.357E+00   -3.354E+00   -3.350E+00   -3.346E+00
    -3.342E+00   -3.338E+00   -3.334E+00   -3.329E+00   -3.325E+00   -3.320E+00   -3.316E+00   -3.311E+00   -3.306E+00   -3.301E+00
    -3.296E+00   -3.291E+00   -3.286E+00   -3.281E+00   -3.275E+00   -3.270E+00   -3.264E+00   -3.259E+00   -3.253E+00   -3.247E+00
    -3.241E+00   -3.235E+00   -3.229E+00   -3.223E+00   -3.217E+00   -3.210E+00   -3.204E+00   -3.197E+00   -3.191E+00   -3.184E+00
    -3.177E+00   -3.170E+00   -3.164E+00   -3.157E+00   -3.149E+00   -3.142E+00   -3.135E+00   -3.128E+00   -3.120E+00   -3.113E+00
    -3.105E+00   -3.098E+00   -3.090E+00   -3.082E+00   -3.074E+00   -3.066E+00   -3.058E+00   -3.050E+00   -3.042E+00   -3.034E+00
    -3.026E+00   -3.018E+00   -3.009E+00   -3.001E+00   -2.992E+00   -2.984E+00   -2.975E+00   -2.966E+00   -2.957E+00   -2.949E+00
    -2.940E+00   -2.931E+00   -2.922E+00   -2.913E+00   -2.903E+00   -2.894E+00   -2.885E+00   -2.876E+00   -2.866E+00   -2.857E+00
    -2.847E+00   -2.838E+00   -2.828E+00   -2.819E+00   -2.809E+00   -2.799E+00   -2.789E+00   -2.779E+00   -2.770E+00   -2.760E+00
    -2.750E+00   -2.740E+00   -2.729E+00   -2.719E+00   -2.709E+00   -2.699E+00   -2.689E+00   -2.678E+00   -2.668E+00   -2.657E+00
    -2.647E+00   -2.636E+00   -2.626E+00   -2.615E+00   -2.605E+00   -2.594E+00   -2.583E+00   -2.573E+00   -2.562E+00   -2.551E+00
    -2.540E+00   -2.529E+00   -2.518E+00   -2.507E+00   -2.496E+00   -2.485E+00   -2.474E+00   -2.463E+00   -2.452E+00   -2.441E+00
    -2.430E+00   -2.418E+00   -2.407E+00   -2.396E+00   -2.385E+00   -2.373E+00   -2.362E+00   -2.351E+00   -2.339E+00   -2.328E+00
    -2.316E+00   -2.305E+00   -2.293E+00   -2.282E+00   -2.270E+00   -2.259E+00   -2.247E+00   -2.236E+00   -2.224E+00   -2.213E+00
    -2.201E+00   -2.189E+00   -2.178E+00   -2.166E+00   -2.154E+00   -2.142E+00   -2.131E+00   -2.119E+00   -2.107E+00   -2.095E+00
    -2.084E+00   -2.072E+00   -2.060E+00   -2.048E+00   -2.036E+00   -2.025E+00   -2.013E+00   -2.001E+00   -1.989E+00   -1.977E+00
    -1.965E+00   -1.954E+00   -1.942E+00   -1.930E+00   -1.918E+00   -1.906E+00   -1.894E+00   -1.882E+00   -1.870E+00   -1.858E+00
    -1.847E+00   -1.835E+00   -1.823E+00   -1.811E+00   -1.799E+00   -1.787E+00   -1.775E+00   -1.763E+00
 Ala      Conc. = 2.08E+02
