 LCModel (Version 6.3-1L) Copyright: S.W. Provencher.          Ref.: Magn. Reson. Med. 30:672-679 (1993).                
 Slice#2 Row#5 Col#10  PD_05_press_1_raw_act
 36 lines in following concentration table = NCONC+1
    Conc.  %SD /Cr+PCr  Metabolite                                         
  182.399  47%   0.134 Ala                                                 
    0.000 999%   0.000 Asp                                                 
  495.435  37%   0.365 Cr                                                  
  862.512  22%   0.635 PCr                                                 
   46.462 302% 3.4E-02 GABA                                                
    0.000 999%   0.000 Glc                                                 
  444.571  40%   0.327 Gln                                                 
 1.25E+03  18%   0.917 Glu                                                 
  549.491   4%   0.405 GPC                                                 
    0.000 999%   0.000 PCh                                                 
  416.393  15%   0.307 GSH                                                 
 1.16E+03  20%   0.854 Ins                                                 
   77.025 151% 5.7E-02 Lac                                                 
 2.02E+03   6%   1.487 NAA                                                 
  437.996  26%   0.323 NAAG                                                
   39.897  60% 2.9E-02 Scyllo                                              
    0.000 999%   0.000 Tau                                                 
  269.175  37%   0.198 -CrCH2                                              
  549.491   4%   0.405 GPC+PCh                                             
 2.46E+03   3%   1.809 NAA+NAAG                                            
 1.36E+03   4%   1.000 Cr+PCr                                              
 1.69E+03  17%   1.245 Glu+Gln                                             
    0.000 999%   0.000 Lip13a                                              
  552.696  23%   0.407 Lip13b                                              
  121.897  49% 9.0E-02 Lip09                                               
 1.48E+03  16%   1.086 MM09                                                
   88.549  45% 6.5E-02 Lip20                                               
 3.30E+03  12%   2.430 MM20                                                
  300.630  44%   0.221 MM12                                                
 2.07E+03  18%   1.524 MM14                                                
 1.41E+03  19%   1.035 MM17                                                
  552.696  23%   0.407 Lip13a+Lip13b                                       
 2.92E+03  14%   2.153 MM14+Lip13a+Lip13b+MM12                             
 1.60E+03  15%   1.176 MM09+Lip09                                          
 3.39E+03  11%   2.495 MM20+Lip20                                          
   6 lines in following misc. output table
  FWHM = 0.046 ppm    S/N =  14                                            
  Data shift = 0.015 ppm                                                   
  Ph:  -1 deg      -4.8 deg/ppm                                            
  alphaB,S = 3.9E-01,   5.1E+01                                            
   14 spline knots.   Ns = 7(1)                                            
  (10) 3 infls.   ( 4) 1 extrs.                                            
  498 points on ppm-axis = NY
      4.000000     3.992357     3.984714     3.977070     3.969427     3.961784     3.954141     3.946497     3.938854     3.931211
      3.923568     3.915925     3.908281     3.900638     3.892995     3.885352     3.877708     3.870065     3.862422     3.854779
      3.847136     3.839492     3.831849     3.824206     3.816563     3.808919     3.801276     3.793633     3.785990     3.778347
      3.770703     3.763060     3.755417     3.747774     3.740130     3.732487     3.724844     3.717201     3.709558     3.701914
      3.694271     3.686628     3.678985     3.671341     3.663698     3.656055     3.648412     3.640769     3.633125     3.625482
      3.617839     3.610196     3.602552     3.594909     3.587266     3.579623     3.571980     3.564336     3.556693     3.549050
      3.541407     3.533763     3.526120     3.518477     3.510834     3.503191     3.495547     3.487904     3.480261     3.472618
      3.464974     3.457331     3.449688     3.442045     3.434402     3.426758     3.419115     3.411472     3.403829     3.396185
      3.388542     3.380899     3.373256     3.365613     3.357969     3.350326     3.342683     3.335040     3.327396     3.319753
      3.312110     3.304467     3.296824     3.289180     3.281537     3.273894     3.266251     3.258607     3.250964     3.243321
      3.235678     3.228034     3.220391     3.212748     3.205105     3.197462     3.189818     3.182175     3.174532     3.166889
      3.159245     3.151602     3.143959     3.136316     3.128673     3.121029     3.113386     3.105743     3.098100     3.090456
      3.082813     3.075170     3.067527     3.059884     3.052240     3.044597     3.036954     3.029311     3.021667     3.014024
      3.006381     2.998738     2.991095     2.983451     2.975808     2.968165     2.960522     2.952878     2.945235     2.937592
      2.929949     2.922306     2.914662     2.907019     2.899376     2.891733     2.884089     2.876446     2.868803     2.861160
      2.853517     2.845873     2.838230     2.830587     2.822944     2.815300     2.807657     2.800014     2.792371     2.784728
      2.777084     2.769441     2.761798     2.754155     2.746511     2.738868     2.731225     2.723582     2.715939     2.708295
      2.700652     2.693009     2.685366     2.677722     2.670079     2.662436     2.654793     2.647150     2.639506     2.631863
      2.624220     2.616577     2.608933     2.601290     2.593647     2.586004     2.578361     2.570717     2.563074     2.555431
      2.547788     2.540144     2.532501     2.524858     2.517215     2.509572     2.501928     2.494285     2.486642     2.478999
      2.471355     2.463712     2.456069     2.448426     2.440783     2.433139     2.425496     2.417853     2.410210     2.402566
      2.394923     2.387280     2.379637     2.371994     2.364350     2.356707     2.349064     2.341421     2.333777     2.326134
      2.318491     2.310848     2.303205     2.295561     2.287918     2.280275     2.272632     2.264988     2.257345     2.249702
      2.242059     2.234416     2.226772     2.219129     2.211486     2.203843     2.196199     2.188556     2.180913     2.173270
      2.165627     2.157983     2.150340     2.142697     2.135054     2.127410     2.119767     2.112124     2.104481     2.096838
      2.089194     2.081551     2.073908     2.066265     2.058621     2.050978     2.043335     2.035692     2.028049     2.020405
      2.012762     2.005119     1.997476     1.989833     1.982190     1.974546     1.966903     1.959260     1.951617     1.943974
      1.936331     1.928688     1.921045     1.913402     1.905759     1.898115     1.890472     1.882829     1.875186     1.867543
      1.859900     1.852257     1.844614     1.836971     1.829327     1.821684     1.814041     1.806398     1.798755     1.791112
      1.783469     1.775826     1.768183     1.760540     1.752896     1.745253     1.737610     1.729967     1.722324     1.714681
      1.707038     1.699395     1.691752     1.684108     1.676465     1.668822     1.661179     1.653536     1.645893     1.638250
      1.630607     1.622964     1.615321     1.607677     1.600034     1.592391     1.584748     1.577105     1.569462     1.561819
      1.554176     1.546533     1.538890     1.531246     1.523603     1.515960     1.508317     1.500674     1.493031     1.485388
      1.477745     1.470102     1.462458     1.454815     1.447172     1.439529     1.431886     1.424243     1.416600     1.408957
      1.401314     1.393671     1.386027     1.378384     1.370741     1.363098     1.355455     1.347812     1.340169     1.332526
      1.324883     1.317240     1.309596     1.301953     1.294310     1.286667     1.279024     1.271381     1.263738     1.256095
      1.248452     1.240808     1.233165     1.225522     1.217879     1.210236     1.202593     1.194950     1.187307     1.179664
      1.172021     1.164377     1.156734     1.149091     1.141448     1.133805     1.126162     1.118519     1.110876     1.103233
      1.095590     1.087946     1.080303     1.072660     1.065017     1.057374     1.049731     1.042088     1.034445     1.026802
      1.019158     1.011515     1.003872     0.996229     0.988586     0.980943     0.973300     0.965657     0.958014     0.950371
      0.942727     0.935084     0.927441     0.919798     0.912155     0.904512     0.896869     0.889226     0.881583     0.873940
      0.866296     0.858653     0.851010     0.843367     0.835724     0.828081     0.820438     0.812795     0.805152     0.797508
      0.789865     0.782222     0.774579     0.766936     0.759293     0.751650     0.744007     0.736364     0.728721     0.721077
      0.713434     0.705791     0.698148     0.690505     0.682862     0.675219     0.667576     0.659933     0.652290     0.644646
      0.637003     0.629360     0.621717     0.614074     0.606431     0.598788     0.591145     0.583502     0.575858     0.568215
      0.560572     0.552929     0.545286     0.537643     0.530000     0.522357     0.514714     0.507071     0.499427     0.491784
      0.484141     0.476498     0.468855     0.461212     0.453569     0.445925     0.438282     0.430639     0.422996     0.415353
      0.407710     0.400067     0.392424     0.384780     0.377137     0.369494     0.361851     0.354208     0.346565     0.338922
      0.331278     0.323635     0.315992     0.308349     0.300706     0.293063     0.285420     0.277777     0.270133     0.262490
      0.254847     0.247204     0.239561     0.231918     0.224275     0.216631     0.208988     0.201345
 NY phased data points follow
   1.43409E+01  1.35356E+01  1.73376E+01  1.85315E+01  2.42159E+01  2.88599E+01  2.99633E+01  3.76488E+01  3.77616E+01  3.82487E+01
   4.08886E+01  3.79874E+01  3.66036E+01  2.69274E+01  2.08805E+01  1.66802E+01  1.78317E+01  1.36334E+01  1.37915E+01  1.43346E+01
   1.55907E+01  1.95912E+01  1.82237E+01  2.14764E+01  2.04917E+01  1.98420E+01  2.45681E+01  2.29189E+01  1.71792E+01  2.15099E+01
   2.06324E+01  2.22297E+01  1.97343E+01  2.08743E+01  1.71556E+01  1.81154E+01  1.62588E+01  1.62030E+01  1.84774E+01  1.77075E+01
   2.01284E+01  2.01388E+01  1.85776E+01  2.46370E+01  2.55852E+01  2.66551E+01  2.88726E+01  2.92656E+01  2.55133E+01  1.91591E+01
   1.68937E+01  1.74666E+01  1.60245E+01  1.76216E+01  1.37210E+01  1.81000E+01  1.49114E+01  1.47512E+01  1.35816E+01  1.42025E+01
   9.14706E+00  8.40898E+00  4.06808E+00  5.79491E+00  4.23571E+00  6.72076E+00  3.16727E+00  5.38830E+00  4.68430E+00  6.81153E+00
   4.68261E+00  1.02596E+01  3.95705E+00  7.76492E+00  9.26744E+00  5.63410E+00  5.58520E+00  7.82994E+00  5.66662E+00  6.57247E+00
   6.32356E+00  5.60229E+00  7.39469E+00  6.26637E+00  7.74221E+00  9.61493E+00  8.00874E+00  9.17938E+00  7.22910E+00  8.18526E+00
   9.09795E+00  8.79400E+00  1.23336E+01  1.39326E+01  1.58864E+01  1.85418E+01  2.18927E+01  2.25487E+01  2.65395E+01  3.73623E+01
   4.70335E+01  5.93863E+01  6.35499E+01  5.94497E+01  5.10484E+01  3.91315E+01  2.69981E+01  1.98255E+01  1.16178E+01  9.45826E+00
   5.51007E+00  3.60426E+00  6.14485E+00  7.92602E+00  1.31795E+01  1.15174E+01  1.27654E+01  1.62351E+01  1.57838E+01  1.60401E+01
   1.98333E+01  2.38835E+01  2.82748E+01  3.84900E+01  4.24942E+01  5.27863E+01  5.51788E+01  5.41942E+01  4.59711E+01  3.80553E+01
   2.91624E+01  1.89782E+01  1.63137E+01  8.03167E+00  6.44191E-01  4.43984E+00  7.85790E+00  7.73209E+00  1.12919E+01  1.00468E+01
   1.07041E+01  1.44972E+01  8.42239E+00  1.10499E+01  7.89860E+00  5.39979E+00  4.71019E+00  7.38742E+00  6.78089E+00  1.08707E+01
   5.44610E+00  3.73189E+00  5.67120E+00  3.43033E+00  2.81025E+00  4.67851E+00  4.16255E+00  4.90468E+00  4.04544E+00 -9.05853E-02
   2.72560E+00  3.58314E+00  1.86564E+00  3.10680E-01  4.51159E+00  5.74003E+00 -2.35531E-01  1.79212E+00 -2.19938E+00 -3.61875E+00
  -8.02559E+00 -8.49713E+00 -8.58337E+00 -6.07525E+00 -8.74643E+00 -7.98551E+00 -9.38649E+00 -7.18960E+00 -7.86318E+00 -6.04046E+00
  -7.32980E+00 -3.35914E+00 -6.78577E+00 -5.02044E+00 -7.49626E+00 -5.91330E+00 -5.47166E+00 -1.29920E+00  1.23024E+00  2.15498E+00
   2.46166E+00  3.43926E+00  1.94130E+00 -1.04936E+00  6.89306E+00  6.80919E-02  2.58647E+00 -2.83078E+00 -3.54141E+00 -3.16048E+00
   3.13877E-01 -3.45847E-01  3.53551E+00  6.10269E-01  5.65536E+00  3.53621E+00  3.70903E+00  1.76084E+00  8.29072E-01 -1.72535E+00
   2.06467E+00  2.86527E+00  2.49857E+00  9.59186E+00  1.16404E+01  1.28246E+01  1.27923E+01  1.22816E+01  7.76426E+00  5.07521E+00
   5.29558E-01  1.44219E+00 -2.17158E+00  3.81226E+00  6.35083E+00  6.23419E+00  8.66756E+00  1.16497E+01  1.34417E+01  1.07747E+01
   1.25789E+01  6.61527E+00  8.88669E+00  8.42785E+00  8.13381E+00  7.84216E+00  9.86458E+00  1.20760E+01  9.85876E+00  6.98188E+00
   7.48673E+00  8.53383E+00  8.78112E+00  8.33775E+00  1.14401E+01  1.49699E+01  1.50998E+01  1.64488E+01  1.86825E+01  2.36863E+01
   2.59767E+01  3.03088E+01  3.54950E+01  4.18834E+01  4.70173E+01  5.41327E+01  6.47661E+01  7.37846E+01  8.61652E+01  8.91878E+01
   9.24690E+01  7.81485E+01  6.17548E+01  4.73949E+01  3.36404E+01  2.01721E+01  7.06828E+00  3.91201E+00  2.79545E+00  9.07509E+00
   8.07768E+00  8.94176E+00  1.22830E+01  1.22175E+01  1.46456E+01  1.10357E+01  8.86914E+00  9.14786E+00  9.45602E+00  8.76504E+00
   8.86745E+00  4.37224E+00  2.91862E+00  6.86440E+00  4.94182E+00  5.82393E+00  7.63222E+00  6.04008E+00  7.39573E+00  8.94228E+00
   6.72877E+00  8.15445E+00  7.07227E+00  7.35853E+00  1.04367E+01  1.02211E+01  9.44876E+00  7.87583E+00  7.21301E+00  1.15628E+01
   1.26106E+01  9.92989E+00  9.17702E+00  1.11853E+01  1.15147E+01  1.14490E+01  7.52426E+00  9.77825E+00  8.02716E+00  9.68589E+00
   1.12994E+01  1.06295E+01  9.01232E+00  1.00991E+01  1.09874E+01  1.10974E+01  1.06255E+01  7.00528E+00  1.03603E+01  9.72398E+00
   1.14057E+01  8.55851E+00  7.14062E+00  1.31827E+01  9.98310E+00  8.73582E+00  9.32481E+00  8.13850E+00  9.28839E+00  8.10860E+00
   7.62141E+00  9.82880E+00  1.03140E+01  1.12821E+01  8.54863E+00  1.08533E+01  7.69636E+00  1.35846E+01  1.04088E+01  1.22657E+01
   1.21783E+01  1.21696E+01  1.12421E+01  1.39761E+01  1.09924E+01  1.19683E+01  9.15492E+00  1.38450E+01  7.70598E+00  7.25499E+00
   9.29331E+00  1.18841E+01  1.20112E+01  1.00365E+01  9.27576E+00  6.04810E+00  7.56352E+00  9.43389E+00  4.64791E+00  2.57148E+00
   9.73544E-01 -3.47919E-01  9.74630E-01 -4.10391E-01 -4.34267E+00 -1.26450E+00 -1.41459E-01 -2.25052E+00 -2.00576E+00 -4.05008E+00
  -3.74087E+00 -8.96455E-01 -5.42895E+00 -2.13753E+00 -1.35852E+00 -2.25061E+00 -2.69721E+00  3.90052E-01 -1.93893E+00 -4.10109E-03
   2.16936E+00 -4.48211E+00 -2.04338E+00 -2.81133E+00 -6.59872E-01 -1.99848E+00 -2.97235E+00 -2.31509E+00 -3.48029E-02 -1.44646E+00
   1.96876E+00  3.04250E+00  3.21779E+00  3.94189E+00  1.21807E+00  4.72503E+00  6.15940E+00  7.10861E+00  9.33961E+00  7.33145E+00
   6.57844E+00  7.48614E+00  6.35546E+00  5.93139E+00  7.17640E+00  7.19295E+00  8.33183E+00  7.35057E+00  9.20930E+00  6.18741E+00
   7.86820E+00  5.26478E+00  5.79787E+00  3.83129E+00  3.82262E-01  1.03749E+00  3.71847E+00  3.51964E+00  1.79546E+00  3.26454E-01
   2.86795E-01  3.71975E-01 -6.17512E-01  1.40604E+00  1.78508E+00  3.57294E+00 -1.26951E+00  1.68406E+00  2.01119E+00  1.28647E+00
  -1.71332E+00  8.82166E-01 -1.02593E+00  3.01777E-01 -2.26951E+00  2.60767E-01  2.99300E-01 -1.62996E+00  2.39800E+00  1.95739E+00
   2.78222E+00 -4.70021E-01 -2.65642E+00 -2.73178E+00 -9.94246E-01 -9.48899E-01  1.11774E+00 -5.08237E-01 -1.25282E+00 -2.25389E+00
  -1.10527E+00 -1.22244E+00  2.11480E+00 -1.79048E-01  6.81598E-01  2.61184E+00 -3.07626E+00 -1.44892E+00  2.38000E+00  1.79619E+00
  -2.36136E+00 -3.20386E+00 -1.52010E+00 -1.17023E+00  4.81075E-01 -1.15564E+00  8.32022E-01  3.21303E+00 -6.88604E-03  1.44777E+00
   1.93572E+00 -2.19877E+00 -1.61817E+00  1.73802E+00 -1.70933E+00  1.11613E+00 -5.82619E-01 -7.40785E-01 -2.23894E+00 -2.28121E+00
   1.53522E+00 -3.28969E-01  9.96814E-01 -1.15279E+00 -8.48277E-01  9.19753E-01  1.99251E-01  2.44455E+00  7.73485E-01 -5.42814E-01
   7.22373E-01 -1.98972E+00 -9.18931E-01 -1.22503E+00 -1.49854E+00  4.61264E-01 -2.30406E+00 -1.27226E+00
 NY points of the fit to the data follow
   1.53255E+01  1.62871E+01  1.82366E+01  2.03738E+01  2.36962E+01  2.75364E+01  3.15220E+01  3.56935E+01  3.91139E+01  4.06540E+01
   3.98960E+01  3.70715E+01  3.28618E+01  2.82230E+01  2.38846E+01  2.04143E+01  1.81381E+01  1.69080E+01  1.62975E+01  1.63351E+01
   1.62185E+01  1.58786E+01  1.62723E+01  1.68744E+01  1.71426E+01  1.79774E+01  1.94423E+01  2.11396E+01  2.27836E+01  2.38710E+01
   2.41550E+01  2.36110E+01  2.26406E+01  2.13971E+01  1.96073E+01  1.74801E+01  1.56035E+01  1.43810E+01  1.37114E+01  1.39277E+01
   1.50818E+01  1.64254E+01  1.78734E+01  1.96484E+01  2.14643E+01  2.29087E+01  2.32970E+01  2.23135E+01  2.02923E+01  1.78741E+01
   1.56097E+01  1.37820E+01  1.24050E+01  1.16692E+01  1.19216E+01  1.26873E+01  1.33803E+01  1.39063E+01  1.42436E+01  1.42087E+01
   1.36979E+01  1.27923E+01  1.17714E+01  1.08927E+01  1.03922E+01  1.01939E+01  1.03297E+01  1.07815E+01  1.13352E+01  1.18371E+01
   1.20998E+01  1.20698E+01  1.17538E+01  1.12703E+01  1.07886E+01  1.03790E+01  1.00378E+01  9.75433E+00  9.54531E+00  9.47289E+00
   9.45233E+00  9.20378E+00  8.94408E+00  8.73951E+00  8.48588E+00  8.15901E+00  7.81004E+00  7.45944E+00  7.25899E+00  7.32149E+00
   7.51869E+00  7.83808E+00  8.25565E+00  8.76566E+00  9.78660E+00  1.35450E+01  1.98747E+01  2.42017E+01  2.96481E+01  3.85287E+01
   4.90018E+01  5.81639E+01  6.26335E+01  5.99740E+01  5.12706E+01  4.01336E+01  2.92098E+01  1.93481E+01  1.09707E+01  5.54810E+00
   4.78578E+00  6.79077E+00  7.57767E+00  7.69944E+00  7.73881E+00  7.79171E+00  7.89245E+00  8.16059E+00  8.98560E+00  1.23048E+01
   1.82926E+01  2.26121E+01  2.76673E+01  3.55440E+01  4.46957E+01  5.27245E+01  5.67944E+01  5.45523E+01  4.70095E+01  3.75379E+01
   2.82382E+01  1.96631E+01  1.20833E+01  6.57419E+00  4.92797E+00  5.89096E+00  6.20270E+00  6.39452E+00  6.87117E+00  7.50673E+00
   8.12699E+00  8.49729E+00  8.37084E+00  7.86727E+00  7.21170E+00  6.50320E+00  5.85300E+00  5.30837E+00  4.88997E+00  4.61394E+00
   4.31260E+00  4.01236E+00  3.75707E+00  3.47548E+00  3.10605E+00  2.90185E+00  2.80887E+00  2.61911E+00  2.32991E+00  1.76796E+00
   1.18578E+00  9.15573E-01  9.07741E-01  9.58258E-01  9.16149E-01  6.29667E-01  1.34471E-01 -4.26269E-01 -1.08604E+00 -1.87379E+00
  -2.42114E+00 -2.61516E+00 -2.80765E+00 -3.10179E+00 -3.57628E+00 -3.83100E+00 -3.66164E+00 -3.35317E+00 -3.18531E+00 -3.20131E+00
  -3.35164E+00 -3.17860E+00 -2.66987E+00 -2.22048E+00 -1.80272E+00 -1.06092E+00  1.19955E-01  1.58732E+00  3.07176E+00  4.06368E+00
   4.45467E+00  4.30663E+00  3.72526E+00  2.82111E+00  1.81637E+00  1.02131E+00  8.90232E-01  1.50195E+00  2.52041E+00  3.77485E+00
   5.02058E+00  5.97131E+00  6.52932E+00  6.31033E+00  5.53140E+00  4.19380E+00  2.15415E+00  1.77178E-01 -1.23216E+00 -1.67630E+00
  -1.19229E+00 -1.37066E-02  2.13525E+00  4.87256E+00  7.43657E+00  8.87225E+00  8.65724E+00  7.13533E+00  4.76879E+00  2.03973E+00
  -4.59723E-01 -2.14284E+00 -2.31190E+00 -7.43236E-01  2.07106E+00  5.08609E+00  7.44812E+00  9.05330E+00  9.90323E+00  1.00321E+01
   9.72944E+00  9.28968E+00  9.35429E+00  1.00106E+01  1.07287E+01  1.12506E+01  1.13824E+01  1.13888E+01  1.12100E+01  1.07076E+01
   1.02262E+01  1.02042E+01  1.07501E+01  1.18101E+01  1.32531E+01  1.48263E+01  1.61659E+01  1.73125E+01  1.88448E+01  2.11813E+01
   2.28986E+01  2.48591E+01  2.93506E+01  3.98016E+01  5.09928E+01  5.79063E+01  6.56095E+01  7.53439E+01  8.47322E+01  9.06637E+01
   8.93272E+01  7.89432E+01  6.30860E+01  4.72219E+01  3.35386E+01  2.11473E+01  1.08166E+01  5.26494E+00  6.04853E+00  8.26897E+00
   8.43621E+00  8.25414E+00  8.15234E+00  8.05486E+00  7.85850E+00  7.62042E+00  7.32779E+00  6.98453E+00  6.63342E+00  6.32252E+00
   6.06052E+00  5.89179E+00  5.84388E+00  5.86271E+00  5.89561E+00  5.94932E+00  6.03012E+00  6.13918E+00  6.28168E+00  6.46768E+00
   6.72188E+00  7.03747E+00  7.37699E+00  7.73027E+00  8.08638E+00  8.42955E+00  8.75499E+00  9.05914E+00  9.34145E+00  9.61241E+00
   9.87250E+00  1.00991E+01  1.02756E+01  1.03944E+01  1.04513E+01  1.04428E+01  1.03669E+01  1.02302E+01  1.00503E+01  9.83677E+00
   9.60037E+00  9.35383E+00  9.10979E+00  8.88094E+00  8.68087E+00  8.52275E+00  8.41952E+00  8.38509E+00  8.43840E+00  8.61685E+00
   8.97631E+00  9.29535E+00  9.47244E+00  9.77222E+00  1.00971E+01  1.02210E+01  1.00149E+01  9.43189E+00  8.76507E+00  8.38197E+00
   8.15564E+00  8.18225E+00  8.59513E+00  9.39275E+00  1.05156E+01  1.17023E+01  1.24489E+01  1.25814E+01  1.23615E+01  1.19640E+01
   1.14863E+01  1.08610E+01  1.01949E+01  9.83686E+00  9.78922E+00  9.76376E+00  9.69666E+00  9.58822E+00  9.56744E+00  9.61959E+00
   9.67861E+00  9.74907E+00  9.78444E+00  9.72201E+00  9.51088E+00  9.04364E+00  8.17928E+00  6.98500E+00  5.66783E+00  4.35548E+00
   3.12066E+00  2.01656E+00  1.11935E+00  4.95955E-01  6.47659E-02 -2.55938E-01 -4.86494E-01 -6.49045E-01 -7.63383E-01 -8.44450E-01
  -9.02308E-01 -9.43214E-01 -9.70437E-01 -9.85263E-01 -9.87500E-01 -9.76186E-01 -9.49817E-01 -9.06722E-01 -8.44950E-01 -7.62451E-01
  -6.56951E-01 -5.26235E-01 -3.68062E-01 -1.80381E-01  3.88446E-02  2.91395E-01  5.78811E-01  9.02025E-01  1.26135E+00  1.65617E+00
   2.08504E+00  2.54531E+00  3.03309E+00  3.54299E+00  4.06820E+00  4.60047E+00  5.13037E+00  5.64737E+00  6.14021E+00  6.59709E+00
   7.00638E+00  7.35696E+00  7.63893E+00  7.84387E+00  7.96545E+00  7.99951E+00  7.94464E+00  7.80203E+00  7.57564E+00  7.27172E+00
   6.89870E+00  6.46662E+00  5.98684E+00  5.47136E+00  4.93245E+00  4.38191E+00  3.83083E+00  3.28906E+00  2.76523E+00  2.26638E+00
   1.79802E+00  1.36398E+00  9.66696E-01  6.07217E-01  2.85608E-01  9.37198E-04 -2.48378E-01 -4.64564E-01 -6.50092E-01 -8.07672E-01
  -9.39937E-01 -1.04958E+00 -1.13910E+00 -1.21100E+00 -1.26744E+00 -1.31043E+00 -1.34168E+00 -1.36278E+00 -1.37510E+00 -1.37993E+00
  -1.37828E+00 -1.37109E+00 -1.35906E+00 -1.34294E+00 -1.32332E+00 -1.30079E+00 -1.27575E+00 -1.24861E+00 -1.21967E+00 -1.18931E+00
  -1.15778E+00 -1.12540E+00 -1.09231E+00 -1.05872E+00 -1.02469E+00 -9.90389E-01 -9.55889E-01 -9.21298E-01 -8.86602E-01 -8.51880E-01
  -8.17142E-01 -7.82502E-01 -7.47956E-01 -7.13557E-01 -6.79245E-01 -6.45077E-01 -6.11048E-01 -5.77244E-01 -5.43620E-01 -5.10199E-01
  -4.76911E-01 -4.43809E-01 -4.10872E-01 -3.78159E-01 -3.45598E-01 -3.13201E-01 -2.80900E-01 -2.48757E-01 -2.16739E-01 -1.84882E-01
  -1.53096E-01 -1.21391E-01 -8.97043E-02 -5.80908E-02 -2.65018E-02  5.04653E-03  3.66549E-02  6.83124E-02  1.00077E-01  1.31898E-01
   1.63850E-01  1.95936E-01  2.28268E-01  2.60836E-01  2.93706E-01  3.26852E-01  3.60383E-01  3.94335E-01
 NY background values follow
     1.318E+01    1.311E+01    1.305E+01    1.298E+01    1.291E+01    1.285E+01    1.278E+01    1.271E+01    1.264E+01    1.258E+01
     1.251E+01    1.244E+01    1.237E+01    1.230E+01    1.223E+01    1.216E+01    1.209E+01    1.202E+01    1.195E+01    1.188E+01
     1.181E+01    1.174E+01    1.167E+01    1.160E+01    1.153E+01    1.146E+01    1.139E+01    1.132E+01    1.124E+01    1.117E+01
     1.110E+01    1.103E+01    1.095E+01    1.088E+01    1.081E+01    1.074E+01    1.066E+01    1.059E+01    1.052E+01    1.044E+01
     1.037E+01    1.030E+01    1.022E+01    1.015E+01    1.008E+01    1.000E+01    9.928E+00    9.854E+00    9.780E+00    9.706E+00
     9.632E+00    9.558E+00    9.484E+00    9.411E+00    9.337E+00    9.263E+00    9.190E+00    9.117E+00    9.043E+00    8.970E+00
     8.897E+00    8.825E+00    8.752E+00    8.680E+00    8.608E+00    8.536E+00    8.465E+00    8.393E+00    8.322E+00    8.252E+00
     8.181E+00    8.111E+00    8.042E+00    7.973E+00    7.904E+00    7.835E+00    7.767E+00    7.700E+00    7.633E+00    7.566E+00
     7.500E+00    7.434E+00    7.369E+00    7.304E+00    7.240E+00    7.177E+00    7.114E+00    7.052E+00    6.990E+00    6.929E+00
     6.869E+00    6.809E+00    6.750E+00    6.692E+00    6.634E+00    6.576E+00    6.519E+00    6.463E+00    6.406E+00    6.351E+00
     6.295E+00    6.239E+00    6.184E+00    6.128E+00    6.073E+00    6.018E+00    5.962E+00    5.907E+00    5.851E+00    5.795E+00
     5.739E+00    5.683E+00    5.626E+00    5.569E+00    5.511E+00    5.453E+00    5.394E+00    5.334E+00    5.274E+00    5.213E+00
     5.152E+00    5.089E+00    5.026E+00    4.961E+00    4.896E+00    4.830E+00    4.763E+00    4.694E+00    4.624E+00    4.554E+00
     4.481E+00    4.408E+00    4.333E+00    4.257E+00    4.179E+00    4.099E+00    4.019E+00    3.936E+00    3.852E+00    3.767E+00
     3.680E+00    3.593E+00    3.504E+00    3.414E+00    3.324E+00    3.233E+00    3.141E+00    3.049E+00    2.957E+00    2.864E+00
     2.771E+00    2.678E+00    2.585E+00    2.492E+00    2.400E+00    2.308E+00    2.216E+00    2.125E+00    2.035E+00    1.946E+00
     1.857E+00    1.770E+00    1.684E+00    1.599E+00    1.515E+00    1.433E+00    1.352E+00    1.274E+00    1.197E+00    1.121E+00
     1.048E+00    9.774E-01    9.087E-01    8.423E-01    7.784E-01    7.171E-01    6.584E-01    6.025E-01    5.495E-01    4.995E-01
     4.526E-01    4.089E-01    3.685E-01    3.313E-01    2.972E-01    2.662E-01    2.382E-01    2.131E-01    1.908E-01    1.713E-01
     1.545E-01    1.403E-01    1.286E-01    1.194E-01    1.126E-01    1.081E-01    1.059E-01    1.058E-01    1.079E-01    1.120E-01
     1.180E-01    1.259E-01    1.357E-01    1.471E-01    1.603E-01    1.750E-01    1.912E-01    2.089E-01    2.280E-01    2.483E-01
     2.699E-01    2.926E-01    3.164E-01    3.412E-01    3.669E-01    3.935E-01    4.208E-01    4.489E-01    4.776E-01    5.069E-01
     5.366E-01    5.668E-01    5.973E-01    6.281E-01    6.591E-01    6.902E-01    7.213E-01    7.525E-01    7.835E-01    8.145E-01
     8.454E-01    8.761E-01    9.066E-01    9.370E-01    9.670E-01    9.968E-01    1.026E+00    1.055E+00    1.084E+00    1.112E+00
     1.140E+00    1.168E+00    1.194E+00    1.221E+00    1.246E+00    1.271E+00    1.296E+00    1.320E+00    1.343E+00    1.365E+00
     1.386E+00    1.407E+00    1.427E+00    1.446E+00    1.464E+00    1.481E+00    1.497E+00    1.512E+00    1.526E+00    1.539E+00
     1.551E+00    1.562E+00    1.571E+00    1.579E+00    1.587E+00    1.592E+00    1.597E+00    1.600E+00    1.602E+00    1.602E+00
     1.601E+00    1.598E+00    1.594E+00    1.588E+00    1.581E+00    1.573E+00    1.563E+00    1.551E+00    1.538E+00    1.524E+00
     1.508E+00    1.490E+00    1.472E+00    1.452E+00    1.430E+00    1.407E+00    1.383E+00    1.357E+00    1.330E+00    1.301E+00
     1.271E+00    1.240E+00    1.208E+00    1.174E+00    1.139E+00    1.102E+00    1.064E+00    1.025E+00    9.851E-01    9.435E-01
     9.006E-01    8.565E-01    8.111E-01    7.645E-01    7.167E-01    6.677E-01    6.174E-01    5.660E-01    5.133E-01    4.595E-01
     4.045E-01    3.483E-01    2.910E-01    2.326E-01    1.730E-01    1.122E-01    5.040E-02   -1.255E-02   -7.656E-02   -1.416E-01
    -2.075E-01   -2.742E-01   -3.418E-01   -4.101E-01   -4.790E-01   -5.485E-01   -6.185E-01   -6.890E-01   -7.598E-01   -8.309E-01
    -9.023E-01   -9.739E-01   -1.046E+00   -1.117E+00   -1.189E+00   -1.260E+00   -1.332E+00   -1.403E+00   -1.474E+00   -1.544E+00
    -1.614E+00   -1.684E+00   -1.753E+00   -1.821E+00   -1.889E+00   -1.956E+00   -2.022E+00   -2.087E+00   -2.151E+00   -2.214E+00
    -2.276E+00   -2.337E+00   -2.396E+00   -2.454E+00   -2.511E+00   -2.566E+00   -2.620E+00   -2.673E+00   -2.723E+00   -2.772E+00
    -2.819E+00   -2.864E+00   -2.907E+00   -2.949E+00   -2.988E+00   -3.026E+00   -3.061E+00   -3.095E+00   -3.126E+00   -3.156E+00
    -3.184E+00   -3.210E+00   -3.234E+00   -3.257E+00   -3.277E+00   -3.296E+00   -3.313E+00   -3.328E+00   -3.341E+00   -3.352E+00
    -3.362E+00   -3.370E+00   -3.376E+00   -3.380E+00   -3.383E+00   -3.384E+00   -3.383E+00   -3.380E+00   -3.376E+00   -3.370E+00
    -3.362E+00   -3.353E+00   -3.342E+00   -3.329E+00   -3.315E+00   -3.299E+00   -3.282E+00   -3.263E+00   -3.242E+00   -3.219E+00
    -3.195E+00   -3.170E+00   -3.143E+00   -3.114E+00   -3.084E+00   -3.052E+00   -3.019E+00   -2.985E+00   -2.948E+00   -2.911E+00
    -2.872E+00   -2.831E+00   -2.790E+00   -2.747E+00   -2.703E+00   -2.658E+00   -2.612E+00   -2.564E+00   -2.516E+00   -2.467E+00
    -2.417E+00   -2.367E+00   -2.315E+00   -2.263E+00   -2.210E+00   -2.157E+00   -2.103E+00   -2.049E+00   -1.994E+00   -1.939E+00
    -1.883E+00   -1.827E+00   -1.772E+00   -1.715E+00   -1.659E+00   -1.603E+00   -1.547E+00   -1.490E+00   -1.434E+00   -1.378E+00
    -1.323E+00   -1.267E+00   -1.212E+00   -1.157E+00   -1.103E+00   -1.049E+00   -9.955E-01   -9.426E-01   -8.905E-01   -8.390E-01
    -7.882E-01   -7.383E-01   -6.892E-01   -6.409E-01   -5.935E-01   -5.470E-01   -5.013E-01   -4.563E-01   -4.122E-01   -3.688E-01
    -3.261E-01   -2.842E-01   -2.429E-01   -2.023E-01   -1.624E-01   -1.231E-01   -8.435E-02   -4.623E-02   -8.667E-03    2.835E-02
     6.484E-02    1.008E-01    1.363E-01    1.714E-01    2.060E-01    2.402E-01    2.740E-01    3.074E-01    3.405E-01    3.732E-01
     4.057E-01    4.378E-01    4.697E-01    5.013E-01    5.327E-01    5.639E-01    5.948E-01    6.257E-01    6.564E-01    6.869E-01
     7.174E-01    7.478E-01    7.781E-01    8.084E-01    8.386E-01    8.689E-01    8.992E-01    9.295E-01
 Ala      Conc. = 1.82E+02
