 LCModel (Version 6.3-1L) Copyright: S.W. Provencher.          Ref.: Magn. Reson. Med. 30:672-679 (1993).                
 Slice#3 Row#8 Col#8  PD_05_press_1_raw_act
 Data of: Institute of Biomedical Engineering, Bogazici University, Istanbul
 05-January-2018  18:25
 36 lines in following concentration table = NCONC+1
    Conc.  %SD /Cr+PCr  Metabolite                                         
  237.417  50%   0.192 Ala                                                 
  124.483 150%   0.101 Asp                                                 
  421.024  51%   0.341 Cr                                                  
  813.677  27%   0.659 PCr                                                 
    0.000 999%   0.000 GABA                                                
    0.000 999%   0.000 Glc                                                 
  614.139  38%   0.497 Gln                                                 
 1.38E+03  19%   1.116 Glu                                                 
  340.781   7%   0.276 GPC                                                 
    0.000 999%   0.000 PCh                                                 
  299.561  25%   0.243 GSH                                                 
  514.014  49%   0.416 Ins                                                 
  536.863  25%   0.435 Lac                                                 
 1.50E+03   5%   1.218 NAA                                                 
    0.000 999%   0.000 NAAG                                                
   16.363 152% 1.3E-02 Scyllo                                              
    0.000 999%   0.000 Tau                                                 
    0.000 999%   0.000 -CrCH2                                              
  340.781   7%   0.276 GPC+PCh                                             
 1.50E+03   5%   1.218 NAA+NAAG                                            
 1.23E+03   5%   1.000 Cr+PCr                                              
 1.99E+03  19%   1.614 Glu+Gln                                             
 1.04E+04   6%   8.456 Lip13a                                              
    0.000 999%   0.000 Lip13b                                              
 2.79E+03   6%   2.258 Lip09                                               
    0.000 999%   0.000 MM09                                                
 1.57E+03   6%   1.268 Lip20                                               
  430.884  70%   0.349 MM20                                                
   21.438 554% 1.7E-02 MM12                                                
 1.06E+03  47%   0.862 MM14                                                
  648.283  37%   0.525 MM17                                                
 1.04E+04   6%   8.456 Lip13a+Lip13b                                       
 1.15E+04   4%   9.335 MM14+Lip13a+Lip13b+MM12                             
 2.79E+03   6%   2.258 MM09+Lip09                                          
 2.00E+03  16%   1.617 MM20+Lip20                                          
   6 lines in following misc. output table
  FWHM = 0.061 ppm    S/N =  10                                            
  Data shift = 0.008 ppm                                                   
  Ph: -32 deg     -16.0 deg/ppm                                            
  alphaB,S = 1.3E+00,   5.1E+01                                            
   14 spline knots.   Ns = 7(1)                                            
  ( 9) 4 infls.   ( 7) 1 extrs.                                            
  498 points on ppm-axis = NY
      4.000000     3.992357     3.984714     3.977070     3.969427     3.961784     3.954141     3.946497     3.938854     3.931211
      3.923568     3.915925     3.908281     3.900638     3.892995     3.885352     3.877708     3.870065     3.862422     3.854779
      3.847136     3.839492     3.831849     3.824206     3.816563     3.808919     3.801276     3.793633     3.785990     3.778347
      3.770703     3.763060     3.755417     3.747774     3.740130     3.732487     3.724844     3.717201     3.709558     3.701914
      3.694271     3.686628     3.678985     3.671341     3.663698     3.656055     3.648412     3.640769     3.633125     3.625482
      3.617839     3.610196     3.602552     3.594909     3.587266     3.579623     3.571980     3.564336     3.556693     3.549050
      3.541407     3.533763     3.526120     3.518477     3.510834     3.503191     3.495547     3.487904     3.480261     3.472618
      3.464974     3.457331     3.449688     3.442045     3.434402     3.426758     3.419115     3.411472     3.403829     3.396185
      3.388542     3.380899     3.373256     3.365613     3.357969     3.350326     3.342683     3.335040     3.327396     3.319753
      3.312110     3.304467     3.296824     3.289180     3.281537     3.273894     3.266251     3.258607     3.250964     3.243321
      3.235678     3.228034     3.220391     3.212748     3.205105     3.197462     3.189818     3.182175     3.174532     3.166889
      3.159245     3.151602     3.143959     3.136316     3.128673     3.121029     3.113386     3.105743     3.098100     3.090456
      3.082813     3.075170     3.067527     3.059884     3.052240     3.044597     3.036954     3.029311     3.021667     3.014024
      3.006381     2.998738     2.991095     2.983451     2.975808     2.968165     2.960522     2.952878     2.945235     2.937592
      2.929949     2.922306     2.914662     2.907019     2.899376     2.891733     2.884089     2.876446     2.868803     2.861160
      2.853517     2.845873     2.838230     2.830587     2.822944     2.815300     2.807657     2.800014     2.792371     2.784728
      2.777084     2.769441     2.761798     2.754155     2.746511     2.738868     2.731225     2.723582     2.715939     2.708295
      2.700652     2.693009     2.685366     2.677722     2.670079     2.662436     2.654793     2.647150     2.639506     2.631863
      2.624220     2.616577     2.608933     2.601290     2.593647     2.586004     2.578361     2.570717     2.563074     2.555431
      2.547788     2.540144     2.532501     2.524858     2.517215     2.509572     2.501928     2.494285     2.486642     2.478999
      2.471355     2.463712     2.456069     2.448426     2.440783     2.433139     2.425496     2.417853     2.410210     2.402566
      2.394923     2.387280     2.379637     2.371994     2.364350     2.356707     2.349064     2.341421     2.333777     2.326134
      2.318491     2.310848     2.303205     2.295561     2.287918     2.280275     2.272632     2.264988     2.257345     2.249702
      2.242059     2.234416     2.226772     2.219129     2.211486     2.203843     2.196199     2.188556     2.180913     2.173270
      2.165627     2.157983     2.150340     2.142697     2.135054     2.127410     2.119767     2.112124     2.104481     2.096838
      2.089194     2.081551     2.073908     2.066265     2.058621     2.050978     2.043335     2.035692     2.028049     2.020405
      2.012762     2.005119     1.997476     1.989833     1.982190     1.974546     1.966903     1.959260     1.951617     1.943974
      1.936331     1.928688     1.921045     1.913402     1.905759     1.898115     1.890472     1.882829     1.875186     1.867543
      1.859900     1.852257     1.844614     1.836971     1.829327     1.821684     1.814041     1.806398     1.798755     1.791112
      1.783469     1.775826     1.768183     1.760540     1.752896     1.745253     1.737610     1.729967     1.722324     1.714681
      1.707038     1.699395     1.691752     1.684108     1.676465     1.668822     1.661179     1.653536     1.645893     1.638250
      1.630607     1.622964     1.615321     1.607677     1.600034     1.592391     1.584748     1.577105     1.569462     1.561819
      1.554176     1.546533     1.538890     1.531246     1.523603     1.515960     1.508317     1.500674     1.493031     1.485388
      1.477745     1.470102     1.462458     1.454815     1.447172     1.439529     1.431886     1.424243     1.416600     1.408957
      1.401314     1.393671     1.386027     1.378384     1.370741     1.363098     1.355455     1.347812     1.340169     1.332526
      1.324883     1.317240     1.309596     1.301953     1.294310     1.286667     1.279024     1.271381     1.263738     1.256095
      1.248452     1.240808     1.233165     1.225522     1.217879     1.210236     1.202593     1.194950     1.187307     1.179664
      1.172021     1.164377     1.156734     1.149091     1.141448     1.133805     1.126162     1.118519     1.110876     1.103233
      1.095590     1.087946     1.080303     1.072660     1.065017     1.057374     1.049731     1.042088     1.034445     1.026802
      1.019158     1.011515     1.003872     0.996229     0.988586     0.980943     0.973300     0.965657     0.958014     0.950371
      0.942727     0.935084     0.927441     0.919798     0.912155     0.904512     0.896869     0.889226     0.881583     0.873940
      0.866296     0.858653     0.851010     0.843367     0.835724     0.828081     0.820438     0.812795     0.805152     0.797508
      0.789865     0.782222     0.774579     0.766936     0.759293     0.751650     0.744007     0.736364     0.728721     0.721077
      0.713434     0.705791     0.698148     0.690505     0.682862     0.675219     0.667576     0.659933     0.652290     0.644646
      0.637003     0.629360     0.621717     0.614074     0.606431     0.598788     0.591145     0.583502     0.575858     0.568215
      0.560572     0.552929     0.545286     0.537643     0.530000     0.522357     0.514714     0.507071     0.499427     0.491784
      0.484141     0.476498     0.468855     0.461212     0.453569     0.445925     0.438282     0.430639     0.422996     0.415353
      0.407710     0.400067     0.392424     0.384780     0.377137     0.369494     0.361851     0.354208     0.346565     0.338922
      0.331278     0.323635     0.315992     0.308349     0.300706     0.293063     0.285420     0.277777     0.270133     0.262490
      0.254847     0.247204     0.239561     0.231918     0.224275     0.216631     0.208988     0.201345
 NY phased data points follow
   2.97520E+01  3.26400E+01  3.22475E+01  3.05057E+01  2.68831E+01  3.17178E+01  3.39723E+01  3.59517E+01  3.89517E+01  4.66041E+01
   4.58497E+01  5.65031E+01  5.30022E+01  5.54535E+01  5.41860E+01  4.92983E+01  3.93202E+01  4.43529E+01  3.16497E+01  3.26246E+01
   3.06807E+01  2.57884E+01  2.96390E+01  2.32856E+01  1.98300E+01  2.45725E+01  2.03594E+01  2.37782E+01  2.60858E+01  2.11211E+01
   2.43841E+01  2.84562E+01  2.99153E+01  3.75002E+01  3.17418E+01  2.72773E+01  2.66143E+01  2.35767E+01  2.07934E+01  2.83886E+01
   2.08345E+01  2.15908E+01  2.64416E+01  2.54064E+01  1.74969E+01  2.76470E+01  2.06927E+01  2.95066E+01  2.33627E+01  3.15285E+01
   3.04905E+01  2.51482E+01  2.12060E+01  2.34427E+01  1.64899E+01  2.18083E+01  2.42830E+01  2.28484E+01  1.95090E+01  2.15001E+01
   2.03975E+01  2.13145E+01  1.81343E+01  1.73074E+01  1.46742E+01  1.28685E+01  9.54689E+00  1.23492E+01  1.21865E+01  1.31280E+01
   8.63536E+00  1.31642E+01  1.23588E+01  1.13244E+01  1.10045E+01  1.00216E+01  9.60633E+00  6.59091E+00  1.16090E+01  1.42131E+01
   9.61631E+00  8.67210E+00  1.31186E+01  1.24531E+01  1.57344E+01  1.12500E+01  1.35573E+01  1.27530E+01  1.60933E+01  1.21623E+01
   1.07099E+01  1.37757E+01  1.43152E+01  1.52957E+01  1.20431E+01  8.42590E+00  8.91714E+00  9.79650E+00  1.04321E+01  1.07156E+01
   1.91750E+01  2.01237E+01  3.40065E+01  3.99577E+01  4.13581E+01  4.35612E+01  4.10174E+01  3.28542E+01  3.71363E+01  2.41875E+01
   3.02120E+01  1.94787E+01  1.77996E+01  2.03847E+01  1.93221E+01  1.32773E+01  1.61105E+01  1.31846E+01  1.36712E+01  1.60079E+01
   9.93052E+00  1.17766E+01  6.55183E+00  4.80296E+00  1.49392E+01  2.53075E+01  3.06231E+01  3.67899E+01  5.07227E+01  4.84895E+01
   4.49807E+01  4.16333E+01  3.58810E+01  3.26836E+01  2.69906E+01  2.14095E+01  1.51568E+01  1.69450E+01  1.78508E+01  1.44555E+01
   1.17879E+01  1.34056E+01  1.10168E+01  1.28120E+01  1.02041E+01  7.38823E+00  8.66593E+00  5.62237E+00  1.18495E+01  5.34731E+00
   7.61212E+00  6.96455E+00  7.50199E+00  6.52026E+00  6.80254E+00  8.65390E+00  1.02210E+01  9.09116E+00  6.49059E+00  7.43127E+00
   7.89980E+00  9.74542E+00  4.75632E+00 -8.08363E-02  6.48720E+00  9.10961E+00  9.07410E+00  1.13171E+01  4.21890E+00  4.45257E+00
   6.84913E+00  6.17164E+00  2.04651E+00  1.02818E+00  5.73228E+00 -5.02875E-03 -1.25059E+00 -9.44311E-01  3.41402E+00 -6.56422E-01
  -2.30467E-01  1.88671E-01  1.54063E+00 -5.43749E+00 -4.61839E+00  1.22625E+00  4.05638E+00 -3.20275E-01 -4.00989E-01  1.39401E-01
  -2.75527E-02  4.28060E+00  8.21413E+00  8.60749E+00  4.89403E+00  1.09739E+01  8.11757E+00  8.98617E+00  8.49575E+00  8.33495E+00
   3.92137E+00  3.98202E+00  6.24783E+00  7.80642E+00  1.04853E+01  1.26751E+01  8.10645E+00  6.28107E+00  8.51969E+00  3.50711E+00
   1.88885E+00  4.84734E+00  6.89501E-01  4.87148E+00  8.21938E+00  9.74712E+00  1.29483E+01  1.24965E+01  1.98960E+01  1.79172E+01
   1.13163E+01  4.08858E+00  6.64487E+00  1.00427E+00  5.88815E+00  3.33780E+00  7.94273E+00  1.40691E+01  9.63545E+00  1.09535E+01
   1.42682E+01  8.51392E+00  9.15317E+00  1.30926E+01  6.88499E+00  1.16017E+01  1.18418E+01  1.05118E+01  1.22972E+01  1.41404E+01
   1.78684E+00  6.09534E+00  3.05586E+00  5.58999E+00  6.34410E+00  7.55905E+00  1.35939E+01  1.33616E+01  9.08268E+00  1.27648E+01
   1.29306E+01  1.19851E+01  1.56154E+01  1.20640E+01  1.23351E+01  1.31795E+01  1.66206E+01  1.90790E+01  2.28385E+01  3.86301E+01
   5.52413E+01  6.17570E+01  6.20370E+01  5.77930E+01  4.60521E+01  3.93355E+01  3.38069E+01  2.74380E+01  2.20666E+01  2.15822E+01
   1.56504E+01  1.13704E+01  1.47007E+01  1.41929E+01  1.31697E+01  8.12676E+00  9.53110E+00  9.38748E+00  1.00406E+01  9.25177E-01
   5.22016E+00  7.68815E+00  4.51559E+00  8.07309E+00  4.57938E+00  3.36305E+00  7.46566E+00  3.30979E+00  4.94460E+00  6.68499E+00
   4.58537E+00  1.30796E+01  1.22317E+01  9.56878E+00  1.27810E+01  5.75789E+00  7.86388E+00  1.25118E+01  3.56990E+00  1.19040E+01
   6.96375E+00  8.09071E+00  8.81580E+00  1.08334E+01  8.73071E+00  1.33307E+01  1.04111E+01  9.08216E+00  1.17940E+01  1.51099E+01
   1.27283E+01  1.49260E+01  8.25102E+00  1.65467E+01  1.41254E+01  1.24325E+01  1.64509E+01  1.55624E+01  2.09965E+01  1.73909E+01
   1.88449E+01  1.09054E+01  1.89122E+01  2.59128E+01  2.55758E+01  2.11139E+01  2.32271E+01  2.54785E+01  3.17358E+01  3.34402E+01
   3.46478E+01  3.21439E+01  4.13905E+01  4.18318E+01  5.15226E+01  5.36016E+01  5.59675E+01  6.22224E+01  6.47554E+01  7.46918E+01
   7.87428E+01  7.94800E+01  7.87361E+01  8.29139E+01  8.21550E+01  8.29328E+01  7.91864E+01  7.71726E+01  7.28127E+01  6.81027E+01
   6.44920E+01  5.21304E+01  4.31540E+01  4.80041E+01  4.37071E+01  3.27437E+01  3.42801E+01  3.18789E+01  3.05147E+01  2.79997E+01
   2.19698E+01  2.21691E+01  1.52161E+01  1.98546E+01  1.57718E+01  1.26804E+01  1.09610E+01  1.00764E+01  1.21200E+01  1.40005E+01
   9.74216E+00  7.21484E+00  8.05550E+00  8.47932E+00  5.98248E+00  1.20821E+00  3.77801E+00  5.05817E+00  5.69922E+00  9.28447E+00
   9.63503E+00  2.09680E+00  6.39406E+00  7.24618E+00  8.83995E+00  8.17374E+00  2.92569E+00  5.90487E+00  1.01320E+01  4.05866E+00
   6.94853E+00  6.04451E+00  5.86773E+00  9.11007E+00  5.14513E+00  1.06456E+01  9.51643E+00  1.35440E+01  8.31133E+00  6.75700E+00
   1.31017E+01  5.91320E+00  1.15530E+01  7.06862E+00  4.79125E+00  7.34255E+00  1.22421E+01  1.09040E+01  8.15247E+00  6.45463E+00
   9.56135E+00  1.08163E+01  6.55027E+00  4.55430E+00  1.04507E+01  9.47416E+00  5.20489E+00  1.04005E+01  7.34720E+00  1.06910E+01
   5.01690E+00  4.72505E+00  1.07588E+01  8.57507E+00  7.20993E+00  7.17976E+00  6.46490E+00  4.34383E+00  4.74560E+00 -2.04959E-01
   6.53232E+00  6.50394E+00  9.59530E+00  4.30918E+00  3.05912E+00  7.81635E+00  2.90065E+00  1.08173E+00  3.44579E+00  6.19345E+00
   2.24722E+00  6.24403E+00  3.64138E+00  3.83096E+00  6.58274E+00  6.31534E+00  5.69194E+00  2.04854E+00  3.78005E+00  2.10162E+00
   2.09822E+00  5.90728E+00  6.82555E+00 -6.86184E-01  6.98785E+00  3.92645E+00  4.44356E+00  2.41205E+00  6.15663E+00  4.70986E+00
  -4.14482E-01  2.60770E+00  3.30161E+00  1.66586E-01  3.06165E+00  2.61703E+00  2.74009E+00  2.36855E+00  4.88167E+00  1.44635E+00
   5.88047E-01  5.55004E-01 -7.01725E-01  1.00866E+00  6.97300E-01  1.73374E+00  2.87475E+00  1.46050E+00  4.46532E+00  6.15652E+00
   3.14686E+00  4.01279E+00  8.12647E-01 -2.94759E-01  4.66393E-01  9.93825E-01  2.07793E+00  2.76605E-01  1.53909E+00  5.86198E+00
   3.33567E+00  6.23175E+00  1.34534E+00  8.22991E-01  1.57188E+00  2.66754E+00  5.04390E+00  1.38445E+00
 NY points of the fit to the data follow
   2.66897E+01  2.60454E+01  2.57343E+01  2.55640E+01  2.53203E+01  2.57162E+01  2.74538E+01  3.08874E+01  3.60495E+01  4.21348E+01
   4.76975E+01  5.13076E+01  5.21127E+01  5.03685E+01  4.72805E+01  4.40282E+01  4.09322E+01  3.72316E+01  3.28817E+01  2.96290E+01
   2.73163E+01  2.63718E+01  2.62470E+01  2.61722E+01  2.56568E+01  2.47175E+01  2.37664E+01  2.32277E+01  2.35194E+01  2.48057E+01
   2.68758E+01  2.91214E+01  3.07293E+01  3.11328E+01  3.04757E+01  2.91848E+01  2.77859E+01  2.60286E+01  2.38994E+01  2.24589E+01
   2.18143E+01  2.13775E+01  2.11170E+01  2.12365E+01  2.19372E+01  2.29316E+01  2.39803E+01  2.47585E+01  2.49729E+01  2.47425E+01
   2.40900E+01  2.30607E+01  2.20706E+01  2.13819E+01  2.06516E+01  1.96983E+01  1.89185E+01  1.86304E+01  1.86577E+01  1.87533E+01
   1.88579E+01  1.88519E+01  1.86450E+01  1.82151E+01  1.76769E+01  1.72098E+01  1.68719E+01  1.65903E+01  1.63659E+01  1.62603E+01
   1.62430E+01  1.63100E+01  1.63783E+01  1.63871E+01  1.63050E+01  1.61174E+01  1.58745E+01  1.56403E+01  1.54332E+01  1.52263E+01
   1.49649E+01  1.47601E+01  1.46673E+01  1.46508E+01  1.46394E+01  1.45511E+01  1.43232E+01  1.39433E+01  1.34731E+01  1.30304E+01
   1.27399E+01  1.26509E+01  1.27083E+01  1.27830E+01  1.28081E+01  1.29109E+01  1.30559E+01  1.29150E+01  1.26132E+01  1.36977E+01
   1.73976E+01  2.37855E+01  3.18497E+01  3.94473E+01  4.42477E+01  4.49773E+01  4.19057E+01  3.68942E+01  3.23085E+01  2.89297E+01
   2.53382E+01  1.95909E+01  1.38455E+01  1.18539E+01  1.13429E+01  1.11377E+01  1.10298E+01  1.09655E+01  1.09246E+01  1.09070E+01
   1.09301E+01  1.08392E+01  1.06580E+01  1.20211E+01  1.64472E+01  2.41054E+01  3.39322E+01  4.34950E+01  4.99780E+01  5.16905E+01
   4.87081E+01  4.30593E+01  3.75806E+01  3.34008E+01  2.90191E+01  2.19407E+01  1.39342E+01  1.04167E+01  9.47298E+00  9.35032E+00
   9.55700E+00  9.77936E+00  9.95465E+00  1.02224E+01  1.04840E+01  1.06340E+01  1.07058E+01  1.06467E+01  1.04344E+01  1.01667E+01
   9.86079E+00  9.64496E+00  9.46819E+00  9.30717E+00  9.17434E+00  9.11199E+00  9.08661E+00  8.98654E+00  8.76105E+00  8.38534E+00
   7.91541E+00  7.51918E+00  7.32996E+00  7.37125E+00  7.54020E+00  7.66370E+00  7.60024E+00  7.32530E+00  6.97064E+00  6.72054E+00
   6.54814E+00  6.27851E+00  5.84128E+00  5.20390E+00  4.58467E+00  4.15664E+00  3.87976E+00  3.75440E+00  3.73248E+00  3.74152E+00
   3.69921E+00  3.57763E+00  3.44700E+00  3.38633E+00  3.44393E+00  3.49075E+00  3.36985E+00  3.43658E+00  3.99439E+00  5.01686E+00
   6.13776E+00  6.87854E+00  7.15314E+00  7.07704E+00  6.79944E+00  6.44326E+00  6.01497E+00  5.53708E+00  5.30964E+00  5.47076E+00
   6.10862E+00  7.21190E+00  8.53376E+00  9.70095E+00  1.05332E+01  1.06740E+01  9.96678E+00  8.38647E+00  6.21909E+00  4.04726E+00
   2.47005E+00  1.94185E+00  2.63624E+00  4.49557E+00  7.16187E+00  9.97165E+00  1.22360E+01  1.34538E+01  1.32100E+01  1.09072E+01
   7.67345E+00  4.79613E+00  2.64783E+00  1.33177E+00  1.05565E+00  2.42258E+00  4.90452E+00  7.13641E+00  8.70607E+00  9.89332E+00
   1.10252E+01  1.16697E+01  1.13417E+01  1.06015E+01  1.02554E+01  1.02871E+01  1.05926E+01  1.10797E+01  1.15308E+01  1.17507E+01
   1.14526E+01  1.05424E+01  9.53116E+00  8.97519E+00  8.91787E+00  9.02392E+00  9.36561E+00  9.88795E+00  1.03110E+01  1.05936E+01
   1.10423E+01  1.17878E+01  1.24429E+01  1.30291E+01  1.33676E+01  1.33773E+01  1.48323E+01  1.97960E+01  2.87308E+01  4.04427E+01
   5.19640E+01  5.96641E+01  6.13548E+01  5.70283E+01  4.91857E+01  4.15380E+01  3.58763E+01  3.04571E+01  2.21026E+01  1.26184E+01
   8.51422E+00  7.38975E+00  6.88048E+00  6.71809E+00  6.78809E+00  6.83176E+00  6.85739E+00  6.84231E+00  6.78842E+00  6.73236E+00
   6.69210E+00  6.61400E+00  6.50516E+00  6.43765E+00  6.43385E+00  6.46828E+00  6.52372E+00  6.60220E+00  6.71646E+00  6.86256E+00
   7.01404E+00  7.17898E+00  7.36464E+00  7.57054E+00  7.79493E+00  8.03725E+00  8.29773E+00  8.57158E+00  8.85151E+00  9.13681E+00
   9.42515E+00  9.71150E+00  9.99312E+00  1.02674E+01  1.05313E+01  1.07824E+01  1.10201E+01  1.12459E+01  1.14632E+01  1.16761E+01
   1.18895E+01  1.21094E+01  1.23451E+01  1.26081E+01  1.29098E+01  1.32632E+01  1.36827E+01  1.41847E+01  1.47885E+01  1.55154E+01
   1.63859E+01  1.74295E+01  1.87796E+01  2.05149E+01  2.25358E+01  2.46634E+01  2.66947E+01  2.84980E+01  3.01192E+01  3.16979E+01
   3.35187E+01  3.59778E+01  3.92456E+01  4.32145E+01  4.76674E+01  5.25273E+01  5.78591E+01  6.29986E+01  6.73902E+01  7.10786E+01
   7.42528E+01  7.69718E+01  7.91451E+01  8.06429E+01  8.16169E+01  8.19895E+01  8.11229E+01  7.85107E+01  7.40615E+01  6.80313E+01
   6.11160E+01  5.44630E+01  4.88896E+01  4.44825E+01  4.08599E+01  3.77247E+01  3.54925E+01  3.38176E+01  3.13297E+01  2.82242E+01
   2.51870E+01  2.26058E+01  2.01567E+01  1.71146E+01  1.41080E+01  1.19741E+01  1.03947E+01  9.17451E+00  8.22570E+00  7.49291E+00
   6.93518E+00  6.52016E+00  6.22173E+00  6.01853E+00  5.89305E+00  5.83098E+00  5.82082E+00  5.85348E+00  5.92182E+00  6.02018E+00
   6.14395E+00  6.28934E+00  6.45323E+00  6.63313E+00  6.82694E+00  7.03276E+00  7.24869E+00  7.47282E+00  7.70330E+00  7.93830E+00
   8.17601E+00  8.41445E+00  8.65144E+00  8.88466E+00  9.11180E+00  9.33057E+00  9.53867E+00  9.73372E+00  9.91326E+00  1.00749E+01
   1.02166E+01  1.03364E+01  1.04326E+01  1.05037E+01  1.05484E+01  1.05658E+01  1.05554E+01  1.05172E+01  1.04515E+01  1.03588E+01
   1.02400E+01  1.00964E+01  9.92976E+00  9.74194E+00  9.53507E+00  9.31133E+00  9.07303E+00  8.82262E+00  8.56267E+00  8.29563E+00
   8.02379E+00  7.74930E+00  7.47418E+00  7.20043E+00  6.92984E+00  6.66394E+00  6.40399E+00  6.15101E+00  5.90593E+00  5.66957E+00
   5.44254E+00  5.22521E+00  5.01775E+00  4.82021E+00  4.63266E+00  4.45510E+00  4.28737E+00  4.12919E+00  3.98019E+00  3.84005E+00
   3.70848E+00  3.58518E+00  3.46977E+00  3.36177E+00  3.26076E+00  3.16636E+00  3.07829E+00  2.99623E+00  2.91978E+00  2.84853E+00
   2.78213E+00  2.72034E+00  2.66295E+00  2.60970E+00  2.56026E+00  2.51434E+00  2.47172E+00  2.43227E+00  2.39585E+00  2.36225E+00
   2.33120E+00  2.30252E+00  2.27610E+00  2.25189E+00  2.22978E+00  2.20957E+00  2.19110E+00  2.17425E+00  2.15900E+00  2.14531E+00
   2.13308E+00  2.12215E+00  2.11242E+00  2.10384E+00  2.09643E+00  2.09016E+00  2.08493E+00  2.08061E+00  2.07713E+00  2.07451E+00
   2.07278E+00  2.07190E+00  2.07175E+00  2.07225E+00  2.07340E+00  2.07523E+00  2.07777E+00  2.08095E+00  2.08469E+00  2.08893E+00
   2.09372E+00  2.09910E+00  2.10508E+00  2.11159E+00  2.11857E+00  2.12601E+00  2.13399E+00  2.14256E+00
 NY background values follow
     2.467E+01    2.453E+01    2.438E+01    2.423E+01    2.409E+01    2.394E+01    2.380E+01    2.365E+01    2.351E+01    2.336E+01
     2.322E+01    2.307E+01    2.292E+01    2.278E+01    2.263E+01    2.249E+01    2.234E+01    2.220E+01    2.205E+01    2.191E+01
     2.176E+01    2.162E+01    2.147E+01    2.133E+01    2.119E+01    2.104E+01    2.090E+01    2.075E+01    2.061E+01    2.047E+01
     2.032E+01    2.018E+01    2.004E+01    1.989E+01    1.975E+01    1.961E+01    1.947E+01    1.932E+01    1.918E+01    1.904E+01
     1.890E+01    1.876E+01    1.862E+01    1.848E+01    1.834E+01    1.820E+01    1.806E+01    1.792E+01    1.778E+01    1.765E+01
     1.751E+01    1.737E+01    1.723E+01    1.710E+01    1.696E+01    1.682E+01    1.669E+01    1.655E+01    1.642E+01    1.628E+01
     1.615E+01    1.602E+01    1.588E+01    1.575E+01    1.562E+01    1.549E+01    1.536E+01    1.523E+01    1.510E+01    1.497E+01
     1.484E+01    1.471E+01    1.458E+01    1.446E+01    1.433E+01    1.420E+01    1.408E+01    1.395E+01    1.383E+01    1.370E+01
     1.358E+01    1.346E+01    1.334E+01    1.322E+01    1.309E+01    1.297E+01    1.286E+01    1.274E+01    1.262E+01    1.250E+01
     1.238E+01    1.227E+01    1.215E+01    1.204E+01    1.192E+01    1.181E+01    1.170E+01    1.159E+01    1.148E+01    1.137E+01
     1.126E+01    1.115E+01    1.104E+01    1.093E+01    1.082E+01    1.072E+01    1.061E+01    1.051E+01    1.040E+01    1.030E+01
     1.020E+01    1.010E+01    9.996E+00    9.895E+00    9.795E+00    9.696E+00    9.598E+00    9.501E+00    9.404E+00    9.307E+00
     9.212E+00    9.117E+00    9.023E+00    8.930E+00    8.837E+00    8.746E+00    8.654E+00    8.564E+00    8.474E+00    8.385E+00
     8.297E+00    8.210E+00    8.123E+00    8.037E+00    7.951E+00    7.867E+00    7.783E+00    7.699E+00    7.617E+00    7.535E+00
     7.454E+00    7.374E+00    7.294E+00    7.216E+00    7.138E+00    7.060E+00    6.984E+00    6.908E+00    6.832E+00    6.758E+00
     6.684E+00    6.611E+00    6.539E+00    6.468E+00    6.397E+00    6.327E+00    6.258E+00    6.189E+00    6.122E+00    6.055E+00
     5.988E+00    5.923E+00    5.858E+00    5.794E+00    5.731E+00    5.668E+00    5.606E+00    5.545E+00    5.485E+00    5.426E+00
     5.367E+00    5.309E+00    5.252E+00    5.195E+00    5.139E+00    5.084E+00    5.030E+00    4.977E+00    4.924E+00    4.872E+00
     4.821E+00    4.771E+00    4.721E+00    4.672E+00    4.624E+00    4.577E+00    4.530E+00    4.484E+00    4.439E+00    4.394E+00
     4.350E+00    4.307E+00    4.265E+00    4.223E+00    4.182E+00    4.141E+00    4.102E+00    4.062E+00    4.024E+00    3.986E+00
     3.949E+00    3.912E+00    3.876E+00    3.840E+00    3.806E+00    3.771E+00    3.737E+00    3.704E+00    3.672E+00    3.640E+00
     3.608E+00    3.577E+00    3.546E+00    3.516E+00    3.487E+00    3.458E+00    3.430E+00    3.402E+00    3.374E+00    3.347E+00
     3.320E+00    3.294E+00    3.268E+00    3.243E+00    3.218E+00    3.194E+00    3.170E+00    3.146E+00    3.123E+00    3.100E+00
     3.078E+00    3.055E+00    3.034E+00    3.012E+00    2.991E+00    2.971E+00    2.951E+00    2.931E+00    2.911E+00    2.892E+00
     2.873E+00    2.854E+00    2.836E+00    2.818E+00    2.801E+00    2.783E+00    2.766E+00    2.750E+00    2.733E+00    2.717E+00
     2.702E+00    2.686E+00    2.671E+00    2.656E+00    2.641E+00    2.627E+00    2.612E+00    2.598E+00    2.585E+00    2.571E+00
     2.558E+00    2.545E+00    2.532E+00    2.519E+00    2.507E+00    2.495E+00    2.483E+00    2.471E+00    2.460E+00    2.448E+00
     2.437E+00    2.426E+00    2.415E+00    2.404E+00    2.394E+00    2.384E+00    2.373E+00    2.363E+00    2.353E+00    2.344E+00
     2.334E+00    2.325E+00    2.316E+00    2.306E+00    2.298E+00    2.289E+00    2.280E+00    2.272E+00    2.263E+00    2.255E+00
     2.247E+00    2.239E+00    2.231E+00    2.223E+00    2.216E+00    2.208E+00    2.201E+00    2.194E+00    2.187E+00    2.180E+00
     2.173E+00    2.166E+00    2.160E+00    2.153E+00    2.147E+00    2.141E+00    2.135E+00    2.129E+00    2.123E+00    2.117E+00
     2.111E+00    2.106E+00    2.100E+00    2.095E+00    2.089E+00    2.084E+00    2.079E+00    2.074E+00    2.069E+00    2.064E+00
     2.059E+00    2.054E+00    2.050E+00    2.045E+00    2.041E+00    2.037E+00    2.032E+00    2.028E+00    2.024E+00    2.020E+00
     2.016E+00    2.013E+00    2.009E+00    2.005E+00    2.002E+00    1.999E+00    1.995E+00    1.992E+00    1.989E+00    1.986E+00
     1.983E+00    1.981E+00    1.978E+00    1.975E+00    1.973E+00    1.971E+00    1.969E+00    1.966E+00    1.964E+00    1.963E+00
     1.961E+00    1.959E+00    1.958E+00    1.956E+00    1.955E+00    1.954E+00    1.953E+00    1.952E+00    1.951E+00    1.950E+00
     1.950E+00    1.949E+00    1.949E+00    1.949E+00    1.949E+00    1.949E+00    1.949E+00    1.949E+00    1.949E+00    1.950E+00
     1.951E+00    1.951E+00    1.952E+00    1.953E+00    1.954E+00    1.956E+00    1.957E+00    1.959E+00    1.960E+00    1.962E+00
     1.964E+00    1.966E+00    1.969E+00    1.971E+00    1.974E+00    1.976E+00    1.979E+00    1.982E+00    1.985E+00    1.988E+00
     1.992E+00    1.995E+00    1.999E+00    2.003E+00    2.007E+00    2.011E+00    2.015E+00    2.020E+00    2.024E+00    2.029E+00
     2.034E+00    2.039E+00    2.044E+00    2.050E+00    2.055E+00    2.061E+00    2.067E+00    2.073E+00    2.079E+00    2.085E+00
     2.092E+00    2.099E+00    2.105E+00    2.112E+00    2.119E+00    2.127E+00    2.134E+00    2.142E+00    2.149E+00    2.157E+00
     2.165E+00    2.173E+00    2.181E+00    2.189E+00    2.197E+00    2.206E+00    2.214E+00    2.223E+00    2.232E+00    2.241E+00
     2.250E+00    2.259E+00    2.268E+00    2.277E+00    2.286E+00    2.295E+00    2.305E+00    2.314E+00    2.324E+00    2.334E+00
     2.343E+00    2.353E+00    2.363E+00    2.373E+00    2.383E+00    2.392E+00    2.402E+00    2.412E+00    2.423E+00    2.433E+00
     2.443E+00    2.453E+00    2.463E+00    2.473E+00    2.483E+00    2.494E+00    2.504E+00    2.514E+00    2.524E+00    2.535E+00
     2.545E+00    2.555E+00    2.566E+00    2.576E+00    2.586E+00    2.597E+00    2.607E+00    2.618E+00    2.628E+00    2.639E+00
     2.649E+00    2.660E+00    2.670E+00    2.680E+00    2.691E+00    2.701E+00    2.712E+00    2.723E+00    2.733E+00    2.744E+00
     2.754E+00    2.765E+00    2.775E+00    2.786E+00    2.796E+00    2.807E+00    2.817E+00    2.828E+00    2.839E+00    2.849E+00
     2.860E+00    2.870E+00    2.881E+00    2.891E+00    2.902E+00    2.912E+00    2.923E+00    2.934E+00
