 LCModel (Version 6.3-1L) Copyright: S.W. Provencher.          Ref.: Magn. Reson. Med. 30:672-679 (1993).                
 Slice#1 Row#10 Col#14  PD_05_press_1_raw_act
 36 lines in following concentration table = NCONC+1
    Conc.  %SD /Cr+PCr  Metabolite                                         
    2.389 835%   0.000 Ala                                                 
    0.000 999%   0.000 Asp                                                 
    0.000 999%   0.000 Cr                                                  
    0.000 999%   0.000 PCr                                                 
    0.000 999%   0.000 GABA                                                
    0.000 999%   0.000 Glc                                                 
    7.735 507%   0.000 Gln                                                 
    0.000 999%   0.000 Glu                                                 
    0.000 999%   0.000 GPC                                                 
    0.000 999%   0.000 PCh                                                 
    9.239 146%   0.000 GSH                                                 
    0.000 999%   0.000 Ins                                                 
   26.982  84%   0.000 Lac                                                 
    0.000 999%   0.000 NAA                                                 
    0.161 999%   0.000 NAAG                                                
 2.86E-02 999%   0.000 Scyllo                                              
    0.000 999%   0.000 Tau                                                 
    1.646 216%   0.000 -CrCH2                                              
    0.000 999%   0.000 GPC+PCh                                             
    0.161 999%   0.000 NAA+NAAG                                            
    0.000 999%   0.000 Cr+PCr                                              
    7.735 507%   0.000 Glu+Gln                                             
 1.43E+03  12%   0.000 Lip13a                                              
    0.000 999%   0.000 Lip13b                                              
  412.320  18%   0.000 Lip09                                               
    0.000 999%   0.000 MM09                                                
  241.459  25%   0.000 Lip20                                               
    0.000 999%   0.000 MM20                                                
   55.880 122%   0.000 MM12                                                
    0.000 999%   0.000 MM14                                                
  128.477  38%   0.000 MM17                                                
 1.43E+03  12%   0.000 Lip13a+Lip13b                                       
 1.49E+03  11%   0.000 MM14+Lip13a+Lip13b+MM12                             
  412.320  18%   0.000 MM09+Lip09                                          
  241.459  25%   0.000 MM20+Lip20                                          
   6 lines in following misc. output table
  FWHM = 0.054 ppm    S/N =   3                                            
  Data shift =-0.023 ppm                                                   
  Ph: 163 deg     -27.0 deg/ppm                                            
  alphaB,S = 8.5E+01,   2.6E+01                                            
   14 spline knots.   Ns = 5(1)                                            
   2 inflections.     1 extrema                                            
  498 points on ppm-axis = NY
      4.000000     3.992357     3.984714     3.977070     3.969427     3.961784     3.954141     3.946497     3.938854     3.931211
      3.923568     3.915925     3.908281     3.900638     3.892995     3.885352     3.877708     3.870065     3.862422     3.854779
      3.847136     3.839492     3.831849     3.824206     3.816563     3.808919     3.801276     3.793633     3.785990     3.778347
      3.770703     3.763060     3.755417     3.747774     3.740130     3.732487     3.724844     3.717201     3.709558     3.701914
      3.694271     3.686628     3.678985     3.671341     3.663698     3.656055     3.648412     3.640769     3.633125     3.625482
      3.617839     3.610196     3.602552     3.594909     3.587266     3.579623     3.571980     3.564336     3.556693     3.549050
      3.541407     3.533763     3.526120     3.518477     3.510834     3.503191     3.495547     3.487904     3.480261     3.472618
      3.464974     3.457331     3.449688     3.442045     3.434402     3.426758     3.419115     3.411472     3.403829     3.396185
      3.388542     3.380899     3.373256     3.365613     3.357969     3.350326     3.342683     3.335040     3.327396     3.319753
      3.312110     3.304467     3.296824     3.289180     3.281537     3.273894     3.266251     3.258607     3.250964     3.243321
      3.235678     3.228034     3.220391     3.212748     3.205105     3.197462     3.189818     3.182175     3.174532     3.166889
      3.159245     3.151602     3.143959     3.136316     3.128673     3.121029     3.113386     3.105743     3.098100     3.090456
      3.082813     3.075170     3.067527     3.059884     3.052240     3.044597     3.036954     3.029311     3.021667     3.014024
      3.006381     2.998738     2.991095     2.983451     2.975808     2.968165     2.960522     2.952878     2.945235     2.937592
      2.929949     2.922306     2.914662     2.907019     2.899376     2.891733     2.884089     2.876446     2.868803     2.861160
      2.853517     2.845873     2.838230     2.830587     2.822944     2.815300     2.807657     2.800014     2.792371     2.784728
      2.777084     2.769441     2.761798     2.754155     2.746511     2.738868     2.731225     2.723582     2.715939     2.708295
      2.700652     2.693009     2.685366     2.677722     2.670079     2.662436     2.654793     2.647150     2.639506     2.631863
      2.624220     2.616577     2.608933     2.601290     2.593647     2.586004     2.578361     2.570717     2.563074     2.555431
      2.547788     2.540144     2.532501     2.524858     2.517215     2.509572     2.501928     2.494285     2.486642     2.478999
      2.471355     2.463712     2.456069     2.448426     2.440783     2.433139     2.425496     2.417853     2.410210     2.402566
      2.394923     2.387280     2.379637     2.371994     2.364350     2.356707     2.349064     2.341421     2.333777     2.326134
      2.318491     2.310848     2.303205     2.295561     2.287918     2.280275     2.272632     2.264988     2.257345     2.249702
      2.242059     2.234416     2.226772     2.219129     2.211486     2.203843     2.196199     2.188556     2.180913     2.173270
      2.165627     2.157983     2.150340     2.142697     2.135054     2.127410     2.119767     2.112124     2.104481     2.096838
      2.089194     2.081551     2.073908     2.066265     2.058621     2.050978     2.043335     2.035692     2.028049     2.020405
      2.012762     2.005119     1.997476     1.989833     1.982190     1.974546     1.966903     1.959260     1.951617     1.943974
      1.936331     1.928688     1.921045     1.913402     1.905759     1.898115     1.890472     1.882829     1.875186     1.867543
      1.859900     1.852257     1.844614     1.836971     1.829327     1.821684     1.814041     1.806398     1.798755     1.791112
      1.783469     1.775826     1.768183     1.760540     1.752896     1.745253     1.737610     1.729967     1.722324     1.714681
      1.707038     1.699395     1.691752     1.684108     1.676465     1.668822     1.661179     1.653536     1.645893     1.638250
      1.630607     1.622964     1.615321     1.607677     1.600034     1.592391     1.584748     1.577105     1.569462     1.561819
      1.554176     1.546533     1.538890     1.531246     1.523603     1.515960     1.508317     1.500674     1.493031     1.485388
      1.477745     1.470102     1.462458     1.454815     1.447172     1.439529     1.431886     1.424243     1.416600     1.408957
      1.401314     1.393671     1.386027     1.378384     1.370741     1.363098     1.355455     1.347812     1.340169     1.332526
      1.324883     1.317240     1.309596     1.301953     1.294310     1.286667     1.279024     1.271381     1.263738     1.256095
      1.248452     1.240808     1.233165     1.225522     1.217879     1.210236     1.202593     1.194950     1.187307     1.179664
      1.172021     1.164377     1.156734     1.149091     1.141448     1.133805     1.126162     1.118519     1.110876     1.103233
      1.095590     1.087946     1.080303     1.072660     1.065017     1.057374     1.049731     1.042088     1.034445     1.026802
      1.019158     1.011515     1.003872     0.996229     0.988586     0.980943     0.973300     0.965657     0.958014     0.950371
      0.942727     0.935084     0.927441     0.919798     0.912155     0.904512     0.896869     0.889226     0.881583     0.873940
      0.866296     0.858653     0.851010     0.843367     0.835724     0.828081     0.820438     0.812795     0.805152     0.797508
      0.789865     0.782222     0.774579     0.766936     0.759293     0.751650     0.744007     0.736364     0.728721     0.721077
      0.713434     0.705791     0.698148     0.690505     0.682862     0.675219     0.667576     0.659933     0.652290     0.644646
      0.637003     0.629360     0.621717     0.614074     0.606431     0.598788     0.591145     0.583502     0.575858     0.568215
      0.560572     0.552929     0.545286     0.537643     0.530000     0.522357     0.514714     0.507071     0.499427     0.491784
      0.484141     0.476498     0.468855     0.461212     0.453569     0.445925     0.438282     0.430639     0.422996     0.415353
      0.407710     0.400067     0.392424     0.384780     0.377137     0.369494     0.361851     0.354208     0.346565     0.338922
      0.331278     0.323635     0.315992     0.308349     0.300706     0.293063     0.285420     0.277777     0.270133     0.262490
      0.254847     0.247204     0.239561     0.231918     0.224275     0.216631     0.208988     0.201345
 NY phased data points follow
   8.98761E-01  9.57177E-01 -5.38159E-01  1.02724E+00  1.59740E+00  7.95271E-02 -3.70480E-01 -1.03044E+00  3.11032E-01  8.52040E-02
  -5.75285E-02 -1.32294E-01 -1.00293E-01 -1.00336E+00  9.98015E-01  6.70449E-01  4.22551E-01 -1.71830E-01  1.21860E+00  2.76455E-02
   9.25355E-01  1.61485E+00  1.53776E+00 -7.50442E-01 -6.41637E-01  3.53813E-01  1.76865E+00 -6.53163E-01  6.17472E-01 -6.70336E-01
   6.55365E-01  1.22593E+00  5.12228E-01  1.14078E+00 -6.85960E-01 -1.63869E-01 -7.69138E-01 -1.34000E-01  4.29909E-01  2.09414E-04
  -7.05534E-02  1.73530E+00 -3.62017E-01  2.64179E-01  7.42976E-01  1.41498E+00  6.21337E-01 -3.42591E-01  1.48723E+00  5.42387E-01
   4.48434E-01  2.16415E-01  7.00507E-02 -9.34593E-01  1.46328E+00  1.51312E+00  8.60919E-01 -4.92785E-04 -4.51580E-01 -4.75887E-01
  -1.44274E+00  5.22685E-01 -1.96849E-01 -5.29194E-01  4.37692E-01  3.69095E-01  8.49747E-01  8.30199E-01 -2.39942E-01  2.33982E-02
   2.24583E-01 -1.66710E+00  3.31071E-01 -3.28630E-01  4.61005E-02 -7.33372E-01  4.70130E-01  1.22087E+00  2.71328E-01  5.77253E-01
  -5.79022E-01  6.60259E-01 -7.10139E-02  1.39897E+00  1.47729E+00 -1.29079E+00  8.52823E-01  5.70211E-01  1.14339E+00 -3.32231E-01
   1.31558E+00  3.05141E-01  4.44239E-01 -1.27893E+00 -2.93409E-02  2.87010E-01  6.45487E-01  6.80313E-02 -1.39566E+00  3.70085E-01
  -3.53253E-01 -4.94297E-01  2.44723E-01  4.82391E-01 -1.05335E+00  7.26536E-01 -9.33488E-01 -4.64583E-01 -1.84417E-01  7.99964E-01
  -7.65221E-01 -2.10115E-01 -1.02134E-01  5.63129E-01  1.56594E-01  2.94172E-01  1.90678E+00  6.53214E-01 -9.03713E-02 -8.67766E-01
   5.66310E-02 -4.16585E-01  3.80766E-01 -6.22885E-01  9.25990E-01  3.00694E-01  8.36948E-02  1.52530E+00 -1.05161E+00 -2.61036E-01
   3.67864E-01 -3.51610E-01 -3.03687E-01  5.23308E-01 -5.37691E-02 -4.53891E-01 -3.24531E-01 -5.18372E-01 -2.24559E-01 -8.26191E-02
  -3.09068E-01  8.56829E-01  1.27264E-01  7.46658E-02  1.11644E-01  1.22889E+00  1.24717E-01 -5.47276E-01  5.55387E-01  9.50943E-01
   5.58992E-01 -8.73633E-01  7.31033E-01 -2.85271E-01  7.31170E-01  1.66637E+00 -3.94060E-01 -9.26037E-01  1.91313E-01 -1.23140E-01
   1.69652E+00  9.61279E-01  5.09860E-01  4.94647E-01 -1.71810E-01  4.14022E-01 -4.99471E-01  1.64907E+00 -5.96286E-01 -7.84070E-03
   2.04574E-01 -6.88684E-01 -1.91450E-01 -8.68441E-01 -8.35076E-01  1.51650E+00 -3.15214E-01  8.16428E-01 -5.01275E-01  8.26920E-01
  -1.49090E-01  2.63078E-01  1.10188E+00  2.79343E-01 -3.95786E-01  4.19772E-01 -1.36695E+00 -7.20508E-01 -3.47497E-01 -9.59091E-03
   8.17613E-01 -9.08050E-02 -3.84747E-01  6.09844E-01  1.37398E+00 -6.52281E-02  8.72742E-01  2.03134E-01  5.21214E-02 -1.98719E-01
   5.20569E-01 -6.83207E-01 -3.22972E-01  4.40992E-01  4.38689E-01  5.95875E-01  1.22514E+00 -2.21414E-01  3.65270E-01  6.17916E-01
  -6.79033E-01 -7.14722E-01  1.58947E-01  1.13050E+00  2.17569E+00  1.64945E-01 -1.59726E-01  4.83692E-01  1.25171E+00  2.20395E-01
   1.03637E+00  9.72437E-01 -4.24341E-02  5.20151E-01  6.58345E-01  5.26046E-02 -2.22371E-01 -1.37344E+00  8.88342E-01 -2.55274E-01
  -5.68631E-02  8.44682E-01  4.71130E-01 -5.98746E-01  7.58330E-01  1.17589E+00 -1.01805E-01  8.79906E-01  4.66754E-01  3.89532E-01
   4.13471E-01  7.64605E-01 -1.17392E-01 -3.90462E-02  1.34465E-01 -5.08707E-01  1.38446E+00 -9.11747E-01  6.44737E-01 -4.05127E-02
  -1.46123E-01  1.18978E+00  3.66913E-01  6.23332E-01  2.88337E-02  8.66438E-01 -9.48411E-01  9.52902E-01  1.25518E-01  1.07197E+00
   1.07073E-02  7.67269E-01  7.69300E-01 -2.47520E-01 -1.77062E-01 -2.94275E-02 -7.53731E-01  2.69824E-01 -4.16182E-01 -2.45131E+00
  -5.28080E-02  1.29053E-01  1.22846E+00  9.85558E-01 -5.40875E-01 -1.74305E-01 -8.74559E-01 -4.06809E-01  5.03006E-02 -2.41425E-01
   9.12724E-01 -1.98839E-01  1.69683E-01  1.23814E+00 -1.35232E+00 -2.58741E-01  1.27471E+00  9.21507E-01 -1.32241E-01 -4.63382E-01
   5.39317E-01  4.74102E-01  1.42714E+00  4.33497E-01 -2.95193E-01 -6.61449E-01  8.69106E-01  6.92606E-01  1.51418E-01  1.07760E+00
   1.02525E+00  1.53649E+00  1.60412E-02  3.01929E-01  7.83159E-01  4.40385E-01  5.30857E-01  9.23641E-02  2.71894E-01  6.99729E-01
  -3.00287E-01  1.06098E+00  2.27682E-01  4.84317E-01  4.77542E-01 -2.70090E-01 -2.91437E-01  1.17122E+00 -7.72170E-01 -8.39705E-02
   9.18154E-01  1.43449E+00  1.79639E-01 -5.25430E-01  1.60841E+00 -1.28465E-01  5.72374E-01  8.48591E-01  1.06064E-01  9.18767E-01
   7.24480E-01  9.33439E-01  8.18103E-02  1.02249E+00  1.42615E+00  1.01280E+00  8.20552E-01  2.43567E+00  1.48252E+00  2.01121E+00
   1.63149E+00  2.01834E+00  1.03467E+00  3.25736E+00  2.51219E+00  1.88792E+00  1.93701E+00  1.73077E+00  3.29529E+00  2.42985E+00
   2.60655E+00  3.70701E+00  9.55322E-01  3.32002E+00  1.98937E+00  1.50675E+00  1.91758E+00  3.75803E+00  3.83599E+00  3.61958E+00
   2.75193E+00  2.15178E+00  4.72970E+00  4.20770E+00  3.39411E+00  4.55787E+00  3.94982E+00  3.28283E+00  3.73246E+00  3.41320E+00
   4.95181E+00  3.28438E+00  3.07336E+00  3.66031E+00  3.37744E+00  2.76208E+00  3.23644E+00  1.99061E+00  2.79110E+00  3.67921E+00
   4.40306E+00  3.24515E+00  3.41206E+00  2.01116E+00  1.99051E+00  3.20746E+00  3.43967E+00  2.39394E+00  2.32720E+00  2.10548E+00
   3.46538E+00  2.19646E+00  2.61328E+00  2.23697E+00  1.03757E+00  1.10325E+00  1.75530E+00  1.19296E+00  1.74271E+00  1.17999E+00
   1.90832E+00  1.98306E+00  1.51443E+00  7.97491E-01  1.19273E+00  5.32214E-01  1.09644E+00 -7.62004E-01  3.83795E-01 -3.13035E-02
  -4.82258E-01  4.33205E-01  9.53594E-02  2.90575E-01  4.92004E-01  1.59967E+00 -7.99916E-01  7.92119E-01  1.50954E+00  1.02980E+00
   8.63395E-01  7.37545E-01  9.57943E-01  6.96271E-01 -9.91130E-01 -2.45005E-01  1.92847E+00  5.20183E-02  2.82197E-01 -1.21843E-01
   6.98736E-01 -7.22914E-01  4.96270E-01  3.27488E-01  2.73277E-01  1.11737E-01 -6.40711E-01 -5.97089E-01  3.53633E-01  9.39032E-01
  -8.07013E-01 -1.48780E+00 -1.32601E+00 -3.73379E-01 -1.00958E-01 -1.46461E+00 -1.10467E+00 -1.70926E+00 -1.63350E+00 -1.45348E+00
  -2.11025E+00 -1.77900E+00 -2.30925E+00  2.52694E-02 -9.31098E-02 -1.00989E+00 -1.93273E+00 -1.67652E+00 -1.12871E+00 -1.16649E+00
  -1.00178E+00 -1.14282E+00 -1.75299E+00 -1.46820E+00 -1.31278E+00 -1.19493E+00 -1.11346E-01 -1.76897E+00 -8.86317E-01 -1.13107E+00
  -2.31107E+00 -1.54310E+00 -1.94657E+00 -1.85743E+00 -1.03591E+00 -1.61833E+00 -1.15257E+00 -1.74938E+00 -1.83584E+00 -9.96291E-01
  -1.33211E+00 -1.79157E+00 -4.11139E-01 -1.06859E+00 -2.71389E+00 -1.62576E+00 -1.66739E+00 -6.44768E-01 -8.86041E-01 -1.49736E+00
  -8.04894E-01 -2.25803E+00 -1.36484E+00 -2.90661E-01 -2.76032E+00 -1.33800E+00  7.39690E-02 -1.30269E+00
 NY points of the fit to the data follow
   4.55545E-01  4.51859E-01  4.55086E-01  4.61146E-01  4.63969E-01  4.59910E-01  4.51630E-01  4.41694E-01  4.30941E-01  4.20490E-01
   4.12488E-01  4.09184E-01  4.11425E-01  4.17913E-01  4.25637E-01  4.30956E-01  4.31690E-01  4.30426E-01  4.29361E-01  4.28388E-01
   4.27494E-01  4.25968E-01  4.22609E-01  4.16975E-01  4.11187E-01  4.13826E-01  4.28032E-01  4.52886E-01  4.89331E-01  5.37014E-01
   5.89202E-01  6.29212E-01  6.39349E-01  6.08519E-01  5.40993E-01  4.57370E-01  3.85426E-01  3.47232E-01  3.34076E-01  3.33019E-01
   3.38122E-01  3.43456E-01  3.45186E-01  3.42192E-01  3.36535E-01  3.30184E-01  3.24599E-01  3.19665E-01  3.14867E-01  3.10259E-01
   3.05852E-01  3.01602E-01  2.97473E-01  2.93436E-01  2.89474E-01  2.85576E-01  2.81732E-01  2.77929E-01  2.74161E-01  2.70421E-01
   2.66709E-01  2.63023E-01  2.59359E-01  2.55715E-01  2.52090E-01  2.48484E-01  2.44901E-01  2.41342E-01  2.37807E-01  2.34292E-01
   2.30795E-01  2.27314E-01  2.23848E-01  2.20395E-01  2.16949E-01  2.13501E-01  2.10052E-01  2.06616E-01  2.03208E-01  1.99845E-01
   1.96537E-01  1.93322E-01  1.90210E-01  1.87168E-01  1.84189E-01  1.81273E-01  1.78391E-01  1.75439E-01  1.72292E-01  1.68879E-01
   1.65238E-01  1.61513E-01  1.57908E-01  1.54583E-01  1.51477E-01  1.48451E-01  1.45477E-01  1.42548E-01  1.39665E-01  1.36833E-01
   1.34055E-01  1.31336E-01  1.28677E-01  1.26085E-01  1.23567E-01  1.21132E-01  1.18787E-01  1.16542E-01  1.14406E-01  1.12393E-01
   1.10523E-01  1.08819E-01  1.07316E-01  1.06064E-01  1.05058E-01  1.04116E-01  1.03164E-01  1.02206E-01  1.01233E-01  1.00281E-01
   9.95848E-02  9.93758E-02  1.00011E-01  1.01932E-01  1.05415E-01  1.10316E-01  1.16012E-01  1.22011E-01  1.29356E-01  1.39249E-01
   1.50631E-01  1.62081E-01  1.72709E-01  1.80473E-01  1.83144E-01  1.79086E-01  1.68658E-01  1.56644E-01  1.50023E-01  1.56183E-01
   1.79043E-01  2.14216E-01  2.49957E-01  2.77524E-01  2.93532E-01  2.98321E-01  2.96555E-01  2.93888E-01  2.93457E-01  2.96597E-01
   3.00528E-01  3.03696E-01  3.05612E-01  3.06221E-01  3.05848E-01  3.05040E-01  3.04212E-01  3.02980E-01  3.00727E-01  2.96848E-01
   2.90775E-01  2.82197E-01  2.71348E-01  2.59104E-01  2.45996E-01  2.32086E-01  2.17495E-01  2.02427E-01  1.87156E-01  1.71864E-01
   1.56516E-01  1.41002E-01  1.25260E-01  1.09226E-01  9.28941E-02  7.62566E-02  5.93727E-02  4.25679E-02  2.63464E-02  1.12776E-02
  -2.80255E-03 -1.63513E-02 -2.96399E-02 -4.26315E-02 -5.48808E-02 -6.53886E-02 -7.27684E-02 -7.57781E-02 -7.40883E-02 -6.85246E-02
  -6.07592E-02 -5.40877E-02 -5.40150E-02 -6.44740E-02 -8.49507E-02 -1.12021E-01 -1.39624E-01 -1.60104E-01 -1.67391E-01 -1.58970E-01
  -1.36454E-01 -1.05509E-01 -7.36876E-02 -4.96258E-02 -3.94811E-02 -4.37967E-02 -5.56030E-02 -6.90044E-02 -8.08705E-02 -8.90873E-02
  -9.18118E-02 -8.62890E-02 -6.98341E-02 -4.39671E-02 -1.35650E-02  1.56419E-02  3.88615E-02  5.45669E-02  6.74637E-02  8.14017E-02
   9.58407E-02  1.09839E-01  1.23185E-01  1.36024E-01  1.48281E-01  1.59637E-01  1.69117E-01  1.75637E-01  1.79495E-01  1.81405E-01
   1.81553E-01  1.80005E-01  1.79328E-01  1.83543E-01  1.93892E-01  2.09436E-01  2.28228E-01  2.46573E-01  2.58816E-01  2.61765E-01
   2.57323E-01  2.48534E-01  2.38181E-01  2.30574E-01  2.32478E-01  2.46419E-01  2.68628E-01  2.96114E-01  3.25830E-01  3.52542E-01
   3.72051E-01  3.85113E-01  3.94137E-01  4.00602E-01  4.03652E-01  4.02796E-01  3.98183E-01  3.90414E-01  3.79824E-01  3.65882E-01
   3.48737E-01  3.29237E-01  3.08355E-01  2.86405E-01  2.62990E-01  2.38080E-01  2.11770E-01  1.84806E-01  1.57873E-01  1.31473E-01
   1.06038E-01  8.19786E-02  5.96768E-02  3.94362E-02  2.15154E-02  6.15411E-03 -6.43140E-03 -1.60405E-02 -2.24742E-02 -2.55549E-02
  -2.51360E-02 -2.10914E-02 -1.33052E-02 -1.68337E-03  1.38314E-02  3.32481E-02  5.65127E-02  8.34934E-02  1.13962E-01  1.47591E-01
   1.83949E-01  2.22477E-01  2.62500E-01  3.03245E-01  3.43856E-01  3.83415E-01  4.20986E-01  4.55649E-01  4.86556E-01  5.12972E-01
   5.34303E-01  5.50123E-01  5.60186E-01  5.64459E-01  5.63127E-01  5.56581E-01  5.45401E-01  5.30325E-01  5.12216E-01  4.92016E-01
   4.70713E-01  4.49293E-01  4.28705E-01  4.09831E-01  3.93463E-01  3.80296E-01  3.70922E-01  3.65822E-01  3.65388E-01  3.69940E-01
   3.79797E-01  3.95419E-01  4.17480E-01  4.45295E-01  4.77520E-01  5.13548E-01  5.52831E-01  5.94309E-01  6.36472E-01  6.78644E-01
   7.23290E-01  7.75130E-01  8.38210E-01  9.15161E-01  1.00623E+00  1.10791E+00  1.21716E+00  1.33223E+00  1.45058E+00  1.57037E+00
   1.69233E+00  1.82158E+00  1.96974E+00  2.13752E+00  2.30631E+00  2.46546E+00  2.60794E+00  2.72187E+00  2.78809E+00  2.79155E+00
   2.75096E+00  2.71207E+00  2.71901E+00  2.80678E+00  2.98733E+00  3.22774E+00  3.47303E+00  3.69354E+00  3.85727E+00  3.93900E+00
   3.93621E+00  3.87561E+00  3.80896E+00  3.75965E+00  3.71251E+00  3.65999E+00  3.59982E+00  3.53155E+00  3.45561E+00  3.37291E+00
   3.28458E+00  3.19196E+00  3.09643E+00  2.99944E+00  2.90241E+00  2.80668E+00  2.71349E+00  2.62394E+00  2.53900E+00  2.45945E+00
   2.38592E+00  2.31881E+00  2.25836E+00  2.20460E+00  2.15738E+00  2.11639E+00  2.08115E+00  2.05103E+00  2.02526E+00  2.00297E+00
   1.98322E+00  1.96500E+00  1.94728E+00  1.92902E+00  1.90921E+00  1.88690E+00  1.86123E+00  1.83145E+00  1.79693E+00  1.75720E+00
   1.71192E+00  1.66095E+00  1.60428E+00  1.54208E+00  1.47464E+00  1.40239E+00  1.32586E+00  1.24568E+00  1.16252E+00  1.07709E+00
   9.90134E-01  9.02353E-01  8.14439E-01  7.27038E-01  6.40736E-01  5.56051E-01  4.73424E-01  3.93224E-01  3.15748E-01  2.41220E-01
   1.69797E-01  1.01570E-01  3.65789E-02 -2.51839E-02 -8.37612E-02 -1.39229E-01 -1.91689E-01 -2.41265E-01 -2.88089E-01 -3.32302E-01
  -3.74049E-01 -4.13474E-01 -4.50724E-01 -4.85941E-01 -5.19262E-01 -5.50813E-01 -5.80718E-01 -6.09090E-01 -6.36040E-01 -6.61670E-01
  -6.86073E-01 -7.09334E-01 -7.31533E-01 -7.52744E-01 -7.73038E-01 -7.92478E-01 -8.11121E-01 -8.29019E-01 -8.46222E-01 -8.62776E-01
  -8.78724E-01 -8.94106E-01 -9.08954E-01 -9.23303E-01 -9.37181E-01 -9.50619E-01 -9.63644E-01 -9.76279E-01 -9.88545E-01 -1.00046E+00
  -1.01205E+00 -1.02333E+00 -1.03432E+00 -1.04504E+00 -1.05549E+00 -1.06569E+00 -1.07565E+00 -1.08539E+00 -1.09492E+00 -1.10424E+00
  -1.11338E+00 -1.12232E+00 -1.13110E+00 -1.13971E+00 -1.14816E+00 -1.15645E+00 -1.16460E+00 -1.17262E+00 -1.18050E+00 -1.18825E+00
  -1.19589E+00 -1.20340E+00 -1.21081E+00 -1.21811E+00 -1.22530E+00 -1.23240E+00 -1.23941E+00 -1.24632E+00 -1.25315E+00 -1.25989E+00
  -1.26655E+00 -1.27314E+00 -1.27965E+00 -1.28608E+00 -1.29245E+00 -1.29875E+00 -1.30499E+00 -1.31117E+00
 NY background values follow
     4.620E-01    4.582E-01    4.543E-01    4.505E-01    4.466E-01    4.428E-01    4.389E-01    4.351E-01    4.313E-01    4.274E-01
     4.236E-01    4.197E-01    4.159E-01    4.120E-01    4.082E-01    4.043E-01    4.005E-01    3.966E-01    3.928E-01    3.889E-01
     3.851E-01    3.813E-01    3.774E-01    3.736E-01    3.697E-01    3.659E-01    3.620E-01    3.582E-01    3.543E-01    3.505E-01
     3.466E-01    3.428E-01    3.389E-01    3.351E-01    3.312E-01    3.274E-01    3.236E-01    3.197E-01    3.159E-01    3.120E-01
     3.082E-01    3.043E-01    3.005E-01    2.966E-01    2.928E-01    2.889E-01    2.851E-01    2.812E-01    2.774E-01    2.735E-01
     2.697E-01    2.659E-01    2.620E-01    2.582E-01    2.543E-01    2.505E-01    2.466E-01    2.428E-01    2.389E-01    2.351E-01
     2.312E-01    2.274E-01    2.235E-01    2.197E-01    2.158E-01    2.120E-01    2.082E-01    2.043E-01    2.005E-01    1.966E-01
     1.928E-01    1.889E-01    1.851E-01    1.812E-01    1.774E-01    1.735E-01    1.697E-01    1.658E-01    1.620E-01    1.581E-01
     1.543E-01    1.505E-01    1.466E-01    1.428E-01    1.389E-01    1.351E-01    1.312E-01    1.274E-01    1.235E-01    1.197E-01
     1.158E-01    1.120E-01    1.081E-01    1.043E-01    1.004E-01    9.660E-02    9.275E-02    8.891E-02    8.506E-02    8.121E-02
     7.737E-02    7.352E-02    6.967E-02    6.583E-02    6.198E-02    5.813E-02    5.429E-02    5.044E-02    4.659E-02    4.275E-02
     3.890E-02    3.505E-02    3.121E-02    2.736E-02    2.351E-02    1.967E-02    1.582E-02    1.197E-02    8.127E-03    4.281E-03
     4.339E-04   -3.413E-03   -7.260E-03   -1.111E-02   -1.495E-02   -1.880E-02   -2.265E-02   -2.649E-02   -3.034E-02   -3.419E-02
    -3.803E-02   -4.188E-02   -4.573E-02   -4.957E-02   -5.342E-02   -5.727E-02   -6.111E-02   -6.496E-02   -6.881E-02   -7.265E-02
    -7.650E-02   -8.035E-02   -8.419E-02   -8.804E-02   -9.189E-02   -9.573E-02   -9.958E-02   -1.034E-01   -1.073E-01   -1.111E-01
    -1.150E-01   -1.188E-01   -1.227E-01   -1.265E-01   -1.304E-01   -1.342E-01   -1.380E-01   -1.419E-01   -1.457E-01   -1.496E-01
    -1.534E-01   -1.573E-01   -1.611E-01   -1.650E-01   -1.688E-01   -1.727E-01   -1.765E-01   -1.804E-01   -1.842E-01   -1.881E-01
    -1.919E-01   -1.957E-01   -1.996E-01   -2.034E-01   -2.073E-01   -2.111E-01   -2.150E-01   -2.188E-01   -2.227E-01   -2.265E-01
    -2.304E-01   -2.342E-01   -2.381E-01   -2.419E-01   -2.458E-01   -2.496E-01   -2.535E-01   -2.573E-01   -2.611E-01   -2.650E-01
    -2.688E-01   -2.727E-01   -2.765E-01   -2.804E-01   -2.842E-01   -2.881E-01   -2.919E-01   -2.958E-01   -2.996E-01   -3.035E-01
    -3.073E-01   -3.112E-01   -3.150E-01   -3.189E-01   -3.227E-01   -3.265E-01   -3.304E-01   -3.342E-01   -3.381E-01   -3.419E-01
    -3.458E-01   -3.496E-01   -3.535E-01   -3.573E-01   -3.612E-01   -3.650E-01   -3.689E-01   -3.727E-01   -3.766E-01   -3.804E-01
    -3.842E-01   -3.881E-01   -3.919E-01   -3.958E-01   -3.996E-01   -4.035E-01   -4.073E-01   -4.112E-01   -4.150E-01   -4.189E-01
    -4.227E-01   -4.266E-01   -4.304E-01   -4.343E-01   -4.381E-01   -4.420E-01   -4.458E-01   -4.496E-01   -4.535E-01   -4.573E-01
    -4.612E-01   -4.650E-01   -4.689E-01   -4.727E-01   -4.766E-01   -4.804E-01   -4.843E-01   -4.881E-01   -4.920E-01   -4.958E-01
    -4.997E-01   -5.035E-01   -5.074E-01   -5.112E-01   -5.150E-01   -5.189E-01   -5.227E-01   -5.266E-01   -5.304E-01   -5.343E-01
    -5.381E-01   -5.420E-01   -5.458E-01   -5.497E-01   -5.535E-01   -5.574E-01   -5.612E-01   -5.651E-01   -5.689E-01   -5.728E-01
    -5.766E-01   -5.805E-01   -5.843E-01   -5.881E-01   -5.920E-01   -5.958E-01   -5.997E-01   -6.035E-01   -6.074E-01   -6.112E-01
    -6.151E-01   -6.189E-01   -6.228E-01   -6.266E-01   -6.305E-01   -6.343E-01   -6.382E-01   -6.420E-01   -6.459E-01   -6.497E-01
    -6.535E-01   -6.574E-01   -6.612E-01   -6.651E-01   -6.689E-01   -6.728E-01   -6.766E-01   -6.805E-01   -6.843E-01   -6.882E-01
    -6.920E-01   -6.959E-01   -6.997E-01   -7.036E-01   -7.074E-01   -7.113E-01   -7.151E-01   -7.190E-01   -7.228E-01   -7.266E-01
    -7.305E-01   -7.343E-01   -7.382E-01   -7.420E-01   -7.459E-01   -7.497E-01   -7.536E-01   -7.574E-01   -7.613E-01   -7.651E-01
    -7.690E-01   -7.728E-01   -7.767E-01   -7.805E-01   -7.844E-01   -7.882E-01   -7.921E-01   -7.959E-01   -7.997E-01   -8.036E-01
    -8.074E-01   -8.113E-01   -8.151E-01   -8.190E-01   -8.228E-01   -8.267E-01   -8.305E-01   -8.344E-01   -8.382E-01   -8.421E-01
    -8.459E-01   -8.498E-01   -8.536E-01   -8.575E-01   -8.613E-01   -8.651E-01   -8.690E-01   -8.728E-01   -8.767E-01   -8.805E-01
    -8.844E-01   -8.882E-01   -8.921E-01   -8.959E-01   -8.998E-01   -9.036E-01   -9.075E-01   -9.113E-01   -9.152E-01   -9.190E-01
    -9.229E-01   -9.267E-01   -9.306E-01   -9.344E-01   -9.382E-01   -9.421E-01   -9.459E-01   -9.498E-01   -9.536E-01   -9.575E-01
    -9.613E-01   -9.652E-01   -9.690E-01   -9.729E-01   -9.767E-01   -9.806E-01   -9.844E-01   -9.883E-01   -9.921E-01   -9.960E-01
    -9.998E-01   -1.004E+00   -1.008E+00   -1.011E+00   -1.015E+00   -1.019E+00   -1.023E+00   -1.027E+00   -1.031E+00   -1.034E+00
    -1.038E+00   -1.042E+00   -1.046E+00   -1.050E+00   -1.054E+00   -1.058E+00   -1.061E+00   -1.065E+00   -1.069E+00   -1.073E+00
    -1.077E+00   -1.081E+00   -1.084E+00   -1.088E+00   -1.092E+00   -1.096E+00   -1.100E+00   -1.104E+00   -1.108E+00   -1.111E+00
    -1.115E+00   -1.119E+00   -1.123E+00   -1.127E+00   -1.131E+00   -1.134E+00   -1.138E+00   -1.142E+00   -1.146E+00   -1.150E+00
    -1.154E+00   -1.158E+00   -1.161E+00   -1.165E+00   -1.169E+00   -1.173E+00   -1.177E+00   -1.181E+00   -1.184E+00   -1.188E+00
    -1.192E+00   -1.196E+00   -1.200E+00   -1.204E+00   -1.208E+00   -1.211E+00   -1.215E+00   -1.219E+00   -1.223E+00   -1.227E+00
    -1.231E+00   -1.235E+00   -1.238E+00   -1.242E+00   -1.246E+00   -1.250E+00   -1.254E+00   -1.258E+00   -1.261E+00   -1.265E+00
    -1.269E+00   -1.273E+00   -1.277E+00   -1.281E+00   -1.285E+00   -1.288E+00   -1.292E+00   -1.296E+00   -1.300E+00   -1.304E+00
    -1.308E+00   -1.311E+00   -1.315E+00   -1.319E+00   -1.323E+00   -1.327E+00   -1.331E+00   -1.335E+00   -1.338E+00   -1.342E+00
    -1.346E+00   -1.350E+00   -1.354E+00   -1.358E+00   -1.361E+00   -1.365E+00   -1.369E+00   -1.373E+00   -1.377E+00   -1.381E+00
    -1.385E+00   -1.388E+00   -1.392E+00   -1.396E+00   -1.400E+00   -1.404E+00   -1.408E+00   -1.411E+00   -1.415E+00   -1.419E+00
    -1.423E+00   -1.427E+00   -1.431E+00   -1.435E+00   -1.438E+00   -1.442E+00   -1.446E+00   -1.450E+00
 Ala      Conc. = 2.39E+00
