 LCModel (Version 6.3-1L) Copyright: S.W. Provencher.          Ref.: Magn. Reson. Med. 30:672-679 (1993).                
 Slice#1 Row#7 Col#7  PD_05_press_1_raw_act
 36 lines in following concentration table = NCONC+1
    Conc.  %SD /Cr+PCr  Metabolite                                         
    0.000 999%   0.000 Ala                                                 
   53.589 203%   0.105 Asp                                                 
  510.793   9%   1.000 Cr                                                  
    0.000 999%   0.000 PCr                                                 
   47.337 142% 9.3E-02 GABA                                                
   37.596 178% 7.4E-02 Glc                                                 
  661.041  32%   1.294 Gln                                                 
  733.693  33%   1.436 Glu                                                 
  228.722   8%   0.448 GPC                                                 
    0.000 999%   0.000 PCh                                                 
  228.976  29%   0.448 GSH                                                 
 1.30E+03  17%   2.548 Ins                                                 
    0.000 999%   0.000 Lac                                                 
  875.070   7%   1.713 NAA                                                 
    0.000 999%   0.000 NAAG                                                
   10.952 159% 2.1E-02 Scyllo                                              
    0.000 999%   0.000 Tau                                                 
    0.000 999%   0.000 -CrCH2                                              
  228.722   8%   0.448 GPC+PCh                                             
  875.070   7%   1.713 NAA+NAAG                                            
  510.793   9%   1.000 Cr+PCr                                              
 1.39E+03  24%   2.731 Glu+Gln                                             
    0.000 999%   0.000 Lip13a                                              
  338.463  29%   0.663 Lip13b                                              
   89.542  36%   0.175 Lip09                                               
  644.458  21%   1.262 MM09                                                
   51.254  38%   0.100 Lip20                                               
 1.34E+03  19%   2.625 MM20                                                
  154.522  56%   0.303 MM12                                                
  395.586  49%   0.774 MM14                                                
   86.181 173%   0.169 MM17                                                
  338.463  29%   0.663 Lip13a+Lip13b                                       
  888.571  23%   1.740 MM14+Lip13a+Lip13b+MM12                             
  734.000  18%   1.437 MM09+Lip09                                          
 1.39E+03  18%   2.725 MM20+Lip20                                          
   6 lines in following misc. output table
  FWHM = 0.054 ppm    S/N =   5                                            
  Data shift =-0.015 ppm                                                   
  Ph:  13 deg      20.1 deg/ppm                                            
  alphaB,S = 1.6E+00,   5.1E+01                                            
   14 spline knots.   Ns = 6(1)                                            
  ( 8) 4 infls.   ( 7) 1 extrs.                                            
  498 points on ppm-axis = NY
      4.000000     3.992357     3.984714     3.977070     3.969427     3.961784     3.954141     3.946497     3.938854     3.931211
      3.923568     3.915925     3.908281     3.900638     3.892995     3.885352     3.877708     3.870065     3.862422     3.854779
      3.847136     3.839492     3.831849     3.824206     3.816563     3.808919     3.801276     3.793633     3.785990     3.778347
      3.770703     3.763060     3.755417     3.747774     3.740130     3.732487     3.724844     3.717201     3.709558     3.701914
      3.694271     3.686628     3.678985     3.671341     3.663698     3.656055     3.648412     3.640769     3.633125     3.625482
      3.617839     3.610196     3.602552     3.594909     3.587266     3.579623     3.571980     3.564336     3.556693     3.549050
      3.541407     3.533763     3.526120     3.518477     3.510834     3.503191     3.495547     3.487904     3.480261     3.472618
      3.464974     3.457331     3.449688     3.442045     3.434402     3.426758     3.419115     3.411472     3.403829     3.396185
      3.388542     3.380899     3.373256     3.365613     3.357969     3.350326     3.342683     3.335040     3.327396     3.319753
      3.312110     3.304467     3.296824     3.289180     3.281537     3.273894     3.266251     3.258607     3.250964     3.243321
      3.235678     3.228034     3.220391     3.212748     3.205105     3.197462     3.189818     3.182175     3.174532     3.166889
      3.159245     3.151602     3.143959     3.136316     3.128673     3.121029     3.113386     3.105743     3.098100     3.090456
      3.082813     3.075170     3.067527     3.059884     3.052240     3.044597     3.036954     3.029311     3.021667     3.014024
      3.006381     2.998738     2.991095     2.983451     2.975808     2.968165     2.960522     2.952878     2.945235     2.937592
      2.929949     2.922306     2.914662     2.907019     2.899376     2.891733     2.884089     2.876446     2.868803     2.861160
      2.853517     2.845873     2.838230     2.830587     2.822944     2.815300     2.807657     2.800014     2.792371     2.784728
      2.777084     2.769441     2.761798     2.754155     2.746511     2.738868     2.731225     2.723582     2.715939     2.708295
      2.700652     2.693009     2.685366     2.677722     2.670079     2.662436     2.654793     2.647150     2.639506     2.631863
      2.624220     2.616577     2.608933     2.601290     2.593647     2.586004     2.578361     2.570717     2.563074     2.555431
      2.547788     2.540144     2.532501     2.524858     2.517215     2.509572     2.501928     2.494285     2.486642     2.478999
      2.471355     2.463712     2.456069     2.448426     2.440783     2.433139     2.425496     2.417853     2.410210     2.402566
      2.394923     2.387280     2.379637     2.371994     2.364350     2.356707     2.349064     2.341421     2.333777     2.326134
      2.318491     2.310848     2.303205     2.295561     2.287918     2.280275     2.272632     2.264988     2.257345     2.249702
      2.242059     2.234416     2.226772     2.219129     2.211486     2.203843     2.196199     2.188556     2.180913     2.173270
      2.165627     2.157983     2.150340     2.142697     2.135054     2.127410     2.119767     2.112124     2.104481     2.096838
      2.089194     2.081551     2.073908     2.066265     2.058621     2.050978     2.043335     2.035692     2.028049     2.020405
      2.012762     2.005119     1.997476     1.989833     1.982190     1.974546     1.966903     1.959260     1.951617     1.943974
      1.936331     1.928688     1.921045     1.913402     1.905759     1.898115     1.890472     1.882829     1.875186     1.867543
      1.859900     1.852257     1.844614     1.836971     1.829327     1.821684     1.814041     1.806398     1.798755     1.791112
      1.783469     1.775826     1.768183     1.760540     1.752896     1.745253     1.737610     1.729967     1.722324     1.714681
      1.707038     1.699395     1.691752     1.684108     1.676465     1.668822     1.661179     1.653536     1.645893     1.638250
      1.630607     1.622964     1.615321     1.607677     1.600034     1.592391     1.584748     1.577105     1.569462     1.561819
      1.554176     1.546533     1.538890     1.531246     1.523603     1.515960     1.508317     1.500674     1.493031     1.485388
      1.477745     1.470102     1.462458     1.454815     1.447172     1.439529     1.431886     1.424243     1.416600     1.408957
      1.401314     1.393671     1.386027     1.378384     1.370741     1.363098     1.355455     1.347812     1.340169     1.332526
      1.324883     1.317240     1.309596     1.301953     1.294310     1.286667     1.279024     1.271381     1.263738     1.256095
      1.248452     1.240808     1.233165     1.225522     1.217879     1.210236     1.202593     1.194950     1.187307     1.179664
      1.172021     1.164377     1.156734     1.149091     1.141448     1.133805     1.126162     1.118519     1.110876     1.103233
      1.095590     1.087946     1.080303     1.072660     1.065017     1.057374     1.049731     1.042088     1.034445     1.026802
      1.019158     1.011515     1.003872     0.996229     0.988586     0.980943     0.973300     0.965657     0.958014     0.950371
      0.942727     0.935084     0.927441     0.919798     0.912155     0.904512     0.896869     0.889226     0.881583     0.873940
      0.866296     0.858653     0.851010     0.843367     0.835724     0.828081     0.820438     0.812795     0.805152     0.797508
      0.789865     0.782222     0.774579     0.766936     0.759293     0.751650     0.744007     0.736364     0.728721     0.721077
      0.713434     0.705791     0.698148     0.690505     0.682862     0.675219     0.667576     0.659933     0.652290     0.644646
      0.637003     0.629360     0.621717     0.614074     0.606431     0.598788     0.591145     0.583502     0.575858     0.568215
      0.560572     0.552929     0.545286     0.537643     0.530000     0.522357     0.514714     0.507071     0.499427     0.491784
      0.484141     0.476498     0.468855     0.461212     0.453569     0.445925     0.438282     0.430639     0.422996     0.415353
      0.407710     0.400067     0.392424     0.384780     0.377137     0.369494     0.361851     0.354208     0.346565     0.338922
      0.331278     0.323635     0.315992     0.308349     0.300706     0.293063     0.285420     0.277777     0.270133     0.262490
      0.254847     0.247204     0.239561     0.231918     0.224275     0.216631     0.208988     0.201345
 NY phased data points follow
   2.07226E+01  2.01983E+01  1.82029E+01  1.85033E+01  1.57421E+01  1.84128E+01  1.76733E+01  1.83469E+01  1.64947E+01  2.42586E+01
   2.12234E+01  3.33460E+01  2.92073E+01  2.89600E+01  2.88139E+01  1.78142E+01  2.53172E+01  2.07937E+01  1.31935E+01  1.24765E+01
   1.72316E+01  2.31813E+01  1.33503E+01  1.83246E+01  1.37656E+01  1.47889E+01  1.45307E+01  1.94943E+01  1.12833E+01  1.96294E+01
   1.77952E+01  1.80883E+01  1.56410E+01  1.71587E+01  2.09239E+01  1.80482E+01  1.27425E+01  1.13171E+01  1.54905E+01  1.54590E+01
   1.47869E+01  1.36538E+01  1.33551E+01  1.68425E+01  2.02080E+01  2.26589E+01  1.95041E+01  2.00731E+01  1.28067E+01  2.05567E+01
   1.16490E+01  1.57935E+01  1.53991E+01  1.36031E+01  1.27877E+01  1.20595E+01  1.09293E+01  7.45058E+00  1.01090E+01  1.34228E+01
   9.06007E+00  1.12123E+01  1.15210E+01  8.74185E+00  8.01952E+00  1.02483E+01  1.21867E+01  9.26269E+00  5.25567E+00  1.22977E+01
   2.35217E+00  3.57194E+00  5.13777E+00  9.73494E+00  1.56043E+00  1.10559E+01  1.20827E+01  1.00317E+01 -2.12568E+00  7.53093E+00
   6.06198E+00  5.84298E+00  5.04195E+00  6.20730E+00  1.96711E+00  5.56879E+00  5.60757E-01  1.27012E+00  1.00159E+01  6.96550E-01
   7.35796E+00  6.31935E+00  7.42155E-01  5.78649E+00  5.05100E+00  1.93911E+00  4.35466E+00  2.48517E+00  6.88880E+00  3.68428E+00
   1.13082E+01  2.07791E+01  2.10046E+01  2.50581E+01  2.22291E+01  2.14370E+01  2.11511E+01  1.27028E+01  7.08907E+00  1.23911E+01
   1.12670E+01  9.05036E+00  7.51422E+00  1.05889E+01  2.48672E+00  4.67008E+00  4.79766E+00  4.60210E+00  2.04410E+00  4.32271E+00
   2.18401E-01  3.32332E+00  1.96438E+00  4.41282E-01  1.48966E+01  9.32620E+00  1.27437E+01  1.95417E+01  1.64054E+01  2.05647E+01
   1.58111E+01  1.15221E+01  2.38311E+00  8.22422E+00  5.84827E+00  4.47611E+00  3.95483E+00  1.46142E+00  5.26364E+00  2.20553E+00
   4.00900E+00 -1.15430E+00  6.17734E-01 -3.54119E-01 -5.03760E+00  1.13446E+00  7.47820E-02  2.54355E+00  1.03918E+00 -4.59382E-01
   6.71094E-01 -2.55988E+00  3.99258E-01  1.03038E+00 -2.77127E+00  1.39161E+00 -1.87618E+00 -8.78216E-01 -8.13040E-01  2.03153E+00
   2.15099E+00  8.32178E-02 -2.74640E+00 -1.00939E+00 -2.53786E+00 -2.05984E+00  2.38156E+00 -2.41513E-01  1.65600E+00 -2.24999E+00
  -1.45892E+00 -1.44137E-01 -5.33786E+00 -4.03715E+00 -1.90462E+00 -1.07769E+01 -7.57899E+00 -9.16435E+00 -6.94215E+00 -7.17424E+00
  -8.65008E+00 -6.19525E+00 -1.12497E+01 -1.07950E+01 -7.23654E+00 -9.19626E+00 -4.07720E+00 -6.20412E+00 -4.69034E+00 -1.48906E+00
  -3.50953E+00 -4.54316E+00 -2.77547E+00 -5.00291E-01 -4.62909E+00 -6.26888E+00 -3.21818E+00 -3.66945E+00 -1.02797E+01 -2.25608E+00
  -7.63048E+00 -3.88175E+00  1.79328E+00 -6.45090E-01  1.84412E+00 -4.72304E+00 -6.54378E+00 -7.27421E+00 -7.86901E+00 -6.92989E+00
  -3.48641E+00 -8.50743E+00 -4.49464E+00 -3.69777E+00  2.13728E+00  3.58160E+00  1.10608E+00  1.41583E+00 -2.15230E+00 -7.99975E-01
   1.67833E+00 -6.06469E+00 -4.35929E+00 -4.85816E+00 -1.55670E+00  2.66666E+00  3.43139E+00 -1.67560E+00 -1.59349E+00 -3.96681E+00
   1.02727E+00  7.14014E-01  2.86092E+00  4.62984E-01 -1.89860E-01 -1.85512E+00 -2.82236E+00 -2.97877E-01 -1.84006E+00 -1.22890E+00
  -6.17167E+00 -1.71027E+00 -2.39169E+00  1.37371E+00  7.29028E-01  1.24428E+00  2.85130E+00  5.06022E-01  4.04857E+00  3.60780E+00
   3.97190E+00  2.35208E+00  2.78981E+00  1.74876E+00 -5.24974E-01  2.72533E+00  1.04349E+01  1.97449E+01  2.87791E+01  2.16236E+01
   2.85409E+01  2.80383E+01  2.48145E+01  1.21068E+01  6.91184E+00  6.11475E+00  7.81660E+00 -9.57760E-01  1.49514E+00  3.92719E+00
   6.17181E-01 -4.79109E+00 -4.04265E+00 -9.91608E+00 -5.31424E+00 -4.71042E+00 -6.94964E+00 -4.75881E+00  4.72512E-01 -5.72464E+00
  -2.44573E+00 -5.55507E+00 -5.59984E+00 -4.00424E+00 -4.21449E+00 -1.19878E+01 -8.19286E+00  2.82937E-01 -5.77444E+00 -5.12083E+00
  -5.46343E+00 -8.23123E+00 -7.13054E-01 -4.60427E-01 -4.81784E+00 -9.82406E+00 -7.72145E+00 -4.30126E+00 -6.11464E+00 -7.50605E+00
   2.30414E+00 -5.79819E+00 -1.43473E+00 -7.12883E+00 -9.54879E+00 -2.70938E+00 -2.83697E+00 -1.16398E+00 -5.60543E+00 -1.19895E+01
  -1.15125E+01 -1.03490E+01 -5.17948E+00 -6.11286E+00 -9.66924E+00 -7.01935E+00 -8.05749E+00 -7.73360E+00 -1.08482E+01 -7.72435E+00
  -1.30538E+01 -1.20212E+01 -5.78398E+00 -9.41706E+00 -9.39690E+00 -9.73256E+00 -1.00104E+01 -7.56294E+00 -6.01955E+00 -8.80777E+00
  -8.57582E+00 -7.53552E+00 -5.88227E+00 -3.33246E+00 -1.74725E+00 -1.85658E+00  1.05616E+00 -2.85332E+00 -5.08802E+00 -2.84719E+00
  -5.02081E+00 -1.20529E+00 -5.33277E+00 -1.70548E+00 -4.40739E+00  1.32914E+00 -6.58470E-01 -1.04471E+00 -7.33918E-01  2.20044E+00
  -4.71787E-01  1.48535E+00 -2.15298E+00  1.97882E+00 -3.12003E+00 -1.68584E+00 -3.87159E+00 -4.19448E+00 -1.07053E+01 -1.11843E+01
  -7.53979E+00 -8.58745E+00 -8.90557E+00 -8.56353E+00 -3.37978E+00 -7.97040E+00 -1.55586E+00 -2.92885E+00 -1.12364E+01 -4.56841E+00
  -6.70174E+00 -1.02010E+01 -2.40583E+00 -8.64593E+00 -4.48276E+00 -1.78149E+00 -6.47064E+00 -8.82131E+00 -4.63892E+00 -5.44903E+00
  -5.09397E+00 -8.88422E+00 -2.56033E+00 -9.16989E+00 -9.69042E+00 -7.36548E+00 -1.49228E+00 -8.31568E+00 -8.08768E+00 -5.75205E+00
  -4.02914E+00 -1.22970E+00 -1.74583E+00 -2.42870E-01 -3.42609E+00 -3.57008E-01 -8.67531E-01 -4.98156E+00 -7.34001E+00 -3.37660E+00
   1.44105E+00 -2.84877E+00 -5.27057E-01 -2.62543E+00 -2.53188E+00 -1.82365E+00 -5.48464E+00 -3.05797E+00 -1.60599E+00 -1.15262E-01
  -2.95917E+00 -2.12966E+00 -4.83084E+00 -4.56532E+00  3.41041E+00 -3.95371E+00 -6.54349E+00 -1.09914E+01 -2.90653E-01 -8.45506E+00
  -3.94653E+00 -5.92079E+00 -8.38057E+00 -5.77971E+00 -6.80841E+00 -9.86320E+00 -4.82408E+00 -9.03420E+00 -2.27948E+00 -4.16107E+00
  -6.43198E-01 -5.51313E+00 -5.48083E+00 -4.29787E+00 -6.21390E-01 -8.84433E+00 -5.46280E+00 -5.17922E+00 -9.18236E+00 -9.05832E+00
  -7.20891E+00 -7.78161E+00 -3.15715E+00 -8.05439E+00 -5.34771E+00 -2.79054E+00 -6.91241E+00 -7.55387E+00 -5.65932E+00 -4.27539E+00
  -5.85149E+00 -8.27677E+00 -1.46210E-02 -4.66046E+00 -9.65716E+00 -5.35466E+00 -6.61302E+00 -7.47963E+00 -2.68049E+00 -4.89326E+00
  -3.75058E+00 -1.29067E+01 -3.01950E+00 -6.38661E+00 -3.82792E+00 -2.95218E+00 -6.29059E+00 -8.48298E+00 -8.30013E-01 -6.07455E+00
  -6.59469E+00 -4.31107E+00 -4.78331E+00 -4.02558E+00 -9.68322E+00 -7.41348E+00 -3.73797E+00 -7.91321E+00  7.18101E-01 -4.57885E-01
  -1.09037E+01 -6.35666E+00 -7.28534E+00 -7.07007E+00 -4.28913E+00 -7.10593E+00 -4.80586E+00 -9.51643E+00 -5.05064E+00 -5.15968E+00
  -9.06478E+00 -7.61847E-01 -8.47708E+00 -8.21769E+00 -5.78953E+00 -5.81107E+00 -9.15113E+00 -1.04259E+01
 NY points of the fit to the data follow
   1.59949E+01  1.55480E+01  1.51857E+01  1.49311E+01  1.49540E+01  1.51974E+01  1.57966E+01  1.72029E+01  1.95768E+01  2.22352E+01
   2.42614E+01  2.53358E+01  2.55326E+01  2.47776E+01  2.30099E+01  2.08201E+01  1.91960E+01  1.82929E+01  1.72379E+01  1.56361E+01
   1.45298E+01  1.42240E+01  1.40116E+01  1.36272E+01  1.32893E+01  1.34548E+01  1.42375E+01  1.53661E+01  1.66769E+01  1.80877E+01
   1.91985E+01  1.94377E+01  1.87026E+01  1.75631E+01  1.64046E+01  1.51140E+01  1.36493E+01  1.24812E+01  1.18993E+01  1.14486E+01
   1.12881E+01  1.17390E+01  1.29725E+01  1.50144E+01  1.73447E+01  1.91848E+01  1.99541E+01  1.96062E+01  1.84066E+01  1.64423E+01
   1.41122E+01  1.23381E+01  1.14728E+01  1.08083E+01  9.94496E+00  9.63438E+00  1.02914E+01  1.12980E+01  1.19944E+01  1.22541E+01
   1.20742E+01  1.14563E+01  1.05432E+01  9.67804E+00  9.16366E+00  8.94548E+00  8.87682E+00  9.01895E+00  9.33236E+00  9.67954E+00
   9.95551E+00  1.00960E+01  1.01047E+01  9.92960E+00  9.56049E+00  9.15255E+00  8.82209E+00  8.55831E+00  8.22469E+00  7.85888E+00
   7.58621E+00  7.32776E+00  6.93704E+00  6.29488E+00  5.43636E+00  4.52821E+00  3.73880E+00  3.18568E+00  2.96529E+00  3.15007E+00
   3.67163E+00  4.30763E+00  4.83443E+00  5.17806E+00  5.36206E+00  5.36192E+00  5.20607E+00  5.14303E+00  5.92677E+00  8.68930E+00
   1.34610E+01  1.85583E+01  2.22576E+01  2.41312E+01  2.43195E+01  2.25208E+01  1.88019E+01  1.47324E+01  1.20896E+01  1.05126E+01
   8.21567E+00  5.16605E+00  3.59284E+00  3.25755E+00  3.15400E+00  3.07985E+00  3.00819E+00  2.94709E+00  2.91335E+00  2.92768E+00
   3.03563E+00  3.35920E+00  4.31061E+00  6.62648E+00  1.03923E+01  1.44566E+01  1.75298E+01  1.92433E+01  1.96584E+01  1.85677E+01
   1.58776E+01  1.25457E+01  9.97536E+00  8.17034E+00  5.90438E+00  3.05899E+00  1.41945E+00  1.16267E+00  1.33179E+00  1.52843E+00
   1.62223E+00  1.67682E+00  1.69554E+00  1.61177E+00  1.47761E+00  1.31813E+00  1.09718E+00  8.30958E-01  5.26067E-01  2.54925E-01
   4.16041E-02 -1.41592E-01 -2.90632E-01 -4.03289E-01 -4.91962E-01 -5.99855E-01 -7.79777E-01 -1.03806E+00 -1.32103E+00 -1.53732E+00
  -1.62795E+00 -1.61544E+00 -1.57086E+00 -1.54208E+00 -1.56237E+00 -1.68972E+00 -1.91686E+00 -2.14298E+00 -2.28919E+00 -2.41618E+00
  -2.60268E+00 -2.91084E+00 -3.28127E+00 -3.53186E+00 -3.64001E+00 -3.67489E+00 -3.71090E+00 -3.75939E+00 -3.77624E+00 -3.77749E+00
  -3.84582E+00 -3.98192E+00 -4.08288E+00 -4.07044E+00 -3.97936E+00 -3.80716E+00 -3.44400E+00 -2.87519E+00 -2.21833E+00 -1.73648E+00
  -1.59097E+00 -1.78881E+00 -2.24816E+00 -2.83450E+00 -3.39489E+00 -3.83399E+00 -4.00212E+00 -3.79252E+00 -3.19330E+00 -2.24860E+00
  -1.11491E+00 -7.42610E-02  5.94550E-01  7.51550E-01  2.73996E-01 -9.82225E-01 -2.85390E+00 -4.74913E+00 -6.18466E+00 -6.91714E+00
  -6.77094E+00 -5.62802E+00 -3.71698E+00 -1.72967E+00 -3.66706E-01  2.29566E-01  3.29272E-01 -1.76224E-01 -1.67183E+00 -3.48041E+00
  -4.58972E+00 -4.98569E+00 -4.99704E+00 -4.63863E+00 -3.65095E+00 -2.43365E+00 -1.62747E+00 -1.36872E+00 -1.28449E+00 -1.07407E+00
  -9.67002E-01 -1.19781E+00 -1.49501E+00 -1.49913E+00 -1.25799E+00 -9.57678E-01 -6.52145E-01 -2.48933E-01  1.21234E-01  9.60785E-02
  -3.52466E-01 -8.46994E-01 -1.13386E+00 -1.27091E+00 -1.40116E+00 -1.33075E+00 -1.05142E+00 -8.48346E-01 -6.94210E-01 -2.75449E-01
   4.37343E-01  1.02494E+00  1.49368E+00  2.01542E+00  3.05436E+00  5.89129E+00  1.14130E+01  1.81712E+01  2.36818E+01  2.68878E+01
   2.78443E+01  2.62514E+01  2.18324E+01  1.60034E+01  1.14369E+01  8.81271E+00  5.96125E+00  1.59891E+00 -1.80259E+00 -2.89314E+00
  -3.34026E+00 -3.60601E+00 -3.72602E+00 -3.77512E+00 -3.84324E+00 -3.93569E+00 -4.07056E+00 -4.24174E+00 -4.42242E+00 -4.59921E+00
  -4.78671E+00 -4.96918E+00 -5.11724E+00 -5.23167E+00 -5.32304E+00 -5.39589E+00 -5.45330E+00 -5.49716E+00 -5.53407E+00 -5.57275E+00
  -5.60797E+00 -5.63924E+00 -5.67120E+00 -5.70242E+00 -5.72751E+00 -5.74657E+00 -5.76350E+00 -5.77890E+00 -5.79129E+00 -5.80261E+00
  -5.81465E+00 -5.82680E+00 -5.84050E+00 -5.85633E+00 -5.87443E+00 -5.89493E+00 -5.91748E+00 -5.94118E+00 -5.96512E+00 -5.98879E+00
  -6.01162E+00 -6.03230E+00 -6.04963E+00 -6.06289E+00 -6.07102E+00 -6.07315E+00 -6.06855E+00 -6.05659E+00 -6.03678E+00 -6.00873E+00
  -5.97220E+00 -5.92719E+00 -5.87391E+00 -5.81283E+00 -5.74458E+00 -5.67001E+00 -5.59019E+00 -5.50644E+00 -5.42029E+00 -5.33337E+00
  -5.24741E+00 -5.16410E+00 -5.08510E+00 -5.01181E+00 -4.94516E+00 -4.88521E+00 -4.83082E+00 -4.77903E+00 -4.72460E+00 -4.65949E+00
  -4.57259E+00 -4.45012E+00 -4.27689E+00 -4.03856E+00 -3.72501E+00 -3.33428E+00 -2.87617E+00 -2.37455E+00 -1.86724E+00 -1.40265E+00
  -1.03331E+00 -8.07279E-01 -7.59275E-01 -9.03816E-01 -1.23210E+00 -1.71349E+00 -2.30130E+00 -2.94112E+00 -3.57995E+00 -4.17367E+00
  -4.69179E+00 -5.11875E+00 -5.45233E+00 -5.70025E+00 -5.87603E+00 -5.99535E+00 -6.07321E+00 -6.12236E+00 -6.15253E+00 -6.17052E+00
  -6.18061E+00 -6.18522E+00 -6.18539E+00 -6.18131E+00 -6.17253E+00 -6.15825E+00 -6.13742E+00 -6.10887E+00 -6.07133E+00 -6.02346E+00
  -5.96387E+00 -5.89114E+00 -5.80385E+00 -5.70067E+00 -5.58039E+00 -5.44197E+00 -5.28463E+00 -5.10791E+00 -4.91186E+00 -4.69707E+00
  -4.46481E+00 -4.21707E+00 -3.95663E+00 -3.68710E+00 -3.41290E+00 -3.13919E+00 -2.87173E+00 -2.61670E+00 -2.38047E+00 -2.16934E+00
  -1.98930E+00 -1.84570E+00 -1.74296E+00 -1.68435E+00 -1.67182E+00 -1.70590E+00 -1.78567E+00 -1.90881E+00 -2.07170E+00 -2.26964E+00
  -2.49710E+00 -2.74802E+00 -3.01605E+00 -3.29490E+00 -3.57852E+00 -3.86135E+00 -4.13850E+00 -4.40588E+00 -4.66019E+00 -4.89899E+00
  -5.12059E+00 -5.32405E+00 -5.50908E+00 -5.67590E+00 -5.82517E+00 -5.95781E+00 -6.07498E+00 -6.17795E+00 -6.26807E+00 -6.34665E+00
  -6.41498E+00 -6.47425E+00 -6.52555E+00 -6.56988E+00 -6.60814E+00 -6.64113E+00 -6.66954E+00 -6.69394E+00 -6.71486E+00 -6.73274E+00
  -6.74797E+00 -6.76089E+00 -6.77178E+00 -6.78085E+00 -6.78832E+00 -6.79439E+00 -6.79921E+00 -6.80292E+00 -6.80563E+00 -6.80743E+00
  -6.80842E+00 -6.80868E+00 -6.80829E+00 -6.80730E+00 -6.80576E+00 -6.80371E+00 -6.80120E+00 -6.79828E+00 -6.79499E+00 -6.79134E+00
  -6.78735E+00 -6.78306E+00 -6.77848E+00 -6.77365E+00 -6.76858E+00 -6.76329E+00 -6.75777E+00 -6.75206E+00 -6.74617E+00 -6.74012E+00
  -6.73391E+00 -6.72754E+00 -6.72102E+00 -6.71436E+00 -6.70759E+00 -6.70071E+00 -6.69371E+00 -6.68659E+00 -6.67937E+00 -6.67205E+00
  -6.66466E+00 -6.65718E+00 -6.64960E+00 -6.64194E+00 -6.63420E+00 -6.62640E+00 -6.61853E+00 -6.61058E+00 -6.60255E+00 -6.59445E+00
  -6.58629E+00 -6.57806E+00 -6.56977E+00 -6.56140E+00 -6.55295E+00 -6.54442E+00 -6.53582E+00 -6.52713E+00
 NY background values follow
     1.269E+01    1.260E+01    1.250E+01    1.240E+01    1.231E+01    1.221E+01    1.212E+01    1.202E+01    1.192E+01    1.183E+01
     1.173E+01    1.164E+01    1.154E+01    1.145E+01    1.135E+01    1.125E+01    1.116E+01    1.106E+01    1.097E+01    1.087E+01
     1.078E+01    1.068E+01    1.058E+01    1.049E+01    1.039E+01    1.030E+01    1.020E+01    1.011E+01    1.001E+01    9.917E+00
     9.822E+00    9.727E+00    9.632E+00    9.536E+00    9.442E+00    9.347E+00    9.252E+00    9.157E+00    9.062E+00    8.968E+00
     8.873E+00    8.779E+00    8.684E+00    8.590E+00    8.496E+00    8.402E+00    8.308E+00    8.214E+00    8.120E+00    8.026E+00
     7.932E+00    7.839E+00    7.745E+00    7.652E+00    7.559E+00    7.466E+00    7.373E+00    7.280E+00    7.187E+00    7.095E+00
     7.002E+00    6.910E+00    6.818E+00    6.726E+00    6.634E+00    6.542E+00    6.451E+00    6.359E+00    6.268E+00    6.177E+00
     6.086E+00    5.996E+00    5.905E+00    5.815E+00    5.725E+00    5.635E+00    5.545E+00    5.455E+00    5.366E+00    5.277E+00
     5.188E+00    5.099E+00    5.010E+00    4.922E+00    4.834E+00    4.746E+00    4.658E+00    4.571E+00    4.484E+00    4.397E+00
     4.310E+00    4.224E+00    4.137E+00    4.051E+00    3.966E+00    3.880E+00    3.795E+00    3.710E+00    3.625E+00    3.541E+00
     3.457E+00    3.373E+00    3.289E+00    3.205E+00    3.122E+00    3.039E+00    2.957E+00    2.874E+00    2.792E+00    2.710E+00
     2.629E+00    2.548E+00    2.466E+00    2.386E+00    2.305E+00    2.225E+00    2.145E+00    2.066E+00    1.986E+00    1.907E+00
     1.829E+00    1.750E+00    1.672E+00    1.594E+00    1.517E+00    1.439E+00    1.362E+00    1.286E+00    1.209E+00    1.133E+00
     1.057E+00    9.820E-01    9.068E-01    8.320E-01    7.574E-01    6.832E-01    6.093E-01    5.357E-01    4.625E-01    3.895E-01
     3.169E-01    2.446E-01    1.726E-01    1.009E-01    2.961E-02   -4.139E-02   -1.121E-01   -1.824E-01   -2.524E-01   -3.221E-01
    -3.914E-01   -4.604E-01   -5.290E-01   -5.973E-01   -6.653E-01   -7.329E-01   -8.002E-01   -8.671E-01   -9.336E-01   -9.999E-01
    -1.066E+00   -1.131E+00   -1.196E+00   -1.261E+00   -1.326E+00   -1.390E+00   -1.453E+00   -1.517E+00   -1.580E+00   -1.642E+00
    -1.704E+00   -1.766E+00   -1.828E+00   -1.889E+00   -1.950E+00   -2.010E+00   -2.070E+00   -2.129E+00   -2.189E+00   -2.247E+00
    -2.306E+00   -2.364E+00   -2.422E+00   -2.479E+00   -2.536E+00   -2.592E+00   -2.648E+00   -2.704E+00   -2.759E+00   -2.814E+00
    -2.869E+00   -2.923E+00   -2.977E+00   -3.030E+00   -3.083E+00   -3.136E+00   -3.188E+00   -3.240E+00   -3.292E+00   -3.343E+00
    -3.394E+00   -3.444E+00   -3.494E+00   -3.544E+00   -3.593E+00   -3.643E+00   -3.691E+00   -3.740E+00   -3.787E+00   -3.835E+00
    -3.882E+00   -3.929E+00   -3.976E+00   -4.022E+00   -4.068E+00   -4.113E+00   -4.158E+00   -4.203E+00   -4.248E+00   -4.292E+00
    -4.336E+00   -4.379E+00   -4.422E+00   -4.465E+00   -4.507E+00   -4.550E+00   -4.591E+00   -4.633E+00   -4.674E+00   -4.715E+00
    -4.755E+00   -4.795E+00   -4.835E+00   -4.875E+00   -4.914E+00   -4.953E+00   -4.991E+00   -5.029E+00   -5.067E+00   -5.105E+00
    -5.142E+00   -5.179E+00   -5.215E+00   -5.252E+00   -5.288E+00   -5.323E+00   -5.359E+00   -5.394E+00   -5.428E+00   -5.463E+00
    -5.497E+00   -5.530E+00   -5.564E+00   -5.597E+00   -5.630E+00   -5.662E+00   -5.694E+00   -5.726E+00   -5.758E+00   -5.789E+00
    -5.820E+00   -5.851E+00   -5.881E+00   -5.911E+00   -5.941E+00   -5.970E+00   -5.999E+00   -6.028E+00   -6.056E+00   -6.085E+00
    -6.113E+00   -6.140E+00   -6.167E+00   -6.194E+00   -6.221E+00   -6.248E+00   -6.274E+00   -6.299E+00   -6.325E+00   -6.350E+00
    -6.375E+00   -6.400E+00   -6.424E+00   -6.448E+00   -6.472E+00   -6.495E+00   -6.518E+00   -6.541E+00   -6.564E+00   -6.586E+00
    -6.608E+00   -6.629E+00   -6.651E+00   -6.672E+00   -6.692E+00   -6.713E+00   -6.733E+00   -6.753E+00   -6.772E+00   -6.792E+00
    -6.811E+00   -6.829E+00   -6.848E+00   -6.866E+00   -6.883E+00   -6.901E+00   -6.918E+00   -6.935E+00   -6.951E+00   -6.968E+00
    -6.984E+00   -6.999E+00   -7.015E+00   -7.030E+00   -7.044E+00   -7.059E+00   -7.073E+00   -7.087E+00   -7.100E+00   -7.114E+00
    -7.127E+00   -7.139E+00   -7.152E+00   -7.164E+00   -7.176E+00   -7.187E+00   -7.198E+00   -7.209E+00   -7.220E+00   -7.230E+00
    -7.241E+00   -7.250E+00   -7.260E+00   -7.269E+00   -7.278E+00   -7.287E+00   -7.296E+00   -7.304E+00   -7.312E+00   -7.320E+00
    -7.327E+00   -7.334E+00   -7.341E+00   -7.348E+00   -7.354E+00   -7.360E+00   -7.366E+00   -7.372E+00   -7.377E+00   -7.382E+00
    -7.387E+00   -7.392E+00   -7.397E+00   -7.401E+00   -7.405E+00   -7.408E+00   -7.412E+00   -7.415E+00   -7.418E+00   -7.421E+00
    -7.423E+00   -7.426E+00   -7.428E+00   -7.430E+00   -7.431E+00   -7.433E+00   -7.434E+00   -7.435E+00   -7.436E+00   -7.437E+00
    -7.437E+00   -7.437E+00   -7.437E+00   -7.437E+00   -7.436E+00   -7.436E+00   -7.435E+00   -7.434E+00   -7.433E+00   -7.431E+00
    -7.430E+00   -7.428E+00   -7.426E+00   -7.424E+00   -7.422E+00   -7.419E+00   -7.417E+00   -7.414E+00   -7.411E+00   -7.408E+00
    -7.404E+00   -7.401E+00   -7.397E+00   -7.393E+00   -7.390E+00   -7.385E+00   -7.381E+00   -7.377E+00   -7.372E+00   -7.368E+00
    -7.363E+00   -7.358E+00   -7.353E+00   -7.347E+00   -7.342E+00   -7.336E+00   -7.331E+00   -7.325E+00   -7.319E+00   -7.313E+00
    -7.307E+00   -7.301E+00   -7.294E+00   -7.288E+00   -7.281E+00   -7.275E+00   -7.268E+00   -7.261E+00   -7.254E+00   -7.247E+00
    -7.240E+00   -7.232E+00   -7.225E+00   -7.218E+00   -7.210E+00   -7.202E+00   -7.195E+00   -7.187E+00   -7.179E+00   -7.171E+00
    -7.163E+00   -7.155E+00   -7.147E+00   -7.139E+00   -7.130E+00   -7.122E+00   -7.114E+00   -7.105E+00   -7.097E+00   -7.088E+00
    -7.080E+00   -7.071E+00   -7.062E+00   -7.054E+00   -7.045E+00   -7.036E+00   -7.028E+00   -7.019E+00   -7.010E+00   -7.001E+00
    -6.992E+00   -6.983E+00   -6.974E+00   -6.965E+00   -6.956E+00   -6.947E+00   -6.939E+00   -6.930E+00   -6.921E+00   -6.912E+00
    -6.903E+00   -6.894E+00   -6.885E+00   -6.876E+00   -6.866E+00   -6.857E+00   -6.848E+00   -6.839E+00   -6.830E+00   -6.821E+00
    -6.812E+00   -6.803E+00   -6.794E+00   -6.785E+00   -6.776E+00   -6.767E+00   -6.758E+00   -6.748E+00   -6.739E+00   -6.730E+00
    -6.721E+00   -6.712E+00   -6.703E+00   -6.694E+00   -6.685E+00   -6.676E+00   -6.667E+00   -6.657E+00   -6.648E+00   -6.639E+00
    -6.630E+00   -6.621E+00   -6.612E+00   -6.603E+00   -6.594E+00   -6.585E+00   -6.576E+00   -6.567E+00
 Asp      Conc. = 5.36E+01
