 LCModel (Version 6.3-1L) Copyright: S.W. Provencher.          Ref.: Magn. Reson. Med. 30:672-679 (1993).                
 Slice#1 Row#6 Col#4  PD_05_press_1_raw_act
 36 lines in following concentration table = NCONC+1
    Conc.  %SD /Cr+PCr  Metabolite                                         
  121.426  90%   0.133 Ala                                                 
  176.739  97%   0.193 Asp                                                 
  107.385 155%   0.117 Cr                                                  
  808.495  21%   0.883 PCr                                                 
   25.480 466% 2.8E-02 GABA                                                
    0.000 999%   0.000 Glc                                                 
  453.771  51%   0.495 Gln                                                 
 1.57E+03  17%   1.717 Glu                                                 
  332.367   6%   0.363 GPC                                                 
    0.000 999%   0.000 PCh                                                 
  314.805  21%   0.344 GSH                                                 
  701.634  33%   0.766 Ins                                                 
  195.128  63%   0.213 Lac                                                 
 2.07E+03   5%   2.256 NAA                                                 
  171.921  59%   0.188 NAAG                                                
   93.643  24%   0.102 Scyllo                                              
  399.655  39%   0.436 Tau                                                 
  186.134  48%   0.203 -CrCH2                                              
  332.367   6%   0.363 GPC+PCh                                             
 2.24E+03   3%   2.444 NAA+NAAG                                            
  915.880   5%   1.000 Cr+PCr                                              
 2.03E+03  20%   2.213 Glu+Gln                                             
 1.68E+03  13%   1.838 Lip13a                                              
    0.000 999%   0.000 Lip13b                                              
    0.000 999%   0.000 Lip09                                               
  999.192  13%   1.091 MM09                                                
  326.739  34%   0.357 Lip20                                               
 1.74E+03  13%   1.899 MM20                                                
  298.358  18%   0.326 MM12                                                
 1.03E+03  14%   1.126 MM14                                                
  565.319  16%   0.617 MM17                                                
 1.68E+03  13%   1.838 Lip13a+Lip13b                                       
 3.01E+03   8%   3.290 MM14+Lip13a+Lip13b+MM12                             
  999.192  13%   1.091 MM09+Lip09                                          
 2.07E+03  11%   2.256 MM20+Lip20                                          
   6 lines in following misc. output table
  FWHM = 0.061 ppm    S/N =  12                                            
  Data shift = 0.015 ppm                                                   
  Ph: -63 deg     -12.2 deg/ppm                                            
  alphaB,S = 6.2E-01,   1.8E+02                                            
   14 spline knots.   Ns = 8(1)                                            
  (13) 4 infls.   (13) 1 extrs.                                            
  498 points on ppm-axis = NY
      4.000000     3.992357     3.984714     3.977070     3.969427     3.961784     3.954141     3.946497     3.938854     3.931211
      3.923568     3.915925     3.908281     3.900638     3.892995     3.885352     3.877708     3.870065     3.862422     3.854779
      3.847136     3.839492     3.831849     3.824206     3.816563     3.808919     3.801276     3.793633     3.785990     3.778347
      3.770703     3.763060     3.755417     3.747774     3.740130     3.732487     3.724844     3.717201     3.709558     3.701914
      3.694271     3.686628     3.678985     3.671341     3.663698     3.656055     3.648412     3.640769     3.633125     3.625482
      3.617839     3.610196     3.602552     3.594909     3.587266     3.579623     3.571980     3.564336     3.556693     3.549050
      3.541407     3.533763     3.526120     3.518477     3.510834     3.503191     3.495547     3.487904     3.480261     3.472618
      3.464974     3.457331     3.449688     3.442045     3.434402     3.426758     3.419115     3.411472     3.403829     3.396185
      3.388542     3.380899     3.373256     3.365613     3.357969     3.350326     3.342683     3.335040     3.327396     3.319753
      3.312110     3.304467     3.296824     3.289180     3.281537     3.273894     3.266251     3.258607     3.250964     3.243321
      3.235678     3.228034     3.220391     3.212748     3.205105     3.197462     3.189818     3.182175     3.174532     3.166889
      3.159245     3.151602     3.143959     3.136316     3.128673     3.121029     3.113386     3.105743     3.098100     3.090456
      3.082813     3.075170     3.067527     3.059884     3.052240     3.044597     3.036954     3.029311     3.021667     3.014024
      3.006381     2.998738     2.991095     2.983451     2.975808     2.968165     2.960522     2.952878     2.945235     2.937592
      2.929949     2.922306     2.914662     2.907019     2.899376     2.891733     2.884089     2.876446     2.868803     2.861160
      2.853517     2.845873     2.838230     2.830587     2.822944     2.815300     2.807657     2.800014     2.792371     2.784728
      2.777084     2.769441     2.761798     2.754155     2.746511     2.738868     2.731225     2.723582     2.715939     2.708295
      2.700652     2.693009     2.685366     2.677722     2.670079     2.662436     2.654793     2.647150     2.639506     2.631863
      2.624220     2.616577     2.608933     2.601290     2.593647     2.586004     2.578361     2.570717     2.563074     2.555431
      2.547788     2.540144     2.532501     2.524858     2.517215     2.509572     2.501928     2.494285     2.486642     2.478999
      2.471355     2.463712     2.456069     2.448426     2.440783     2.433139     2.425496     2.417853     2.410210     2.402566
      2.394923     2.387280     2.379637     2.371994     2.364350     2.356707     2.349064     2.341421     2.333777     2.326134
      2.318491     2.310848     2.303205     2.295561     2.287918     2.280275     2.272632     2.264988     2.257345     2.249702
      2.242059     2.234416     2.226772     2.219129     2.211486     2.203843     2.196199     2.188556     2.180913     2.173270
      2.165627     2.157983     2.150340     2.142697     2.135054     2.127410     2.119767     2.112124     2.104481     2.096838
      2.089194     2.081551     2.073908     2.066265     2.058621     2.050978     2.043335     2.035692     2.028049     2.020405
      2.012762     2.005119     1.997476     1.989833     1.982190     1.974546     1.966903     1.959260     1.951617     1.943974
      1.936331     1.928688     1.921045     1.913402     1.905759     1.898115     1.890472     1.882829     1.875186     1.867543
      1.859900     1.852257     1.844614     1.836971     1.829327     1.821684     1.814041     1.806398     1.798755     1.791112
      1.783469     1.775826     1.768183     1.760540     1.752896     1.745253     1.737610     1.729967     1.722324     1.714681
      1.707038     1.699395     1.691752     1.684108     1.676465     1.668822     1.661179     1.653536     1.645893     1.638250
      1.630607     1.622964     1.615321     1.607677     1.600034     1.592391     1.584748     1.577105     1.569462     1.561819
      1.554176     1.546533     1.538890     1.531246     1.523603     1.515960     1.508317     1.500674     1.493031     1.485388
      1.477745     1.470102     1.462458     1.454815     1.447172     1.439529     1.431886     1.424243     1.416600     1.408957
      1.401314     1.393671     1.386027     1.378384     1.370741     1.363098     1.355455     1.347812     1.340169     1.332526
      1.324883     1.317240     1.309596     1.301953     1.294310     1.286667     1.279024     1.271381     1.263738     1.256095
      1.248452     1.240808     1.233165     1.225522     1.217879     1.210236     1.202593     1.194950     1.187307     1.179664
      1.172021     1.164377     1.156734     1.149091     1.141448     1.133805     1.126162     1.118519     1.110876     1.103233
      1.095590     1.087946     1.080303     1.072660     1.065017     1.057374     1.049731     1.042088     1.034445     1.026802
      1.019158     1.011515     1.003872     0.996229     0.988586     0.980943     0.973300     0.965657     0.958014     0.950371
      0.942727     0.935084     0.927441     0.919798     0.912155     0.904512     0.896869     0.889226     0.881583     0.873940
      0.866296     0.858653     0.851010     0.843367     0.835724     0.828081     0.820438     0.812795     0.805152     0.797508
      0.789865     0.782222     0.774579     0.766936     0.759293     0.751650     0.744007     0.736364     0.728721     0.721077
      0.713434     0.705791     0.698148     0.690505     0.682862     0.675219     0.667576     0.659933     0.652290     0.644646
      0.637003     0.629360     0.621717     0.614074     0.606431     0.598788     0.591145     0.583502     0.575858     0.568215
      0.560572     0.552929     0.545286     0.537643     0.530000     0.522357     0.514714     0.507071     0.499427     0.491784
      0.484141     0.476498     0.468855     0.461212     0.453569     0.445925     0.438282     0.430639     0.422996     0.415353
      0.407710     0.400067     0.392424     0.384780     0.377137     0.369494     0.361851     0.354208     0.346565     0.338922
      0.331278     0.323635     0.315992     0.308349     0.300706     0.293063     0.285420     0.277777     0.270133     0.262490
      0.254847     0.247204     0.239561     0.231918     0.224275     0.216631     0.208988     0.201345
 NY phased data points follow
  -1.32674E+01 -1.24022E+01 -7.62114E+00 -7.61163E+00 -5.05527E+00 -6.10057E+00 -1.56500E+00 -2.90242E+00  1.65170E+00  5.33523E-01
   1.39276E+00  8.00215E-02  5.40956E+00 -3.48853E+00  2.18430E-01 -1.01178E+01 -7.16366E+00 -1.16214E+01 -1.24243E+01 -9.08437E+00
  -5.72000E+00 -1.19763E+01 -5.72679E+00 -9.37676E+00 -6.51346E+00 -7.08226E+00 -7.39804E+00 -4.81594E+00 -4.73857E+00 -5.18726E+00
  -4.05317E+00 -8.27151E+00 -4.45096E+00 -8.02174E+00 -8.26907E+00 -1.00100E+01 -1.03072E+01 -1.24745E+01 -8.85274E+00 -1.04558E+01
  -4.65078E+00 -6.57276E+00 -1.47486E+00 -5.28730E+00 -5.21046E+00 -2.86498E+00 -5.96522E+00 -3.21271E+00 -3.61829E+00 -2.93537E+00
  -6.92319E+00 -6.17242E+00 -4.48856E+00 -7.40858E+00 -8.64122E+00 -5.89778E+00 -9.50969E+00 -5.23365E+00 -9.38807E+00 -9.12714E+00
  -7.66031E+00 -1.02624E+01 -1.02826E+01 -8.57420E+00 -8.96422E+00 -1.10635E+01 -1.17758E+01 -1.02071E+01 -7.54896E+00 -1.04251E+01
  -5.40380E+00 -8.43796E+00 -9.32843E+00 -9.55684E+00 -9.83008E+00 -7.13612E+00 -5.88191E+00 -7.32864E+00 -6.71667E+00 -8.95638E+00
  -1.03535E+01 -1.03815E+01 -4.90871E+00 -7.20612E+00 -8.73395E+00 -8.05433E+00 -9.56485E-02 -4.13739E+00 -4.41548E+00 -4.00780E+00
  -6.43053E+00 -5.97663E+00 -4.68516E+00 -2.67349E+00  3.49893E-01 -1.40513E+00  2.14292E+00  5.37395E+00  7.69190E+00  1.17947E+01
   1.44542E+01  1.49711E+01  1.54316E+01  1.71988E+01  1.22311E+01  1.21079E+01  4.36111E+00  4.43880E+00  2.65894E+00 -8.99233E-01
  -2.32292E+00 -2.87869E+00 -4.14482E+00 -3.88538E+00 -2.25432E+00 -5.73143E+00 -5.20575E+00 -5.61068E+00 -5.73534E+00 -4.63398E+00
   7.00093E-01 -7.15490E-01  5.74461E+00  6.80375E+00  9.41544E+00  1.44915E+01  1.63078E+01  1.99688E+01  1.96225E+01  1.56135E+01
   1.29850E+01  6.75909E+00 -1.26853E+00 -1.08454E+00  2.60675E-01 -3.04296E+00 -4.14164E+00 -4.30547E+00 -6.05047E+00 -7.42241E+00
  -3.92288E+00 -4.40054E+00 -4.43349E+00 -2.67701E+00 -6.13023E+00 -4.20168E+00 -5.17451E+00 -9.16318E+00 -7.87744E+00 -6.12827E+00
  -9.64995E+00 -4.75206E+00 -8.10642E+00 -7.61836E+00 -9.37276E+00 -8.38510E+00 -6.75318E+00 -6.98785E+00 -8.31309E+00 -8.36761E+00
  -1.01296E+01 -9.39856E+00 -7.96546E+00 -1.38892E+01 -7.14962E+00 -6.69801E+00 -9.53659E+00 -8.73004E+00 -1.28927E+01 -9.81378E+00
  -1.17998E+01 -1.09882E+01 -1.28157E+01 -1.37789E+01 -1.43923E+01 -1.59512E+01 -1.36117E+01 -1.82752E+01 -1.41927E+01 -1.51638E+01
  -1.41697E+01 -1.34305E+01 -9.41521E+00 -1.17754E+01 -8.00268E+00 -1.10746E+01 -8.40349E+00 -7.60146E+00 -7.67479E+00 -6.26911E+00
  -6.40455E+00 -7.53395E+00 -7.11857E+00 -7.60469E+00 -6.56606E+00 -6.68537E+00 -8.90701E+00 -9.20138E+00 -8.53690E+00 -7.78795E+00
  -9.32284E+00 -7.37098E+00 -3.29107E+00 -5.24851E+00 -4.12853E+00 -2.92680E+00 -3.79454E+00 -4.59681E+00 -4.33260E+00 -5.27086E+00
  -6.99749E-01 -3.68675E+00 -1.06647E+00  2.44540E+00  3.95039E+00  4.19224E+00  3.45156E+00  2.77788E+00  2.44964E+00 -2.13142E+00
  -3.26675E+00 -6.33943E+00 -8.64136E+00 -7.01506E+00 -1.10592E+00 -1.58184E+00 -2.77126E+00 -5.88823E-01  3.73101E+00  2.01616E+00
  -7.43102E-02  3.42979E+00  6.36033E-01  1.44239E+00  4.53427E-01  1.66021E+00  4.11204E+00  1.38070E+00  1.40026E+00 -9.31162E-01
  -9.60242E-01 -1.28749E+00 -2.39254E-01  1.92155E+00  9.98140E-01  1.58808E+00  7.74371E+00  6.40047E+00  9.74675E+00  8.60027E+00
   1.08810E+01  1.07836E+01  1.37278E+01  1.94719E+01  2.83099E+01  2.81232E+01  3.50037E+01  4.10533E+01  5.12798E+01  5.89933E+01
   6.28327E+01  6.55874E+01  6.02895E+01  5.14493E+01  3.80843E+01  2.74458E+01  1.91499E+01  1.68212E+01  8.46859E+00  6.53507E+00
   6.41183E+00  5.16944E+00  3.37824E+00  7.57329E+00  3.53272E+00  4.18021E+00  2.43414E+00  5.86196E-01  6.01778E-02  1.52615E+00
  -1.28550E+00 -1.57428E-02 -1.91303E+00  1.20140E+00  2.73222E+00  1.61542E+00  2.84922E+00 -2.35490E+00  5.41153E-01 -2.14594E+00
  -6.20069E-01 -8.05049E-01 -1.30360E+00 -2.02690E+00  4.42034E-01 -1.98549E+00 -1.25587E-01  2.19515E-01  1.93153E+00 -2.17557E+00
  -2.93246E+00 -3.01962E-01  1.56035E+00 -1.10364E+00 -3.82790E-01 -3.33904E-01  1.77109E+00 -8.02138E-01 -1.00662E+00  3.69329E+00
   5.79055E+00  5.65845E+00  8.58107E+00  7.78202E+00  8.12183E+00  3.80190E+00  4.31804E+00  7.92331E+00  4.98669E+00  4.77685E+00
   6.64879E+00  7.56719E+00  4.00963E+00  1.40511E+00  1.72490E+00  7.57237E-01  1.26864E+00  1.08363E+00  5.86533E+00  3.42350E+00
   3.01474E+00  5.81916E+00  4.59198E+00  6.95324E+00  7.78954E+00  4.64023E+00  7.44616E+00  5.78946E+00  9.82313E+00  1.18739E+01
   1.10422E+01  9.38244E+00  8.60172E+00  9.20660E+00  1.03398E+01  1.07393E+01  1.10920E+01  7.84482E+00  1.43768E+01  1.34566E+01
   6.86554E+00  4.73972E+00  1.13847E+01  8.80485E+00  8.87237E+00  3.86831E+00  5.40890E+00  5.65529E+00  8.04570E+00  1.11073E+01
   3.87009E+00  8.56794E+00  6.27975E+00  5.92918E+00  4.55761E+00  4.80980E+00  6.22668E+00  3.42524E+00  4.52893E+00  5.00258E+00
   1.57672E+00  3.30014E+00 -6.39555E-02  1.61569E+00  1.53208E+00 -4.85722E+00 -1.31787E+00  1.35199E-01 -1.55009E+00 -4.06176E+00
  -2.24332E+00 -1.45449E+00  2.95167E+00 -1.90186E+00 -1.04939E+00  7.05013E-01 -2.06348E+00 -4.62582E+00  1.01985E-01 -3.84399E+00
  -2.63433E+00  1.86000E-02  5.43375E-01 -2.91734E+00 -2.81535E+00 -2.46312E-02 -4.38417E+00 -2.03556E-01 -2.57980E+00 -2.28319E+00
   9.50416E-01  5.81326E-01  2.55718E+00  3.04848E+00 -8.85021E-01 -1.33653E+00  1.43985E+00  1.56075E+00 -7.66750E-01 -2.89783E-01
   3.18230E-02 -1.00291E+00  1.62129E+00  1.08394E+00  1.80869E+00 -3.04382E-01 -2.28443E+00  1.38292E+00  2.13510E+00 -2.80876E+00
  -2.66108E+00  7.17289E-01 -9.09443E-01  1.51346E-01 -1.38455E+00 -2.14917E+00 -2.53353E+00 -4.05546E-01 -1.46262E+00 -5.59322E+00
  -3.23302E+00 -3.37483E+00 -2.87954E+00 -4.65306E+00 -1.98729E+00 -2.99600E+00 -2.10907E+00 -4.54707E+00 -3.21312E+00 -4.71962E+00
  -1.93434E+00 -3.54099E+00 -2.92597E+00 -3.10191E+00 -2.28552E+00 -3.78702E+00 -3.17105E+00 -4.78257E+00 -3.72354E+00 -2.20499E+00
  -2.14832E+00 -3.09715E+00 -4.49090E+00 -2.19114E+00 -1.63739E+00 -4.97488E+00 -3.69854E+00 -2.51486E+00 -3.93286E+00 -3.99504E+00
  -3.07543E+00 -3.52443E+00 -4.12179E+00 -3.49884E+00 -1.43256E-01 -5.09115E+00  1.78239E-01  5.33719E-01 -5.12765E+00  4.11306E-01
  -5.80148E-01 -9.43164E-01 -4.32725E-01 -2.74732E+00 -1.51121E+00 -2.21146E+00 -3.45089E+00 -2.26007E+00 -2.03787E+00 -2.44392E+00
   6.08474E-02 -2.06358E+00 -1.72953E+00 -4.21380E+00 -4.03868E+00 -2.12309E-01 -3.40131E+00 -2.20477E+00 -5.63104E-01  1.66851E+00
  -3.07039E-01 -1.18507E+00 -2.07792E+00 -4.14454E-01 -2.25456E+00 -1.93977E+00 -5.50204E+00 -2.31769E+00
 NY points of the fit to the data follow
  -1.14727E+01 -1.07761E+01 -9.50509E+00 -8.04167E+00 -6.49592E+00 -4.80761E+00 -2.90048E+00 -9.00202E-01  8.90699E-01  2.08242E+00
   2.33504E+00  1.54615E+00 -8.45614E-02 -2.10750E+00 -4.03410E+00 -5.62110E+00 -6.88891E+00 -7.95121E+00 -8.84784E+00 -9.39676E+00
  -9.71522E+00 -9.66772E+00 -9.26921E+00 -8.83650E+00 -8.38251E+00 -7.79432E+00 -6.99799E+00 -6.07982E+00 -5.20702E+00 -4.44496E+00
  -3.86515E+00 -3.61121E+00 -3.74517E+00 -4.25959E+00 -5.06091E+00 -6.05838E+00 -7.18581E+00 -8.24857E+00 -9.01270E+00 -9.15553E+00
  -8.73414E+00 -8.07956E+00 -7.39745E+00 -6.74250E+00 -6.09911E+00 -5.50320E+00 -5.04607E+00 -4.83184E+00 -4.97379E+00 -5.54577E+00
  -6.43856E+00 -7.38388E+00 -8.14440E+00 -8.63681E+00 -8.90331E+00 -9.02312E+00 -9.03736E+00 -8.92920E+00 -8.69974E+00 -8.41381E+00
  -8.20749E+00 -8.11950E+00 -8.16787E+00 -8.31726E+00 -8.44585E+00 -8.48426E+00 -8.44695E+00 -8.32380E+00 -8.09868E+00 -7.86035E+00
  -7.68117E+00 -7.55214E+00 -7.44752E+00 -7.36212E+00 -7.29230E+00 -7.28155E+00 -7.39018E+00 -7.61232E+00 -7.82458E+00 -7.78469E+00
  -7.58555E+00 -7.30854E+00 -6.89016E+00 -6.32153E+00 -5.68432E+00 -5.10617E+00 -4.73361E+00 -4.68384E+00 -4.94959E+00 -5.46980E+00
  -6.09840E+00 -6.59801E+00 -6.82443E+00 -6.47052E+00 -4.73656E+00 -2.09842E+00  5.53758E-01  3.30960E+00  6.50036E+00  1.01675E+01
   1.38819E+01  1.68465E+01  1.82903E+01  1.77014E+01  1.50664E+01  1.10025E+01  6.54437E+00  2.65671E+00 -2.59781E-01 -2.46818E+00
  -4.41554E+00 -6.07217E+00 -6.93983E+00 -7.23933E+00 -7.37476E+00 -7.42259E+00 -7.38448E+00 -7.21309E+00 -6.49982E+00 -4.38938E+00
  -1.53257E+00  1.18272E+00  3.84847E+00  6.93678E+00  1.06099E+01  1.44265E+01  1.74948E+01  1.89663E+01  1.83469E+01  1.56754E+01
   1.16169E+01  7.23099E+00  3.42797E+00  5.15733E-01 -1.85966E+00 -4.03925E+00 -5.79044E+00 -6.52345E+00 -6.54699E+00 -6.32206E+00
  -6.06553E+00 -5.89482E+00 -5.83556E+00 -5.85781E+00 -5.94849E+00 -6.08699E+00 -6.25390E+00 -6.44866E+00 -6.65922E+00 -6.86057E+00
  -7.03418E+00 -7.15272E+00 -7.25588E+00 -7.41283E+00 -7.61465E+00 -7.78623E+00 -7.89968E+00 -7.96066E+00 -8.05645E+00 -8.25443E+00
  -8.49631E+00 -8.67935E+00 -8.73496E+00 -8.65674E+00 -8.51135E+00 -8.40785E+00 -8.44871E+00 -8.67653E+00 -9.06009E+00 -9.48946E+00
  -9.79273E+00 -9.98663E+00 -1.01853E+01 -1.04784E+01 -1.08276E+01 -1.10522E+01 -1.10935E+01 -1.09949E+01 -1.08297E+01 -1.07060E+01
  -1.06186E+01 -1.04427E+01 -1.01354E+01 -9.69454E+00 -9.13485E+00 -8.51675E+00 -7.88342E+00 -7.22126E+00 -6.49459E+00 -5.73302E+00
  -5.05792E+00 -4.64606E+00 -4.55772E+00 -4.67429E+00 -4.82704E+00 -4.85962E+00 -4.64268E+00 -4.22099E+00 -3.68666E+00 -3.11038E+00
  -2.56799E+00 -2.13216E+00 -1.95041E+00 -1.99000E+00 -2.26685E+00 -2.91288E+00 -3.87808E+00 -4.87454E+00 -5.47350E+00 -5.62335E+00
  -5.44109E+00 -4.84864E+00 -3.80267E+00 -2.48776E+00 -1.33327E+00 -7.35875E-01 -7.37494E-01 -1.31162E+00 -2.56798E+00 -4.36781E+00
  -6.25930E+00 -7.59182E+00 -8.01446E+00 -7.58594E+00 -6.42801E+00 -4.69702E+00 -2.68648E+00 -9.36358E-01  2.23814E-01  9.33415E-01
   1.37796E+00  1.67616E+00  1.83974E+00  1.90930E+00  1.97840E+00  2.02327E+00  2.04001E+00  2.07053E+00  2.05957E+00  1.93427E+00
   1.74676E+00  1.60119E+00  1.61813E+00  1.87197E+00  2.37218E+00  3.08428E+00  3.91112E+00  4.78913E+00  5.73128E+00  6.65591E+00
   7.55443E+00  8.87063E+00  1.22438E+01  1.86827E+01  2.57189E+01  3.19850E+01  3.80467E+01  4.47086E+01  5.18608E+01  5.83373E+01
   6.24845E+01  6.28286E+01  5.85858E+01  5.02661E+01  3.97180E+01  2.94551E+01  2.13313E+01  1.53738E+01  1.04946E+01  6.12850E+00
   3.05346E+00  1.85255E+00  1.36993E+00  1.09877E+00  9.35926E-01  8.05738E-01  6.42037E-01  4.40308E-01  2.07901E-01 -3.10258E-02
  -2.53953E-01 -4.52397E-01 -6.30979E-01 -7.84797E-01 -9.04153E-01 -9.94974E-01 -1.07148E+00 -1.14039E+00 -1.19778E+00 -1.23723E+00
  -1.25808E+00 -1.26334E+00 -1.24840E+00 -1.20998E+00 -1.14865E+00 -1.06437E+00 -9.53856E-01 -8.13071E-01 -6.38491E-01 -4.27447E-01
  -1.78872E-01  1.06444E-01  4.26493E-01  7.75904E-01  1.14642E+00  1.52912E+00  1.91487E+00  2.29432E+00  2.65735E+00  2.99358E+00
   3.29428E+00  3.55213E+00  3.76178E+00  3.92115E+00  4.03126E+00  4.09662E+00  4.12590E+00  4.13376E+00  4.14661E+00  4.19630E+00
   4.22795E+00  4.19891E+00  4.14814E+00  4.11319E+00  4.08716E+00  4.02605E+00  3.88840E+00  3.72538E+00  3.60375E+00  3.52789E+00
   3.53306E+00  3.69163E+00  4.05839E+00  4.62247E+00  5.31357E+00  6.05487E+00  6.79139E+00  7.48096E+00  8.06766E+00  8.57556E+00
   9.03780E+00  9.37228E+00  9.59603E+00  9.75709E+00  9.85240E+00  9.85291E+00  9.69420E+00  9.38864E+00  9.02193E+00  8.58191E+00
   8.11110E+00  7.74073E+00  7.60162E+00  7.72660E+00  8.02294E+00  8.34909E+00  8.59527E+00  8.69872E+00  8.59657E+00  8.23179E+00
   7.68396E+00  7.06636E+00  6.43777E+00  5.79176E+00  5.11054E+00  4.44168E+00  3.84075E+00  3.28829E+00  2.77248E+00  2.29076E+00
   1.84295E+00  1.42953E+00  1.05081E+00  7.06905E-01  3.97557E-01  1.22279E-01 -1.19746E-01 -3.29457E-01 -5.07978E-01 -6.56380E-01
  -7.75777E-01 -8.67162E-01 -9.31543E-01 -9.69778E-01 -9.82705E-01 -9.70995E-01 -9.35340E-01 -8.76368E-01 -7.94849E-01 -6.91590E-01
  -5.67615E-01 -4.24092E-01 -2.62559E-01 -8.48591E-02  1.06669E-01  3.09330E-01  5.19924E-01  7.34895E-01  9.50200E-01  1.16152E+00
   1.36420E+00  1.55358E+00  1.72499E+00  1.87401E+00  1.99649E+00  2.08887E+00  2.14820E+00  2.17242E+00  2.16030E+00  2.11162E+00
   2.02700E+00  1.90808E+00  1.75727E+00  1.57782E+00  1.37349E+00  1.14856E+00  9.07440E-01  6.54711E-01  3.94827E-01  1.32100E-01
  -1.29575E-01 -3.86690E-01 -6.36311E-01 -8.75951E-01 -1.10370E+00 -1.31811E+00 -1.51826E+00 -1.70364E+00 -1.87418E+00 -2.03002E+00
  -2.17159E+00 -2.29946E+00 -2.41441E+00 -2.51725E+00 -2.60890E+00 -2.69020E+00 -2.76204E+00 -2.82520E+00 -2.88054E+00 -2.92877E+00
  -2.97061E+00 -3.00662E+00 -3.03740E+00 -3.06342E+00 -3.08519E+00 -3.10309E+00 -3.11752E+00 -3.12875E+00 -3.13710E+00 -3.14279E+00
  -3.14612E+00 -3.14726E+00 -3.14640E+00 -3.14367E+00 -3.13924E+00 -3.13323E+00 -3.12580E+00 -3.11701E+00 -3.10700E+00 -3.09579E+00
  -3.08352E+00 -3.07023E+00 -3.05604E+00 -3.04096E+00 -3.02506E+00 -3.00836E+00 -2.99096E+00 -2.97288E+00 -2.95420E+00 -2.93489E+00
  -2.91503E+00 -2.89461E+00 -2.87372E+00 -2.85235E+00 -2.83056E+00 -2.80832E+00 -2.78570E+00 -2.76268E+00 -2.73935E+00 -2.71568E+00
  -2.69173E+00 -2.66744E+00 -2.64289E+00 -2.61807E+00 -2.59304E+00 -2.56777E+00 -2.54229E+00 -2.51657E+00 -2.49066E+00 -2.46457E+00
  -2.43833E+00 -2.41190E+00 -2.38531E+00 -2.35852E+00 -2.33159E+00 -2.30450E+00 -2.27727E+00 -2.24985E+00
 NY background values follow
    -1.429E+01   -1.424E+01   -1.419E+01   -1.415E+01   -1.410E+01   -1.405E+01   -1.401E+01   -1.396E+01   -1.391E+01   -1.386E+01
    -1.382E+01   -1.377E+01   -1.372E+01   -1.368E+01   -1.363E+01   -1.358E+01   -1.353E+01   -1.349E+01   -1.344E+01   -1.339E+01
    -1.335E+01   -1.330E+01   -1.325E+01   -1.321E+01   -1.316E+01   -1.311E+01   -1.307E+01   -1.302E+01   -1.297E+01   -1.292E+01
    -1.288E+01   -1.283E+01   -1.278E+01   -1.274E+01   -1.269E+01   -1.265E+01   -1.260E+01   -1.255E+01   -1.251E+01   -1.246E+01
    -1.241E+01   -1.237E+01   -1.232E+01   -1.228E+01   -1.223E+01   -1.218E+01   -1.214E+01   -1.209E+01   -1.205E+01   -1.200E+01
    -1.196E+01   -1.191E+01   -1.186E+01   -1.182E+01   -1.177E+01   -1.173E+01   -1.168E+01   -1.164E+01   -1.160E+01   -1.155E+01
    -1.151E+01   -1.146E+01   -1.142E+01   -1.137E+01   -1.133E+01   -1.129E+01   -1.124E+01   -1.120E+01   -1.116E+01   -1.111E+01
    -1.107E+01   -1.103E+01   -1.099E+01   -1.094E+01   -1.090E+01   -1.086E+01   -1.082E+01   -1.078E+01   -1.074E+01   -1.069E+01
    -1.065E+01   -1.061E+01   -1.057E+01   -1.053E+01   -1.049E+01   -1.045E+01   -1.041E+01   -1.037E+01   -1.034E+01   -1.030E+01
    -1.026E+01   -1.022E+01   -1.018E+01   -1.014E+01   -1.011E+01   -1.007E+01   -1.003E+01   -9.997E+00   -9.960E+00   -9.924E+00
    -9.888E+00   -9.852E+00   -9.817E+00   -9.781E+00   -9.746E+00   -9.711E+00   -9.677E+00   -9.642E+00   -9.608E+00   -9.574E+00
    -9.540E+00   -9.506E+00   -9.473E+00   -9.439E+00   -9.406E+00   -9.373E+00   -9.340E+00   -9.307E+00   -9.274E+00   -9.242E+00
    -9.209E+00   -9.177E+00   -9.145E+00   -9.113E+00   -9.081E+00   -9.049E+00   -9.018E+00   -8.986E+00   -8.955E+00   -8.924E+00
    -8.892E+00   -8.861E+00   -8.830E+00   -8.799E+00   -8.768E+00   -8.737E+00   -8.706E+00   -8.676E+00   -8.645E+00   -8.614E+00
    -8.584E+00   -8.553E+00   -8.522E+00   -8.492E+00   -8.461E+00   -8.430E+00   -8.399E+00   -8.368E+00   -8.337E+00   -8.306E+00
    -8.275E+00   -8.244E+00   -8.212E+00   -8.180E+00   -8.148E+00   -8.116E+00   -8.084E+00   -8.052E+00   -8.019E+00   -7.986E+00
    -7.953E+00   -7.919E+00   -7.885E+00   -7.851E+00   -7.817E+00   -7.782E+00   -7.747E+00   -7.711E+00   -7.676E+00   -7.639E+00
    -7.603E+00   -7.566E+00   -7.528E+00   -7.490E+00   -7.452E+00   -7.413E+00   -7.374E+00   -7.334E+00   -7.294E+00   -7.253E+00
    -7.211E+00   -7.169E+00   -7.127E+00   -7.084E+00   -7.040E+00   -6.996E+00   -6.952E+00   -6.907E+00   -6.861E+00   -6.816E+00
    -6.769E+00   -6.723E+00   -6.676E+00   -6.629E+00   -6.581E+00   -6.533E+00   -6.485E+00   -6.437E+00   -6.388E+00   -6.339E+00
    -6.290E+00   -6.241E+00   -6.192E+00   -6.142E+00   -6.093E+00   -6.043E+00   -5.993E+00   -5.944E+00   -5.894E+00   -5.844E+00
    -5.794E+00   -5.745E+00   -5.695E+00   -5.645E+00   -5.596E+00   -5.546E+00   -5.497E+00   -5.448E+00   -5.399E+00   -5.351E+00
    -5.302E+00   -5.254E+00   -5.206E+00   -5.159E+00   -5.111E+00   -5.064E+00   -5.018E+00   -4.971E+00   -4.925E+00   -4.880E+00
    -4.835E+00   -4.790E+00   -4.746E+00   -4.702E+00   -4.658E+00   -4.615E+00   -4.572E+00   -4.530E+00   -4.488E+00   -4.447E+00
    -4.406E+00   -4.366E+00   -4.326E+00   -4.287E+00   -4.248E+00   -4.210E+00   -4.172E+00   -4.134E+00   -4.098E+00   -4.061E+00
    -4.026E+00   -3.991E+00   -3.956E+00   -3.922E+00   -3.889E+00   -3.856E+00   -3.824E+00   -3.792E+00   -3.761E+00   -3.730E+00
    -3.701E+00   -3.672E+00   -3.643E+00   -3.615E+00   -3.588E+00   -3.561E+00   -3.536E+00   -3.510E+00   -3.486E+00   -3.462E+00
    -3.439E+00   -3.417E+00   -3.395E+00   -3.374E+00   -3.354E+00   -3.335E+00   -3.316E+00   -3.298E+00   -3.280E+00   -3.264E+00
    -3.248E+00   -3.232E+00   -3.218E+00   -3.204E+00   -3.190E+00   -3.178E+00   -3.166E+00   -3.154E+00   -3.144E+00   -3.134E+00
    -3.124E+00   -3.116E+00   -3.108E+00   -3.100E+00   -3.094E+00   -3.087E+00   -3.082E+00   -3.077E+00   -3.073E+00   -3.069E+00
    -3.066E+00   -3.063E+00   -3.062E+00   -3.060E+00   -3.060E+00   -3.059E+00   -3.060E+00   -3.061E+00   -3.063E+00   -3.065E+00
    -3.068E+00   -3.071E+00   -3.075E+00   -3.079E+00   -3.084E+00   -3.090E+00   -3.096E+00   -3.103E+00   -3.110E+00   -3.117E+00
    -3.126E+00   -3.134E+00   -3.143E+00   -3.153E+00   -3.163E+00   -3.173E+00   -3.184E+00   -3.195E+00   -3.207E+00   -3.219E+00
    -3.232E+00   -3.244E+00   -3.257E+00   -3.271E+00   -3.284E+00   -3.298E+00   -3.313E+00   -3.327E+00   -3.342E+00   -3.357E+00
    -3.372E+00   -3.387E+00   -3.403E+00   -3.419E+00   -3.435E+00   -3.451E+00   -3.467E+00   -3.483E+00   -3.500E+00   -3.516E+00
    -3.533E+00   -3.550E+00   -3.566E+00   -3.583E+00   -3.600E+00   -3.617E+00   -3.634E+00   -3.650E+00   -3.667E+00   -3.684E+00
    -3.700E+00   -3.717E+00   -3.733E+00   -3.750E+00   -3.766E+00   -3.782E+00   -3.798E+00   -3.814E+00   -3.830E+00   -3.845E+00
    -3.860E+00   -3.876E+00   -3.890E+00   -3.905E+00   -3.919E+00   -3.933E+00   -3.947E+00   -3.961E+00   -3.974E+00   -3.987E+00
    -3.999E+00   -4.012E+00   -4.023E+00   -4.035E+00   -4.046E+00   -4.057E+00   -4.067E+00   -4.077E+00   -4.086E+00   -4.095E+00
    -4.104E+00   -4.112E+00   -4.119E+00   -4.126E+00   -4.133E+00   -4.139E+00   -4.144E+00   -4.149E+00   -4.153E+00   -4.157E+00
    -4.160E+00   -4.162E+00   -4.164E+00   -4.165E+00   -4.165E+00   -4.165E+00   -4.164E+00   -4.163E+00   -4.161E+00   -4.158E+00
    -4.154E+00   -4.150E+00   -4.145E+00   -4.139E+00   -4.133E+00   -4.126E+00   -4.118E+00   -4.110E+00   -4.101E+00   -4.092E+00
    -4.082E+00   -4.071E+00   -4.060E+00   -4.048E+00   -4.036E+00   -4.023E+00   -4.010E+00   -3.996E+00   -3.981E+00   -3.966E+00
    -3.951E+00   -3.935E+00   -3.919E+00   -3.902E+00   -3.885E+00   -3.867E+00   -3.849E+00   -3.830E+00   -3.811E+00   -3.792E+00
    -3.772E+00   -3.751E+00   -3.731E+00   -3.710E+00   -3.688E+00   -3.667E+00   -3.645E+00   -3.622E+00   -3.599E+00   -3.576E+00
    -3.553E+00   -3.529E+00   -3.505E+00   -3.481E+00   -3.457E+00   -3.432E+00   -3.407E+00   -3.382E+00   -3.356E+00   -3.330E+00
    -3.304E+00   -3.278E+00   -3.252E+00   -3.225E+00   -3.198E+00   -3.171E+00   -3.144E+00   -3.117E+00   -3.089E+00   -3.062E+00
    -3.034E+00   -3.006E+00   -2.978E+00   -2.950E+00   -2.922E+00   -2.893E+00   -2.865E+00   -2.836E+00   -2.808E+00   -2.779E+00
    -2.750E+00   -2.721E+00   -2.692E+00   -2.664E+00   -2.635E+00   -2.606E+00   -2.577E+00   -2.548E+00   -2.519E+00   -2.490E+00
    -2.461E+00   -2.432E+00   -2.403E+00   -2.374E+00   -2.345E+00   -2.317E+00   -2.288E+00   -2.259E+00
 Ala      Conc. = 1.21E+02
