 LCModel (Version 6.3-1L) Copyright: S.W. Provencher.          Ref.: Magn. Reson. Med. 30:672-679 (1993).                
 Slice#2 Row#5 Col#9  PD_05_press_1_raw_act
 36 lines in following concentration table = NCONC+1
    Conc.  %SD /Cr+PCr  Metabolite                                         
  136.337  54% 8.8E-02 Ala                                                 
    0.000 999%   0.000 Asp                                                 
  699.075  23%   0.452 Cr                                                  
  846.723  20%   0.548 PCr                                                 
   60.989 223% 3.9E-02 GABA                                                
    0.000 999%   0.000 Glc                                                 
  562.867  27%   0.364 Gln                                                 
 1.64E+03  12%   1.061 Glu                                                 
  662.914   3%   0.429 GPC                                                 
    0.000 999%   0.000 PCh                                                 
  511.961  11%   0.331 GSH                                                 
 1.34E+03  15%   0.867 Ins                                                 
    0.000 999%   0.000 Lac                                                 
 2.21E+03   4%   1.430 NAA                                                 
  374.603  22%   0.242 NAAG                                                
   56.082  39% 3.6E-02 Scyllo                                              
    0.000 999%   0.000 Tau                                                 
  200.839  48%   0.130 -CrCH2                                              
  662.914   3%   0.429 GPC+PCh                                             
 2.58E+03   3%   1.672 NAA+NAAG                                            
 1.55E+03   3%   1.000 Cr+PCr                                              
 2.20E+03  11%   1.426 Glu+Gln                                             
   65.458 894% 4.2E-02 Lip13a                                              
  316.387 120%   0.205 Lip13b                                              
    0.000 999%   0.000 Lip09                                               
 1.23E+03  16%   0.795 MM09                                                
   77.454 129% 5.0E-02 Lip20                                               
 2.61E+03  13%   1.690 MM20                                                
  393.439  35%   0.255 MM12                                                
  406.276  66%   0.263 MM14                                                
  698.929  32%   0.452 MM17                                                
  381.845  80%   0.247 Lip13a+Lip13b                                       
 1.18E+03  34%   0.764 MM14+Lip13a+Lip13b+MM12                             
 1.23E+03  16%   0.795 MM09+Lip09                                          
 2.69E+03  13%   1.740 MM20+Lip20                                          
   6 lines in following misc. output table
  FWHM = 0.054 ppm    S/N =  16                                            
  Data shift = 0.000 ppm                                                   
  Ph: -11 deg      -7.4 deg/ppm                                            
  alphaB,S = 8.6E-01,   4.4E+01                                            
   14 spline knots.   Ns = 6(1)                                            
  ( 4) 2 infls.   ( 1) 1 extrs.                                            
  498 points on ppm-axis = NY
      4.000000     3.992357     3.984714     3.977070     3.969427     3.961784     3.954141     3.946497     3.938854     3.931211
      3.923568     3.915925     3.908281     3.900638     3.892995     3.885352     3.877708     3.870065     3.862422     3.854779
      3.847136     3.839492     3.831849     3.824206     3.816563     3.808919     3.801276     3.793633     3.785990     3.778347
      3.770703     3.763060     3.755417     3.747774     3.740130     3.732487     3.724844     3.717201     3.709558     3.701914
      3.694271     3.686628     3.678985     3.671341     3.663698     3.656055     3.648412     3.640769     3.633125     3.625482
      3.617839     3.610196     3.602552     3.594909     3.587266     3.579623     3.571980     3.564336     3.556693     3.549050
      3.541407     3.533763     3.526120     3.518477     3.510834     3.503191     3.495547     3.487904     3.480261     3.472618
      3.464974     3.457331     3.449688     3.442045     3.434402     3.426758     3.419115     3.411472     3.403829     3.396185
      3.388542     3.380899     3.373256     3.365613     3.357969     3.350326     3.342683     3.335040     3.327396     3.319753
      3.312110     3.304467     3.296824     3.289180     3.281537     3.273894     3.266251     3.258607     3.250964     3.243321
      3.235678     3.228034     3.220391     3.212748     3.205105     3.197462     3.189818     3.182175     3.174532     3.166889
      3.159245     3.151602     3.143959     3.136316     3.128673     3.121029     3.113386     3.105743     3.098100     3.090456
      3.082813     3.075170     3.067527     3.059884     3.052240     3.044597     3.036954     3.029311     3.021667     3.014024
      3.006381     2.998738     2.991095     2.983451     2.975808     2.968165     2.960522     2.952878     2.945235     2.937592
      2.929949     2.922306     2.914662     2.907019     2.899376     2.891733     2.884089     2.876446     2.868803     2.861160
      2.853517     2.845873     2.838230     2.830587     2.822944     2.815300     2.807657     2.800014     2.792371     2.784728
      2.777084     2.769441     2.761798     2.754155     2.746511     2.738868     2.731225     2.723582     2.715939     2.708295
      2.700652     2.693009     2.685366     2.677722     2.670079     2.662436     2.654793     2.647150     2.639506     2.631863
      2.624220     2.616577     2.608933     2.601290     2.593647     2.586004     2.578361     2.570717     2.563074     2.555431
      2.547788     2.540144     2.532501     2.524858     2.517215     2.509572     2.501928     2.494285     2.486642     2.478999
      2.471355     2.463712     2.456069     2.448426     2.440783     2.433139     2.425496     2.417853     2.410210     2.402566
      2.394923     2.387280     2.379637     2.371994     2.364350     2.356707     2.349064     2.341421     2.333777     2.326134
      2.318491     2.310848     2.303205     2.295561     2.287918     2.280275     2.272632     2.264988     2.257345     2.249702
      2.242059     2.234416     2.226772     2.219129     2.211486     2.203843     2.196199     2.188556     2.180913     2.173270
      2.165627     2.157983     2.150340     2.142697     2.135054     2.127410     2.119767     2.112124     2.104481     2.096838
      2.089194     2.081551     2.073908     2.066265     2.058621     2.050978     2.043335     2.035692     2.028049     2.020405
      2.012762     2.005119     1.997476     1.989833     1.982190     1.974546     1.966903     1.959260     1.951617     1.943974
      1.936331     1.928688     1.921045     1.913402     1.905759     1.898115     1.890472     1.882829     1.875186     1.867543
      1.859900     1.852257     1.844614     1.836971     1.829327     1.821684     1.814041     1.806398     1.798755     1.791112
      1.783469     1.775826     1.768183     1.760540     1.752896     1.745253     1.737610     1.729967     1.722324     1.714681
      1.707038     1.699395     1.691752     1.684108     1.676465     1.668822     1.661179     1.653536     1.645893     1.638250
      1.630607     1.622964     1.615321     1.607677     1.600034     1.592391     1.584748     1.577105     1.569462     1.561819
      1.554176     1.546533     1.538890     1.531246     1.523603     1.515960     1.508317     1.500674     1.493031     1.485388
      1.477745     1.470102     1.462458     1.454815     1.447172     1.439529     1.431886     1.424243     1.416600     1.408957
      1.401314     1.393671     1.386027     1.378384     1.370741     1.363098     1.355455     1.347812     1.340169     1.332526
      1.324883     1.317240     1.309596     1.301953     1.294310     1.286667     1.279024     1.271381     1.263738     1.256095
      1.248452     1.240808     1.233165     1.225522     1.217879     1.210236     1.202593     1.194950     1.187307     1.179664
      1.172021     1.164377     1.156734     1.149091     1.141448     1.133805     1.126162     1.118519     1.110876     1.103233
      1.095590     1.087946     1.080303     1.072660     1.065017     1.057374     1.049731     1.042088     1.034445     1.026802
      1.019158     1.011515     1.003872     0.996229     0.988586     0.980943     0.973300     0.965657     0.958014     0.950371
      0.942727     0.935084     0.927441     0.919798     0.912155     0.904512     0.896869     0.889226     0.881583     0.873940
      0.866296     0.858653     0.851010     0.843367     0.835724     0.828081     0.820438     0.812795     0.805152     0.797508
      0.789865     0.782222     0.774579     0.766936     0.759293     0.751650     0.744007     0.736364     0.728721     0.721077
      0.713434     0.705791     0.698148     0.690505     0.682862     0.675219     0.667576     0.659933     0.652290     0.644646
      0.637003     0.629360     0.621717     0.614074     0.606431     0.598788     0.591145     0.583502     0.575858     0.568215
      0.560572     0.552929     0.545286     0.537643     0.530000     0.522357     0.514714     0.507071     0.499427     0.491784
      0.484141     0.476498     0.468855     0.461212     0.453569     0.445925     0.438282     0.430639     0.422996     0.415353
      0.407710     0.400067     0.392424     0.384780     0.377137     0.369494     0.361851     0.354208     0.346565     0.338922
      0.331278     0.323635     0.315992     0.308349     0.300706     0.293063     0.285420     0.277777     0.270133     0.262490
      0.254847     0.247204     0.239561     0.231918     0.224275     0.216631     0.208988     0.201345
 NY phased data points follow
  -8.94241E+00 -5.96976E+00 -4.43768E+00 -1.64265E-01  2.06103E+00  1.21569E+01  1.87197E+01  2.59078E+01  2.66606E+01  2.97834E+01
   3.57402E+01  3.01906E+01  2.55232E+01  1.86794E+01  1.56289E+01  5.11397E+00  3.50939E+00 -1.13601E+00  1.20567E+00  2.09106E+00
   2.22809E+00  6.74783E+00  3.04764E+00  3.63330E+00  7.59404E+00  6.34507E+00  1.29037E+01  1.07734E+01  1.01589E+01  1.37819E+01
   1.25391E+01  1.14154E+01  1.10215E+01  9.59837E+00  6.50402E+00  5.99200E+00  7.90202E+00  5.19097E+00  8.64087E+00  7.94590E+00
   6.83140E+00  9.50039E+00  6.91192E+00  1.18482E+01  1.43336E+01  1.74658E+01  1.98712E+01  2.19394E+01  1.77670E+01  8.38918E+00
   1.05846E+01  7.93805E+00  4.90003E+00  8.88675E+00  7.00040E+00  1.07286E+01  4.67533E+00  5.02472E+00  7.42647E+00  5.52957E+00
   1.46913E+00 -2.40699E+00 -2.78732E+00 -3.41892E+00 -3.72659E+00 -1.34045E+00 -5.35316E+00 -3.52832E+00 -1.55907E+00 -1.48465E+00
  -3.47945E+00  1.00372E+00 -5.29698E-01  1.30898E+00  4.37349E-01 -6.27313E-01  5.43440E-01 -1.02110E+00 -2.51169E-01 -1.35301E+00
   4.22602E-01  1.96763E+00  6.41719E-01  1.53937E+00  1.47344E+00  3.07828E+00  1.59955E+00  3.51267E+00  9.16504E-01  6.26805E-01
   8.18354E-01  2.93788E+00  6.99358E+00  2.48854E+00  7.32970E+00  1.07060E+01  1.22091E+01  1.25195E+01  2.08306E+01  3.66184E+01
   5.01489E+01  6.64307E+01  6.73736E+01  6.70330E+01  5.56766E+01  4.23865E+01  3.11868E+01  2.13870E+01  1.28011E+01  6.61187E+00
   4.58189E+00  1.52924E-01  1.48828E+00  1.92085E+00  1.86618E+00  2.23436E+00  8.37334E+00  8.18286E+00  9.11872E+00  7.36048E+00
   9.43307E+00  1.33070E+01  1.72228E+01  3.12785E+01  4.52067E+01  5.56776E+01  6.28931E+01  5.64131E+01  5.18669E+01  3.91151E+01
   3.15696E+01  2.17022E+01  1.49685E+01  7.80658E+00  3.77581E-02  1.79351E+00  3.12333E-01  1.73222E+00  3.42875E+00  2.25161E+00
   6.65735E+00  4.22053E+00  4.76512E+00  5.18695E+00  4.76851E+00  4.82045E-01  1.26409E+00  3.10799E+00  6.83185E+00  1.85264E+00
   4.13244E+00  3.96047E+00  4.80573E+00  1.43313E-01  2.31031E+00 -5.48172E-01  2.55279E+00 -1.36739E-01  1.28387E+00  9.93512E-01
  -3.57227E+00 -3.13515E+00 -2.29518E+00  3.66036E+00  7.62767E-01  3.71241E-03 -2.82256E+00  2.44737E+00 -2.00184E+00 -2.57144E+00
  -1.60068E+00 -3.29156E+00 -5.47058E+00 -9.24790E+00 -8.39794E+00 -7.80624E+00 -4.90449E+00 -6.25226E+00 -2.82845E+00 -9.64410E+00
  -4.89393E+00 -7.38643E+00 -6.10356E+00 -7.05529E+00 -1.10758E+01 -7.73155E+00 -5.16581E+00 -1.91219E+00  3.68084E-01  4.15453E+00
   8.28402E+00  4.56039E+00  8.14617E+00  5.32565E+00  6.98949E+00  4.72259E-01  3.37021E+00  1.59523E+00  1.22748E+00  6.48202E-01
  -9.03917E-01  3.06982E+00  6.11875E+00  7.14239E+00  5.94228E+00  5.42471E+00  3.69880E+00 -9.31525E-01 -4.42779E+00 -5.41216E+00
  -5.32021E+00 -9.24096E-01 -5.84582E-01  8.73804E+00  1.31850E+01  1.37265E+01  1.35918E+01  9.73775E+00  5.97654E+00  2.50299E+00
  -2.73711E+00 -6.61051E+00 -1.17399E+00  1.15074E+00  3.12532E+00  3.78701E+00  1.12796E+01  1.12850E+01  1.45077E+01  9.21640E+00
   1.43083E+01  1.13528E+01  7.26841E+00  7.30375E+00  5.31183E+00  9.97265E+00  1.23141E+01  1.09016E+01  7.59095E+00  7.68738E+00
   7.73384E+00  3.91793E+00  5.76237E+00  7.92518E+00  1.11502E+01  1.30452E+01  1.05171E+01  1.51486E+01  1.80618E+01  1.74873E+01
   1.86739E+01  2.46799E+01  2.72336E+01  3.19662E+01  3.28178E+01  4.09054E+01  5.42114E+01  7.12762E+01  9.35731E+01  9.99716E+01
   1.00095E+02  8.87098E+01  7.45390E+01  5.85700E+01  3.93369E+01  2.65841E+01  1.50502E+01  8.42280E+00  7.19010E+00  9.15180E+00
   5.98037E+00  6.66230E+00  1.29260E+01  1.38582E+01  1.34259E+01  1.20027E+01  1.26644E+01  1.14799E+01  1.16618E+01  1.17129E+01
   8.35986E+00  8.68371E+00  7.21228E+00  8.33725E+00  4.00422E+00  6.68653E+00  4.75197E+00  6.76088E+00  6.57857E+00  6.70871E+00
   4.92404E+00  8.30693E+00  9.09525E+00  8.99928E+00  1.17196E+01  6.40270E+00  6.08594E+00  7.42556E+00  7.08911E+00  9.49134E+00
   7.40493E+00  7.05308E+00  8.63040E+00  8.86832E+00  8.87500E+00  1.26862E+01  1.02971E+01  1.14514E+01  8.01399E+00  9.05147E+00
   1.14699E+01  6.10403E+00  9.19559E+00  9.16165E+00  9.38192E+00  9.27707E+00  9.95113E+00  7.73618E+00  7.52613E+00  7.24257E+00
   1.00565E+01  9.47753E+00  7.23663E+00  9.11189E+00  6.76916E+00  8.02604E+00  8.24700E+00  9.06481E+00  6.21773E+00  2.75380E+00
   3.42122E+00  8.71966E+00  4.00363E+00  6.09709E+00  8.24452E+00  8.87408E+00  8.85649E+00  6.39675E+00  7.32364E+00  8.01103E+00
   6.86936E+00  8.70511E+00  7.23946E+00  8.81606E+00  1.08235E+01  9.32378E+00  1.16244E+01  1.15067E+01  9.61865E+00  6.26471E+00
   1.39450E+01  1.26975E+01  1.38361E+01  9.49791E+00  1.34340E+01  1.03722E+01  1.13302E+01  1.22878E+01  8.65050E+00  1.10481E+01
   7.53789E+00  8.04667E+00  7.57495E+00  8.28321E+00  5.96482E+00  1.23938E+01  8.90913E+00  1.00870E+01  9.53257E+00  9.19556E+00
   9.90508E+00  1.06095E+01  1.21952E+01  1.29913E+01  9.91103E+00  8.05446E+00  8.38781E+00  8.90411E+00  5.08313E+00  8.83160E+00
   9.93408E+00  2.83266E+00  4.55154E+00  3.26191E+00  3.88837E+00  4.51342E+00  9.15110E+00  3.51671E+00  6.06682E+00  3.97734E+00
   5.83189E+00  7.86419E+00  1.13142E+01  4.72511E+00  7.02290E+00  1.02747E+01  1.18722E+01  1.32950E+01  1.19492E+01  1.19135E+01
   1.48675E+01  1.41085E+01  1.41958E+01  1.32319E+01  1.65432E+01  1.64236E+01  1.36602E+01  1.53396E+01  1.75723E+01  1.42862E+01
   1.72534E+01  1.79280E+01  1.44848E+01  1.49044E+01  1.53987E+01  1.15673E+01  1.43232E+01  1.35618E+01  1.34273E+01  1.20197E+01
   1.40713E+01  1.00454E+01  9.71927E+00  1.34516E+01  1.13238E+01  1.12061E+01  9.50068E+00  1.13954E+01  1.11491E+01  1.00840E+01
   1.16085E+01  1.06944E+01  1.20929E+01  1.16131E+01  1.04400E+01  9.19225E+00  1.16754E+01  7.18746E+00  1.16447E+01  1.29103E+01
   1.18764E+01  1.06789E+01  1.03686E+01  8.05063E+00  8.98190E+00  8.08767E+00  7.94449E+00  1.06193E+01  1.06764E+01  9.26066E+00
   7.02104E+00  6.98708E+00  9.32325E+00  8.10199E+00  9.10839E+00  9.20317E+00  4.35338E+00  7.84537E+00  1.16925E+01  8.27378E+00
   6.62904E+00  6.03775E+00  6.85802E+00  7.33388E+00  4.34172E+00  8.71737E+00  9.27697E+00  8.66979E+00  9.75414E+00  8.27063E+00
   9.11159E+00  9.30589E+00  1.04808E+01  7.62367E+00  7.65833E+00  8.57026E+00  8.70768E+00  1.11270E+01  8.40313E+00  6.36362E+00
   8.21870E+00  7.87302E+00  7.92388E+00  9.83038E+00  9.13451E+00  6.10121E+00  7.56434E+00  8.04052E+00  1.15096E+01  9.35752E+00
   7.34395E+00  1.03814E+01  6.53887E+00  6.48272E+00  1.17086E+01  7.04241E+00  4.48485E+00  1.08834E+01
 NY points of the fit to the data follow
  -1.17185E+00 -9.89474E-01 -2.19447E-01  1.73376E+00  4.93728E+00  9.97916E+00  1.67212E+01  2.38677E+01  2.99009E+01  3.31122E+01
   3.27365E+01  2.93873E+01  2.43155E+01  1.87609E+01  1.35133E+01  9.08825E+00  6.06452E+00  4.22527E+00  3.41188E+00  3.15320E+00
   2.81890E+00  2.49071E+00  2.24320E+00  2.50266E+00  3.33867E+00  4.66121E+00  7.02214E+00  9.83274E+00  1.20989E+01  1.36005E+01
   1.43028E+01  1.42352E+01  1.32392E+01  1.13128E+01  8.84127E+00  6.09946E+00  3.91756E+00  2.68760E+00  1.98676E+00  2.01562E+00
   2.89458E+00  4.46174E+00  6.55982E+00  9.15784E+00  1.20777E+01  1.43017E+01  1.49345E+01  1.39878E+01  1.19152E+01  9.32841E+00
   6.78027E+00  4.51814E+00  2.77554E+00  1.90846E+00  1.97959E+00  2.72040E+00  3.76500E+00  4.81134E+00  5.53898E+00  5.66109E+00
   5.11899E+00  4.12308E+00  2.98154E+00  2.03085E+00  1.40612E+00  1.22757E+00  1.53722E+00  2.14143E+00  2.91850E+00  3.65699E+00
   4.11425E+00  4.21616E+00  4.01754E+00  3.65617E+00  3.26685E+00  2.91076E+00  2.63224E+00  2.40963E+00  2.28699E+00  2.28129E+00
   2.36748E+00  2.55646E+00  2.73167E+00  2.90716E+00  2.87889E+00  2.45060E+00  1.75846E+00  1.11340E+00  7.46625E-01  7.25191E-01
   1.06855E+00  1.63256E+00  2.28229E+00  2.93927E+00  3.52205E+00  4.12149E+00  6.09516E+00  1.19488E+01  2.15480E+01  3.57738E+01
   5.25626E+01  6.54584E+01  6.99343E+01  6.60958E+01  5.65624E+01  4.42436E+01  3.14764E+01  1.99977E+01  1.07031E+01  4.67910E+00
   2.91706E+00  2.77568E+00  2.67724E+00  2.63921E+00  2.64203E+00  2.66629E+00  2.70316E+00  2.79366E+00  3.05140E+00  3.67088E+00
   5.50701E+00  1.07022E+01  1.88855E+01  3.08558E+01  4.53367E+01  5.67667E+01  6.10770E+01  5.83602E+01  5.08979E+01  4.11247E+01
   3.07687E+01  2.08900E+01  1.20782E+01  5.50271E+00  2.70627E+00  1.86873E+00  1.62533E+00  2.06354E+00  2.95434E+00  3.93245E+00
   4.72514E+00  5.08600E+00  4.98328E+00  4.58864E+00  4.02640E+00  3.43431E+00  2.93484E+00  2.50097E+00  2.15685E+00  1.83771E+00
   1.51556E+00  1.21276E+00  1.01645E+00  9.78121E-01  1.05643E+00  1.09384E+00  9.78442E-01  6.07268E-01 -4.36499E-02 -6.41539E-01
  -9.34470E-01 -8.52735E-01 -4.85633E-01 -2.09612E-01 -2.83111E-01 -6.46111E-01 -1.14535E+00 -1.64905E+00 -2.14605E+00 -2.60500E+00
  -3.04517E+00 -3.57273E+00 -4.05200E+00 -4.56581E+00 -4.91583E+00 -4.87963E+00 -4.58621E+00 -4.27944E+00 -4.18775E+00 -4.21018E+00
  -4.13261E+00 -4.03151E+00 -3.95810E+00 -3.86139E+00 -3.62172E+00 -2.70186E+00 -9.94805E-01  1.12383E+00  3.06932E+00  4.39988E+00
   4.93187E+00  4.64017E+00  3.72320E+00  2.50961E+00  1.28509E+00  4.78308E-01  4.25116E-01  1.04126E+00  2.25101E+00  3.83019E+00
   5.55559E+00  7.17087E+00  8.28044E+00  8.54009E+00  7.57063E+00  5.60889E+00  3.00238E+00  6.69607E-02 -2.33020E+00 -3.50012E+00
  -3.12102E+00 -1.01531E+00  2.44254E+00  6.72427E+00  1.04103E+01  1.21895E+01  1.16421E+01  8.86860E+00  4.78585E+00  3.43473E-01
  -3.60071E+00 -5.66559E+00 -5.15976E+00 -2.50878E+00  1.19172E+00  4.65070E+00  7.35139E+00  8.99264E+00  9.56856E+00  9.38029E+00
   8.89163E+00  8.79976E+00  9.25512E+00  9.99610E+00  1.08429E+01  1.14823E+01  1.16701E+01  1.12130E+01  1.02885E+01  9.17935E+00
   8.21544E+00  7.89060E+00  8.48889E+00  9.75308E+00  1.13045E+01  1.27357E+01  1.38068E+01  1.44680E+01  1.48650E+01  1.55883E+01
   1.71938E+01  1.98339E+01  2.38259E+01  2.84813E+01  3.46423E+01  4.40457E+01  5.59836E+01  7.32907E+01  9.11674E+01  1.01014E+02
   9.95769E+01  8.92375E+01  7.41874E+01  5.77784E+01  4.18869E+01  2.80945E+01  1.71245E+01  1.10710E+01  1.01854E+01  9.71249E+00
   9.26660E+00  9.08769E+00  9.09366E+00  9.08460E+00  9.02324E+00  8.87518E+00  8.63766E+00  8.32795E+00  7.98204E+00  7.64617E+00
   7.37345E+00  7.19683E+00  7.10197E+00  7.04887E+00  7.01368E+00  6.98955E+00  6.97798E+00  6.98385E+00  7.01356E+00  7.08706E+00
   7.20749E+00  7.35305E+00  7.50900E+00  7.66874E+00  7.82765E+00  7.97834E+00  8.12341E+00  8.27074E+00  8.42852E+00  8.59783E+00
   8.77002E+00  8.93410E+00  9.08003E+00  9.19973E+00  9.28804E+00  9.34041E+00  9.35543E+00  9.33861E+00  9.29219E+00  9.21906E+00
   9.12346E+00  9.01033E+00  8.88437E+00  8.75099E+00  8.61591E+00  8.48526E+00  8.36574E+00  8.26468E+00  8.19066E+00  8.15621E+00
   8.18644E+00  8.32718E+00  8.52742E+00  8.72493E+00  8.84574E+00  8.67383E+00  8.13754E+00  7.37407E+00  6.56064E+00  5.88215E+00
   5.47663E+00  5.39391E+00  5.76625E+00  6.54677E+00  7.50024E+00  8.31058E+00  8.81174E+00  9.05682E+00  9.10385E+00  9.01557E+00
   8.85100E+00  8.65157E+00  8.52294E+00  8.54455E+00  8.64586E+00  8.81010E+00  9.03677E+00  9.32221E+00  9.65760E+00  1.00277E+01
   1.04104E+01  1.07781E+01  1.11002E+01  1.13474E+01  1.14961E+01  1.15322E+01  1.14532E+01  1.12687E+01  1.09981E+01  1.06676E+01
   1.03062E+01  9.94088E+00  9.59388E+00  9.28038E+00  9.00833E+00  8.77946E+00  8.59094E+00  8.43721E+00  8.31147E+00  8.20706E+00
   8.11828E+00  8.04099E+00  7.97257E+00  7.91173E+00  7.85802E+00  7.81172E+00  7.77364E+00  7.74503E+00  7.72739E+00  7.72227E+00
   7.73112E+00  7.75540E+00  7.79668E+00  7.85667E+00  7.93711E+00  8.03973E+00  8.16618E+00  8.31820E+00  8.49757E+00  8.70613E+00
   8.94545E+00  9.21678E+00  9.52082E+00  9.85781E+00  1.02273E+01  1.06278E+01  1.10569E+01  1.15106E+01  1.19835E+01  1.24693E+01
   1.29601E+01  1.34469E+01  1.39198E+01  1.43680E+01  1.47808E+01  1.51477E+01  1.54590E+01  1.57060E+01  1.58819E+01  1.59818E+01
   1.60029E+01  1.59453E+01  1.58115E+01  1.56061E+01  1.53358E+01  1.50090E+01  1.46356E+01  1.42262E+01  1.37917E+01  1.33426E+01
   1.28888E+01  1.24396E+01  1.20027E+01  1.15848E+01  1.11909E+01  1.08246E+01  1.04881E+01  1.01827E+01  9.90842E+00  9.66466E+00
   9.44997E+00  9.26245E+00  9.09995E+00  8.96023E+00  8.84102E+00  8.74006E+00  8.65510E+00  8.58408E+00  8.52516E+00  8.47677E+00
   8.43747E+00  8.40596E+00  8.38105E+00  8.36173E+00  8.34720E+00  8.33681E+00  8.32994E+00  8.32601E+00  8.32449E+00  8.32500E+00
   8.32723E+00  8.33096E+00  8.33588E+00  8.34175E+00  8.34834E+00  8.35557E+00  8.36337E+00  8.37168E+00  8.38035E+00  8.38928E+00
   8.39837E+00  8.40764E+00  8.41710E+00  8.42671E+00  8.43637E+00  8.44603E+00  8.45567E+00  8.46535E+00  8.47508E+00  8.48482E+00
   8.49450E+00  8.50412E+00  8.51370E+00  8.52333E+00  8.53298E+00  8.54263E+00  8.55222E+00  8.56178E+00  8.57136E+00  8.58103E+00
   8.59076E+00  8.60052E+00  8.61028E+00  8.62011E+00  8.63007E+00  8.64021E+00  8.65047E+00  8.66085E+00  8.67134E+00  8.68205E+00
   8.69302E+00  8.70427E+00  8.71575E+00  8.72749E+00  8.73952E+00  8.75194E+00  8.76479E+00  8.77809E+00
 NY background values follow
    -4.776E+00   -4.694E+00   -4.611E+00   -4.529E+00   -4.447E+00   -4.366E+00   -4.285E+00   -4.204E+00   -4.124E+00   -4.044E+00
    -3.965E+00   -3.886E+00   -3.807E+00   -3.729E+00   -3.652E+00   -3.575E+00   -3.499E+00   -3.424E+00   -3.349E+00   -3.274E+00
    -3.201E+00   -3.128E+00   -3.055E+00   -2.984E+00   -2.913E+00   -2.843E+00   -2.774E+00   -2.705E+00   -2.637E+00   -2.571E+00
    -2.505E+00   -2.439E+00   -2.375E+00   -2.312E+00   -2.249E+00   -2.188E+00   -2.127E+00   -2.068E+00   -2.009E+00   -1.952E+00
    -1.895E+00   -1.840E+00   -1.786E+00   -1.732E+00   -1.680E+00   -1.629E+00   -1.580E+00   -1.531E+00   -1.484E+00   -1.437E+00
    -1.392E+00   -1.348E+00   -1.304E+00   -1.262E+00   -1.221E+00   -1.180E+00   -1.141E+00   -1.103E+00   -1.065E+00   -1.028E+00
    -9.920E-01   -9.568E-01   -9.224E-01   -8.887E-01   -8.558E-01   -8.235E-01   -7.919E-01   -7.609E-01   -7.306E-01   -7.009E-01
    -6.717E-01   -6.431E-01   -6.149E-01   -5.873E-01   -5.602E-01   -5.335E-01   -5.072E-01   -4.813E-01   -4.558E-01   -4.306E-01
    -4.058E-01   -3.812E-01   -3.569E-01   -3.329E-01   -3.090E-01   -2.854E-01   -2.619E-01   -2.386E-01   -2.154E-01   -1.923E-01
    -1.692E-01   -1.462E-01   -1.233E-01   -1.004E-01   -7.761E-02   -5.494E-02   -3.241E-02   -1.004E-02    1.214E-02    3.411E-02
     5.584E-02    7.733E-02    9.853E-02    1.194E-01    1.400E-01    1.602E-01    1.801E-01    1.995E-01    2.186E-01    2.372E-01
     2.553E-01    2.730E-01    2.901E-01    3.067E-01    3.228E-01    3.383E-01    3.532E-01    3.674E-01    3.810E-01    3.939E-01
     4.062E-01    4.177E-01    4.285E-01    4.385E-01    4.477E-01    4.562E-01    4.637E-01    4.705E-01    4.763E-01    4.813E-01
     4.853E-01    4.884E-01    4.905E-01    4.916E-01    4.917E-01    4.908E-01    4.888E-01    4.857E-01    4.817E-01    4.767E-01
     4.709E-01    4.642E-01    4.567E-01    4.486E-01    4.398E-01    4.304E-01    4.204E-01    4.100E-01    3.991E-01    3.879E-01
     3.764E-01    3.646E-01    3.526E-01    3.405E-01    3.282E-01    3.160E-01    3.038E-01    2.916E-01    2.796E-01    2.678E-01
     2.563E-01    2.451E-01    2.342E-01    2.237E-01    2.138E-01    2.044E-01    1.955E-01    1.874E-01    1.799E-01    1.732E-01
     1.673E-01    1.623E-01    1.582E-01    1.551E-01    1.531E-01    1.522E-01    1.524E-01    1.538E-01    1.566E-01    1.606E-01
     1.661E-01    1.730E-01    1.813E-01    1.911E-01    2.024E-01    2.150E-01    2.289E-01    2.442E-01    2.608E-01    2.787E-01
     2.978E-01    3.181E-01    3.396E-01    3.623E-01    3.860E-01    4.109E-01    4.368E-01    4.637E-01    4.916E-01    5.205E-01
     5.504E-01    5.811E-01    6.128E-01    6.452E-01    6.785E-01    7.126E-01    7.474E-01    7.830E-01    8.193E-01    8.562E-01
     8.938E-01    9.320E-01    9.708E-01    1.010E+00    1.050E+00    1.090E+00    1.131E+00    1.172E+00    1.214E+00    1.256E+00
     1.298E+00    1.341E+00    1.384E+00    1.427E+00    1.470E+00    1.514E+00    1.558E+00    1.601E+00    1.645E+00    1.689E+00
     1.734E+00    1.778E+00    1.822E+00    1.866E+00    1.911E+00    1.955E+00    1.999E+00    2.044E+00    2.088E+00    2.132E+00
     2.176E+00    2.220E+00    2.264E+00    2.308E+00    2.351E+00    2.395E+00    2.438E+00    2.481E+00    2.524E+00    2.566E+00
     2.609E+00    2.651E+00    2.692E+00    2.734E+00    2.775E+00    2.816E+00    2.856E+00    2.897E+00    2.936E+00    2.976E+00
     3.015E+00    3.053E+00    3.091E+00    3.129E+00    3.166E+00    3.203E+00    3.239E+00    3.275E+00    3.310E+00    3.344E+00
     3.378E+00    3.412E+00    3.444E+00    3.476E+00    3.508E+00    3.539E+00    3.569E+00    3.599E+00    3.628E+00    3.657E+00
     3.685E+00    3.713E+00    3.740E+00    3.767E+00    3.793E+00    3.818E+00    3.843E+00    3.868E+00    3.892E+00    3.915E+00
     3.939E+00    3.961E+00    3.983E+00    4.005E+00    4.027E+00    4.048E+00    4.068E+00    4.088E+00    4.108E+00    4.127E+00
     4.146E+00    4.165E+00    4.183E+00    4.201E+00    4.218E+00    4.235E+00    4.252E+00    4.268E+00    4.284E+00    4.300E+00
     4.316E+00    4.331E+00    4.346E+00    4.360E+00    4.375E+00    4.389E+00    4.403E+00    4.416E+00    4.429E+00    4.443E+00
     4.455E+00    4.468E+00    4.481E+00    4.493E+00    4.505E+00    4.518E+00    4.530E+00    4.541E+00    4.553E+00    4.565E+00
     4.577E+00    4.589E+00    4.600E+00    4.612E+00    4.624E+00    4.635E+00    4.647E+00    4.659E+00    4.671E+00    4.683E+00
     4.695E+00    4.708E+00    4.720E+00    4.733E+00    4.746E+00    4.759E+00    4.772E+00    4.786E+00    4.799E+00    4.813E+00
     4.827E+00    4.842E+00    4.857E+00    4.872E+00    4.888E+00    4.904E+00    4.920E+00    4.937E+00    4.954E+00    4.971E+00
     4.989E+00    5.007E+00    5.026E+00    5.046E+00    5.065E+00    5.086E+00    5.107E+00    5.128E+00    5.149E+00    5.172E+00
     5.194E+00    5.217E+00    5.241E+00    5.265E+00    5.289E+00    5.314E+00    5.339E+00    5.365E+00    5.391E+00    5.418E+00
     5.445E+00    5.472E+00    5.500E+00    5.528E+00    5.557E+00    5.586E+00    5.616E+00    5.646E+00    5.676E+00    5.707E+00
     5.738E+00    5.769E+00    5.801E+00    5.833E+00    5.866E+00    5.899E+00    5.933E+00    5.966E+00    6.001E+00    6.035E+00
     6.070E+00    6.105E+00    6.141E+00    6.177E+00    6.213E+00    6.250E+00    6.287E+00    6.324E+00    6.362E+00    6.400E+00
     6.439E+00    6.477E+00    6.516E+00    6.555E+00    6.594E+00    6.634E+00    6.673E+00    6.713E+00    6.752E+00    6.792E+00
     6.832E+00    6.872E+00    6.912E+00    6.951E+00    6.991E+00    7.031E+00    7.070E+00    7.109E+00    7.148E+00    7.187E+00
     7.226E+00    7.265E+00    7.303E+00    7.341E+00    7.378E+00    7.416E+00    7.452E+00    7.489E+00    7.525E+00    7.561E+00
     7.596E+00    7.630E+00    7.665E+00    7.698E+00    7.731E+00    7.764E+00    7.795E+00    7.826E+00    7.857E+00    7.887E+00
     7.916E+00    7.944E+00    7.972E+00    7.998E+00    8.024E+00    8.050E+00    8.074E+00    8.098E+00    8.121E+00    8.144E+00
     8.165E+00    8.187E+00    8.207E+00    8.227E+00    8.247E+00    8.266E+00    8.284E+00    8.302E+00    8.320E+00    8.337E+00
     8.354E+00    8.370E+00    8.386E+00    8.402E+00    8.417E+00    8.432E+00    8.447E+00    8.462E+00    8.476E+00    8.490E+00
     8.504E+00    8.518E+00    8.531E+00    8.545E+00    8.558E+00    8.572E+00    8.585E+00    8.598E+00    8.611E+00    8.625E+00
     8.638E+00    8.651E+00    8.665E+00    8.678E+00    8.692E+00    8.706E+00    8.720E+00    8.734E+00
 Ala      Conc. = 1.36E+02
