 LCModel (Version 6.3-1L) Copyright: S.W. Provencher.          Ref.: Magn. Reson. Med. 30:672-679 (1993).                
 Slice#2 Row#7 Col#4  PD_05_press_1_raw_act
 36 lines in following concentration table = NCONC+1
    Conc.  %SD /Cr+PCr  Metabolite                                         
   73.621 105% 5.2E-02 Ala                                                 
    0.000 999%   0.000 Asp                                                 
  701.603  21%   0.500 Cr                                                  
  702.944  21%   0.500 PCr                                                 
    9.040 999% 6.4E-03 GABA                                                
    0.000 999%   0.000 Glc                                                 
  708.341  23%   0.504 Gln                                                 
 1.75E+03  12%   1.249 Glu                                                 
  426.372   4%   0.304 GPC                                                 
    0.000 999%   0.000 PCh                                                 
  360.869  14%   0.257 GSH                                                 
  755.676  25%   0.538 Ins                                                 
    0.000 999%   0.000 Lac                                                 
 2.38E+03   5%   1.697 NAA                                                 
  320.983  35%   0.229 NAAG                                                
   51.076  40% 3.6E-02 Scyllo                                              
    0.000 999%   0.000 Tau                                                 
    0.000 999%   0.000 -CrCH2                                              
  426.372   4%   0.304 GPC+PCh                                             
 2.70E+03   2%   1.926 NAA+NAAG                                            
 1.40E+03   3%   1.000 Cr+PCr                                              
 2.46E+03  12%   1.753 Glu+Gln                                             
    0.000 999%   0.000 Lip13a                                              
    0.000 999%   0.000 Lip13b                                              
    0.000 999%   0.000 Lip09                                               
 1.20E+03  14%   0.855 MM09                                                
 1.99E-03 999% 1.4E-06 Lip20                                               
 2.46E+03  11%   1.749 MM20                                                
  328.903  23%   0.234 MM12                                                
  970.139  21%   0.691 MM14                                                
  759.044  19%   0.540 MM17                                                
    0.000 999%   0.000 Lip13a+Lip13b                                       
 1.30E+03  19%   0.925 MM14+Lip13a+Lip13b+MM12                             
 1.20E+03  14%   0.855 MM09+Lip09                                          
 2.46E+03  11%   1.749 MM20+Lip20                                          
   6 lines in following misc. output table
  FWHM = 0.038 ppm    S/N =  19                                            
  Data shift = 0.023 ppm                                                   
  Ph: -27 deg      -4.8 deg/ppm                                            
  alphaB,S = 6.3E-01,   5.1E+01                                            
   14 spline knots.   Ns = 7(1)                                            
  (13) 3 infls.   (13) 1 extrs.                                            
  498 points on ppm-axis = NY
      4.000000     3.992357     3.984714     3.977070     3.969427     3.961784     3.954141     3.946497     3.938854     3.931211
      3.923568     3.915925     3.908281     3.900638     3.892995     3.885352     3.877708     3.870065     3.862422     3.854779
      3.847136     3.839492     3.831849     3.824206     3.816563     3.808919     3.801276     3.793633     3.785990     3.778347
      3.770703     3.763060     3.755417     3.747774     3.740130     3.732487     3.724844     3.717201     3.709558     3.701914
      3.694271     3.686628     3.678985     3.671341     3.663698     3.656055     3.648412     3.640769     3.633125     3.625482
      3.617839     3.610196     3.602552     3.594909     3.587266     3.579623     3.571980     3.564336     3.556693     3.549050
      3.541407     3.533763     3.526120     3.518477     3.510834     3.503191     3.495547     3.487904     3.480261     3.472618
      3.464974     3.457331     3.449688     3.442045     3.434402     3.426758     3.419115     3.411472     3.403829     3.396185
      3.388542     3.380899     3.373256     3.365613     3.357969     3.350326     3.342683     3.335040     3.327396     3.319753
      3.312110     3.304467     3.296824     3.289180     3.281537     3.273894     3.266251     3.258607     3.250964     3.243321
      3.235678     3.228034     3.220391     3.212748     3.205105     3.197462     3.189818     3.182175     3.174532     3.166889
      3.159245     3.151602     3.143959     3.136316     3.128673     3.121029     3.113386     3.105743     3.098100     3.090456
      3.082813     3.075170     3.067527     3.059884     3.052240     3.044597     3.036954     3.029311     3.021667     3.014024
      3.006381     2.998738     2.991095     2.983451     2.975808     2.968165     2.960522     2.952878     2.945235     2.937592
      2.929949     2.922306     2.914662     2.907019     2.899376     2.891733     2.884089     2.876446     2.868803     2.861160
      2.853517     2.845873     2.838230     2.830587     2.822944     2.815300     2.807657     2.800014     2.792371     2.784728
      2.777084     2.769441     2.761798     2.754155     2.746511     2.738868     2.731225     2.723582     2.715939     2.708295
      2.700652     2.693009     2.685366     2.677722     2.670079     2.662436     2.654793     2.647150     2.639506     2.631863
      2.624220     2.616577     2.608933     2.601290     2.593647     2.586004     2.578361     2.570717     2.563074     2.555431
      2.547788     2.540144     2.532501     2.524858     2.517215     2.509572     2.501928     2.494285     2.486642     2.478999
      2.471355     2.463712     2.456069     2.448426     2.440783     2.433139     2.425496     2.417853     2.410210     2.402566
      2.394923     2.387280     2.379637     2.371994     2.364350     2.356707     2.349064     2.341421     2.333777     2.326134
      2.318491     2.310848     2.303205     2.295561     2.287918     2.280275     2.272632     2.264988     2.257345     2.249702
      2.242059     2.234416     2.226772     2.219129     2.211486     2.203843     2.196199     2.188556     2.180913     2.173270
      2.165627     2.157983     2.150340     2.142697     2.135054     2.127410     2.119767     2.112124     2.104481     2.096838
      2.089194     2.081551     2.073908     2.066265     2.058621     2.050978     2.043335     2.035692     2.028049     2.020405
      2.012762     2.005119     1.997476     1.989833     1.982190     1.974546     1.966903     1.959260     1.951617     1.943974
      1.936331     1.928688     1.921045     1.913402     1.905759     1.898115     1.890472     1.882829     1.875186     1.867543
      1.859900     1.852257     1.844614     1.836971     1.829327     1.821684     1.814041     1.806398     1.798755     1.791112
      1.783469     1.775826     1.768183     1.760540     1.752896     1.745253     1.737610     1.729967     1.722324     1.714681
      1.707038     1.699395     1.691752     1.684108     1.676465     1.668822     1.661179     1.653536     1.645893     1.638250
      1.630607     1.622964     1.615321     1.607677     1.600034     1.592391     1.584748     1.577105     1.569462     1.561819
      1.554176     1.546533     1.538890     1.531246     1.523603     1.515960     1.508317     1.500674     1.493031     1.485388
      1.477745     1.470102     1.462458     1.454815     1.447172     1.439529     1.431886     1.424243     1.416600     1.408957
      1.401314     1.393671     1.386027     1.378384     1.370741     1.363098     1.355455     1.347812     1.340169     1.332526
      1.324883     1.317240     1.309596     1.301953     1.294310     1.286667     1.279024     1.271381     1.263738     1.256095
      1.248452     1.240808     1.233165     1.225522     1.217879     1.210236     1.202593     1.194950     1.187307     1.179664
      1.172021     1.164377     1.156734     1.149091     1.141448     1.133805     1.126162     1.118519     1.110876     1.103233
      1.095590     1.087946     1.080303     1.072660     1.065017     1.057374     1.049731     1.042088     1.034445     1.026802
      1.019158     1.011515     1.003872     0.996229     0.988586     0.980943     0.973300     0.965657     0.958014     0.950371
      0.942727     0.935084     0.927441     0.919798     0.912155     0.904512     0.896869     0.889226     0.881583     0.873940
      0.866296     0.858653     0.851010     0.843367     0.835724     0.828081     0.820438     0.812795     0.805152     0.797508
      0.789865     0.782222     0.774579     0.766936     0.759293     0.751650     0.744007     0.736364     0.728721     0.721077
      0.713434     0.705791     0.698148     0.690505     0.682862     0.675219     0.667576     0.659933     0.652290     0.644646
      0.637003     0.629360     0.621717     0.614074     0.606431     0.598788     0.591145     0.583502     0.575858     0.568215
      0.560572     0.552929     0.545286     0.537643     0.530000     0.522357     0.514714     0.507071     0.499427     0.491784
      0.484141     0.476498     0.468855     0.461212     0.453569     0.445925     0.438282     0.430639     0.422996     0.415353
      0.407710     0.400067     0.392424     0.384780     0.377137     0.369494     0.361851     0.354208     0.346565     0.338922
      0.331278     0.323635     0.315992     0.308349     0.300706     0.293063     0.285420     0.277777     0.270133     0.262490
      0.254847     0.247204     0.239561     0.231918     0.224275     0.216631     0.208988     0.201345
 NY phased data points follow
   1.02982E+01  1.11600E+01  1.11549E+01  1.56007E+01  1.59698E+01  1.78298E+01  2.02112E+01  2.44310E+01  3.22857E+01  4.11475E+01
   3.94621E+01  4.32293E+01  3.81309E+01  3.54408E+01  3.11611E+01  2.52163E+01  2.59278E+01  1.80145E+01  1.50018E+01  1.38704E+01
   1.30722E+01  1.56079E+01  1.31833E+01  1.49159E+01  1.75644E+01  1.38402E+01  1.24429E+01  1.30135E+01  1.74611E+01  1.79941E+01
   1.75082E+01  1.95371E+01  1.99539E+01  1.55453E+01  1.20961E+01  1.31791E+01  1.16918E+01  9.34194E+00  1.20465E+01  1.21903E+01
   1.19726E+01  1.20426E+01  1.43891E+01  1.12128E+01  1.24195E+01  1.34749E+01  1.67632E+01  1.78977E+01  1.92806E+01  1.60790E+01
   1.42891E+01  1.12077E+01  1.28672E+01  7.34580E+00  1.09630E+01  8.36398E+00  1.05055E+01  1.07378E+01  1.30843E+01  8.72717E+00
   8.10999E+00  6.47828E+00  5.10380E+00  2.95580E+00  1.39787E+00  2.27772E+00  3.38508E+00  2.39185E+00  3.99473E+00  1.37963E+00
   3.88818E-01  1.04747E+00  4.15583E+00  2.65046E+00  2.25156E+00  7.30043E+00  1.73326E+00  2.50812E+00  2.92787E+00  1.42740E+00
   3.78166E+00  1.99357E+00  2.68715E+00  1.37878E+00  4.28593E+00  4.04053E+00  5.10648E+00  3.08851E+00  5.01071E+00  1.26318E+00
   3.53350E+00  1.50539E+00  1.34465E+00  4.18074E+00  5.10088E+00  3.57369E+00  1.05830E+01  9.35545E+00  1.08984E+01  1.46539E+01
   2.28238E+01  3.05229E+01  3.84813E+01  3.98449E+01  4.06332E+01  2.94123E+01  2.39008E+01  2.22472E+01  1.75917E+01  1.20916E+01
   7.96573E+00  6.87209E+00  5.03194E+00  5.40097E+00  4.37159E+00  2.56616E+00  2.52263E+00  3.27667E+00  4.03607E+00  9.11880E+00
   8.33668E+00  7.39237E+00  1.08453E+01  1.44592E+01  2.14578E+01  3.22870E+01  4.65961E+01  5.04991E+01  4.94538E+01  4.21628E+01
   3.22657E+01  2.33844E+01  1.83767E+01  1.54496E+01  9.48679E+00  2.62230E+00  4.86654E+00  2.28121E+00  7.25658E-01  1.97140E+00
   6.70347E+00 -4.14682E-01  2.02809E-01  1.79436E-01  3.42597E+00  2.46295E+00  3.98590E+00  4.34023E+00 -2.42474E-01 -1.07092E+00
   2.95206E+00  1.50528E+00 -4.98724E-02  1.84994E-01 -1.97030E+00 -3.60838E+00 -1.71974E+00 -5.64563E-01  2.39913E-01 -2.09699E+00
  -3.68998E+00 -4.32402E+00 -5.86499E+00 -6.50084E+00 -4.64790E+00 -3.06127E+00 -1.15087E+00 -5.25028E+00 -4.40552E+00 -4.54479E+00
  -5.74698E+00 -4.54556E+00 -8.26854E+00 -1.07687E+01 -1.24838E+01 -1.32923E+01 -1.46957E+01 -1.20838E+01 -8.86812E+00 -1.03405E+01
  -1.42858E+01 -1.14347E+01 -1.22456E+01 -8.18511E+00 -9.98707E+00 -6.75649E+00 -4.67529E+00 -4.47524E+00 -2.10804E+00 -2.24856E+00
  -1.97238E+00  1.15593E+00  1.65957E+00  3.06739E+00  4.86323E+00  1.81419E+00  3.79323E+00 -1.41099E+00 -1.86157E+00 -1.85283E+00
  -2.34190E+00  5.30318E-01  3.54789E+00  4.26408E+00  1.40857E+00  1.31824E+00  2.87381E-01 -1.95002E+00 -4.33216E+00 -4.02936E+00
  -6.45554E+00 -4.74021E+00  1.31765E+00  2.89222E+00  7.79442E+00  1.05465E+01  1.07102E+01  8.12958E+00  4.93148E+00  1.80294E+00
  -3.29304E+00 -7.93669E+00 -4.43472E+00 -3.21020E+00  7.91337E-01  2.70572E+00  4.96998E+00  6.61898E+00  1.01042E+01  8.05822E+00
   6.61119E+00  8.79953E+00  5.41302E+00  4.67154E+00  6.90397E+00  8.85798E+00  8.53127E+00  6.77081E+00  5.00589E+00  9.83456E+00
   8.07075E+00  3.37063E+00  3.37195E+00  7.00094E+00  6.19364E+00  9.61498E+00  1.38522E+01  1.08891E+01  1.06029E+01  1.47094E+01
   1.61846E+01  1.97832E+01  2.69139E+01  3.12452E+01  3.20176E+01  3.72645E+01  4.71505E+01  5.47918E+01  7.11870E+01  8.93999E+01
   9.73500E+01  9.01230E+01  7.42221E+01  5.81326E+01  4.52012E+01  3.30860E+01  2.34731E+01  1.22753E+01  1.45452E+01  8.97929E+00
   9.59579E+00  9.28042E+00  1.03798E+01  9.93928E+00  5.91571E+00  5.42765E+00  4.53082E+00  7.24669E+00  4.20489E+00  1.88277E+00
   4.33549E+00  3.62875E+00  4.72304E+00  5.97031E+00  2.86217E+00  7.59190E-01  1.78526E+00 -2.11730E-01  1.08146E+00  4.81800E-01
   2.90617E+00  3.40588E+00  2.12296E+00  4.50603E-01  2.24640E+00  4.30595E+00  4.18285E+00  5.31351E+00  2.51593E+00  2.06981E+00
   1.82489E+00  2.58819E+00  3.92650E+00  3.95263E+00  3.55332E+00  3.60921E+00  5.20528E+00  4.57868E+00  7.23885E+00  7.80541E+00
   7.21817E+00  4.19952E+00  6.47926E+00  6.56067E+00  7.30451E+00  8.76624E+00  6.75050E+00  7.74963E+00  6.08963E+00  6.93253E+00
   6.38582E+00  5.06366E+00  2.61804E+00  2.65335E+00  2.51085E+00  5.03006E+00  4.44903E+00 -4.65494E-01 -7.20123E-01 -8.83055E-01
   1.67072E+00  3.81794E+00  3.66892E+00  1.63268E+00  6.05571E+00  1.51233E+00  3.79978E+00  4.14719E+00  4.98061E+00  1.42260E+00
   1.51761E+00  2.41731E+00 -1.91703E+00 -7.75808E-01 -4.05071E-01  9.45604E-04 -1.91737E+00  2.89537E+00 -9.17376E-02 -6.38999E-01
  -2.16451E-01 -6.60180E-01 -2.45044E-01  5.62072E-02 -4.26225E-01 -1.09543E+00 -4.41980E-01 -2.34298E+00 -9.52789E-01 -2.74073E+00
  -4.60532E+00 -1.79332E+00 -5.69332E+00 -3.18837E+00 -4.55789E+00 -2.72372E+00 -1.18229E+00 -2.52854E+00  1.13557E+00 -2.27525E+00
   2.52306E-01 -9.23372E-01 -1.17159E+00 -2.80161E+00 -3.11391E+00 -4.75087E+00 -5.62986E+00 -4.50086E+00 -6.08051E+00 -2.83552E+00
  -4.93006E+00 -3.47235E+00 -5.48295E+00 -1.13382E+00 -9.59993E-01 -1.40156E+00 -3.73251E+00 -1.82479E+00 -1.02747E+00 -3.81692E+00
   1.39394E+00 -4.21083E-01 -9.87524E-01 -4.08408E+00  7.57537E-01 -1.90983E+00  5.16189E+00  3.72229E-01  2.83122E+00  7.22533E-01
  -2.20457E+00  8.97856E-01  5.54861E+00  2.19160E+00 -2.39664E+00  1.04955E+00  3.80186E-01 -1.09265E+00 -1.38012E+00 -1.57303E+00
  -6.56499E-01 -2.57602E-01 -2.08909E+00 -5.04871E-01  7.48775E-01  5.36344E-01 -4.08899E+00  1.31774E+00 -5.39504E+00 -4.07608E-01
  -3.92214E+00 -2.36014E+00  1.02024E+00  9.58265E-01 -1.87330E+00 -2.72182E+00 -2.96397E+00 -1.14911E+00 -2.83313E+00 -6.35886E-01
   1.58196E+00 -4.02533E+00 -3.53930E+00 -3.30622E+00 -2.26817E+00 -2.05534E+00 -4.14579E+00 -1.63100E+00 -7.43942E+00 -6.32200E+00
  -3.37004E+00 -3.34313E+00 -3.49171E+00 -3.35817E+00 -2.25882E+00 -4.03565E+00 -3.22296E+00 -5.81970E+00 -1.29750E-01 -3.33105E+00
  -4.74191E+00 -2.30316E+00 -3.75848E+00 -2.80490E+00 -2.94782E-01 -5.13412E-01 -4.98570E+00 -5.53425E+00 -2.17165E+00 -2.14553E+00
  -3.25538E+00 -1.72529E+00 -2.93235E+00 -1.59299E+00 -4.09085E+00 -6.11073E+00 -3.14204E+00 -2.97503E+00 -1.12386E+00 -4.27363E+00
  -1.21204E+00 -1.70108E+00 -2.44339E+00 -2.20263E+00 -3.25400E+00 -1.23896E+00 -1.95292E+00 -3.70466E+00 -1.77502E+00  6.73636E-01
  -1.56332E+00 -8.93727E-02 -4.08299E+00  1.35740E+00 -2.35973E+00 -1.99976E+00 -2.37895E+00 -1.08106E+00  2.71317E-01  1.58116E-01
  -1.37823E+00  1.77699E-01 -3.87366E+00 -6.19941E-01 -1.69717E+00 -3.90495E+00 -5.71365E+00 -3.03966E+00
 NY points of the fit to the data follow
   1.17224E+01  1.16588E+01  1.27678E+01  1.41002E+01  1.58020E+01  1.79511E+01  2.07158E+01  2.54560E+01  3.18768E+01  3.81160E+01
   4.20542E+01  4.22545E+01  3.91426E+01  3.44630E+01  2.97576E+01  2.57543E+01  2.23473E+01  1.92862E+01  1.69126E+01  1.51875E+01
   1.39585E+01  1.32227E+01  1.32590E+01  1.35063E+01  1.30779E+01  1.26052E+01  1.22474E+01  1.28034E+01  1.45605E+01  1.70884E+01
   1.93653E+01  2.05861E+01  2.06377E+01  1.95312E+01  1.72332E+01  1.44916E+01  1.21217E+01  1.04164E+01  9.67235E+00  9.85677E+00
   1.03957E+01  1.09536E+01  1.13128E+01  1.17255E+01  1.23828E+01  1.33938E+01  1.45166E+01  1.51560E+01  1.48732E+01  1.37676E+01
   1.22492E+01  1.07739E+01  9.65560E+00  8.81107E+00  8.11632E+00  7.60890E+00  7.30417E+00  7.30024E+00  7.54686E+00  7.84887E+00
   7.98190E+00  7.75141E+00  7.18791E+00  6.46481E+00  5.82159E+00  5.42778E+00  5.20522E+00  5.11020E+00  5.13069E+00  5.23891E+00
   5.40328E+00  5.55438E+00  5.57605E+00  5.42254E+00  5.14432E+00  4.83256E+00  4.55444E+00  4.31299E+00  4.12605E+00  4.09334E+00
   4.06953E+00  3.84936E+00  3.72228E+00  3.84236E+00  4.15914E+00  4.49512E+00  4.51099E+00  4.02901E+00  3.23739E+00  2.55573E+00
   2.16385E+00  1.99678E+00  1.97091E+00  2.07250E+00  2.45423E+00  4.19158E+00  7.65064E+00  9.00070E+00  1.00787E+01  1.37439E+01
   2.08448E+01  3.07347E+01  3.96331E+01  4.29218E+01  3.96591E+01  3.26387E+01  2.54757E+01  1.97157E+01  1.48435E+01  1.04772E+01
   6.79091E+00  3.99438E+00  2.68636E+00  2.17777E+00  1.91936E+00  1.77270E+00  1.69102E+00  1.68764E+00  1.86974E+00  3.17786E+00
   7.42114E+00  9.96448E+00  1.11324E+01  1.48506E+01  2.24206E+01  3.37697E+01  4.53880E+01  5.11518E+01  4.86820E+01  4.08789E+01
   3.23399E+01  2.55713E+01  2.00204E+01  1.45428E+01  9.38803E+00  4.89905E+00  2.34841E+00  1.51345E+00  1.46014E+00  1.77363E+00
   2.16125E+00  2.38078E+00  2.36473E+00  2.15441E+00  1.83194E+00  1.48575E+00  1.13475E+00  7.45580E-01  3.81820E-01  6.18605E-02
  -2.29942E-01 -4.94782E-01 -7.46552E-01 -1.07611E+00 -1.44239E+00 -1.53732E+00 -1.48001E+00 -1.46176E+00 -1.68212E+00 -2.41083E+00
  -3.17695E+00 -3.49020E+00 -3.26671E+00 -2.78561E+00 -2.51691E+00 -2.76415E+00 -3.40686E+00 -4.13573E+00 -4.76933E+00 -5.29365E+00
  -5.55993E+00 -5.68596E+00 -6.01735E+00 -6.62731E+00 -7.36568E+00 -7.72189E+00 -7.48736E+00 -6.92445E+00 -6.53850E+00 -6.62214E+00
  -6.97604E+00 -6.88906E+00 -6.40132E+00 -5.89584E+00 -5.56408E+00 -5.34067E+00 -4.85568E+00 -3.68523E+00 -1.99351E+00 -3.46290E-01
   7.34135E-01  1.05154E+00  9.09724E-01  4.87004E-01 -3.28281E-02 -5.23963E-01 -8.27849E-01 -6.91475E-01 -1.14651E-01  8.49371E-01
   1.99941E+00  3.28002E+00  4.05516E+00  4.40069E+00  4.38918E+00  3.19579E+00  9.17178E-01 -1.58538E+00 -3.57708E+00 -4.51212E+00
  -4.68733E+00 -3.52005E+00 -1.06048E+00  2.22462E+00  5.42170E+00  7.23644E+00  7.18056E+00  5.57471E+00  2.57164E+00 -1.10234E+00
  -4.51106E+00 -6.86314E+00 -7.11028E+00 -5.16021E+00 -2.11269E+00  1.13287E+00  3.75972E+00  5.52278E+00  6.42395E+00  6.68315E+00
   6.61358E+00  6.27452E+00  6.00599E+00  6.08432E+00  6.52064E+00  6.91142E+00  7.54809E+00  8.27072E+00  8.53002E+00  8.09574E+00
   7.25250E+00  6.42304E+00  6.00415E+00  6.37823E+00  7.40780E+00  8.67132E+00  9.82463E+00  1.06825E+01  1.16013E+01  1.29472E+01
   1.39592E+01  1.53659E+01  1.95075E+01  2.88451E+01  3.60931E+01  4.02223E+01  4.65833E+01  5.73789E+01  7.30339E+01  8.90240E+01
   9.61013E+01  8.99880E+01  7.49193E+01  5.84681E+01  4.50458E+01  3.44199E+01  2.52007E+01  1.73418E+01  1.09961E+01  7.46943E+00
   6.11325E+00  5.50014E+00  5.24028E+00  5.13078E+00  4.97719E+00  4.71424E+00  4.37095E+00  3.99634E+00  3.61694E+00  3.25723E+00
   2.93371E+00  2.66759E+00  2.47523E+00  2.32842E+00  2.19445E+00  2.07170E+00  1.94921E+00  1.83231E+00  1.73644E+00  1.66951E+00
   1.64666E+00  1.67256E+00  1.73668E+00  1.83521E+00  1.95653E+00  2.09928E+00  2.26774E+00  2.45907E+00  2.67925E+00  2.93737E+00
   3.23371E+00  3.56284E+00  3.91019E+00  4.26067E+00  4.60359E+00  4.92927E+00  5.22751E+00  5.48835E+00  5.70153E+00  5.86173E+00
   5.96579E+00  6.01175E+00  6.00009E+00  5.93327E+00  5.81698E+00  5.65980E+00  5.47232E+00  5.26671E+00  5.05826E+00  4.87180E+00
   4.71140E+00  4.47465E+00  4.25560E+00  4.12973E+00  4.05190E+00  3.95015E+00  3.70874E+00  3.27557E+00  2.82505E+00  2.42554E+00
   2.08998E+00  1.87359E+00  1.78193E+00  1.85889E+00  2.11179E+00  2.40508E+00  2.59009E+00  2.58200E+00  2.42343E+00  2.20618E+00
   1.96361E+00  1.69129E+00  1.39651E+00  1.08447E+00  7.88384E-01  5.24573E-01  2.80560E-01  5.18011E-02 -1.62264E-01 -3.61116E-01
  -5.44292E-01 -7.11765E-01 -8.63816E-01 -1.00079E+00 -1.12314E+00 -1.23167E+00 -1.32772E+00 -1.41306E+00 -1.48942E+00 -1.55832E+00
  -1.62113E+00 -1.67927E+00 -1.73431E+00 -1.78768E+00 -1.84034E+00 -1.89271E+00 -1.94489E+00 -1.99693E+00 -2.04880E+00 -2.10007E+00
  -2.14981E+00 -2.19670E+00 -2.23937E+00 -2.27656E+00 -2.30703E+00 -2.32929E+00 -2.34158E+00 -2.34213E+00 -2.32944E+00 -2.30230E+00
  -2.25958E+00 -2.20004E+00 -2.12243E+00 -2.02578E+00 -1.90958E+00 -1.77371E+00 -1.61825E+00 -1.44338E+00 -1.24961E+00 -1.03812E+00
  -8.10813E-01 -5.70133E-01 -3.18900E-01 -6.03044E-02  2.01875E-01  4.63145E-01  7.18452E-01  9.62552E-01  1.19029E+00  1.39661E+00
   1.57656E+00  1.72534E+00  1.83868E+00  1.91329E+00  1.94695E+00  1.93847E+00  1.88753E+00  1.79478E+00  1.66195E+00  1.49196E+00
   1.28874E+00  1.05680E+00  8.00944E-01  5.26219E-01  2.37940E-01 -5.84480E-02 -3.57721E-01 -6.55221E-01 -9.46966E-01 -1.22953E+00
  -1.49992E+00 -1.75561E+00 -1.99476E+00 -2.21632E+00 -2.41985E+00 -2.60527E+00 -2.77265E+00 -2.92232E+00 -3.05499E+00 -3.17173E+00
  -3.27369E+00 -3.36194E+00 -3.43739E+00 -3.50100E+00 -3.55387E+00 -3.59717E+00 -3.63192E+00 -3.65888E+00 -3.67864E+00 -3.69187E+00
  -3.69934E+00 -3.70179E+00 -3.69976E+00 -3.69355E+00 -3.68344E+00 -3.66983E+00 -3.65324E+00 -3.63406E+00 -3.61250E+00 -3.58862E+00
  -3.56256E+00 -3.53463E+00 -3.50517E+00 -3.47436E+00 -3.44220E+00 -3.40864E+00 -3.37379E+00 -3.33790E+00 -3.30118E+00 -3.26367E+00
  -3.22525E+00 -3.18589E+00 -3.14574E+00 -3.10500E+00 -3.06378E+00 -3.02202E+00 -2.97960E+00 -2.93653E+00 -2.89299E+00 -2.84915E+00
  -2.80500E+00 -2.76044E+00 -2.71535E+00 -2.66983E+00 -2.62405E+00 -2.57812E+00 -2.53196E+00 -2.48544E+00 -2.43852E+00 -2.39133E+00
  -2.34404E+00 -2.29667E+00 -2.24908E+00 -2.20115E+00 -2.15292E+00 -2.10455E+00 -2.05615E+00 -2.00766E+00 -1.95891E+00 -1.90984E+00
  -1.86054E+00 -1.81118E+00 -1.76176E+00 -1.71217E+00 -1.66223E+00 -1.61194E+00 -1.56143E+00 -1.51079E+00
 NY background values follow
     1.071E+01    1.060E+01    1.050E+01    1.040E+01    1.030E+01    1.019E+01    1.009E+01    9.989E+00    9.887E+00    9.784E+00
     9.681E+00    9.578E+00    9.475E+00    9.372E+00    9.269E+00    9.166E+00    9.062E+00    8.959E+00    8.856E+00    8.753E+00
     8.649E+00    8.546E+00    8.443E+00    8.339E+00    8.236E+00    8.133E+00    8.030E+00    7.927E+00    7.824E+00    7.720E+00
     7.618E+00    7.515E+00    7.412E+00    7.309E+00    7.206E+00    7.104E+00    7.001E+00    6.899E+00    6.797E+00    6.695E+00
     6.593E+00    6.491E+00    6.389E+00    6.288E+00    6.187E+00    6.085E+00    5.984E+00    5.884E+00    5.783E+00    5.683E+00
     5.583E+00    5.483E+00    5.383E+00    5.284E+00    5.184E+00    5.086E+00    4.987E+00    4.889E+00    4.791E+00    4.693E+00
     4.596E+00    4.499E+00    4.402E+00    4.306E+00    4.210E+00    4.115E+00    4.020E+00    3.925E+00    3.831E+00    3.737E+00
     3.644E+00    3.551E+00    3.459E+00    3.367E+00    3.275E+00    3.184E+00    3.094E+00    3.004E+00    2.915E+00    2.826E+00
     2.738E+00    2.650E+00    2.563E+00    2.477E+00    2.391E+00    2.305E+00    2.221E+00    2.137E+00    2.054E+00    1.971E+00
     1.889E+00    1.807E+00    1.727E+00    1.647E+00    1.568E+00    1.489E+00    1.411E+00    1.334E+00    1.257E+00    1.182E+00
     1.106E+00    1.032E+00    9.583E-01    8.852E-01    8.128E-01    7.412E-01    6.702E-01    5.999E-01    5.303E-01    4.613E-01
     3.931E-01    3.256E-01    2.587E-01    1.926E-01    1.271E-01    6.239E-02   -1.681E-03   -6.505E-02   -1.277E-01   -1.897E-01
    -2.510E-01   -3.116E-01   -3.715E-01   -4.307E-01   -4.892E-01   -5.470E-01   -6.042E-01   -6.606E-01   -7.163E-01   -7.714E-01
    -8.257E-01   -8.793E-01   -9.323E-01   -9.845E-01   -1.036E+00   -1.087E+00   -1.137E+00   -1.187E+00   -1.235E+00   -1.283E+00
    -1.330E+00   -1.377E+00   -1.422E+00   -1.467E+00   -1.510E+00   -1.553E+00   -1.595E+00   -1.636E+00   -1.676E+00   -1.715E+00
    -1.752E+00   -1.789E+00   -1.825E+00   -1.859E+00   -1.892E+00   -1.924E+00   -1.955E+00   -1.985E+00   -2.013E+00   -2.040E+00
    -2.066E+00   -2.090E+00   -2.113E+00   -2.135E+00   -2.155E+00   -2.173E+00   -2.190E+00   -2.206E+00   -2.220E+00   -2.233E+00
    -2.244E+00   -2.253E+00   -2.261E+00   -2.266E+00   -2.271E+00   -2.273E+00   -2.274E+00   -2.273E+00   -2.270E+00   -2.265E+00
    -2.259E+00   -2.250E+00   -2.240E+00   -2.228E+00   -2.214E+00   -2.198E+00   -2.181E+00   -2.162E+00   -2.141E+00   -2.119E+00
    -2.096E+00   -2.071E+00   -2.045E+00   -2.018E+00   -1.989E+00   -1.959E+00   -1.928E+00   -1.896E+00   -1.864E+00   -1.830E+00
    -1.795E+00   -1.760E+00   -1.723E+00   -1.686E+00   -1.649E+00   -1.611E+00   -1.572E+00   -1.533E+00   -1.494E+00   -1.454E+00
    -1.414E+00   -1.373E+00   -1.333E+00   -1.292E+00   -1.251E+00   -1.211E+00   -1.170E+00   -1.130E+00   -1.089E+00   -1.049E+00
    -1.009E+00   -9.698E-01   -9.308E-01   -8.922E-01   -8.541E-01   -8.166E-01   -7.797E-01   -7.435E-01   -7.081E-01   -6.733E-01
    -6.393E-01   -6.060E-01   -5.736E-01   -5.419E-01   -5.110E-01   -4.809E-01   -4.517E-01   -4.233E-01   -3.958E-01   -3.692E-01
    -3.435E-01   -3.187E-01   -2.949E-01   -2.720E-01   -2.501E-01   -2.292E-01   -2.093E-01   -1.904E-01   -1.726E-01   -1.558E-01
    -1.401E-01   -1.254E-01   -1.119E-01   -9.953E-02   -8.827E-02   -7.818E-02   -6.925E-02   -6.152E-02   -5.499E-02   -4.968E-02
    -4.562E-02   -4.281E-02   -4.127E-02   -4.103E-02   -4.209E-02   -4.447E-02   -4.820E-02   -5.328E-02   -5.973E-02   -6.757E-02
    -7.681E-02   -8.748E-02   -9.959E-02   -1.131E-01   -1.280E-01   -1.444E-01   -1.620E-01   -1.811E-01   -2.014E-01   -2.231E-01
    -2.460E-01   -2.702E-01   -2.957E-01   -3.223E-01   -3.502E-01   -3.793E-01   -4.095E-01   -4.409E-01   -4.734E-01   -5.071E-01
    -5.418E-01   -5.776E-01   -6.144E-01   -6.523E-01   -6.912E-01   -7.311E-01   -7.719E-01   -8.137E-01   -8.565E-01   -9.001E-01
    -9.447E-01   -9.901E-01   -1.036E+00   -1.083E+00   -1.131E+00   -1.180E+00   -1.230E+00   -1.280E+00   -1.331E+00   -1.383E+00
    -1.435E+00   -1.488E+00   -1.542E+00   -1.596E+00   -1.651E+00   -1.707E+00   -1.763E+00   -1.820E+00   -1.877E+00   -1.935E+00
    -1.993E+00   -2.052E+00   -2.111E+00   -2.170E+00   -2.230E+00   -2.290E+00   -2.350E+00   -2.410E+00   -2.471E+00   -2.532E+00
    -2.592E+00   -2.653E+00   -2.714E+00   -2.775E+00   -2.835E+00   -2.896E+00   -2.956E+00   -3.017E+00   -3.077E+00   -3.137E+00
    -3.196E+00   -3.256E+00   -3.314E+00   -3.373E+00   -3.431E+00   -3.489E+00   -3.546E+00   -3.602E+00   -3.658E+00   -3.713E+00
    -3.768E+00   -3.822E+00   -3.875E+00   -3.928E+00   -3.980E+00   -4.030E+00   -4.080E+00   -4.129E+00   -4.178E+00   -4.225E+00
    -4.271E+00   -4.316E+00   -4.360E+00   -4.403E+00   -4.444E+00   -4.485E+00   -4.524E+00   -4.563E+00   -4.600E+00   -4.636E+00
    -4.671E+00   -4.704E+00   -4.737E+00   -4.768E+00   -4.798E+00   -4.827E+00   -4.855E+00   -4.881E+00   -4.906E+00   -4.930E+00
    -4.953E+00   -4.974E+00   -4.995E+00   -5.014E+00   -5.031E+00   -5.048E+00   -5.063E+00   -5.077E+00   -5.089E+00   -5.100E+00
    -5.110E+00   -5.119E+00   -5.126E+00   -5.132E+00   -5.137E+00   -5.140E+00   -5.142E+00   -5.142E+00   -5.141E+00   -5.139E+00
    -5.136E+00   -5.131E+00   -5.124E+00   -5.116E+00   -5.107E+00   -5.096E+00   -5.084E+00   -5.071E+00   -5.056E+00   -5.039E+00
    -5.022E+00   -5.003E+00   -4.982E+00   -4.961E+00   -4.938E+00   -4.914E+00   -4.888E+00   -4.862E+00   -4.834E+00   -4.805E+00
    -4.775E+00   -4.745E+00   -4.713E+00   -4.680E+00   -4.646E+00   -4.611E+00   -4.576E+00   -4.539E+00   -4.502E+00   -4.463E+00
    -4.424E+00   -4.385E+00   -4.344E+00   -4.303E+00   -4.261E+00   -4.219E+00   -4.176E+00   -4.132E+00   -4.088E+00   -4.043E+00
    -3.998E+00   -3.952E+00   -3.906E+00   -3.860E+00   -3.813E+00   -3.765E+00   -3.718E+00   -3.670E+00   -3.622E+00   -3.574E+00
    -3.525E+00   -3.476E+00   -3.427E+00   -3.378E+00   -3.329E+00   -3.280E+00   -3.231E+00   -3.182E+00   -3.132E+00   -3.082E+00
    -3.033E+00   -2.983E+00   -2.933E+00   -2.883E+00   -2.834E+00   -2.784E+00   -2.734E+00   -2.683E+00   -2.633E+00   -2.583E+00
    -2.533E+00   -2.483E+00   -2.433E+00   -2.382E+00   -2.332E+00   -2.282E+00   -2.232E+00   -2.182E+00   -2.131E+00   -2.081E+00
    -2.031E+00   -1.981E+00   -1.931E+00   -1.881E+00   -1.831E+00   -1.781E+00   -1.731E+00   -1.681E+00   -1.631E+00   -1.581E+00
    -1.532E+00   -1.482E+00   -1.433E+00   -1.383E+00   -1.334E+00   -1.285E+00   -1.236E+00   -1.187E+00
 Ala      Conc. = 7.36E+01
