 LCModel (Version 6.3-1L) Copyright: S.W. Provencher.          Ref.: Magn. Reson. Med. 30:672-679 (1993).                
 Slice#1 Row#3 Col#12  PD_05_press_1_raw_act
 36 lines in following concentration table = NCONC+1
    Conc.  %SD /Cr+PCr  Metabolite                                         
 4.29E+03  25%   0.000 Ala                                                 
   14.903 105%   0.000 Asp                                                 
    0.000 999%   0.000 Cr                                                  
    0.000 999%   0.000 PCr                                                 
    8.538 110%   0.000 GABA                                                
    8.824 107%   0.000 Glc                                                 
    0.000 999%   0.000 Gln                                                 
  861.104  83%   0.000 Glu                                                 
    0.000 999%   0.000 GPC                                                 
   49.464  52%   0.000 PCh                                                 
    0.000 999%   0.000 GSH                                                 
    0.000 999%   0.000 Ins                                                 
    0.000 999%   0.000 Lac                                                 
  138.961  69%   0.000 NAA                                                 
    0.000 999%   0.000 NAAG                                                
    3.397  93%   0.000 Scyllo                                              
   16.210  96%   0.000 Tau                                                 
    1.177 914%   0.000 -CrCH2                                              
   49.464  52%   0.000 GPC+PCh                                             
  138.961  69%   0.000 NAA+NAAG                                            
    0.000 999%   0.000 Cr+PCr                                              
  861.104  83%   0.000 Glu+Gln                                             
 1.54E+04  16%   0.000 Lip13a                                              
    0.000 999%   0.000 Lip13b                                              
 5.21E+03  13%   0.000 Lip09                                               
 3.53E+03  19%   0.000 MM09                                                
 1.73E+03  28%   0.000 Lip20                                               
  764.559  63%   0.000 MM20                                                
 1.14E+03  69%   0.000 MM12                                                
 1.40E+04  14%   0.000 MM14                                                
 9.67E+03  16%   0.000 MM17                                                
 1.54E+04  16%   0.000 Lip13a+Lip13b                                       
 3.05E+04   8%   0.000 MM14+Lip13a+Lip13b+MM12                             
 8.74E+03   7%   0.000 MM09+Lip09                                          
 2.49E+03  17%   0.000 MM20+Lip20                                          
   6 lines in following misc. output table
  FWHM = 0.153 ppm    S/N =  22                                            
  Data shift = 0.283 ppm                                                   
  Ph:  86 deg      23.2 deg/ppm                                            
  alphaB,S = 3.3E+01,   2.6E+02                                            
    6 spline knots.   Ns = 9(2)                                            
  (10) 5 infls.   ( 5) 1 extrs.                                            
  498 points on ppm-axis = NY
      4.000000     3.992357     3.984714     3.977070     3.969427     3.961784     3.954141     3.946497     3.938854     3.931211
      3.923568     3.915925     3.908281     3.900638     3.892995     3.885352     3.877708     3.870065     3.862422     3.854779
      3.847136     3.839492     3.831849     3.824206     3.816563     3.808919     3.801276     3.793633     3.785990     3.778347
      3.770703     3.763060     3.755417     3.747774     3.740130     3.732487     3.724844     3.717201     3.709558     3.701914
      3.694271     3.686628     3.678985     3.671341     3.663698     3.656055     3.648412     3.640769     3.633125     3.625482
      3.617839     3.610196     3.602552     3.594909     3.587266     3.579623     3.571980     3.564336     3.556693     3.549050
      3.541407     3.533763     3.526120     3.518477     3.510834     3.503191     3.495547     3.487904     3.480261     3.472618
      3.464974     3.457331     3.449688     3.442045     3.434402     3.426758     3.419115     3.411472     3.403829     3.396185
      3.388542     3.380899     3.373256     3.365613     3.357969     3.350326     3.342683     3.335040     3.327396     3.319753
      3.312110     3.304467     3.296824     3.289180     3.281537     3.273894     3.266251     3.258607     3.250964     3.243321
      3.235678     3.228034     3.220391     3.212748     3.205105     3.197462     3.189818     3.182175     3.174532     3.166889
      3.159245     3.151602     3.143959     3.136316     3.128673     3.121029     3.113386     3.105743     3.098100     3.090456
      3.082813     3.075170     3.067527     3.059884     3.052240     3.044597     3.036954     3.029311     3.021667     3.014024
      3.006381     2.998738     2.991095     2.983451     2.975808     2.968165     2.960522     2.952878     2.945235     2.937592
      2.929949     2.922306     2.914662     2.907019     2.899376     2.891733     2.884089     2.876446     2.868803     2.861160
      2.853517     2.845873     2.838230     2.830587     2.822944     2.815300     2.807657     2.800014     2.792371     2.784728
      2.777084     2.769441     2.761798     2.754155     2.746511     2.738868     2.731225     2.723582     2.715939     2.708295
      2.700652     2.693009     2.685366     2.677722     2.670079     2.662436     2.654793     2.647150     2.639506     2.631863
      2.624220     2.616577     2.608933     2.601290     2.593647     2.586004     2.578361     2.570717     2.563074     2.555431
      2.547788     2.540144     2.532501     2.524858     2.517215     2.509572     2.501928     2.494285     2.486642     2.478999
      2.471355     2.463712     2.456069     2.448426     2.440783     2.433139     2.425496     2.417853     2.410210     2.402566
      2.394923     2.387280     2.379637     2.371994     2.364350     2.356707     2.349064     2.341421     2.333777     2.326134
      2.318491     2.310848     2.303205     2.295561     2.287918     2.280275     2.272632     2.264988     2.257345     2.249702
      2.242059     2.234416     2.226772     2.219129     2.211486     2.203843     2.196199     2.188556     2.180913     2.173270
      2.165627     2.157983     2.150340     2.142697     2.135054     2.127410     2.119767     2.112124     2.104481     2.096838
      2.089194     2.081551     2.073908     2.066265     2.058621     2.050978     2.043335     2.035692     2.028049     2.020405
      2.012762     2.005119     1.997476     1.989833     1.982190     1.974546     1.966903     1.959260     1.951617     1.943974
      1.936331     1.928688     1.921045     1.913402     1.905759     1.898115     1.890472     1.882829     1.875186     1.867543
      1.859900     1.852257     1.844614     1.836971     1.829327     1.821684     1.814041     1.806398     1.798755     1.791112
      1.783469     1.775826     1.768183     1.760540     1.752896     1.745253     1.737610     1.729967     1.722324     1.714681
      1.707038     1.699395     1.691752     1.684108     1.676465     1.668822     1.661179     1.653536     1.645893     1.638250
      1.630607     1.622964     1.615321     1.607677     1.600034     1.592391     1.584748     1.577105     1.569462     1.561819
      1.554176     1.546533     1.538890     1.531246     1.523603     1.515960     1.508317     1.500674     1.493031     1.485388
      1.477745     1.470102     1.462458     1.454815     1.447172     1.439529     1.431886     1.424243     1.416600     1.408957
      1.401314     1.393671     1.386027     1.378384     1.370741     1.363098     1.355455     1.347812     1.340169     1.332526
      1.324883     1.317240     1.309596     1.301953     1.294310     1.286667     1.279024     1.271381     1.263738     1.256095
      1.248452     1.240808     1.233165     1.225522     1.217879     1.210236     1.202593     1.194950     1.187307     1.179664
      1.172021     1.164377     1.156734     1.149091     1.141448     1.133805     1.126162     1.118519     1.110876     1.103233
      1.095590     1.087946     1.080303     1.072660     1.065017     1.057374     1.049731     1.042088     1.034445     1.026802
      1.019158     1.011515     1.003872     0.996229     0.988586     0.980943     0.973300     0.965657     0.958014     0.950371
      0.942727     0.935084     0.927441     0.919798     0.912155     0.904512     0.896869     0.889226     0.881583     0.873940
      0.866296     0.858653     0.851010     0.843367     0.835724     0.828081     0.820438     0.812795     0.805152     0.797508
      0.789865     0.782222     0.774579     0.766936     0.759293     0.751650     0.744007     0.736364     0.728721     0.721077
      0.713434     0.705791     0.698148     0.690505     0.682862     0.675219     0.667576     0.659933     0.652290     0.644646
      0.637003     0.629360     0.621717     0.614074     0.606431     0.598788     0.591145     0.583502     0.575858     0.568215
      0.560572     0.552929     0.545286     0.537643     0.530000     0.522357     0.514714     0.507071     0.499427     0.491784
      0.484141     0.476498     0.468855     0.461212     0.453569     0.445925     0.438282     0.430639     0.422996     0.415353
      0.407710     0.400067     0.392424     0.384780     0.377137     0.369494     0.361851     0.354208     0.346565     0.338922
      0.331278     0.323635     0.315992     0.308349     0.300706     0.293063     0.285420     0.277777     0.270133     0.262490
      0.254847     0.247204     0.239561     0.231918     0.224275     0.216631     0.208988     0.201345
 NY phased data points follow
  -6.89915E+00 -2.48174E+00 -8.18274E+00 -6.84599E+00 -7.60165E+00 -4.96844E+00 -5.55283E+00 -5.80648E+00 -6.62201E+00 -8.74086E+00
  -5.20202E+00 -4.41931E+00 -6.41936E+00 -4.21135E+00 -4.55611E+00 -6.89210E+00 -4.87742E+00 -7.07808E+00 -5.31204E+00 -5.83763E+00
  -5.52410E+00 -2.28441E+00 -4.46115E+00 -1.54755E+00 -6.51375E+00 -6.81807E+00 -5.98688E+00 -8.86589E+00 -4.56982E+00 -4.96466E+00
  -4.50175E+00 -6.25410E+00 -6.13864E+00 -6.04492E+00 -7.92834E+00 -7.13967E+00 -6.42907E+00 -5.92133E+00 -1.12101E+01 -6.38169E+00
  -3.51524E+00 -5.44832E+00 -3.44892E+00 -5.33703E+00 -5.12573E+00 -6.68360E+00 -6.47637E+00 -7.81096E+00 -3.31162E+00 -5.00835E+00
  -2.96994E+00 -4.75457E+00 -3.77318E+00 -5.65648E+00 -3.10466E+00 -8.68860E+00 -6.38836E+00 -4.52146E+00 -3.32435E+00 -5.87432E+00
  -7.34378E+00 -3.57214E+00 -3.19366E+00 -2.33414E+00 -3.14392E+00 -2.61323E+00 -4.12090E+00 -4.56487E+00 -5.49709E+00 -3.24759E+00
  -4.82165E+00 -8.65108E+00 -6.99096E+00 -7.28799E+00 -6.74754E+00 -3.55366E+00 -5.71578E+00 -6.78846E+00 -6.57076E+00 -6.34419E+00
  -4.43656E+00 -3.18075E+00 -4.56488E+00 -4.15539E+00 -1.42096E+00 -6.22480E+00 -6.04917E+00 -3.64471E+00 -1.82746E+00 -1.80273E+00
  -5.08806E+00 -2.10574E+00 -8.75685E-01 -5.41106E+00 -3.26986E+00 -4.99860E+00 -9.93225E-01 -4.97552E+00 -6.76505E+00 -4.74878E+00
  -6.77518E+00 -6.85054E+00 -2.23218E+00 -6.19984E+00 -1.97991E+00 -3.13896E+00 -2.07921E+00 -4.27062E+00 -6.29579E+00 -2.07089E+00
  -2.86922E+00 -2.22664E+00 -5.72621E+00 -3.28722E+00 -5.31626E+00 -4.19829E+00 -5.07094E+00 -5.18163E+00 -4.91272E+00 -4.72578E+00
  -6.90748E+00 -4.66635E+00 -3.96570E+00 -3.60641E+00 -6.01083E+00 -1.70288E+00 -3.95592E+00 -2.07045E+00 -3.84725E+00 -5.69961E+00
  -3.15082E+00 -4.41323E+00 -4.32767E+00 -3.16682E+00 -3.71151E+00 -3.14136E+00 -4.35853E+00 -5.43567E+00 -3.26108E+00 -5.81454E+00
  -3.65445E+00 -4.76564E+00 -7.86954E+00 -4.51493E+00 -4.68019E+00 -5.30909E+00 -2.82649E+00 -3.49746E+00 -5.17226E+00 -3.09413E+00
  -3.30756E+00 -3.09888E+00 -3.83988E+00 -1.57138E+00 -6.34707E+00  6.75970E-01 -4.41608E+00 -4.86010E+00 -4.86412E+00 -6.16853E+00
  -2.05561E+00 -3.51004E+00 -5.52744E+00 -7.45722E+00 -5.62998E+00 -1.61031E+00 -3.58213E+00 -4.37972E+00 -3.29466E+00 -2.71765E+00
  -7.74312E+00 -6.01750E+00 -3.20434E+00 -2.69119E+00 -3.64529E+00 -3.32624E+00 -6.58504E+00 -5.34355E+00 -4.08051E+00 -3.91692E+00
  -4.40779E+00 -1.92371E+00 -2.61701E+00 -5.38502E+00 -6.27323E+00 -6.49688E+00 -5.39892E+00 -4.64943E+00 -2.44972E+00 -3.78037E+00
  -5.64067E+00 -3.24473E+00 -3.95627E+00 -2.79952E+00 -2.97249E+00 -5.77944E-01 -4.55730E+00 -3.98628E+00 -2.42366E-01 -4.48624E+00
  -4.02711E+00 -2.54671E+00 -2.91335E+00 -3.42282E+00 -5.50200E+00 -4.08350E+00 -2.99328E+00 -3.56390E+00 -2.67327E+00 -1.43075E+00
  -4.50406E+00 -4.96851E+00 -3.11438E+00 -2.87268E+00 -3.71250E+00 -2.69417E+00 -3.92082E-01 -2.46694E+00 -1.19173E+00 -2.21784E+00
  -1.33499E+00 -7.19859E-01 -2.45101E+00 -3.91475E-01 -6.75697E-01  1.93129E+00 -2.37022E+00 -3.81346E+00 -3.22716E+00 -1.09070E+00
  -2.48643E+00 -3.95896E+00 -5.61270E-01 -3.57111E+00 -5.16191E-01  1.45711E+00  2.71732E+00  3.45030E+00  4.45601E-01  3.66482E+00
   3.39113E+00  3.29943E+00  3.93243E+00  4.17658E+00  3.96379E+00  4.31755E+00  7.57455E+00  5.39175E+00  6.24103E+00  6.90823E+00
   8.04794E+00  4.68853E+00  8.54519E+00  6.56199E+00  7.30167E+00  7.32535E+00  8.22758E+00  9.60417E+00  7.10873E+00  9.81417E+00
   7.38541E+00  8.26679E+00  1.08179E+01  1.12711E+01  9.77460E+00  1.17334E+01  1.26056E+01  8.92800E+00  1.15337E+01  1.03893E+01
   1.21743E+01  1.08492E+01  1.50808E+01  1.32798E+01  1.79378E+01  1.66307E+01  1.68719E+01  1.73999E+01  1.88342E+01  1.76395E+01
   2.10865E+01  1.76721E+01  2.04290E+01  2.03518E+01  2.01654E+01  2.35619E+01  2.29502E+01  2.49947E+01  2.13758E+01  2.68374E+01
   2.47135E+01  2.65252E+01  2.97115E+01  2.85124E+01  3.26707E+01  3.37525E+01  3.54329E+01  3.59392E+01  3.54115E+01  3.84489E+01
   3.71761E+01  4.12054E+01  4.06184E+01  4.36851E+01  4.19276E+01  4.70322E+01  4.89138E+01  5.04659E+01  5.22397E+01  5.77197E+01
   5.71829E+01  5.82208E+01  5.94516E+01  6.19325E+01  6.42641E+01  6.77057E+01  6.72353E+01  7.35645E+01  7.18365E+01  7.59112E+01
   7.73058E+01  7.71291E+01  8.16046E+01  8.35585E+01  8.06793E+01  8.59625E+01  8.45452E+01  8.47361E+01  8.32054E+01  8.57887E+01
   7.90796E+01  7.77406E+01  7.74671E+01  7.34282E+01  7.06854E+01  7.04577E+01  7.16878E+01  6.81949E+01  6.61571E+01  6.67847E+01
   6.71174E+01  6.46878E+01  6.28199E+01  6.18937E+01  6.03710E+01  6.07756E+01  5.67324E+01  5.63157E+01  5.49908E+01  5.55507E+01
   5.31823E+01  4.82646E+01  4.83862E+01  4.62686E+01  5.03635E+01  4.46899E+01  4.55512E+01  4.66712E+01  4.12552E+01  4.21532E+01
   4.18697E+01  3.93218E+01  4.19687E+01  4.40545E+01  4.06656E+01  3.71196E+01  4.01207E+01  3.89415E+01  3.98056E+01  3.54835E+01
   3.66470E+01  3.79982E+01  3.83458E+01  3.83219E+01  3.86810E+01  3.95204E+01  3.67284E+01  4.05005E+01  3.45786E+01  3.83272E+01
   3.79311E+01  3.57932E+01  3.71839E+01  3.70843E+01  3.60314E+01  3.78118E+01  3.50614E+01  3.57864E+01  3.53991E+01  3.39037E+01
   3.59720E+01  3.11940E+01  3.54600E+01  3.53678E+01  3.38542E+01  3.13194E+01  2.94129E+01  3.04581E+01  2.94293E+01  2.92423E+01
   2.76269E+01  2.82791E+01  2.88858E+01  2.88053E+01  2.74259E+01  2.57388E+01  2.34792E+01  2.44917E+01  2.36449E+01  2.20820E+01
   2.43479E+01  2.08733E+01  2.12547E+01  2.18943E+01  1.99268E+01  2.03953E+01  2.01012E+01  1.66867E+01  1.67158E+01  1.38548E+01
   1.64860E+01  1.25438E+01  1.27703E+01  1.41822E+01  1.17574E+01  1.32367E+01  8.25685E+00  1.09942E+01  1.04393E+01  9.72255E+00
   1.09878E+01  3.69279E+00  5.03540E+00  6.80223E+00  6.66807E+00  7.37578E+00  5.59087E+00  7.08203E+00  2.67296E+00  4.17324E-01
   2.58368E+00 -6.65360E-01 -2.01641E-01 -3.44759E-01 -2.26488E+00  6.30105E-01 -1.56908E+00 -8.14160E-01 -6.30764E-01  4.26266E-01
  -2.81467E+00 -5.82023E+00 -4.33733E+00 -7.19877E+00 -5.82358E+00 -5.76709E+00 -2.91505E+00 -6.04408E+00 -4.05894E+00 -4.53928E+00
  -4.50898E+00 -9.19096E+00 -7.72561E+00 -6.83072E+00 -9.31170E+00 -8.24423E+00 -8.02558E+00 -1.01075E+01 -1.02615E+01 -9.75682E+00
  -7.69440E+00 -1.14175E+01 -1.04587E+01 -1.28363E+01 -1.10754E+01 -1.11617E+01 -1.02100E+01 -1.32354E+01 -1.22976E+01 -1.06108E+01
  -1.16937E+01 -1.31758E+01 -1.14387E+01 -1.22722E+01 -1.43652E+01 -1.24261E+01 -1.37510E+01 -1.33514E+01 -1.39476E+01 -1.30661E+01
  -1.40945E+01 -1.48392E+01 -1.51328E+01 -1.28412E+01 -1.60930E+01 -1.45174E+01 -1.42404E+01 -1.59746E+01
 NY points of the fit to the data follow
  -5.19321E+00 -5.20590E+00 -5.33751E+00 -5.26786E+00 -5.37973E+00 -5.18308E+00 -5.17477E+00 -4.73402E+00 -4.92798E+00 -4.48463E+00
  -4.92973E+00 -4.50111E+00 -5.18429E+00 -4.79296E+00 -5.72605E+00 -5.01762E+00 -5.92805E+00 -5.01725E+00 -5.93281E+00 -4.87138E+00
  -5.78381E+00 -4.60381E+00 -5.59934E+00 -4.46102E+00 -5.48435E+00 -4.50064E+00 -5.56480E+00 -4.80245E+00 -5.82951E+00 -5.24149E+00
  -6.07309E+00 -5.61561E+00 -6.11813E+00 -5.74860E+00 -5.88941E+00 -5.65199E+00 -5.50566E+00 -5.45295E+00 -5.12291E+00 -5.32015E+00
  -4.94855E+00 -5.32622E+00 -4.91443E+00 -5.40024E+00 -4.99391E+00 -5.49878E+00 -5.05555E+00 -5.45720E+00 -5.12204E+00 -5.49751E+00
  -5.26023E+00 -5.55359E+00 -5.39055E+00 -5.63606E+00 -5.55484E+00 -5.62951E+00 -5.51790E+00 -5.52811E+00 -5.45142E+00 -5.44097E+00
  -5.39918E+00 -5.38104E+00 -5.39236E+00 -5.39467E+00 -5.41105E+00 -5.41380E+00 -5.42948E+00 -5.43069E+00 -5.44071E+00 -5.44011E+00
  -5.44753E+00 -5.44653E+00 -5.45118E+00 -5.45087E+00 -5.45183E+00 -5.45288E+00 -5.45183E+00 -5.45524E+00 -5.45252E+00 -5.45759E+00
  -5.45121E+00 -5.45499E+00 -5.44482E+00 -5.44326E+00 -5.41344E+00 -5.32755E+00 -5.23402E+00 -5.14956E+00 -5.02347E+00 -4.96170E+00
  -4.81082E+00 -4.77101E+00 -4.59487E+00 -4.57982E+00 -4.37998E+00 -4.40044E+00 -4.18307E+00 -4.23147E+00 -3.99321E+00 -4.05902E+00
  -3.79711E+00 -3.89378E+00 -3.61979E+00 -3.76331E+00 -3.49524E+00 -3.70385E+00 -3.46702E+00 -3.73832E+00 -3.54896E+00 -3.86292E+00
  -3.72990E+00 -4.05011E+00 -3.96672E+00 -4.26013E+00 -4.21412E+00 -4.45369E+00 -4.42964E+00 -4.60462E+00 -4.58956E+00 -4.70262E+00
  -4.68777E+00 -4.74354E+00 -4.72431E+00 -4.74169E+00 -4.71518E+00 -4.67381E+00 -4.62502E+00 -4.57767E+00 -4.52624E+00 -4.47779E+00
  -4.42605E+00 -4.37790E+00 -4.32685E+00 -4.27936E+00 -4.22910E+00 -4.18210E+00 -4.13254E+00 -4.08572E+00 -4.03677E+00 -3.98974E+00
  -3.94121E+00 -3.89425E+00 -3.84774E+00 -3.80429E+00 -3.75957E+00 -3.71896E+00 -3.67556E+00 -3.63682E+00 -3.59875E+00 -3.56523E+00
  -3.53475E+00 -3.50878E+00 -3.48747E+00 -3.47045E+00 -3.46049E+00 -3.45450E+00 -3.45801E+00 -3.46526E+00 -3.48452E+00 -3.50459E+00
  -3.53493E+00 -3.56633E+00 -3.60786E+00 -3.65205E+00 -3.70309E+00 -3.75606E+00 -3.81357E+00 -3.87302E+00 -3.93561E+00 -4.00257E+00
  -4.06477E+00 -4.13373E+00 -4.19228E+00 -4.26055E+00 -4.31251E+00 -4.37827E+00 -4.42008E+00 -4.48023E+00 -4.50835E+00 -4.55819E+00
  -4.57410E+00 -4.61250E+00 -4.61789E+00 -4.64436E+00 -4.63872E+00 -4.64707E+00 -4.62518E+00 -4.61143E+00 -4.57268E+00 -4.55390E+00
  -4.50797E+00 -4.48267E+00 -4.46070E+00 -4.42600E+00 -4.42249E+00 -4.36740E+00 -4.34730E+00 -4.23562E+00 -4.12225E+00 -4.00187E+00
  -3.86503E+00 -3.76806E+00 -3.63268E+00 -3.59648E+00 -3.52105E+00 -3.55683E+00 -3.46851E+00 -3.50453E+00 -3.40554E+00 -3.41808E+00
  -3.29369E+00 -3.27360E+00 -3.10328E+00 -3.06467E+00 -2.85192E+00 -2.80087E+00 -2.57107E+00 -2.52730E+00 -2.31902E+00 -2.28299E+00
  -2.11094E+00 -2.05260E+00 -1.92090E+00 -1.80807E+00 -1.67808E+00 -1.49497E+00 -1.31967E+00 -1.04460E+00 -8.12132E-01 -4.87672E-01
  -2.04608E-01  1.27882E-01  4.19715E-01  7.18529E-01  1.02059E+00  1.29152E+00  1.61790E+00  1.87332E+00  2.25384E+00  2.47181E+00
   2.85381E+00  3.06178E+00  3.55299E+00  3.79962E+00  4.29737E+00  4.56518E+00  5.07625E+00  5.38211E+00  5.86223E+00  6.21271E+00
   6.63225E+00  7.01578E+00  7.34183E+00  7.74192E+00  7.96606E+00  8.39047E+00  8.54199E+00  8.99684E+00  9.08115E+00  9.55486E+00
   9.57829E+00  1.00550E+01  1.00133E+01  1.04735E+01  1.03888E+01  1.08234E+01  1.07357E+01  1.11658E+01  1.11220E+01  1.15648E+01
   1.16157E+01  1.21000E+01  1.22820E+01  1.28293E+01  1.31729E+01  1.38126E+01  1.43292E+01  1.50693E+01  1.57557E+01  1.65956E+01
   1.74194E+01  1.83562E+01  1.93359E+01  2.03680E+01  2.14322E+01  2.25251E+01  2.36476E+01  2.47729E+01  2.59184E+01  2.70542E+01
   2.81949E+01  2.93156E+01  3.04287E+01  3.15158E+01  3.25875E+01  3.36373E+01  3.46741E+01  3.56981E+01  3.67203E+01  3.77500E+01
   3.88015E+01  3.98923E+01  4.10410E+01  4.22736E+01  4.36176E+01  4.51107E+01  4.68040E+01  4.87899E+01  5.12872E+01  5.43606E+01
   5.64356E+01  5.94962E+01  6.10856E+01  6.40505E+01  6.51283E+01  6.78198E+01  6.81203E+01  7.16457E+01  7.21001E+01  7.58296E+01
   7.61953E+01  7.97975E+01  7.98240E+01  8.31471E+01  8.25065E+01  8.51813E+01  8.36954E+01  8.52791E+01  8.28058E+01  8.31179E+01
   7.99832E+01  7.93594E+01  7.62709E+01  7.50613E+01  7.26377E+01  7.11947E+01  6.97391E+01  6.81139E+01  6.75419E+01  6.57161E+01
   6.56615E+01  6.35399E+01  6.35773E+01  6.12144E+01  6.11240E+01  5.86640E+01  5.82912E+01  5.59221E+01  5.55350E+01  5.36592E+01
   5.28492E+01  5.10399E+01  5.00572E+01  4.85202E+01  4.75348E+01  4.61415E+01  4.50985E+01  4.43147E+01  4.36677E+01  4.31035E+01
   4.25910E+01  4.21104E+01  4.16480E+01  4.11948E+01  4.07454E+01  4.02973E+01  3.98504E+01  3.94069E+01  3.89705E+01  3.85466E+01
   3.81412E+01  3.77609E+01  3.74123E+01  3.71015E+01  3.68337E+01  3.66127E+01  3.64404E+01  3.63169E+01  3.62396E+01  3.62038E+01
   3.62024E+01  3.62261E+01  3.62636E+01  3.63024E+01  3.63287E+01  3.63290E+01  3.62897E+01  3.61985E+01  3.60446E+01  3.58195E+01
   3.55174E+01  3.51354E+01  3.46734E+01  3.41347E+01  3.35249E+01  3.28525E+01  3.21275E+01  3.13614E+01  3.05663E+01  2.97548E+01
   2.89384E+01  2.81280E+01  2.73329E+01  2.65606E+01  2.58166E+01  2.51042E+01  2.44248E+01  2.37778E+01  2.31607E+01  2.25698E+01
   2.20000E+01  2.14455E+01  2.09001E+01  2.03574E+01  1.98111E+01  1.92553E+01  1.86850E+01  1.80959E+01  1.74843E+01  1.68481E+01
   1.61858E+01  1.54972E+01  1.47828E+01  1.40441E+01  1.32835E+01  1.25038E+01  1.17083E+01  1.09010E+01  1.00856E+01  9.26627E+00
   8.44701E+00  7.63175E+00  6.82408E+00  6.02743E+00  5.24478E+00  4.47884E+00  3.73182E+00  3.00565E+00  2.30175E+00  1.62128E+00
   9.64959E-01  3.33297E-01 -2.73604E-01 -8.55740E-01 -1.41347E+00 -1.94719E+00 -2.45756E+00 -2.94522E+00 -3.41104E+00 -3.85581E+00
  -4.28049E+00 -4.68593E+00 -5.07312E+00 -5.44292E+00 -5.79629E+00 -6.13405E+00 -6.45712E+00 -6.76624E+00 -7.06229E+00 -7.34591E+00
  -7.61791E+00 -7.87888E+00 -8.12953E+00 -8.37037E+00 -8.60206E+00 -8.82502E+00 -9.03985E+00 -9.24692E+00 -9.44674E+00 -9.63966E+00
  -9.82612E+00 -1.00064E+01 -1.01809E+01 -1.03499E+01 -1.05137E+01 -1.06726E+01 -1.08268E+01 -1.09766E+01 -1.11222E+01 -1.12638E+01
  -1.14016E+01 -1.15358E+01 -1.16666E+01 -1.17940E+01 -1.19184E+01 -1.20398E+01 -1.21584E+01 -1.22743E+01 -1.23876E+01 -1.24984E+01
  -1.26068E+01 -1.27130E+01 -1.28170E+01 -1.29188E+01 -1.30187E+01 -1.31165E+01 -1.32125E+01 -1.33066E+01
 NY background values follow
    -5.818E+00   -5.825E+00   -5.833E+00   -5.840E+00   -5.848E+00   -5.855E+00   -5.863E+00   -5.870E+00   -5.878E+00   -5.885E+00
    -5.893E+00   -5.900E+00   -5.908E+00   -5.915E+00   -5.923E+00   -5.931E+00   -5.938E+00   -5.946E+00   -5.954E+00   -5.962E+00
    -5.969E+00   -5.977E+00   -5.985E+00   -5.993E+00   -6.000E+00   -6.008E+00   -6.016E+00   -6.024E+00   -6.032E+00   -6.040E+00
    -6.048E+00   -6.056E+00   -6.064E+00   -6.072E+00   -6.080E+00   -6.088E+00   -6.097E+00   -6.105E+00   -6.113E+00   -6.121E+00
    -6.129E+00   -6.138E+00   -6.146E+00   -6.154E+00   -6.163E+00   -6.171E+00   -6.180E+00   -6.188E+00   -6.197E+00   -6.205E+00
    -6.214E+00   -6.223E+00   -6.231E+00   -6.240E+00   -6.249E+00   -6.257E+00   -6.266E+00   -6.275E+00   -6.284E+00   -6.293E+00
    -6.302E+00   -6.311E+00   -6.320E+00   -6.329E+00   -6.338E+00   -6.347E+00   -6.356E+00   -6.365E+00   -6.375E+00   -6.384E+00
    -6.393E+00   -6.403E+00   -6.412E+00   -6.422E+00   -6.431E+00   -6.441E+00   -6.450E+00   -6.460E+00   -6.470E+00   -6.479E+00
    -6.489E+00   -6.499E+00   -6.509E+00   -6.519E+00   -6.529E+00   -6.539E+00   -6.549E+00   -6.559E+00   -6.569E+00   -6.579E+00
    -6.589E+00   -6.600E+00   -6.610E+00   -6.621E+00   -6.631E+00   -6.641E+00   -6.652E+00   -6.663E+00   -6.673E+00   -6.684E+00
    -6.695E+00   -6.706E+00   -6.716E+00   -6.727E+00   -6.738E+00   -6.749E+00   -6.760E+00   -6.772E+00   -6.783E+00   -6.794E+00
    -6.805E+00   -6.817E+00   -6.828E+00   -6.840E+00   -6.851E+00   -6.863E+00   -6.874E+00   -6.886E+00   -6.898E+00   -6.910E+00
    -6.922E+00   -6.934E+00   -6.946E+00   -6.958E+00   -6.970E+00   -6.982E+00   -6.994E+00   -7.007E+00   -7.019E+00   -7.031E+00
    -7.044E+00   -7.057E+00   -7.069E+00   -7.082E+00   -7.095E+00   -7.108E+00   -7.121E+00   -7.133E+00   -7.147E+00   -7.160E+00
    -7.173E+00   -7.186E+00   -7.199E+00   -7.213E+00   -7.226E+00   -7.240E+00   -7.253E+00   -7.267E+00   -7.281E+00   -7.295E+00
    -7.309E+00   -7.323E+00   -7.337E+00   -7.351E+00   -7.365E+00   -7.379E+00   -7.393E+00   -7.408E+00   -7.422E+00   -7.437E+00
    -7.451E+00   -7.466E+00   -7.481E+00   -7.496E+00   -7.511E+00   -7.526E+00   -7.541E+00   -7.556E+00   -7.571E+00   -7.587E+00
    -7.602E+00   -7.618E+00   -7.633E+00   -7.649E+00   -7.664E+00   -7.680E+00   -7.696E+00   -7.712E+00   -7.728E+00   -7.744E+00
    -7.760E+00   -7.777E+00   -7.793E+00   -7.809E+00   -7.826E+00   -7.843E+00   -7.859E+00   -7.876E+00   -7.893E+00   -7.910E+00
    -7.927E+00   -7.944E+00   -7.961E+00   -7.978E+00   -7.995E+00   -8.013E+00   -8.030E+00   -8.048E+00   -8.065E+00   -8.083E+00
    -8.101E+00   -8.118E+00   -8.136E+00   -8.154E+00   -8.172E+00   -8.191E+00   -8.209E+00   -8.227E+00   -8.245E+00   -8.264E+00
    -8.282E+00   -8.301E+00   -8.320E+00   -8.338E+00   -8.357E+00   -8.376E+00   -8.395E+00   -8.414E+00   -8.434E+00   -8.453E+00
    -8.472E+00   -8.491E+00   -8.511E+00   -8.530E+00   -8.550E+00   -8.570E+00   -8.590E+00   -8.609E+00   -8.629E+00   -8.649E+00
    -8.670E+00   -8.690E+00   -8.710E+00   -8.730E+00   -8.751E+00   -8.771E+00   -8.792E+00   -8.812E+00   -8.833E+00   -8.854E+00
    -8.875E+00   -8.896E+00   -8.917E+00   -8.938E+00   -8.959E+00   -8.980E+00   -9.002E+00   -9.023E+00   -9.045E+00   -9.066E+00
    -9.088E+00   -9.110E+00   -9.131E+00   -9.153E+00   -9.175E+00   -9.197E+00   -9.219E+00   -9.242E+00   -9.264E+00   -9.286E+00
    -9.309E+00   -9.331E+00   -9.354E+00   -9.376E+00   -9.399E+00   -9.422E+00   -9.445E+00   -9.468E+00   -9.491E+00   -9.514E+00
    -9.537E+00   -9.561E+00   -9.584E+00   -9.607E+00   -9.631E+00   -9.655E+00   -9.678E+00   -9.702E+00   -9.726E+00   -9.750E+00
    -9.774E+00   -9.798E+00   -9.822E+00   -9.846E+00   -9.870E+00   -9.895E+00   -9.919E+00   -9.944E+00   -9.968E+00   -9.993E+00
    -1.002E+01   -1.004E+01   -1.007E+01   -1.009E+01   -1.012E+01   -1.014E+01   -1.017E+01   -1.019E+01   -1.022E+01   -1.024E+01
    -1.027E+01   -1.030E+01   -1.032E+01   -1.035E+01   -1.037E+01   -1.040E+01   -1.042E+01   -1.045E+01   -1.048E+01   -1.050E+01
    -1.053E+01   -1.056E+01   -1.058E+01   -1.061E+01   -1.064E+01   -1.066E+01   -1.069E+01   -1.072E+01   -1.074E+01   -1.077E+01
    -1.080E+01   -1.082E+01   -1.085E+01   -1.088E+01   -1.091E+01   -1.093E+01   -1.096E+01   -1.099E+01   -1.102E+01   -1.104E+01
    -1.107E+01   -1.110E+01   -1.113E+01   -1.116E+01   -1.118E+01   -1.121E+01   -1.124E+01   -1.127E+01   -1.130E+01   -1.133E+01
    -1.136E+01   -1.138E+01   -1.141E+01   -1.144E+01   -1.147E+01   -1.150E+01   -1.153E+01   -1.156E+01   -1.159E+01   -1.162E+01
    -1.165E+01   -1.168E+01   -1.170E+01   -1.173E+01   -1.176E+01   -1.179E+01   -1.182E+01   -1.185E+01   -1.188E+01   -1.191E+01
    -1.194E+01   -1.197E+01   -1.200E+01   -1.203E+01   -1.206E+01   -1.209E+01   -1.213E+01   -1.216E+01   -1.219E+01   -1.222E+01
    -1.225E+01   -1.228E+01   -1.231E+01   -1.234E+01   -1.237E+01   -1.240E+01   -1.243E+01   -1.246E+01   -1.250E+01   -1.253E+01
    -1.256E+01   -1.259E+01   -1.262E+01   -1.265E+01   -1.268E+01   -1.272E+01   -1.275E+01   -1.278E+01   -1.281E+01   -1.284E+01
    -1.288E+01   -1.291E+01   -1.294E+01   -1.297E+01   -1.300E+01   -1.304E+01   -1.307E+01   -1.310E+01   -1.313E+01   -1.317E+01
    -1.320E+01   -1.323E+01   -1.326E+01   -1.330E+01   -1.333E+01   -1.336E+01   -1.339E+01   -1.343E+01   -1.346E+01   -1.349E+01
    -1.353E+01   -1.356E+01   -1.359E+01   -1.363E+01   -1.366E+01   -1.369E+01   -1.373E+01   -1.376E+01   -1.379E+01   -1.383E+01
    -1.386E+01   -1.389E+01   -1.393E+01   -1.396E+01   -1.399E+01   -1.403E+01   -1.406E+01   -1.410E+01   -1.413E+01   -1.416E+01
    -1.420E+01   -1.423E+01   -1.426E+01   -1.430E+01   -1.433E+01   -1.437E+01   -1.440E+01   -1.444E+01   -1.447E+01   -1.450E+01
    -1.454E+01   -1.457E+01   -1.461E+01   -1.464E+01   -1.468E+01   -1.471E+01   -1.475E+01   -1.478E+01   -1.482E+01   -1.485E+01
    -1.489E+01   -1.492E+01   -1.495E+01   -1.499E+01   -1.502E+01   -1.506E+01   -1.509E+01   -1.513E+01   -1.516E+01   -1.520E+01
    -1.524E+01   -1.527E+01   -1.531E+01   -1.534E+01   -1.538E+01   -1.541E+01   -1.545E+01   -1.548E+01   -1.552E+01   -1.555E+01
    -1.559E+01   -1.562E+01   -1.566E+01   -1.569E+01   -1.573E+01   -1.577E+01   -1.580E+01   -1.584E+01   -1.587E+01   -1.591E+01
    -1.594E+01   -1.598E+01   -1.602E+01   -1.605E+01   -1.609E+01   -1.612E+01   -1.616E+01   -1.620E+01   -1.623E+01   -1.627E+01
    -1.630E+01   -1.634E+01   -1.638E+01   -1.641E+01   -1.645E+01   -1.648E+01   -1.652E+01   -1.656E+01
 Ala      Conc. = 4.29E+03
