 LCModel (Version 6.3-1L) Copyright: S.W. Provencher.          Ref.: Magn. Reson. Med. 30:672-679 (1993).                
 Slice#3 Row#2 Col#7  PD_05_press_1_raw_act
 36 lines in following concentration table = NCONC+1
    Conc.  %SD /Cr+PCr  Metabolite                                         
    0.000 999%   0.000 Ala                                                 
    0.000 999%   0.000 Asp                                                 
    0.000 999%   0.000 Cr                                                  
  286.107  14%   1.000 PCr                                                 
    8.957 559% 3.1E-02 GABA                                                
   34.241 147%   0.120 Glc                                                 
    0.000 999%   0.000 Gln                                                 
    0.000 999%   0.000 Glu                                                 
   73.811 178%   0.258 GPC                                                 
    4.158 999% 1.5E-02 PCh                                                 
  106.995  46%   0.374 GSH                                                 
  442.059  39%   1.545 Ins                                                 
    0.000 999%   0.000 Lac                                                 
  159.227  46%   0.557 NAA                                                 
  298.667  24%   1.044 NAAG                                                
   20.236  64% 7.1E-02 Scyllo                                              
   88.587  89%   0.310 Tau                                                 
  334.616  20%   1.170 -CrCH2                                              
   77.969  18%   0.273 GPC+PCh                                             
  457.894  12%   1.600 NAA+NAAG                                            
  286.107  14%   1.000 Cr+PCr                                              
    0.000 999%   0.000 Glu+Gln                                             
    0.000 999%   0.000 Lip13a                                              
    0.000 999%   0.000 Lip13b                                              
 1.94E-03 999% 6.8E-06 Lip09                                               
  862.463  12%   3.014 MM09                                                
 6.98E-03 999% 2.4E-05 Lip20                                               
 1.90E+03  12%   6.639 MM20                                                
    0.000 999%   0.000 MM12                                                
    0.000 999%   0.000 MM14                                                
  627.635  22%   2.194 MM17                                                
    0.000 999%   0.000 Lip13a+Lip13b                                       
    0.000 999%   0.000 MM14+Lip13a+Lip13b+MM12                             
  862.465  12%   3.014 MM09+Lip09                                          
 1.90E+03  12%   6.640 MM20+Lip20                                          
   6 lines in following misc. output table
  FWHM = 0.054 ppm    S/N =   4                                            
  Data shift =-0.023 ppm                                                   
  Ph: 111 deg      41.1 deg/ppm                                            
  alphaB,S = 4.5E-01,   5.1E+01                                            
   14 spline knots.   Ns =10(1)                                            
  (14) 3 infls.   (17) 1 extrs.                                            
  498 points on ppm-axis = NY
      4.000000     3.992357     3.984714     3.977070     3.969427     3.961784     3.954141     3.946497     3.938854     3.931211
      3.923568     3.915925     3.908281     3.900638     3.892995     3.885352     3.877708     3.870065     3.862422     3.854779
      3.847136     3.839492     3.831849     3.824206     3.816563     3.808919     3.801276     3.793633     3.785990     3.778347
      3.770703     3.763060     3.755417     3.747774     3.740130     3.732487     3.724844     3.717201     3.709558     3.701914
      3.694271     3.686628     3.678985     3.671341     3.663698     3.656055     3.648412     3.640769     3.633125     3.625482
      3.617839     3.610196     3.602552     3.594909     3.587266     3.579623     3.571980     3.564336     3.556693     3.549050
      3.541407     3.533763     3.526120     3.518477     3.510834     3.503191     3.495547     3.487904     3.480261     3.472618
      3.464974     3.457331     3.449688     3.442045     3.434402     3.426758     3.419115     3.411472     3.403829     3.396185
      3.388542     3.380899     3.373256     3.365613     3.357969     3.350326     3.342683     3.335040     3.327396     3.319753
      3.312110     3.304467     3.296824     3.289180     3.281537     3.273894     3.266251     3.258607     3.250964     3.243321
      3.235678     3.228034     3.220391     3.212748     3.205105     3.197462     3.189818     3.182175     3.174532     3.166889
      3.159245     3.151602     3.143959     3.136316     3.128673     3.121029     3.113386     3.105743     3.098100     3.090456
      3.082813     3.075170     3.067527     3.059884     3.052240     3.044597     3.036954     3.029311     3.021667     3.014024
      3.006381     2.998738     2.991095     2.983451     2.975808     2.968165     2.960522     2.952878     2.945235     2.937592
      2.929949     2.922306     2.914662     2.907019     2.899376     2.891733     2.884089     2.876446     2.868803     2.861160
      2.853517     2.845873     2.838230     2.830587     2.822944     2.815300     2.807657     2.800014     2.792371     2.784728
      2.777084     2.769441     2.761798     2.754155     2.746511     2.738868     2.731225     2.723582     2.715939     2.708295
      2.700652     2.693009     2.685366     2.677722     2.670079     2.662436     2.654793     2.647150     2.639506     2.631863
      2.624220     2.616577     2.608933     2.601290     2.593647     2.586004     2.578361     2.570717     2.563074     2.555431
      2.547788     2.540144     2.532501     2.524858     2.517215     2.509572     2.501928     2.494285     2.486642     2.478999
      2.471355     2.463712     2.456069     2.448426     2.440783     2.433139     2.425496     2.417853     2.410210     2.402566
      2.394923     2.387280     2.379637     2.371994     2.364350     2.356707     2.349064     2.341421     2.333777     2.326134
      2.318491     2.310848     2.303205     2.295561     2.287918     2.280275     2.272632     2.264988     2.257345     2.249702
      2.242059     2.234416     2.226772     2.219129     2.211486     2.203843     2.196199     2.188556     2.180913     2.173270
      2.165627     2.157983     2.150340     2.142697     2.135054     2.127410     2.119767     2.112124     2.104481     2.096838
      2.089194     2.081551     2.073908     2.066265     2.058621     2.050978     2.043335     2.035692     2.028049     2.020405
      2.012762     2.005119     1.997476     1.989833     1.982190     1.974546     1.966903     1.959260     1.951617     1.943974
      1.936331     1.928688     1.921045     1.913402     1.905759     1.898115     1.890472     1.882829     1.875186     1.867543
      1.859900     1.852257     1.844614     1.836971     1.829327     1.821684     1.814041     1.806398     1.798755     1.791112
      1.783469     1.775826     1.768183     1.760540     1.752896     1.745253     1.737610     1.729967     1.722324     1.714681
      1.707038     1.699395     1.691752     1.684108     1.676465     1.668822     1.661179     1.653536     1.645893     1.638250
      1.630607     1.622964     1.615321     1.607677     1.600034     1.592391     1.584748     1.577105     1.569462     1.561819
      1.554176     1.546533     1.538890     1.531246     1.523603     1.515960     1.508317     1.500674     1.493031     1.485388
      1.477745     1.470102     1.462458     1.454815     1.447172     1.439529     1.431886     1.424243     1.416600     1.408957
      1.401314     1.393671     1.386027     1.378384     1.370741     1.363098     1.355455     1.347812     1.340169     1.332526
      1.324883     1.317240     1.309596     1.301953     1.294310     1.286667     1.279024     1.271381     1.263738     1.256095
      1.248452     1.240808     1.233165     1.225522     1.217879     1.210236     1.202593     1.194950     1.187307     1.179664
      1.172021     1.164377     1.156734     1.149091     1.141448     1.133805     1.126162     1.118519     1.110876     1.103233
      1.095590     1.087946     1.080303     1.072660     1.065017     1.057374     1.049731     1.042088     1.034445     1.026802
      1.019158     1.011515     1.003872     0.996229     0.988586     0.980943     0.973300     0.965657     0.958014     0.950371
      0.942727     0.935084     0.927441     0.919798     0.912155     0.904512     0.896869     0.889226     0.881583     0.873940
      0.866296     0.858653     0.851010     0.843367     0.835724     0.828081     0.820438     0.812795     0.805152     0.797508
      0.789865     0.782222     0.774579     0.766936     0.759293     0.751650     0.744007     0.736364     0.728721     0.721077
      0.713434     0.705791     0.698148     0.690505     0.682862     0.675219     0.667576     0.659933     0.652290     0.644646
      0.637003     0.629360     0.621717     0.614074     0.606431     0.598788     0.591145     0.583502     0.575858     0.568215
      0.560572     0.552929     0.545286     0.537643     0.530000     0.522357     0.514714     0.507071     0.499427     0.491784
      0.484141     0.476498     0.468855     0.461212     0.453569     0.445925     0.438282     0.430639     0.422996     0.415353
      0.407710     0.400067     0.392424     0.384780     0.377137     0.369494     0.361851     0.354208     0.346565     0.338922
      0.331278     0.323635     0.315992     0.308349     0.300706     0.293063     0.285420     0.277777     0.270133     0.262490
      0.254847     0.247204     0.239561     0.231918     0.224275     0.216631     0.208988     0.201345
 NY phased data points follow
  -4.04014E+00 -4.70326E+00 -5.94212E+00 -3.63921E+00 -3.13936E+00 -3.84271E+00 -2.25738E+00 -6.20785E+00 -1.83563E+00 -2.23065E+00
  -1.55640E+00  5.05715E-01 -1.59915E+00 -9.13794E-01 -2.37005E+00 -1.04108E+00 -2.87539E+00 -2.63162E+00  2.53787E-01 -1.14846E+00
  -1.28183E+00 -2.32705E+00  3.26411E-01 -1.97523E+00 -1.40477E-01  1.06668E+00 -1.86665E+00 -2.31192E-02  1.72007E-01  1.36261E+00
   2.28823E+00  1.39282E-03  2.76978E-01  1.44402E+00  1.30243E+00  2.11848E-01 -5.44090E-01 -1.07011E+00 -3.26814E+00  1.66976E+00
   1.52850E+00  1.46148E-01  3.34413E+00  1.57610E+00  1.79130E+00  2.09815E+00  1.28936E+00  7.59337E-01  2.39832E+00  2.64039E+00
   1.06831E+00  6.55806E+00  2.27951E+00  4.20984E+00  1.12394E+00  2.57924E+00  3.10053E+00 -1.97570E+00 -1.34626E+00 -1.39063E+00
   2.72609E+00  3.48723E-01  2.16146E+00  1.10909E+00  9.09882E-01  7.33644E-01  2.71196E+00  3.34313E+00  7.71758E-01  1.12208E+00
  -5.58515E-01  3.35784E+00  2.39878E+00 -2.02629E-01  7.64094E-01  2.73242E+00  1.05709E+00  1.99591E+00 -1.95431E+00  4.18819E+00
   2.30744E+00  1.12054E+00  4.19638E+00 -5.57106E-02  2.12131E+00  1.06278E+00  1.81064E+00 -9.36215E-01  9.84333E-01  2.26606E+00
  -1.74914E-01  1.06298E+00  2.51253E+00 -7.83187E-01  1.08000E+00  3.43069E+00 -1.69639E+00  3.39832E+00  5.62221E-02  2.07643E+00
   2.60209E+00  1.11030E+00  9.67315E-01  4.69406E+00  3.11940E+00  9.82288E+00  4.76544E+00  8.53454E+00  7.30118E+00  6.65292E+00
   3.09459E+00  3.23804E+00  1.52176E+00 -1.89132E+00  2.03225E+00  2.96144E+00 -9.08757E-01  3.18617E+00  2.30715E+00  2.76868E+00
   3.29850E+00  4.38262E+00  4.77536E+00  4.24269E+00  8.46248E+00  6.66514E+00  5.55700E+00  6.91220E+00  8.65959E+00  9.87389E+00
   1.00692E+01  1.09741E+01  6.65290E+00  7.39937E+00  6.46562E+00  4.69430E+00  6.79108E+00  2.75508E+00  1.85906E+00  2.99616E+00
   2.41455E+00  5.19153E+00  5.04932E+00  3.11308E+00  2.80894E+00  3.60545E+00  1.67752E+00  3.42061E+00  2.38753E+00  2.12960E+00
   1.83224E+00  5.09031E+00  2.19454E+00  2.59134E+00  4.17255E+00 -3.52283E-01 -9.48857E-01  1.86342E+00 -8.97274E-01  3.16794E+00
   1.11235E+00  3.25346E+00  2.22064E+00 -4.69196E-01 -7.74322E-01  2.04500E+00 -9.60885E-01  2.80560E+00  2.17365E+00 -1.38778E+00
  -1.27121E+00  1.18208E+00  1.47552E+00  8.80190E-01 -6.41659E-03 -3.45099E+00  1.04513E-01 -4.22192E+00 -4.39824E+00 -2.51097E+00
  -8.11974E-01 -3.61162E+00 -1.76984E+00 -5.04155E+00  8.55378E-01 -2.04302E+00 -1.60586E+00  9.00635E-01 -3.20235E-01 -3.69738E+00
   2.57150E+00  8.78366E-01  4.83406E-01 -2.64241E+00  8.07821E-01  2.65198E+00  3.28167E-01 -2.37653E-01 -9.59217E-01 -4.27156E-01
   8.86282E-01 -2.99396E+00 -4.37344E-01 -4.77750E-01 -8.88022E-01  1.90050E+00 -4.22394E-01  2.00996E+00 -1.86428E+00 -3.02991E-01
   1.35677E+00  2.45895E+00  2.10185E+00  4.28894E-01  6.05288E-02  1.63602E+00 -4.54921E-01  1.27600E+00  7.93930E-01  2.39587E+00
   8.01908E-01  1.01401E+00 -5.71889E-01  2.31266E+00  2.49221E+00  1.97814E+00  3.43671E+00  7.36524E-01  3.51012E+00  3.14213E+00
   7.32682E-01  3.40068E+00  2.03878E+00  2.18869E+00  2.42934E+00  7.22398E-01  2.11808E+00  3.10919E+00  2.49436E+00  1.40203E+00
   2.09255E+00  5.95391E+00  2.45058E+00  3.64141E+00  4.82789E+00  3.75172E+00  3.03080E+00  3.47778E+00  4.19240E+00  4.85384E+00
   4.90078E+00  6.40382E+00  5.42193E+00  8.70193E+00  8.52361E+00  1.12043E+01  9.93882E+00  1.19465E+01  1.63246E+01  1.56312E+01
   1.64389E+01  1.64280E+01  1.50089E+01  1.12727E+01  9.01132E+00  7.02493E+00  7.42897E+00  2.97489E+00  8.31243E-01  1.48829E+00
   1.57358E+00  1.96481E+00  3.89922E+00  4.71365E+00  2.14957E+00  2.52730E+00  1.90857E+00  1.38318E+00  1.66656E+00  2.65297E-01
  -1.08252E+00  4.26333E-01 -1.87776E+00 -1.63807E+00 -3.09168E-01 -3.83963E-01 -2.40777E+00 -1.57821E+00 -2.45976E-02 -1.21593E+00
  -2.32951E+00 -7.21307E-01 -2.33606E+00  3.75957E-01  2.00721E+00  2.41144E+00 -6.00875E-01 -1.94127E+00 -7.22209E-02 -7.61713E-01
  -2.98895E+00  6.45858E-01  2.27059E+00 -8.96991E-01  4.16253E-01  2.61062E+00  3.59733E-01  7.92542E-01  1.03662E+00  4.50224E+00
   3.01891E+00 -6.07663E-01  2.13112E+00 -1.41477E+00 -8.65614E-01  1.17601E+00  6.87523E-02  5.97416E-01  3.08226E-01 -9.34038E-01
   1.51106E+00  9.02245E-02 -2.13959E+00  9.69763E-01  1.02683E+00 -8.07136E-01 -4.98972E+00 -1.53262E+00  1.41915E-01  2.16864E+00
  -2.79173E+00 -2.83945E+00 -1.92126E+00 -5.12571E+00 -1.76821E+00 -4.50381E+00 -5.03022E+00 -1.72933E+00 -3.40007E+00 -5.36997E+00
  -3.56729E+00 -5.04385E+00 -3.96277E+00 -6.29770E+00 -2.51360E+00 -5.14573E+00 -4.36331E+00 -9.08640E+00 -8.58988E+00 -7.98557E+00
  -8.54720E+00 -6.78291E+00 -6.01983E+00 -6.42648E+00 -7.25072E+00 -9.30515E+00 -6.41623E+00 -9.81614E+00 -7.06460E+00 -5.83545E+00
  -1.05348E+01 -8.68651E+00 -6.92857E+00 -6.86138E+00 -6.46613E+00 -6.02557E+00 -6.30132E+00 -4.40224E+00 -3.88810E-01 -3.69070E+00
  -4.45539E+00 -3.77771E+00 -4.73871E+00 -3.30666E+00 -3.05829E+00 -3.94214E+00 -5.10283E+00 -2.94057E+00 -3.21837E+00 -1.17087E+00
   8.28790E-01  1.51553E+00 -1.36148E+00 -1.05570E+00  3.43965E-01  2.66351E+00  4.68350E+00  5.02902E+00  3.23165E+00  2.03510E+00
   1.12768E+00  4.72075E-01  1.80670E+00  2.22963E+00 -1.71538E+00  4.13222E+00  1.81879E+00  3.55376E+00  2.26120E+00  3.79573E+00
   4.06284E+00  1.13120E+00  1.53817E+00  3.80071E+00  2.34529E+00  5.69598E+00  3.24475E+00  1.41834E+00  3.92090E+00  5.06088E+00
   8.32749E-01  3.19661E+00  2.61913E-01  2.21175E+00  1.54442E+00 -1.35328E-01 -1.48542E+00 -1.62488E+00 -6.57429E-01 -1.12625E+00
  -2.00248E+00 -3.30466E+00 -6.80335E-01  8.03599E-01 -8.19684E-01 -1.95843E+00  1.79852E+00 -1.01020E+00 -5.22920E-01 -1.57897E+00
  -3.49808E+00 -1.61405E+00 -5.11991E+00 -1.46362E+00 -1.46516E+00 -1.31508E+00 -1.88746E+00 -2.97138E+00 -1.97846E+00 -1.62515E+00
  -1.48510E+00 -1.33542E+00 -3.65889E+00 -1.14047E+00 -2.24516E+00 -4.12434E+00  1.63654E-01  3.51535E-01  5.80034E-01 -1.20449E-01
   1.45776E+00 -1.10272E+00 -1.87061E+00  1.30078E+00 -2.22758E+00  6.99899E-01 -3.46895E+00 -1.64115E+00 -1.63890E+00  6.55151E-01
  -2.02762E-01 -2.05383E+00  1.20896E+00 -1.30142E+00 -4.43388E-01  4.89260E-01  5.92610E-01  2.76216E-01 -1.92915E+00 -6.24589E-01
   6.46978E-01 -1.42864E+00 -1.63859E+00 -1.41124E+00 -1.79752E+00  1.99335E-01  7.63011E-02  1.27622E+00  8.95821E-01 -4.27926E-01
   5.71948E-03  1.74907E+00  3.42446E-01  1.63986E+00  3.85698E-01 -7.21127E-01  9.09865E-01  2.33386E+00  3.20133E+00 -2.86296E+00
  -2.15077E-02 -1.12593E+00  1.40593E+00  1.65440E+00 -5.80053E-01  4.42239E-02  3.12117E-01 -8.09511E-01
 NY points of the fit to the data follow
  -1.21700E-01 -5.37791E-01 -9.05298E-01 -1.16840E+00 -1.33732E+00 -1.46808E+00 -1.55757E+00 -1.63694E+00 -1.76090E+00 -1.91748E+00
  -2.01775E+00 -1.97796E+00 -1.80298E+00 -1.51948E+00 -1.18249E+00 -8.94866E-01 -7.36541E-01 -7.07021E-01 -7.49326E-01 -8.42974E-01
  -9.08742E-01 -8.63085E-01 -7.46608E-01 -5.85790E-01 -4.32167E-01 -3.12967E-01 -2.10411E-01 -9.23233E-02  7.60695E-02  3.59419E-01
   7.82704E-01  1.28819E+00  1.71856E+00  1.93486E+00  1.88004E+00  1.57253E+00  1.09925E+00  6.06868E-01  2.67153E-01  1.73412E-01
   2.86588E-01  4.77072E-01  5.92128E-01  6.20534E-01  6.34142E-01  7.04790E-01  8.88837E-01  1.23143E+00  1.71160E+00  2.18814E+00
   2.48414E+00  2.50154E+00  2.22364E+00  1.71837E+00  1.12028E+00  5.95449E-01  2.63870E-01  1.64446E-01  2.65809E-01  4.76773E-01
   7.24186E-01  9.69926E-01  1.17233E+00  1.29770E+00  1.31664E+00  1.22023E+00  1.04358E+00  8.65166E-01  7.56457E-01  7.54378E-01
   8.55268E-01  1.01192E+00  1.17545E+00  1.31767E+00  1.41750E+00  1.47745E+00  1.50324E+00  1.51417E+00  1.51145E+00  1.46792E+00
   1.36915E+00  1.21711E+00  1.05491E+00  9.40771E-01  8.93407E-01  9.12841E-01  9.82718E-01  1.06169E+00  1.07720E+00  9.84632E-01
   8.03418E-01  5.79063E-01  3.61567E-01  1.80761E-01  1.56662E-01  4.31349E-01  9.28915E-01  1.49389E+00  1.97418E+00  2.35087E+00
   2.71128E+00  3.11307E+00  3.63073E+00  4.37183E+00  5.34140E+00  6.32258E+00  6.97559E+00  7.07253E+00  6.52691E+00  5.43571E+00
   4.09012E+00  2.84799E+00  1.95317E+00  1.46263E+00  1.31925E+00  1.32016E+00  1.28529E+00  1.22648E+00  1.36355E+00  1.78987E+00
   2.39392E+00  3.02326E+00  3.58179E+00  4.10700E+00  4.67976E+00  5.37032E+00  6.28370E+00  7.48605E+00  8.84646E+00  9.96443E+00
   1.04545E+01  1.01316E+01  9.01268E+00  7.36044E+00  5.60762E+00  4.14943E+00  3.13697E+00  2.55479E+00  2.28027E+00  2.05924E+00
   1.87130E+00  1.78702E+00  1.80998E+00  1.89814E+00  1.98974E+00  2.02420E+00  1.96231E+00  1.81898E+00  1.63250E+00  1.44426E+00
   1.29046E+00  1.17448E+00  1.07755E+00  9.79563E-01  8.64482E-01  7.36778E-01  6.15407E-01  5.19843E-01  4.59869E-01  4.35143E-01
   4.29989E-01  4.09138E-01  3.42295E-01  2.33721E-01  1.07054E-01 -1.08244E-02 -1.03189E-01 -1.77581E-01 -2.52756E-01 -3.36608E-01
  -4.28231E-01 -5.18694E-01 -5.89351E-01 -6.22448E-01 -6.31182E-01 -6.34640E-01 -6.52877E-01 -6.99736E-01 -7.68100E-01 -8.37715E-01
  -8.85995E-01 -8.98205E-01 -8.72853E-01 -8.17424E-01 -7.43570E-01 -6.54892E-01 -5.54328E-01 -4.40261E-01 -3.06598E-01 -1.68885E-01
  -3.70694E-02  9.85678E-02  2.40500E-01  3.63068E-01  4.19476E-01  3.81375E-01  2.44497E-01  3.47066E-02 -1.96626E-01 -3.77066E-01
  -4.50736E-01 -4.07664E-01 -2.78395E-01 -1.09233E-01  4.36928E-02  1.34745E-01  1.50777E-01  1.06413E-01  2.53839E-02 -7.00246E-02
  -1.55469E-01 -2.17563E-01 -2.51652E-01 -2.53530E-01 -2.20602E-01 -1.54854E-01 -6.60033E-02  3.69783E-02  1.50245E-01  2.68761E-01
   3.85534E-01  5.04018E-01  6.14434E-01  7.04104E-01  7.77488E-01  8.46808E-01  9.27418E-01  1.02806E+00  1.15014E+00  1.28648E+00
   1.41556E+00  1.51747E+00  1.59278E+00  1.66421E+00  1.76527E+00  1.92686E+00  2.17120E+00  2.49402E+00  2.84493E+00  3.14610E+00
   3.33953E+00  3.41433E+00  3.39973E+00  3.36540E+00  3.39308E+00  3.52541E+00  3.74126E+00  4.17563E+00  4.92708E+00  5.83728E+00
   6.67310E+00  7.36113E+00  8.02739E+00  8.75548E+00  9.56228E+00  1.05075E+01  1.17064E+01  1.31447E+01  1.44926E+01  1.53494E+01
   1.55202E+01  1.49505E+01  1.36743E+01  1.18924E+01  9.94186E+00  8.05129E+00  6.33959E+00  4.91842E+00  3.74312E+00  2.80670E+00
   2.16760E+00  1.78921E+00  1.52838E+00  1.27532E+00  1.04128E+00  8.27670E-01  6.22736E-01  4.12763E-01  1.87766E-01 -4.82440E-02
  -2.79216E-01 -4.88822E-01 -6.65741E-01 -8.00968E-01 -8.95185E-01 -9.57433E-01 -1.00060E+00 -1.03623E+00 -1.07065E+00 -1.10025E+00
  -1.12047E+00 -1.12503E+00 -1.10389E+00 -1.04705E+00 -9.49936E-01 -8.16571E-01 -6.56851E-01 -4.79093E-01 -2.93433E-01 -1.07016E-01
   7.80713E-02  2.62993E-01  4.49097E-01  6.36201E-01  8.17981E-01  9.85591E-01  1.12927E+00  1.23933E+00  1.30825E+00  1.33169E+00
   1.30796E+00  1.23912E+00  1.12797E+00  9.77561E-01  7.92259E-01  5.77345E-01  3.38724E-01  8.28859E-02 -1.83684E-01 -4.54564E-01
  -7.23926E-01 -9.86545E-01 -1.23823E+00 -1.47562E+00 -1.69646E+00 -1.89926E+00 -2.08340E+00 -2.24880E+00 -2.39609E+00 -2.52617E+00
  -2.64037E+00 -2.74009E+00 -2.82690E+00 -2.90224E+00 -2.96763E+00 -3.02433E+00 -3.07363E+00 -3.11652E+00 -3.15397E+00 -3.18672E+00
  -3.21547E+00 -3.24071E+00 -3.26293E+00 -3.28243E+00 -3.29954E+00 -3.31444E+00 -3.32735E+00 -3.33835E+00 -3.34761E+00 -3.35513E+00
  -3.36101E+00 -3.36523E+00 -3.36785E+00 -3.36882E+00 -3.36816E+00 -3.36579E+00 -3.36170E+00 -3.35579E+00 -3.34800E+00 -3.33819E+00
  -3.32627E+00 -3.31204E+00 -3.29536E+00 -3.27597E+00 -3.25366E+00 -3.22808E+00 -3.19890E+00 -3.16564E+00 -3.12783E+00 -3.08480E+00
  -3.03587E+00 -2.98012E+00 -2.91660E+00 -2.84410E+00 -2.76135E+00 -2.66682E+00 -2.55890E+00 -2.43576E+00 -2.29557E+00 -2.13635E+00
  -1.95626E+00 -1.75350E+00 -1.52662E+00 -1.27447E+00 -9.96570E-01 -6.93087E-01 -3.65160E-01 -1.48780E-02  3.54444E-01  7.38371E-01
   1.13119E+00  1.52614E+00  1.91545E+00  2.29071E+00  2.64306E+00  2.96369E+00  3.24413E+00  3.47682E+00  3.65535E+00  3.77496E+00
   3.83270E+00  3.82766E+00  3.76093E+00  3.63568E+00  3.45677E+00  3.23069E+00  2.96498E+00  2.66801E+00  2.34840E+00  2.01479E+00
   1.67531E+00  1.33744E+00  1.00761E+00  6.91248E-01  3.92536E-01  1.14581E-01 -1.40669E-01 -3.72170E-01 -5.79785E-01 -7.63988E-01
  -9.25839E-01 -1.06670E+00 -1.18824E+00 -1.29217E+00 -1.38032E+00 -1.45439E+00 -1.51607E+00 -1.56685E+00 -1.60814E+00 -1.64114E+00
  -1.66698E+00 -1.68657E+00 -1.70076E+00 -1.71022E+00 -1.71558E+00 -1.71734E+00 -1.71595E+00 -1.71177E+00 -1.70515E+00 -1.69632E+00
  -1.68555E+00 -1.67302E+00 -1.65893E+00 -1.64340E+00 -1.62660E+00 -1.60861E+00 -1.58957E+00 -1.56954E+00 -1.54863E+00 -1.52688E+00
  -1.50439E+00 -1.48117E+00 -1.45733E+00 -1.43287E+00 -1.40786E+00 -1.38232E+00 -1.35630E+00 -1.32981E+00 -1.30291E+00 -1.27559E+00
  -1.24791E+00 -1.21985E+00 -1.19148E+00 -1.16278E+00 -1.13379E+00 -1.10451E+00 -1.07498E+00 -1.04518E+00 -1.01516E+00 -9.84903E-01
  -9.54448E-01 -9.23777E-01 -8.92930E-01 -8.61889E-01 -8.30691E-01 -7.99320E-01 -7.67811E-01 -7.36144E-01 -7.04354E-01 -6.72422E-01
  -6.40384E-01 -6.08219E-01 -5.75960E-01 -5.43586E-01 -5.11131E-01 -4.78575E-01 -4.45950E-01 -4.13235E-01 -3.80461E-01 -3.47607E-01
  -3.14704E-01 -2.81732E-01 -2.48721E-01 -2.15650E-01 -1.82546E-01 -1.49391E-01 -1.16211E-01 -8.29882E-02
 NY background values follow
    -1.607E+00   -1.583E+00   -1.559E+00   -1.535E+00   -1.511E+00   -1.487E+00   -1.463E+00   -1.439E+00   -1.415E+00   -1.391E+00
    -1.367E+00   -1.343E+00   -1.319E+00   -1.295E+00   -1.272E+00   -1.248E+00   -1.224E+00   -1.200E+00   -1.176E+00   -1.153E+00
    -1.129E+00   -1.106E+00   -1.082E+00   -1.059E+00   -1.035E+00   -1.012E+00   -9.890E-01   -9.659E-01   -9.429E-01   -9.200E-01
    -8.971E-01   -8.744E-01   -8.518E-01   -8.293E-01   -8.069E-01   -7.846E-01   -7.624E-01   -7.404E-01   -7.185E-01   -6.967E-01
    -6.751E-01   -6.535E-01   -6.322E-01   -6.110E-01   -5.899E-01   -5.690E-01   -5.483E-01   -5.277E-01   -5.073E-01   -4.871E-01
    -4.670E-01   -4.471E-01   -4.274E-01   -4.078E-01   -3.885E-01   -3.693E-01   -3.503E-01   -3.316E-01   -3.130E-01   -2.946E-01
    -2.764E-01   -2.584E-01   -2.406E-01   -2.230E-01   -2.056E-01   -1.885E-01   -1.715E-01   -1.548E-01   -1.383E-01   -1.220E-01
    -1.059E-01   -9.011E-02   -7.451E-02   -5.916E-02   -4.403E-02   -2.915E-02   -1.451E-02   -1.218E-04    1.402E-02    2.791E-02
     4.155E-02    5.493E-02    6.805E-02    8.091E-02    9.351E-02    1.058E-01    1.179E-01    1.297E-01    1.412E-01    1.524E-01
     1.633E-01    1.740E-01    1.844E-01    1.945E-01    2.043E-01    2.138E-01    2.230E-01    2.319E-01    2.405E-01    2.488E-01
     2.568E-01    2.645E-01    2.719E-01    2.790E-01    2.858E-01    2.923E-01    2.984E-01    3.043E-01    3.098E-01    3.150E-01
     3.199E-01    3.245E-01    3.287E-01    3.326E-01    3.362E-01    3.394E-01    3.424E-01    3.450E-01    3.472E-01    3.491E-01
     3.507E-01    3.519E-01    3.528E-01    3.533E-01    3.535E-01    3.533E-01    3.528E-01    3.520E-01    3.507E-01    3.492E-01
     3.472E-01    3.449E-01    3.423E-01    3.392E-01    3.358E-01    3.321E-01    3.279E-01    3.234E-01    3.185E-01    3.133E-01
     3.077E-01    3.017E-01    2.954E-01    2.887E-01    2.817E-01    2.743E-01    2.666E-01    2.585E-01    2.501E-01    2.413E-01
     2.322E-01    2.228E-01    2.130E-01    2.029E-01    1.925E-01    1.817E-01    1.707E-01    1.593E-01    1.476E-01    1.355E-01
     1.232E-01    1.106E-01    9.762E-02    8.436E-02    7.081E-02    5.695E-02    4.280E-02    2.836E-02    1.362E-02   -1.402E-03
    -1.671E-02   -3.231E-02   -4.818E-02   -6.433E-02   -8.076E-02   -9.746E-02   -1.144E-01   -1.317E-01   -1.492E-01   -1.670E-01
    -1.850E-01   -2.033E-01   -2.218E-01   -2.406E-01   -2.596E-01   -2.789E-01   -2.985E-01   -3.182E-01   -3.382E-01   -3.585E-01
    -3.790E-01   -3.997E-01   -4.206E-01   -4.417E-01   -4.631E-01   -4.847E-01   -5.064E-01   -5.284E-01   -5.506E-01   -5.730E-01
    -5.956E-01   -6.184E-01   -6.414E-01   -6.646E-01   -6.880E-01   -7.115E-01   -7.353E-01   -7.592E-01   -7.833E-01   -8.075E-01
    -8.319E-01   -8.565E-01   -8.813E-01   -9.062E-01   -9.313E-01   -9.565E-01   -9.819E-01   -1.007E+00   -1.033E+00   -1.059E+00
    -1.085E+00   -1.111E+00   -1.137E+00   -1.163E+00   -1.190E+00   -1.216E+00   -1.243E+00   -1.270E+00   -1.297E+00   -1.324E+00
    -1.351E+00   -1.378E+00   -1.406E+00   -1.433E+00   -1.460E+00   -1.488E+00   -1.516E+00   -1.543E+00   -1.571E+00   -1.599E+00
    -1.627E+00   -1.655E+00   -1.683E+00   -1.711E+00   -1.739E+00   -1.767E+00   -1.795E+00   -1.823E+00   -1.851E+00   -1.879E+00
    -1.907E+00   -1.935E+00   -1.964E+00   -1.992E+00   -2.020E+00   -2.048E+00   -2.076E+00   -2.104E+00   -2.132E+00   -2.160E+00
    -2.188E+00   -2.215E+00   -2.243E+00   -2.271E+00   -2.299E+00   -2.326E+00   -2.354E+00   -2.381E+00   -2.409E+00   -2.436E+00
    -2.463E+00   -2.490E+00   -2.517E+00   -2.544E+00   -2.571E+00   -2.597E+00   -2.624E+00   -2.650E+00   -2.676E+00   -2.702E+00
    -2.728E+00   -2.754E+00   -2.780E+00   -2.805E+00   -2.831E+00   -2.856E+00   -2.881E+00   -2.905E+00   -2.930E+00   -2.954E+00
    -2.978E+00   -3.002E+00   -3.026E+00   -3.050E+00   -3.073E+00   -3.096E+00   -3.119E+00   -3.141E+00   -3.164E+00   -3.186E+00
    -3.207E+00   -3.229E+00   -3.250E+00   -3.271E+00   -3.292E+00   -3.312E+00   -3.333E+00   -3.352E+00   -3.372E+00   -3.391E+00
    -3.410E+00   -3.428E+00   -3.447E+00   -3.465E+00   -3.482E+00   -3.499E+00   -3.516E+00   -3.533E+00   -3.549E+00   -3.565E+00
    -3.580E+00   -3.595E+00   -3.610E+00   -3.624E+00   -3.638E+00   -3.651E+00   -3.665E+00   -3.677E+00   -3.689E+00   -3.701E+00
    -3.713E+00   -3.724E+00   -3.734E+00   -3.744E+00   -3.754E+00   -3.763E+00   -3.772E+00   -3.781E+00   -3.788E+00   -3.796E+00
    -3.803E+00   -3.809E+00   -3.815E+00   -3.821E+00   -3.826E+00   -3.830E+00   -3.834E+00   -3.838E+00   -3.841E+00   -3.843E+00
    -3.845E+00   -3.847E+00   -3.848E+00   -3.848E+00   -3.848E+00   -3.847E+00   -3.846E+00   -3.844E+00   -3.842E+00   -3.839E+00
    -3.835E+00   -3.831E+00   -3.826E+00   -3.821E+00   -3.815E+00   -3.809E+00   -3.802E+00   -3.794E+00   -3.786E+00   -3.778E+00
    -3.769E+00   -3.759E+00   -3.749E+00   -3.738E+00   -3.727E+00   -3.715E+00   -3.703E+00   -3.690E+00   -3.677E+00   -3.663E+00
    -3.649E+00   -3.634E+00   -3.619E+00   -3.604E+00   -3.588E+00   -3.571E+00   -3.555E+00   -3.537E+00   -3.519E+00   -3.501E+00
    -3.483E+00   -3.464E+00   -3.444E+00   -3.425E+00   -3.405E+00   -3.384E+00   -3.363E+00   -3.342E+00   -3.320E+00   -3.298E+00
    -3.276E+00   -3.253E+00   -3.230E+00   -3.207E+00   -3.183E+00   -3.159E+00   -3.135E+00   -3.110E+00   -3.086E+00   -3.060E+00
    -3.035E+00   -3.009E+00   -2.983E+00   -2.957E+00   -2.930E+00   -2.903E+00   -2.876E+00   -2.849E+00   -2.821E+00   -2.793E+00
    -2.765E+00   -2.737E+00   -2.708E+00   -2.679E+00   -2.650E+00   -2.621E+00   -2.591E+00   -2.561E+00   -2.532E+00   -2.501E+00
    -2.471E+00   -2.440E+00   -2.410E+00   -2.379E+00   -2.348E+00   -2.316E+00   -2.285E+00   -2.253E+00   -2.222E+00   -2.190E+00
    -2.158E+00   -2.125E+00   -2.093E+00   -2.060E+00   -2.028E+00   -1.995E+00   -1.962E+00   -1.929E+00   -1.896E+00   -1.863E+00
    -1.829E+00   -1.796E+00   -1.762E+00   -1.729E+00   -1.695E+00   -1.661E+00   -1.627E+00   -1.593E+00   -1.559E+00   -1.525E+00
    -1.490E+00   -1.456E+00   -1.422E+00   -1.387E+00   -1.353E+00   -1.318E+00   -1.283E+00   -1.249E+00   -1.214E+00   -1.179E+00
    -1.144E+00   -1.109E+00   -1.074E+00   -1.039E+00   -1.004E+00   -9.693E-01   -9.342E-01   -8.990E-01   -8.639E-01   -8.287E-01
    -7.934E-01   -7.582E-01   -7.229E-01   -6.877E-01   -6.524E-01   -6.171E-01   -5.818E-01   -5.465E-01   -5.112E-01   -4.759E-01
    -4.406E-01   -4.053E-01   -3.700E-01   -3.347E-01   -2.994E-01   -2.642E-01   -2.289E-01   -1.937E-01
 PCr      Conc. = 2.86E+02
