 LCModel (Version 6.3-1L) Copyright: S.W. Provencher.          Ref.: Magn. Reson. Med. 30:672-679 (1993).                
 Slice#3 Row#4 Col#7  PD_05_press_1_raw_act
 36 lines in following concentration table = NCONC+1
    Conc.  %SD /Cr+PCr  Metabolite                                         
  557.479  39%   0.288 Ala                                                 
    0.000 999%   0.000 Asp                                                 
 1.01E+03  33%   0.524 Cr                                                  
  921.913  36%   0.476 PCr                                                 
  153.133 153% 7.9E-02 GABA                                                
    0.000 999%   0.000 Glc                                                 
 2.04E+03  20%   1.052 Gln                                                 
 2.86E+03  17%   1.480 Glu                                                 
  576.072   5%   0.298 GPC                                                 
    0.000 999%   0.000 PCh                                                 
 1.01E+03  11%   0.523 GSH                                                 
 2.68E+03  14%   1.387 Ins                                                 
  973.555  24%   0.503 Lac                                                 
 2.25E+03   4%   1.161 NAA                                                 
    0.000 999%   0.000 NAAG                                                
   75.794  46% 3.9E-02 Scyllo                                              
    0.000 999%   0.000 Tau                                                 
    0.000 999%   0.000 -CrCH2                                              
  576.072   5%   0.298 GPC+PCh                                             
 2.25E+03   4%   1.161 NAA+NAAG                                            
 1.94E+03   4%   1.000 Cr+PCr                                              
 4.90E+03  15%   2.531 Glu+Gln                                             
 3.90E+03  20%   2.014 Lip13a                                              
    0.000 999%   0.000 Lip13b                                              
    0.000 999%   0.000-Lip09                                               
 1.61E+03  16%   0.832 MM09                                                
  574.318  46%   0.297 Lip20                                               
 1.83E+03  25%   0.947 MM20                                                
  523.015  34%   0.270 MM12                                                
 9.10E+03   3%   4.702+MM14                                                
  683.509  45%   0.353 MM17                                                
 3.90E+03  20%   2.014 Lip13a+Lip13b                                       
 1.35E+04   5%   6.986 MM14+Lip13a+Lip13b+MM12                             
 1.61E+03  16%   0.832 MM09+Lip09                                          
 2.41E+03  18%   1.244 MM20+Lip20                                          
   6 lines in following misc. output table
  FWHM = 0.061 ppm    S/N =  11                                            
  Data shift =-0.031 ppm                                                   
  Ph:  11 deg      -6.2 deg/ppm                                            
  alphaB,S = 2.0E+00,   3.3E+02                                            
   14 spline knots.   Ns =10(1)                                            
  ( 9) 4 infls.   ( 7) 1 extrs.                                            
  498 points on ppm-axis = NY
      4.000000     3.992357     3.984714     3.977070     3.969427     3.961784     3.954141     3.946497     3.938854     3.931211
      3.923568     3.915925     3.908281     3.900638     3.892995     3.885352     3.877708     3.870065     3.862422     3.854779
      3.847136     3.839492     3.831849     3.824206     3.816563     3.808919     3.801276     3.793633     3.785990     3.778347
      3.770703     3.763060     3.755417     3.747774     3.740130     3.732487     3.724844     3.717201     3.709558     3.701914
      3.694271     3.686628     3.678985     3.671341     3.663698     3.656055     3.648412     3.640769     3.633125     3.625482
      3.617839     3.610196     3.602552     3.594909     3.587266     3.579623     3.571980     3.564336     3.556693     3.549050
      3.541407     3.533763     3.526120     3.518477     3.510834     3.503191     3.495547     3.487904     3.480261     3.472618
      3.464974     3.457331     3.449688     3.442045     3.434402     3.426758     3.419115     3.411472     3.403829     3.396185
      3.388542     3.380899     3.373256     3.365613     3.357969     3.350326     3.342683     3.335040     3.327396     3.319753
      3.312110     3.304467     3.296824     3.289180     3.281537     3.273894     3.266251     3.258607     3.250964     3.243321
      3.235678     3.228034     3.220391     3.212748     3.205105     3.197462     3.189818     3.182175     3.174532     3.166889
      3.159245     3.151602     3.143959     3.136316     3.128673     3.121029     3.113386     3.105743     3.098100     3.090456
      3.082813     3.075170     3.067527     3.059884     3.052240     3.044597     3.036954     3.029311     3.021667     3.014024
      3.006381     2.998738     2.991095     2.983451     2.975808     2.968165     2.960522     2.952878     2.945235     2.937592
      2.929949     2.922306     2.914662     2.907019     2.899376     2.891733     2.884089     2.876446     2.868803     2.861160
      2.853517     2.845873     2.838230     2.830587     2.822944     2.815300     2.807657     2.800014     2.792371     2.784728
      2.777084     2.769441     2.761798     2.754155     2.746511     2.738868     2.731225     2.723582     2.715939     2.708295
      2.700652     2.693009     2.685366     2.677722     2.670079     2.662436     2.654793     2.647150     2.639506     2.631863
      2.624220     2.616577     2.608933     2.601290     2.593647     2.586004     2.578361     2.570717     2.563074     2.555431
      2.547788     2.540144     2.532501     2.524858     2.517215     2.509572     2.501928     2.494285     2.486642     2.478999
      2.471355     2.463712     2.456069     2.448426     2.440783     2.433139     2.425496     2.417853     2.410210     2.402566
      2.394923     2.387280     2.379637     2.371994     2.364350     2.356707     2.349064     2.341421     2.333777     2.326134
      2.318491     2.310848     2.303205     2.295561     2.287918     2.280275     2.272632     2.264988     2.257345     2.249702
      2.242059     2.234416     2.226772     2.219129     2.211486     2.203843     2.196199     2.188556     2.180913     2.173270
      2.165627     2.157983     2.150340     2.142697     2.135054     2.127410     2.119767     2.112124     2.104481     2.096838
      2.089194     2.081551     2.073908     2.066265     2.058621     2.050978     2.043335     2.035692     2.028049     2.020405
      2.012762     2.005119     1.997476     1.989833     1.982190     1.974546     1.966903     1.959260     1.951617     1.943974
      1.936331     1.928688     1.921045     1.913402     1.905759     1.898115     1.890472     1.882829     1.875186     1.867543
      1.859900     1.852257     1.844614     1.836971     1.829327     1.821684     1.814041     1.806398     1.798755     1.791112
      1.783469     1.775826     1.768183     1.760540     1.752896     1.745253     1.737610     1.729967     1.722324     1.714681
      1.707038     1.699395     1.691752     1.684108     1.676465     1.668822     1.661179     1.653536     1.645893     1.638250
      1.630607     1.622964     1.615321     1.607677     1.600034     1.592391     1.584748     1.577105     1.569462     1.561819
      1.554176     1.546533     1.538890     1.531246     1.523603     1.515960     1.508317     1.500674     1.493031     1.485388
      1.477745     1.470102     1.462458     1.454815     1.447172     1.439529     1.431886     1.424243     1.416600     1.408957
      1.401314     1.393671     1.386027     1.378384     1.370741     1.363098     1.355455     1.347812     1.340169     1.332526
      1.324883     1.317240     1.309596     1.301953     1.294310     1.286667     1.279024     1.271381     1.263738     1.256095
      1.248452     1.240808     1.233165     1.225522     1.217879     1.210236     1.202593     1.194950     1.187307     1.179664
      1.172021     1.164377     1.156734     1.149091     1.141448     1.133805     1.126162     1.118519     1.110876     1.103233
      1.095590     1.087946     1.080303     1.072660     1.065017     1.057374     1.049731     1.042088     1.034445     1.026802
      1.019158     1.011515     1.003872     0.996229     0.988586     0.980943     0.973300     0.965657     0.958014     0.950371
      0.942727     0.935084     0.927441     0.919798     0.912155     0.904512     0.896869     0.889226     0.881583     0.873940
      0.866296     0.858653     0.851010     0.843367     0.835724     0.828081     0.820438     0.812795     0.805152     0.797508
      0.789865     0.782222     0.774579     0.766936     0.759293     0.751650     0.744007     0.736364     0.728721     0.721077
      0.713434     0.705791     0.698148     0.690505     0.682862     0.675219     0.667576     0.659933     0.652290     0.644646
      0.637003     0.629360     0.621717     0.614074     0.606431     0.598788     0.591145     0.583502     0.575858     0.568215
      0.560572     0.552929     0.545286     0.537643     0.530000     0.522357     0.514714     0.507071     0.499427     0.491784
      0.484141     0.476498     0.468855     0.461212     0.453569     0.445925     0.438282     0.430639     0.422996     0.415353
      0.407710     0.400067     0.392424     0.384780     0.377137     0.369494     0.361851     0.354208     0.346565     0.338922
      0.331278     0.323635     0.315992     0.308349     0.300706     0.293063     0.285420     0.277777     0.270133     0.262490
      0.254847     0.247204     0.239561     0.231918     0.224275     0.216631     0.208988     0.201345
 NY phased data points follow
   2.15362E+01  2.35493E+01  2.54489E+01  2.77569E+01  2.80419E+01  3.16476E+01  3.68388E+01  4.01256E+01  5.09290E+01  6.06539E+01
   5.45323E+01  5.63936E+01  5.41267E+01  5.15658E+01  4.40959E+01  4.47433E+01  3.67011E+01  3.34149E+01  3.33839E+01  3.53594E+01
   2.90685E+01  3.22554E+01  3.05697E+01  3.30451E+01  2.91958E+01  3.07300E+01  3.49501E+01  3.59051E+01  2.97460E+01  3.83478E+01
   3.98077E+01  3.91874E+01  3.86239E+01  3.24247E+01  3.01199E+01  3.08485E+01  2.65081E+01  2.91012E+01  3.06618E+01  2.99013E+01
   2.53862E+01  3.07550E+01  2.75843E+01  2.97207E+01  3.23925E+01  3.48818E+01  3.09914E+01  3.57920E+01  3.45503E+01  2.88671E+01
   2.74557E+01  2.65837E+01  2.44934E+01  2.70671E+01  2.44951E+01  2.42627E+01  2.82897E+01  2.51594E+01  2.49956E+01  2.39031E+01
   2.21901E+01  1.94036E+01  1.89275E+01  1.80116E+01  1.45202E+01  1.36654E+01  1.52572E+01  1.40602E+01  9.86088E+00  1.27731E+01
   1.24781E+01  1.28687E+01  1.28337E+01  1.43021E+01  1.01675E+01  1.67863E+01  1.39841E+01  1.47158E+01  1.44103E+01  1.09086E+01
   1.06020E+01  1.13107E+01  1.21682E+01  1.36709E+01  9.79236E+00  1.26378E+01  1.17864E+01  1.19130E+01  1.22409E+01  1.39663E+01
   1.24611E+01  1.37001E+01  1.05476E+01  1.24589E+01  1.03224E+01  1.41200E+01  1.56266E+01  1.69272E+01  1.60778E+01  1.89015E+01
   3.28786E+01  4.39807E+01  5.13210E+01  5.23951E+01  4.67506E+01  4.40221E+01  4.06047E+01  3.78057E+01  2.85199E+01  2.74825E+01
   2.49908E+01  2.22132E+01  1.93498E+01  2.04100E+01  1.42576E+01  1.23873E+01  8.19996E+00  1.51103E+01  1.24210E+01  1.67799E+01
   1.68783E+01  1.81489E+01  1.74318E+01  2.64519E+01  3.96399E+01  5.44606E+01  5.68711E+01  6.01782E+01  5.94882E+01  5.38949E+01
   4.55817E+01  3.70791E+01  3.20462E+01  3.32117E+01  2.93880E+01  2.22280E+01  2.05446E+01  1.64540E+01  1.57357E+01  1.28953E+01
   1.06990E+01  1.29503E+01  9.02204E+00  6.52352E+00  1.06735E+01  9.13008E+00  1.26810E+01  9.35779E+00  1.23331E+01  7.74085E+00
   9.33059E+00  7.99916E+00  8.71677E+00  4.25591E+00  1.08619E+01  7.95522E+00  8.56661E+00  1.22393E+01  9.96418E+00  7.08438E+00
   6.81178E+00 -3.19918E-01  6.72026E+00  3.82462E+00  7.25301E+00  3.85934E+00  8.70278E+00  6.77170E+00  8.21432E+00  6.32422E+00
   4.61757E+00  3.68768E+00  2.50260E+00  1.63164E-01 -3.31892E+00 -3.88788E+00 -1.56729E+00 -2.09657E+00 -1.19608E+00 -3.21676E+00
  -2.28730E+00 -1.54497E+00 -2.44572E+00 -2.86976E+00 -5.00978E+00 -5.70595E+00 -2.41664E+00 -4.21413E+00  1.11110E+00  5.74824E+00
   2.46563E+00  5.25743E+00  6.46336E+00  1.03069E+01  8.28587E+00  6.89804E+00  8.74966E+00  4.23880E+00  4.47902E+00  1.14859E+01
   7.05963E+00  7.04163E+00  9.99879E+00  9.98596E+00  1.05970E+01  6.37539E+00  7.69567E+00  3.41191E+00  4.59342E+00  2.51507E+00
   6.63107E-01  5.97711E+00  1.02717E+01  1.56994E+01  1.28302E+01  1.66893E+01  1.64029E+01  1.61883E+01  1.05986E+01  9.75427E+00
   4.08925E+00  2.03133E+00  6.51277E+00  7.45156E+00  8.02851E+00  1.36904E+01  1.37425E+01  1.13856E+01  8.23742E+00  1.06712E+01
   9.44613E+00  9.95111E+00  1.01617E+01  1.31139E+01  1.18794E+01  1.28995E+01  1.25487E+01  1.17654E+01  1.18409E+01  1.20092E+01
   8.98555E+00  9.92791E+00  8.63783E+00  1.02745E+01  1.23948E+01  1.22613E+01  1.12201E+01  1.42135E+01  1.21856E+01  1.16121E+01
   1.60094E+01  1.33415E+01  1.85579E+01  1.88910E+01  1.73223E+01  1.88145E+01  2.88743E+01  4.33249E+01  6.27078E+01  7.46513E+01
   7.52576E+01  7.27696E+01  6.56112E+01  5.59345E+01  4.77724E+01  3.94440E+01  3.59757E+01  3.25135E+01  2.97250E+01  1.99847E+01
   2.31224E+01  1.89052E+01  1.15717E+01  1.48721E+01  1.28010E+01  1.19866E+01  1.32035E+01  1.14025E+01  1.22350E+01  4.03373E+00
   8.20926E+00  1.11502E+01  9.34597E+00  8.80251E+00  1.02118E+01  6.47249E+00  6.95635E+00  8.77962E+00  8.34697E+00  1.01775E+01
   4.08751E+00  9.13736E+00  8.43042E+00  6.77157E+00  6.99306E+00  7.45637E+00  5.01620E+00  8.07654E+00  6.28912E+00  9.65450E+00
   5.70318E+00  1.10264E+01  1.02019E+01  9.54653E+00  1.09749E+01  6.92899E+00  9.19999E+00  1.24935E+01  1.29951E+01  1.38923E+01
   1.39151E+01  1.48416E+01  1.33334E+01  1.68420E+01  1.81605E+01  1.54815E+01  1.69843E+01  2.28988E+01  1.62713E+01  2.34930E+01
   2.17886E+01  2.38562E+01  2.69446E+01  2.51708E+01  2.74995E+01  3.39715E+01  4.09458E+01  4.20230E+01  4.61010E+01  4.99689E+01
   5.21985E+01  6.17948E+01  6.92913E+01  7.29025E+01  8.03028E+01  8.44345E+01  8.94704E+01  9.30462E+01  9.31753E+01  9.61175E+01
   9.04802E+01  9.06165E+01  8.74438E+01  8.44294E+01  7.65936E+01  7.34454E+01  6.96151E+01  6.34034E+01  5.51554E+01  4.76937E+01
   4.68877E+01  4.25585E+01  3.93928E+01  3.78705E+01  3.48376E+01  3.19262E+01  3.26688E+01  2.77655E+01  2.31577E+01  2.53539E+01
   2.06126E+01  2.09663E+01  1.98144E+01  2.08346E+01  1.80958E+01  1.99142E+01  1.73527E+01  1.62854E+01  1.47475E+01  1.59394E+01
   1.44449E+01  1.33018E+01  1.87044E+01  1.47432E+01  1.44875E+01  1.22654E+01  1.13197E+01  9.69442E+00  1.03880E+01  9.74904E+00
   1.21334E+01  8.57758E+00  1.07078E+01  8.02377E+00  8.09256E+00  5.08251E+00  7.28815E+00  1.10766E+01  9.17616E+00  9.93824E+00
   7.52087E+00  9.91558E+00  1.00273E+01  6.27810E+00  1.16030E+01  9.86725E+00  6.52197E+00  9.59053E+00  8.12329E+00  9.28066E+00
   8.20085E+00  1.02010E+01  1.22062E+01  7.52520E+00  1.17797E+01  1.04719E+01  9.14526E+00  1.38287E+01  1.04607E+01  1.58039E+01
   1.04244E+01  1.18961E+01  1.18710E+01  1.25690E+01  1.19402E+01  1.03501E+01  1.19399E+01  8.39679E+00  1.19005E+01  1.24553E+01
   7.58967E+00  5.76354E+00  7.51028E+00  5.66404E+00  7.82004E+00  4.55324E+00  4.46573E+00  5.78409E+00  8.40661E+00  3.81019E+00
   3.55211E+00  5.57265E+00  5.70914E+00  2.16211E+00  4.28919E+00  3.69623E+00  7.74755E+00  2.95669E+00  4.54052E+00  5.80595E+00
   5.29916E+00  3.47466E+00  3.24555E+00  6.08044E+00  4.66827E+00  2.77287E+00  6.78034E+00  5.25828E+00  1.65325E+00  3.81776E+00
   2.36275E+00  5.43773E+00  3.92263E+00  3.44977E+00  3.60242E+00  2.95062E+00  7.48210E+00  1.54796E+00  2.29122E+00  3.26547E+00
   3.33131E+00  2.57352E+00  2.87518E+00  1.34499E+00  5.15578E+00  3.63344E+00  4.02060E+00  3.29209E+00  5.07244E+00  1.77154E+00
   3.26419E+00  5.60059E+00  4.73441E+00  3.09421E+00  7.15288E+00  5.17814E+00  4.63871E+00  7.89975E-01  4.06257E+00  2.26151E+00
   1.03547E+00  4.19951E-01  4.32521E+00  2.79642E+00  2.12241E+00 -6.29779E-01  1.30463E+00  5.29818E+00  3.23453E+00  5.30724E+00
   3.83157E+00 -5.36885E-01  5.21920E+00  3.46619E+00  2.07612E+00  4.14423E+00  3.46500E+00  5.77370E+00
 NY points of the fit to the data follow
   2.51182E+01  2.51556E+01  2.55874E+01  2.63508E+01  2.79107E+01  3.08621E+01  3.55031E+01  4.14805E+01  4.75202E+01  5.20441E+01
   5.40678E+01  5.35145E+01  5.10054E+01  4.74765E+01  4.38650E+01  4.08069E+01  3.84283E+01  3.65293E+01  3.47583E+01  3.30190E+01
   3.12106E+01  2.91532E+01  2.73179E+01  2.62392E+01  2.64796E+01  2.79732E+01  3.04812E+01  3.35590E+01  3.66095E+01  3.90389E+01
   4.03926E+01  4.03419E+01  3.88086E+01  3.61271E+01  3.29196E+01  2.98023E+01  2.73785E+01  2.60451E+01  2.55182E+01  2.51930E+01
   2.48841E+01  2.53213E+01  2.68648E+01  2.90180E+01  3.12710E+01  3.28533E+01  3.31876E+01  3.22177E+01  3.02903E+01  2.80106E+01
   2.58017E+01  2.39868E+01  2.28043E+01  2.21855E+01  2.18929E+01  2.18138E+01  2.17974E+01  2.15821E+01  2.11584E+01  2.07331E+01
   2.01935E+01  1.93954E+01  1.84999E+01  1.78061E+01  1.74529E+01  1.74419E+01  1.76960E+01  1.80964E+01  1.84683E+01  1.86039E+01
   1.84722E+01  1.81956E+01  1.78621E+01  1.75511E+01  1.72650E+01  1.69903E+01  1.67112E+01  1.64083E+01  1.60172E+01  1.55516E+01
   1.50619E+01  1.45735E+01  1.40474E+01  1.34802E+01  1.28231E+01  1.20707E+01  1.13482E+01  1.07808E+01  1.04682E+01  1.04597E+01
   1.07267E+01  1.11388E+01  1.15261E+01  1.19826E+01  1.30618E+01  1.42942E+01  1.51655E+01  1.63132E+01  1.92571E+01  2.51733E+01
   3.35455E+01  4.22346E+01  4.86791E+01  5.13883E+01  5.03161E+01  4.63972E+01  4.10264E+01  3.56361E+01  3.12453E+01  2.80609E+01
   2.56207E+01  2.33317E+01  2.08171E+01  1.78134E+01  1.43377E+01  1.13474E+01  1.02225E+01  1.06445E+01  1.23545E+01  1.44063E+01
   1.63198E+01  1.89540E+01  2.39052E+01  3.20591E+01  4.23328E+01  5.20126E+01  5.85325E+01  6.08091E+01  5.91662E+01  5.46878E+01
   4.86596E+01  4.23188E+01  3.65482E+01  3.16683E+01  2.75181E+01  2.38970E+01  2.06750E+01  1.75630E+01  1.44924E+01  1.23858E+01
   1.19051E+01  1.17330E+01  1.13345E+01  1.08027E+01  1.03618E+01  1.01666E+01  1.01112E+01  1.00123E+01  9.78926E+00  9.39502E+00
   8.87393E+00  8.34850E+00  7.87118E+00  7.56395E+00  7.41232E+00  7.33544E+00  7.23063E+00  6.96013E+00  6.51559E+00  6.04623E+00
   5.74204E+00  5.67684E+00  5.77216E+00  5.87418E+00  5.84600E+00  5.62667E+00  5.22435E+00  4.69710E+00  4.18636E+00  3.78420E+00
   3.44902E+00  3.07532E+00  2.58457E+00  2.03014E+00  1.51235E+00  1.14818E+00  9.32046E-01  8.03797E-01  6.99823E-01  6.03987E-01
   5.53821E-01  5.22145E-01  4.81520E-01  4.97506E-01  7.50314E-01  1.44705E+00  2.59605E+00  3.97999E+00  5.28376E+00  6.13058E+00
   6.31773E+00  5.85179E+00  4.90812E+00  3.81162E+00  3.00928E+00  2.99035E+00  3.85706E+00  5.41282E+00  7.33786E+00  9.23172E+00
   1.06816E+01  1.17170E+01  1.23057E+01  1.21117E+01  1.07967E+01  8.42534E+00  5.63301E+00  3.20078E+00  1.58642E+00  1.17058E+00
   2.27900E+00  4.81899E+00  8.13901E+00  1.12790E+01  1.34104E+01  1.40649E+01  1.31408E+01  1.08732E+01  7.74339E+00  4.64317E+00
   2.57649E+00  2.00187E+00  2.65979E+00  4.34396E+00  6.54016E+00  8.37603E+00  9.23527E+00  9.32027E+00  9.25633E+00  9.38022E+00
   9.73673E+00  1.04488E+01  1.15141E+01  1.26875E+01  1.36370E+01  1.41698E+01  1.43334E+01  1.40986E+01  1.32931E+01  1.20068E+01
   1.06180E+01  9.56303E+00  9.05613E+00  9.04170E+00  9.42222E+00  1.00711E+01  1.07363E+01  1.11646E+01  1.13516E+01  1.16919E+01
   1.26632E+01  1.52463E+01  1.86289E+01  2.14411E+01  2.39251E+01  2.78941E+01  3.54368E+01  4.66603E+01  5.88674E+01  6.83162E+01
   7.26712E+01  7.16067E+01  6.61913E+01  5.82773E+01  4.99300E+01  4.27731E+01  3.73933E+01  3.32696E+01  2.95549E+01  2.57144E+01
   2.13317E+01  1.62636E+01  1.17249E+01  9.85218E+00  9.50914E+00  9.31870E+00  9.12437E+00  8.89100E+00  8.59611E+00  8.32164E+00
   8.11054E+00  7.96443E+00  7.86862E+00  7.80072E+00  7.72618E+00  7.64600E+00  7.58649E+00  7.55788E+00  7.56132E+00  7.59832E+00
   7.66733E+00  7.76800E+00  7.89545E+00  8.03865E+00  8.19943E+00  8.37832E+00  8.57239E+00  8.78222E+00  9.00922E+00  9.25033E+00
   9.49974E+00  9.75337E+00  1.00092E+01  1.02638E+01  1.05147E+01  1.07621E+01  1.10066E+01  1.12527E+01  1.15086E+01  1.17860E+01
   1.21001E+01  1.24700E+01  1.29201E+01  1.34814E+01  1.41944E+01  1.51185E+01  1.63260E+01  1.77562E+01  1.93579E+01  2.12639E+01
   2.36460E+01  2.65186E+01  2.96480E+01  3.26693E+01  3.54293E+01  3.80321E+01  4.05936E+01  4.32664E+01  4.63077E+01  5.00473E+01
   5.47016E+01  6.01574E+01  6.59483E+01  7.14998E+01  7.63807E+01  8.03687E+01  8.34758E+01  8.58165E+01  8.73637E+01  8.81117E+01
   8.82553E+01  8.79831E+01  8.70720E+01  8.49355E+01  8.11182E+01  7.56676E+01  6.90399E+01  6.18530E+01  5.47405E+01  4.85315E+01
   4.39235E+01  4.10634E+01  3.94376E+01  3.82380E+01  3.68452E+01  3.49733E+01  3.26256E+01  3.01061E+01  2.79192E+01  2.62530E+01
   2.48191E+01  2.35362E+01  2.23462E+01  2.11491E+01  1.97956E+01  1.82151E+01  1.66997E+01  1.55438E+01  1.46195E+01  1.38309E+01
   1.31374E+01  1.25174E+01  1.19581E+01  1.14513E+01  1.09917E+01  1.05762E+01  1.02026E+01  9.86965E+00  9.57648E+00  9.32261E+00
   9.10784E+00  8.93206E+00  8.79514E+00  8.69682E+00  8.63680E+00  8.61474E+00  8.63026E+00  8.68277E+00  8.77134E+00  8.89470E+00
   9.05126E+00  9.23907E+00  9.45572E+00  9.69816E+00  9.96263E+00  1.02447E+01  1.05393E+01  1.08408E+01  1.11432E+01  1.14397E+01
   1.17233E+01  1.19867E+01  1.22230E+01  1.24255E+01  1.25882E+01  1.27056E+01  1.27733E+01  1.27881E+01  1.27483E+01  1.26535E+01
   1.25048E+01  1.23042E+01  1.20554E+01  1.17631E+01  1.14329E+01  1.10710E+01  1.06840E+01  1.02786E+01  9.86132E+00  9.43861E+00
   9.01640E+00  8.59996E+00  8.19375E+00  7.80146E+00  7.42609E+00  7.06993E+00  6.73459E+00  6.42090E+00  6.12910E+00  5.85900E+00
   5.61011E+00  5.38168E+00  5.17271E+00  4.98196E+00  4.80808E+00  4.64977E+00  4.50582E+00  4.37504E+00  4.25622E+00  4.14819E+00
   4.04984E+00  3.96026E+00  3.87865E+00  3.80429E+00  3.73639E+00  3.67426E+00  3.61730E+00  3.56506E+00  3.51716E+00  3.47321E+00
   3.43276E+00  3.39545E+00  3.36101E+00  3.32926E+00  3.30002E+00  3.27304E+00  3.24808E+00  3.22492E+00  3.20346E+00  3.18367E+00
   3.16541E+00  3.14854E+00  3.13288E+00  3.11835E+00  3.10494E+00  3.09262E+00  3.08130E+00  3.07084E+00  3.06116E+00  3.05222E+00
   3.04408E+00  3.03670E+00  3.03001E+00  3.02388E+00  3.01829E+00  3.01326E+00  3.00882E+00  3.00495E+00  3.00153E+00  2.99852E+00
   2.99590E+00  2.99375E+00  2.99208E+00  2.99083E+00  2.98993E+00  2.98934E+00  2.98911E+00  2.98930E+00  2.98990E+00  2.99087E+00
   2.99213E+00  2.99370E+00  2.99566E+00  2.99807E+00  3.00092E+00  3.00414E+00  3.00772E+00  3.01175E+00
 NY background values follow
     1.638E+01    1.630E+01    1.622E+01    1.614E+01    1.606E+01    1.597E+01    1.589E+01    1.581E+01    1.573E+01    1.565E+01
     1.557E+01    1.549E+01    1.540E+01    1.532E+01    1.524E+01    1.516E+01    1.508E+01    1.500E+01    1.492E+01    1.483E+01
     1.475E+01    1.467E+01    1.459E+01    1.451E+01    1.443E+01    1.435E+01    1.427E+01    1.419E+01    1.410E+01    1.402E+01
     1.394E+01    1.386E+01    1.378E+01    1.370E+01    1.362E+01    1.354E+01    1.346E+01    1.338E+01    1.330E+01    1.322E+01
     1.314E+01    1.306E+01    1.298E+01    1.290E+01    1.282E+01    1.274E+01    1.266E+01    1.258E+01    1.250E+01    1.242E+01
     1.234E+01    1.226E+01    1.219E+01    1.211E+01    1.203E+01    1.195E+01    1.187E+01    1.179E+01    1.172E+01    1.164E+01
     1.156E+01    1.148E+01    1.141E+01    1.133E+01    1.125E+01    1.118E+01    1.110E+01    1.103E+01    1.095E+01    1.088E+01
     1.080E+01    1.073E+01    1.065E+01    1.058E+01    1.050E+01    1.043E+01    1.036E+01    1.029E+01    1.021E+01    1.014E+01
     1.007E+01    9.997E+00    9.926E+00    9.855E+00    9.784E+00    9.714E+00    9.645E+00    9.575E+00    9.506E+00    9.437E+00
     9.369E+00    9.301E+00    9.234E+00    9.167E+00    9.100E+00    9.034E+00    8.968E+00    8.903E+00    8.838E+00    8.773E+00
     8.709E+00    8.646E+00    8.582E+00    8.519E+00    8.457E+00    8.395E+00    8.333E+00    8.272E+00    8.211E+00    8.150E+00
     8.090E+00    8.031E+00    7.971E+00    7.913E+00    7.854E+00    7.796E+00    7.739E+00    7.682E+00    7.625E+00    7.569E+00
     7.513E+00    7.457E+00    7.402E+00    7.348E+00    7.293E+00    7.240E+00    7.186E+00    7.133E+00    7.081E+00    7.029E+00
     6.977E+00    6.926E+00    6.875E+00    6.825E+00    6.775E+00    6.725E+00    6.676E+00    6.628E+00    6.580E+00    6.532E+00
     6.484E+00    6.437E+00    6.391E+00    6.345E+00    6.299E+00    6.254E+00    6.209E+00    6.165E+00    6.121E+00    6.077E+00
     6.034E+00    5.991E+00    5.949E+00    5.907E+00    5.866E+00    5.825E+00    5.784E+00    5.744E+00    5.704E+00    5.665E+00
     5.626E+00    5.587E+00    5.549E+00    5.511E+00    5.474E+00    5.437E+00    5.400E+00    5.364E+00    5.328E+00    5.293E+00
     5.258E+00    5.224E+00    5.189E+00    5.156E+00    5.122E+00    5.089E+00    5.057E+00    5.025E+00    4.993E+00    4.962E+00
     4.931E+00    4.900E+00    4.870E+00    4.840E+00    4.811E+00    4.782E+00    4.753E+00    4.725E+00    4.697E+00    4.669E+00
     4.642E+00    4.615E+00    4.589E+00    4.563E+00    4.537E+00    4.511E+00    4.486E+00    4.461E+00    4.437E+00    4.413E+00
     4.389E+00    4.365E+00    4.342E+00    4.319E+00    4.296E+00    4.274E+00    4.252E+00    4.230E+00    4.209E+00    4.187E+00
     4.166E+00    4.146E+00    4.125E+00    4.105E+00    4.085E+00    4.065E+00    4.046E+00    4.026E+00    4.007E+00    3.989E+00
     3.970E+00    3.952E+00    3.934E+00    3.916E+00    3.898E+00    3.880E+00    3.863E+00    3.846E+00    3.829E+00    3.812E+00
     3.796E+00    3.780E+00    3.763E+00    3.747E+00    3.732E+00    3.716E+00    3.701E+00    3.685E+00    3.670E+00    3.655E+00
     3.641E+00    3.626E+00    3.612E+00    3.598E+00    3.583E+00    3.570E+00    3.556E+00    3.542E+00    3.529E+00    3.516E+00
     3.503E+00    3.490E+00    3.477E+00    3.465E+00    3.453E+00    3.440E+00    3.428E+00    3.416E+00    3.405E+00    3.393E+00
     3.382E+00    3.370E+00    3.359E+00    3.348E+00    3.338E+00    3.327E+00    3.316E+00    3.306E+00    3.296E+00    3.286E+00
     3.276E+00    3.266E+00    3.256E+00    3.247E+00    3.237E+00    3.228E+00    3.219E+00    3.210E+00    3.201E+00    3.192E+00
     3.184E+00    3.175E+00    3.167E+00    3.158E+00    3.150E+00    3.142E+00    3.134E+00    3.127E+00    3.119E+00    3.111E+00
     3.104E+00    3.097E+00    3.089E+00    3.082E+00    3.075E+00    3.068E+00    3.061E+00    3.055E+00    3.048E+00    3.042E+00
     3.035E+00    3.029E+00    3.023E+00    3.016E+00    3.010E+00    3.004E+00    2.998E+00    2.993E+00    2.987E+00    2.981E+00
     2.976E+00    2.970E+00    2.965E+00    2.959E+00    2.954E+00    2.949E+00    2.944E+00    2.939E+00    2.934E+00    2.929E+00
     2.924E+00    2.919E+00    2.914E+00    2.909E+00    2.905E+00    2.900E+00    2.896E+00    2.891E+00    2.887E+00    2.883E+00
     2.878E+00    2.874E+00    2.870E+00    2.866E+00    2.862E+00    2.858E+00    2.854E+00    2.850E+00    2.847E+00    2.843E+00
     2.839E+00    2.836E+00    2.832E+00    2.829E+00    2.825E+00    2.822E+00    2.819E+00    2.816E+00    2.812E+00    2.809E+00
     2.806E+00    2.803E+00    2.800E+00    2.797E+00    2.795E+00    2.792E+00    2.789E+00    2.786E+00    2.784E+00    2.781E+00
     2.779E+00    2.776E+00    2.774E+00    2.772E+00    2.769E+00    2.767E+00    2.765E+00    2.763E+00    2.761E+00    2.759E+00
     2.757E+00    2.755E+00    2.753E+00    2.751E+00    2.750E+00    2.748E+00    2.747E+00    2.745E+00    2.744E+00    2.743E+00
     2.741E+00    2.740E+00    2.739E+00    2.738E+00    2.737E+00    2.736E+00    2.736E+00    2.735E+00    2.734E+00    2.734E+00
     2.734E+00    2.733E+00    2.733E+00    2.733E+00    2.733E+00    2.733E+00    2.733E+00    2.734E+00    2.734E+00    2.734E+00
     2.735E+00    2.736E+00    2.737E+00    2.737E+00    2.739E+00    2.740E+00    2.741E+00    2.742E+00    2.744E+00    2.745E+00
     2.747E+00    2.749E+00    2.751E+00    2.753E+00    2.755E+00    2.757E+00    2.759E+00    2.762E+00    2.764E+00    2.767E+00
     2.770E+00    2.772E+00    2.775E+00    2.778E+00    2.781E+00    2.784E+00    2.787E+00    2.791E+00    2.794E+00    2.797E+00
     2.801E+00    2.804E+00    2.808E+00    2.812E+00    2.816E+00    2.819E+00    2.823E+00    2.827E+00    2.831E+00    2.835E+00
     2.839E+00    2.843E+00    2.848E+00    2.852E+00    2.856E+00    2.860E+00    2.865E+00    2.869E+00    2.874E+00    2.878E+00
     2.883E+00    2.887E+00    2.892E+00    2.896E+00    2.901E+00    2.906E+00    2.910E+00    2.915E+00    2.920E+00    2.925E+00
     2.929E+00    2.934E+00    2.939E+00    2.944E+00    2.949E+00    2.954E+00    2.959E+00    2.964E+00    2.968E+00    2.973E+00
     2.978E+00    2.983E+00    2.988E+00    2.993E+00    2.998E+00    3.003E+00    3.009E+00    3.014E+00    3.019E+00    3.024E+00
     3.029E+00    3.034E+00    3.039E+00    3.044E+00    3.049E+00    3.054E+00    3.060E+00    3.065E+00    3.070E+00    3.075E+00
     3.080E+00    3.085E+00    3.090E+00    3.095E+00    3.101E+00    3.106E+00    3.111E+00    3.116E+00
 Ala      Conc. = 5.57E+02
