 LCModel (Version 6.3-1L) Copyright: S.W. Provencher.          Ref.: Magn. Reson. Med. 30:672-679 (1993).                
 Slice#1 Row#6 Col#1  PD_05_press_1_raw_act
 36 lines in following concentration table = NCONC+1
    Conc.  %SD /Cr+PCr  Metabolite                                         
  145.678  36%   2.152 Ala                                                 
   10.392  98%   0.154 Asp                                                 
    0.000 999%   0.000 Cr                                                  
   67.685  26%   1.000 PCr                                                 
    6.111 100% 9.0E-02 GABA                                                
    5.593 109% 8.3E-02 Glc                                                 
  295.779  40%   4.370 Gln                                                 
  281.180  47%   4.154 Glu                                                 
   13.626  50%   0.201 GPC                                                 
    0.000 999%   0.000 PCh                                                 
   70.567  40%   1.043 GSH                                                 
  148.510  61%   2.194 Ins                                                 
    0.000 999%   0.000 Lac                                                 
  109.513  18%   1.618 NAA                                                 
    0.000 999%   0.000 NAAG                                                
    1.814 111% 2.7E-02 Scyllo                                              
    8.690 116%   0.128 Tau                                                 
    0.000 999%   0.000 -CrCH2                                              
   13.626  50%   0.201 GPC+PCh                                             
  109.513  18%   1.618 NAA+NAAG                                            
   67.685  26%   1.000 Cr+PCr                                              
  576.959  37%   8.524 Glu+Gln                                             
    0.000 999%   0.000 Lip13a                                              
  137.906  50%   2.037 Lip13b                                              
   36.820  50%   0.544 Lip09                                               
    0.000 999%   0.000 MM09                                                
   20.686  50%   0.306 Lip20                                               
    0.000 999%   0.000 MM20                                                
    0.000 999%   0.000 MM12                                                
   19.239 329%   0.284 MM14                                                
   32.704 140%   0.483 MM17                                                
  137.906  50%   2.037 Lip13a+Lip13b                                       
  157.145  48%   2.322 MM14+Lip13a+Lip13b+MM12                             
   36.820  50%   0.544 MM09+Lip09                                          
   20.686  50%   0.306 MM20+Lip20                                          
   6 lines in following misc. output table
  FWHM = 0.092 ppm    S/N =   1                                            
  Data shift =-0.038 ppm                                                   
  Ph: 137 deg       2.0 deg/ppm                                            
  alphaB,S = 1.5E+00,   1.2E+01                                            
   14 spline knots.   Ns = 6(1)                                            
  ( 7) 5 infls.   ( 9) 5 extrs.                                            
  498 points on ppm-axis = NY
      4.000000     3.992357     3.984714     3.977070     3.969427     3.961784     3.954141     3.946497     3.938854     3.931211
      3.923568     3.915925     3.908281     3.900638     3.892995     3.885352     3.877708     3.870065     3.862422     3.854779
      3.847136     3.839492     3.831849     3.824206     3.816563     3.808919     3.801276     3.793633     3.785990     3.778347
      3.770703     3.763060     3.755417     3.747774     3.740130     3.732487     3.724844     3.717201     3.709558     3.701914
      3.694271     3.686628     3.678985     3.671341     3.663698     3.656055     3.648412     3.640769     3.633125     3.625482
      3.617839     3.610196     3.602552     3.594909     3.587266     3.579623     3.571980     3.564336     3.556693     3.549050
      3.541407     3.533763     3.526120     3.518477     3.510834     3.503191     3.495547     3.487904     3.480261     3.472618
      3.464974     3.457331     3.449688     3.442045     3.434402     3.426758     3.419115     3.411472     3.403829     3.396185
      3.388542     3.380899     3.373256     3.365613     3.357969     3.350326     3.342683     3.335040     3.327396     3.319753
      3.312110     3.304467     3.296824     3.289180     3.281537     3.273894     3.266251     3.258607     3.250964     3.243321
      3.235678     3.228034     3.220391     3.212748     3.205105     3.197462     3.189818     3.182175     3.174532     3.166889
      3.159245     3.151602     3.143959     3.136316     3.128673     3.121029     3.113386     3.105743     3.098100     3.090456
      3.082813     3.075170     3.067527     3.059884     3.052240     3.044597     3.036954     3.029311     3.021667     3.014024
      3.006381     2.998738     2.991095     2.983451     2.975808     2.968165     2.960522     2.952878     2.945235     2.937592
      2.929949     2.922306     2.914662     2.907019     2.899376     2.891733     2.884089     2.876446     2.868803     2.861160
      2.853517     2.845873     2.838230     2.830587     2.822944     2.815300     2.807657     2.800014     2.792371     2.784728
      2.777084     2.769441     2.761798     2.754155     2.746511     2.738868     2.731225     2.723582     2.715939     2.708295
      2.700652     2.693009     2.685366     2.677722     2.670079     2.662436     2.654793     2.647150     2.639506     2.631863
      2.624220     2.616577     2.608933     2.601290     2.593647     2.586004     2.578361     2.570717     2.563074     2.555431
      2.547788     2.540144     2.532501     2.524858     2.517215     2.509572     2.501928     2.494285     2.486642     2.478999
      2.471355     2.463712     2.456069     2.448426     2.440783     2.433139     2.425496     2.417853     2.410210     2.402566
      2.394923     2.387280     2.379637     2.371994     2.364350     2.356707     2.349064     2.341421     2.333777     2.326134
      2.318491     2.310848     2.303205     2.295561     2.287918     2.280275     2.272632     2.264988     2.257345     2.249702
      2.242059     2.234416     2.226772     2.219129     2.211486     2.203843     2.196199     2.188556     2.180913     2.173270
      2.165627     2.157983     2.150340     2.142697     2.135054     2.127410     2.119767     2.112124     2.104481     2.096838
      2.089194     2.081551     2.073908     2.066265     2.058621     2.050978     2.043335     2.035692     2.028049     2.020405
      2.012762     2.005119     1.997476     1.989833     1.982190     1.974546     1.966903     1.959260     1.951617     1.943974
      1.936331     1.928688     1.921045     1.913402     1.905759     1.898115     1.890472     1.882829     1.875186     1.867543
      1.859900     1.852257     1.844614     1.836971     1.829327     1.821684     1.814041     1.806398     1.798755     1.791112
      1.783469     1.775826     1.768183     1.760540     1.752896     1.745253     1.737610     1.729967     1.722324     1.714681
      1.707038     1.699395     1.691752     1.684108     1.676465     1.668822     1.661179     1.653536     1.645893     1.638250
      1.630607     1.622964     1.615321     1.607677     1.600034     1.592391     1.584748     1.577105     1.569462     1.561819
      1.554176     1.546533     1.538890     1.531246     1.523603     1.515960     1.508317     1.500674     1.493031     1.485388
      1.477745     1.470102     1.462458     1.454815     1.447172     1.439529     1.431886     1.424243     1.416600     1.408957
      1.401314     1.393671     1.386027     1.378384     1.370741     1.363098     1.355455     1.347812     1.340169     1.332526
      1.324883     1.317240     1.309596     1.301953     1.294310     1.286667     1.279024     1.271381     1.263738     1.256095
      1.248452     1.240808     1.233165     1.225522     1.217879     1.210236     1.202593     1.194950     1.187307     1.179664
      1.172021     1.164377     1.156734     1.149091     1.141448     1.133805     1.126162     1.118519     1.110876     1.103233
      1.095590     1.087946     1.080303     1.072660     1.065017     1.057374     1.049731     1.042088     1.034445     1.026802
      1.019158     1.011515     1.003872     0.996229     0.988586     0.980943     0.973300     0.965657     0.958014     0.950371
      0.942727     0.935084     0.927441     0.919798     0.912155     0.904512     0.896869     0.889226     0.881583     0.873940
      0.866296     0.858653     0.851010     0.843367     0.835724     0.828081     0.820438     0.812795     0.805152     0.797508
      0.789865     0.782222     0.774579     0.766936     0.759293     0.751650     0.744007     0.736364     0.728721     0.721077
      0.713434     0.705791     0.698148     0.690505     0.682862     0.675219     0.667576     0.659933     0.652290     0.644646
      0.637003     0.629360     0.621717     0.614074     0.606431     0.598788     0.591145     0.583502     0.575858     0.568215
      0.560572     0.552929     0.545286     0.537643     0.530000     0.522357     0.514714     0.507071     0.499427     0.491784
      0.484141     0.476498     0.468855     0.461212     0.453569     0.445925     0.438282     0.430639     0.422996     0.415353
      0.407710     0.400067     0.392424     0.384780     0.377137     0.369494     0.361851     0.354208     0.346565     0.338922
      0.331278     0.323635     0.315992     0.308349     0.300706     0.293063     0.285420     0.277777     0.270133     0.262490
      0.254847     0.247204     0.239561     0.231918     0.224275     0.216631     0.208988     0.201345
 NY phased data points follow
   1.12882E+01  1.11311E+01  1.04440E+01  1.03024E+01  1.23144E+01  1.09709E+01  8.31945E+00  9.55122E+00  1.11841E+01  1.06387E+01
   1.19808E+01  1.18453E+01  1.16488E+01  7.94443E+00  1.10143E+01  1.08925E+01  1.26687E+01  9.27732E+00  8.78129E+00  1.15877E+01
   1.01066E+01  9.68380E+00  6.45622E+00  8.97228E+00  9.20294E+00  1.26632E+01  9.62335E+00  1.01415E+01  1.00097E+01  9.32894E+00
   8.26012E+00  9.88673E+00  1.05033E+01  7.28782E+00  8.65095E+00  6.57988E+00  7.44422E+00  9.12554E+00  7.58966E+00  9.06471E+00
   9.48499E+00  7.03718E+00  8.22454E+00  7.94529E+00  8.16252E+00  8.26929E+00  9.25875E+00  9.59026E+00  8.53887E+00  8.91660E+00
   7.36175E+00  7.69647E+00  7.75450E+00  6.07646E+00  9.43066E+00  6.61724E+00  7.55974E+00  7.69784E+00  6.21492E+00  6.47518E+00
   7.09294E+00  5.36219E+00  6.87498E+00  6.53042E+00  7.68737E+00  7.38656E+00  7.37005E+00  6.22566E+00  6.61644E+00  7.96730E+00
   6.28809E+00  7.56375E+00  6.31847E+00  6.83312E+00  5.28613E+00  6.10198E+00  5.23425E+00  6.74110E+00  6.58640E+00  4.40631E+00
   7.36629E+00  4.35199E+00  5.75218E+00  7.18938E+00  6.81372E+00  4.92229E+00  5.38744E+00  6.90973E+00  5.62252E+00  4.19875E+00
   6.16748E+00  5.80729E+00  7.39991E+00  5.36650E+00  7.00098E+00  6.31181E+00  4.75431E+00  7.11624E+00  4.70646E+00  5.50145E+00
   6.55862E+00  4.76908E+00  7.17101E+00  5.33656E+00  6.40785E+00  5.96587E+00  7.94190E+00  5.57732E+00  7.50610E+00  6.43348E+00
   6.16219E+00  5.72799E+00  7.32015E+00  6.66822E+00  6.34387E+00  5.61467E+00  4.69255E+00  5.31102E+00  5.07134E+00  5.26401E+00
   4.88218E+00  6.10697E+00  6.35546E+00  4.73046E+00  4.79183E+00  4.21038E+00  4.89222E+00  5.02180E+00  7.06728E+00  5.26399E+00
   7.66876E+00  5.07000E+00  5.49864E+00  5.25002E+00  5.43922E+00  5.16064E+00  5.56390E+00  3.85650E+00  4.99979E+00  5.81450E+00
   6.91400E+00  4.59610E+00  3.19650E+00  2.90318E+00  4.15868E+00  5.37492E+00  4.51836E+00  6.89320E+00  4.20857E+00  3.34481E+00
   4.58898E+00  5.51440E+00  3.64372E+00  4.05866E+00  4.19142E+00  4.23121E+00  5.58387E+00  3.68129E+00  4.27245E+00  2.13129E+00
   5.75411E+00  4.11761E+00  4.19668E+00  4.32314E+00  5.40036E+00  5.58638E+00  4.63053E+00  2.43835E+00  4.57041E+00  5.04612E+00
   3.15087E+00  3.85766E+00  2.96866E+00  4.38432E+00  3.61402E+00  4.05541E+00  4.24539E+00  5.19978E+00  3.26770E+00  3.75456E+00
   1.59395E+00  3.83169E+00  2.90466E+00  3.42684E+00  2.54965E+00  1.71701E+00  4.19575E+00  3.19660E+00  3.97761E+00  2.28932E+00
   3.81909E+00  3.17813E+00  5.01218E+00  3.90938E+00  2.06837E+00  2.22883E+00  8.23002E-01  3.32204E+00  2.88501E+00  1.15128E+00
   5.68914E-01  2.82377E+00  2.84475E+00  3.77943E+00  2.28388E+00  3.72520E+00  3.04097E+00  3.92971E+00  3.99221E+00  2.29395E+00
   3.24794E+00  2.04859E+00  1.76769E+00  3.66578E+00  3.76215E+00  4.03687E+00  4.50973E+00  3.99653E+00  2.84271E+00  4.19750E+00
   3.51222E+00  2.84564E+00  1.81113E+00  2.66325E+00  2.38988E+00  5.40972E+00  2.83647E+00  1.98669E+00  3.75331E+00  3.52098E+00
   3.07782E+00  3.06163E+00  5.23745E+00  1.92198E+00  2.50515E+00  4.28497E+00  4.25901E+00  3.64598E+00  2.52068E-01  2.40616E+00
   2.31866E+00  4.50257E+00  7.15990E-01  3.40392E+00  7.40365E-01  3.35303E+00  9.31880E-01  2.76793E+00  1.81922E+00  3.72758E+00
   3.32874E+00  2.38985E+00  4.51952E+00  3.69944E+00  2.10702E+00  3.11804E+00  3.89950E+00  1.92441E+00  4.27851E+00  6.28330E+00
   3.91711E+00  4.68609E+00  7.64672E+00  7.69025E+00  5.45509E+00  4.83777E+00  2.61698E+00  4.40057E+00  5.77711E+00  4.16495E+00
   2.64658E+00  3.17141E+00  4.18255E+00  1.09315E+00  3.37748E+00  3.71277E+00  2.02070E+00  1.91199E+00  4.12713E+00  7.83883E-01
   5.52387E-01  3.04815E+00  3.53756E+00  1.30819E+00  3.58345E+00  2.50992E+00  3.89147E+00  2.86920E+00  2.53864E+00  1.89550E+00
   2.06901E+00  1.80794E+00  3.56766E+00  2.96997E+00  2.01330E+00  2.87892E+00  3.35260E+00  2.63688E+00  4.09527E+00  1.95677E+00
   2.45922E+00  3.00008E+00  1.35544E+00  1.60665E+00  2.45274E+00  1.57686E+00  3.41504E+00  2.49171E+00  1.44262E+00  4.08399E+00
   1.54939E+00  1.03989E+00  3.55364E+00  2.72335E+00  3.70027E+00  2.74956E+00  3.42628E+00  3.38084E+00  4.18007E+00  2.03790E+00
   3.06664E+00  2.87037E+00  3.39501E+00  1.33521E+00  2.43792E+00  1.90603E+00  9.49333E-02  2.73157E+00  2.76532E+00  2.07556E+00
  -8.27377E-01 -1.55520E-01  1.09250E+00  2.14954E+00  2.31620E+00  2.39937E+00  1.02981E+00  2.19221E+00  3.42466E+00  2.43214E+00
   1.63319E+00  2.27559E+00  3.58429E+00  3.50460E+00  3.59989E+00  3.82183E+00  4.75113E+00  4.68480E+00  3.00000E+00  3.89801E+00
   4.66141E+00  1.61245E+00  3.75566E+00  2.30388E+00  4.99251E+00  3.47117E+00  2.63465E+00  4.22543E+00  1.26403E+00  3.10522E+00
   5.06068E-01  3.59128E+00 -3.25181E-01  3.56469E+00  2.69643E+00  1.11297E+00  3.95544E+00  3.29218E+00  3.33039E+00  3.90361E+00
   6.68135E-01  2.97031E+00  1.41325E+00 -8.17816E-01 -2.04734E+00 -1.94114E-01 -4.96896E-01 -5.93660E-01  8.45407E-01  2.02533E+00
   1.75057E+00  6.75894E-01  3.00750E+00  1.53362E+00  1.45916E+00  2.94203E+00  2.81857E+00  2.68375E+00  6.70750E-01  6.17499E-01
   5.42653E-01  3.23200E+00  2.25472E-01 -8.92681E-01  2.01987E+00  5.30463E-02  9.04598E-01 -9.35902E-02  1.35250E+00  2.39333E+00
   1.68713E+00  1.95540E+00  9.16783E-03 -6.89200E-01  7.57336E-01  1.55452E+00  9.26565E-01  1.32647E+00 -1.76211E-02  2.11268E+00
   1.65069E+00  2.73158E+00  2.85870E+00  3.26237E+00  1.77968E+00  1.14111E+00  1.47036E+00  1.41128E+00  3.68702E+00  2.57828E+00
   7.78403E-01  2.24553E+00  3.27390E+00  3.21897E+00  1.71239E+00  3.62588E+00  6.50377E-01  1.78417E+00  2.86452E+00  1.63322E+00
   1.76355E+00  2.91376E+00  1.38988E+00  3.88058E+00  4.15149E-01  3.23485E+00  2.37325E+00  2.08984E+00  1.26389E+00  1.73801E+00
   1.38205E+00  1.73937E+00  1.37133E+00  2.33616E+00  1.71815E+00  1.33503E+00  2.05535E+00  1.54886E+00  1.82719E+00  3.42008E-01
   6.00669E-01  4.07085E-01  8.74536E-01  3.59649E-01  5.92619E-01  6.29635E-01  1.39111E+00  2.34249E+00  7.13340E-01  4.19860E-01
   2.46893E+00  1.93411E+00  2.92195E+00  2.68595E+00  2.64359E+00  1.28154E+00  2.33899E+00  2.23724E+00  1.94705E+00  3.42923E+00
   1.11842E+00  9.01698E-01  1.93383E+00  1.29212E+00  2.24465E+00  6.42004E-01 -6.66847E-01 -4.49174E-01  2.34401E+00  2.55893E+00
  -5.01893E-02  1.70058E+00 -1.77051E-01  2.72762E+00  3.05242E+00  2.31125E+00  1.79252E+00 -6.65275E-01  3.18728E+00  2.50825E+00
   1.84705E+00  2.07098E+00  1.16514E+00  1.96031E+00  1.47354E+00  2.07891E+00  1.44905E+00  2.67342E+00
 NY points of the fit to the data follow
   9.17958E+00  9.11506E+00  9.14039E+00  9.30599E+00  9.54282E+00  9.52278E+00  9.42490E+00  9.47279E+00  9.59125E+00  9.77251E+00
   1.00233E+01  1.00651E+01  9.67538E+00  9.22146E+00  9.17029E+00  9.33028E+00  9.14520E+00  8.84534E+00  8.79659E+00  8.86190E+00
   8.88511E+00  8.66220E+00  8.43754E+00  8.49048E+00  8.86870E+00  9.20903E+00  9.36430E+00  9.33012E+00  9.04007E+00  8.81432E+00
   9.14200E+00  9.75892E+00  9.79044E+00  9.51302E+00  9.56911E+00  9.55650E+00  9.17241E+00  8.51830E+00  8.21678E+00  8.05279E+00
   7.97694E+00  8.05048E+00  8.15880E+00  8.12006E+00  8.10627E+00  8.28542E+00  8.35140E+00  8.33735E+00  8.46931E+00  8.49687E+00
   8.23696E+00  7.84611E+00  7.63917E+00  7.67367E+00  7.65458E+00  7.46226E+00  7.31663E+00  7.28354E+00  7.27742E+00  7.28009E+00
   7.32135E+00  7.38295E+00  7.37520E+00  7.27237E+00  7.15600E+00  7.09851E+00  7.07916E+00  7.05323E+00  7.01144E+00  6.97031E+00
   6.96886E+00  6.96314E+00  6.96250E+00  6.98090E+00  6.96056E+00  6.89085E+00  6.81532E+00  6.78597E+00  6.75329E+00  6.66328E+00
   6.59575E+00  6.52557E+00  6.42139E+00  6.32428E+00  6.26904E+00  6.22887E+00  6.18196E+00  6.12197E+00  6.03157E+00  5.92933E+00
   5.89619E+00  5.93642E+00  5.95113E+00  5.90761E+00  5.88803E+00  5.91085E+00  6.00003E+00  6.25455E+00  6.44051E+00  6.34334E+00
   6.22959E+00  6.25898E+00  6.36460E+00  6.52110E+00  6.70997E+00  6.68401E+00  6.33057E+00  6.01338E+00  6.02021E+00  6.09754E+00
   5.82411E+00  5.54844E+00  5.47213E+00  5.43083E+00  5.39400E+00  5.35608E+00  5.33176E+00  5.31064E+00  5.29609E+00  5.30771E+00
   5.40852E+00  5.82548E+00  6.21801E+00  6.18278E+00  6.09042E+00  6.21623E+00  6.45840E+00  6.85051E+00  7.30314E+00  7.26364E+00
   6.58169E+00  5.95936E+00  5.92944E+00  6.10296E+00  5.72669E+00  5.24659E+00  5.01275E+00  4.80695E+00  4.71752E+00  4.76874E+00
   4.81287E+00  4.80064E+00  4.83841E+00  4.87481E+00  4.85666E+00  4.83251E+00  4.80998E+00  4.77954E+00  4.72862E+00  4.61975E+00
   4.55610E+00  4.51755E+00  4.47376E+00  4.42557E+00  4.38771E+00  4.34383E+00  4.28554E+00  4.25960E+00  4.25846E+00  4.25013E+00
   4.22052E+00  4.16700E+00  4.11718E+00  4.08442E+00  4.07633E+00  4.08231E+00  4.07012E+00  4.02613E+00  3.97580E+00  3.94056E+00
   3.90449E+00  3.86257E+00  3.82048E+00  3.79289E+00  3.76923E+00  3.71699E+00  3.64761E+00  3.59732E+00  3.58642E+00  3.58811E+00
   3.56866E+00  3.51170E+00  3.44014E+00  3.44327E+00  3.54093E+00  3.62033E+00  3.63253E+00  3.58726E+00  3.52826E+00  3.53550E+00
   3.55443E+00  3.50043E+00  3.42126E+00  3.36775E+00  3.31089E+00  3.27828E+00  3.33032E+00  3.39535E+00  3.38312E+00  3.47997E+00
   3.74371E+00  3.96348E+00  4.06518E+00  4.03632E+00  3.67102E+00  3.36154E+00  3.48420E+00  3.56353E+00  3.23898E+00  2.87160E+00
   2.72191E+00  2.51393E+00  2.51686E+00  3.14232E+00  3.74063E+00  3.62516E+00  3.43682E+00  3.82255E+00  4.01478E+00  3.61915E+00
   3.28682E+00  3.18265E+00  2.85290E+00  2.36055E+00  2.48271E+00  2.96167E+00  3.26310E+00  3.24467E+00  3.28850E+00  3.57703E+00
   3.62673E+00  3.42321E+00  3.38089E+00  3.37298E+00  3.30843E+00  3.38035E+00  3.29749E+00  2.87128E+00  2.79497E+00  3.20852E+00
   3.35377E+00  3.04763E+00  2.82713E+00  2.81704E+00  2.50585E+00  2.18848E+00  2.33219E+00  2.53335E+00  2.37927E+00  2.27462E+00
   2.48245E+00  2.55661E+00  2.63002E+00  2.90626E+00  3.44851E+00  4.29587E+00  4.66419E+00  4.47176E+00  4.41453E+00  4.59845E+00
   4.97952E+00  5.68935E+00  6.24709E+00  5.81830E+00  4.70637E+00  4.12348E+00  4.38942E+00  4.36429E+00  3.43270E+00  2.94563E+00
   2.78100E+00  2.66294E+00  2.64654E+00  2.65057E+00  2.65847E+00  2.67379E+00  2.66692E+00  2.63972E+00  2.63017E+00  2.63589E+00
   2.61673E+00  2.57606E+00  2.54603E+00  2.53134E+00  2.52085E+00  2.50588E+00  2.49130E+00  2.48914E+00  2.48878E+00  2.48303E+00
   2.47823E+00  2.47722E+00  2.47566E+00  2.47114E+00  2.46775E+00  2.46799E+00  2.46773E+00  2.46641E+00  2.46658E+00  2.46687E+00
   2.46598E+00  2.46505E+00  2.46366E+00  2.46177E+00  2.45929E+00  2.45562E+00  2.45065E+00  2.44527E+00  2.44016E+00  2.43502E+00
   2.42962E+00  2.42539E+00  2.42321E+00  2.42358E+00  2.42782E+00  2.43753E+00  2.45507E+00  2.48437E+00  2.53249E+00  2.61419E+00
   2.76992E+00  3.08417E+00  3.26646E+00  2.93659E+00  2.59882E+00  2.57459E+00  2.58752E+00  2.51134E+00  2.27703E+00  1.80392E+00
   1.40187E+00  1.19507E+00  1.27817E+00  1.44335E+00  1.15464E+00  9.57877E-01  1.66275E+00  2.62295E+00  3.09550E+00  2.87416E+00
   2.64614E+00  2.99283E+00  3.34284E+00  3.05152E+00  2.83140E+00  2.76974E+00  2.78154E+00  2.83667E+00  2.92017E+00  3.02055E+00
   3.12659E+00  3.22671E+00  3.30946E+00  3.36457E+00  3.38419E+00  3.36403E+00  3.30388E+00  3.20758E+00  3.08229E+00  2.93732E+00
   2.78273E+00  2.62805E+00  2.48121E+00  2.34793E+00  2.23150E+00  2.13302E+00  2.05189E+00  1.98641E+00  1.93429E+00  1.89313E+00
   1.86061E+00  1.83473E+00  1.81385E+00  1.79673E+00  1.78247E+00  1.77041E+00  1.76008E+00  1.75112E+00  1.74328E+00  1.73644E+00
   1.73049E+00  1.72540E+00  1.72110E+00  1.71755E+00  1.71473E+00  1.71268E+00  1.71142E+00  1.71096E+00  1.71130E+00  1.71243E+00
   1.71435E+00  1.71708E+00  1.72061E+00  1.72489E+00  1.72984E+00  1.73535E+00  1.74135E+00  1.74770E+00  1.75425E+00  1.76080E+00
   1.76712E+00  1.77301E+00  1.77825E+00  1.78264E+00  1.78596E+00  1.78801E+00  1.78860E+00  1.78762E+00  1.78501E+00  1.78074E+00
   1.77479E+00  1.76721E+00  1.75810E+00  1.74761E+00  1.73593E+00  1.72326E+00  1.70978E+00  1.69572E+00  1.68127E+00  1.66668E+00
   1.65214E+00  1.63781E+00  1.62381E+00  1.61026E+00  1.59725E+00  1.58487E+00  1.57316E+00  1.56213E+00  1.55175E+00  1.54203E+00
   1.53295E+00  1.52448E+00  1.51660E+00  1.50923E+00  1.50234E+00  1.49587E+00  1.48981E+00  1.48413E+00  1.47877E+00  1.47370E+00
   1.46887E+00  1.46427E+00  1.45989E+00  1.45571E+00  1.45170E+00  1.44783E+00  1.44407E+00  1.44045E+00  1.43695E+00  1.43356E+00
   1.43024E+00  1.42700E+00  1.42382E+00  1.42073E+00  1.41771E+00  1.41475E+00  1.41183E+00  1.40895E+00  1.40611E+00  1.40334E+00
   1.40061E+00  1.39791E+00  1.39524E+00  1.39260E+00  1.38999E+00  1.38742E+00  1.38489E+00  1.38237E+00  1.37987E+00  1.37739E+00
   1.37494E+00  1.37252E+00  1.37012E+00  1.36773E+00  1.36534E+00  1.36298E+00  1.36064E+00  1.35833E+00  1.35603E+00  1.35373E+00
   1.35143E+00  1.34916E+00  1.34692E+00  1.34468E+00  1.34245E+00  1.34022E+00  1.33800E+00  1.33580E+00  1.33362E+00  1.33145E+00
   1.32927E+00  1.32710E+00  1.32494E+00  1.32281E+00  1.32069E+00  1.31858E+00  1.31646E+00  1.31435E+00
 NY background values follow
     8.710E+00    8.679E+00    8.649E+00    8.618E+00    8.587E+00    8.556E+00    8.525E+00    8.494E+00    8.464E+00    8.433E+00
     8.402E+00    8.371E+00    8.340E+00    8.309E+00    8.279E+00    8.248E+00    8.217E+00    8.186E+00    8.155E+00    8.125E+00
     8.094E+00    8.063E+00    8.032E+00    8.002E+00    7.971E+00    7.940E+00    7.910E+00    7.879E+00    7.848E+00    7.818E+00
     7.787E+00    7.757E+00    7.726E+00    7.695E+00    7.665E+00    7.634E+00    7.604E+00    7.574E+00    7.543E+00    7.513E+00
     7.482E+00    7.452E+00    7.422E+00    7.392E+00    7.361E+00    7.331E+00    7.301E+00    7.271E+00    7.241E+00    7.211E+00
     7.181E+00    7.151E+00    7.121E+00    7.091E+00    7.061E+00    7.032E+00    7.002E+00    6.972E+00    6.942E+00    6.913E+00
     6.883E+00    6.854E+00    6.824E+00    6.795E+00    6.765E+00    6.736E+00    6.707E+00    6.678E+00    6.649E+00    6.619E+00
     6.590E+00    6.561E+00    6.532E+00    6.504E+00    6.475E+00    6.446E+00    6.417E+00    6.389E+00    6.360E+00    6.332E+00
     6.303E+00    6.275E+00    6.246E+00    6.218E+00    6.190E+00    6.162E+00    6.134E+00    6.106E+00    6.078E+00    6.050E+00
     6.022E+00    5.994E+00    5.967E+00    5.939E+00    5.912E+00    5.884E+00    5.857E+00    5.830E+00    5.803E+00    5.775E+00
     5.748E+00    5.721E+00    5.695E+00    5.668E+00    5.641E+00    5.614E+00    5.588E+00    5.561E+00    5.535E+00    5.509E+00
     5.482E+00    5.456E+00    5.430E+00    5.404E+00    5.378E+00    5.352E+00    5.326E+00    5.301E+00    5.275E+00    5.250E+00
     5.224E+00    5.199E+00    5.174E+00    5.148E+00    5.123E+00    5.098E+00    5.073E+00    5.049E+00    5.024E+00    4.999E+00
     4.975E+00    4.950E+00    4.926E+00    4.901E+00    4.877E+00    4.853E+00    4.829E+00    4.805E+00    4.781E+00    4.757E+00
     4.734E+00    4.710E+00    4.687E+00    4.663E+00    4.640E+00    4.617E+00    4.593E+00    4.570E+00    4.547E+00    4.525E+00
     4.502E+00    4.479E+00    4.457E+00    4.434E+00    4.412E+00    4.389E+00    4.367E+00    4.345E+00    4.323E+00    4.301E+00
     4.279E+00    4.258E+00    4.236E+00    4.214E+00    4.193E+00    4.172E+00    4.150E+00    4.129E+00    4.108E+00    4.087E+00
     4.066E+00    4.046E+00    4.025E+00    4.004E+00    3.984E+00    3.963E+00    3.943E+00    3.923E+00    3.903E+00    3.883E+00
     3.863E+00    3.843E+00    3.824E+00    3.804E+00    3.785E+00    3.765E+00    3.746E+00    3.727E+00    3.708E+00    3.689E+00
     3.670E+00    3.651E+00    3.632E+00    3.614E+00    3.595E+00    3.577E+00    3.559E+00    3.540E+00    3.522E+00    3.504E+00
     3.486E+00    3.469E+00    3.451E+00    3.433E+00    3.416E+00    3.398E+00    3.381E+00    3.364E+00    3.347E+00    3.330E+00
     3.313E+00    3.296E+00    3.279E+00    3.263E+00    3.246E+00    3.230E+00    3.213E+00    3.197E+00    3.181E+00    3.165E+00
     3.149E+00    3.133E+00    3.117E+00    3.102E+00    3.086E+00    3.071E+00    3.055E+00    3.040E+00    3.025E+00    3.010E+00
     2.995E+00    2.980E+00    2.965E+00    2.950E+00    2.936E+00    2.921E+00    2.907E+00    2.892E+00    2.878E+00    2.864E+00
     2.850E+00    2.836E+00    2.822E+00    2.808E+00    2.794E+00    2.780E+00    2.767E+00    2.753E+00    2.740E+00    2.727E+00
     2.714E+00    2.700E+00    2.687E+00    2.674E+00    2.662E+00    2.649E+00    2.636E+00    2.623E+00    2.611E+00    2.598E+00
     2.586E+00    2.574E+00    2.561E+00    2.549E+00    2.537E+00    2.525E+00    2.513E+00    2.501E+00    2.490E+00    2.478E+00
     2.466E+00    2.455E+00    2.443E+00    2.432E+00    2.421E+00    2.410E+00    2.398E+00    2.387E+00    2.376E+00    2.365E+00
     2.355E+00    2.344E+00    2.333E+00    2.322E+00    2.312E+00    2.301E+00    2.291E+00    2.281E+00    2.270E+00    2.260E+00
     2.250E+00    2.240E+00    2.230E+00    2.220E+00    2.210E+00    2.201E+00    2.191E+00    2.181E+00    2.172E+00    2.162E+00
     2.153E+00    2.143E+00    2.134E+00    2.125E+00    2.116E+00    2.107E+00    2.098E+00    2.089E+00    2.080E+00    2.071E+00
     2.062E+00    2.054E+00    2.045E+00    2.036E+00    2.028E+00    2.020E+00    2.011E+00    2.003E+00    1.995E+00    1.986E+00
     1.978E+00    1.970E+00    1.962E+00    1.954E+00    1.947E+00    1.939E+00    1.931E+00    1.924E+00    1.916E+00    1.908E+00
     1.901E+00    1.894E+00    1.886E+00    1.879E+00    1.872E+00    1.865E+00    1.857E+00    1.850E+00    1.844E+00    1.837E+00
     1.830E+00    1.823E+00    1.816E+00    1.810E+00    1.803E+00    1.797E+00    1.790E+00    1.784E+00    1.777E+00    1.771E+00
     1.765E+00    1.759E+00    1.753E+00    1.747E+00    1.741E+00    1.735E+00    1.729E+00    1.723E+00    1.717E+00    1.712E+00
     1.706E+00    1.700E+00    1.695E+00    1.689E+00    1.684E+00    1.679E+00    1.673E+00    1.668E+00    1.663E+00    1.658E+00
     1.653E+00    1.648E+00    1.643E+00    1.638E+00    1.633E+00    1.629E+00    1.624E+00    1.619E+00    1.615E+00    1.610E+00
     1.606E+00    1.601E+00    1.597E+00    1.592E+00    1.588E+00    1.584E+00    1.580E+00    1.576E+00    1.572E+00    1.567E+00
     1.563E+00    1.560E+00    1.556E+00    1.552E+00    1.548E+00    1.544E+00    1.540E+00    1.537E+00    1.533E+00    1.530E+00
     1.526E+00    1.522E+00    1.519E+00    1.516E+00    1.512E+00    1.509E+00    1.506E+00    1.502E+00    1.499E+00    1.496E+00
     1.493E+00    1.490E+00    1.487E+00    1.484E+00    1.481E+00    1.478E+00    1.475E+00    1.472E+00    1.469E+00    1.466E+00
     1.463E+00    1.461E+00    1.458E+00    1.455E+00    1.452E+00    1.450E+00    1.447E+00    1.445E+00    1.442E+00    1.440E+00
     1.437E+00    1.435E+00    1.432E+00    1.430E+00    1.427E+00    1.425E+00    1.422E+00    1.420E+00    1.418E+00    1.415E+00
     1.413E+00    1.411E+00    1.409E+00    1.406E+00    1.404E+00    1.402E+00    1.400E+00    1.397E+00    1.395E+00    1.393E+00
     1.391E+00    1.389E+00    1.387E+00    1.384E+00    1.382E+00    1.380E+00    1.378E+00    1.376E+00    1.374E+00    1.372E+00
     1.370E+00    1.368E+00    1.366E+00    1.364E+00    1.362E+00    1.359E+00    1.357E+00    1.355E+00    1.353E+00    1.351E+00
     1.349E+00    1.347E+00    1.345E+00    1.343E+00    1.341E+00    1.339E+00    1.337E+00    1.335E+00    1.333E+00    1.332E+00
     1.330E+00    1.328E+00    1.326E+00    1.324E+00    1.322E+00    1.320E+00    1.318E+00    1.316E+00    1.314E+00    1.312E+00
     1.310E+00    1.308E+00    1.306E+00    1.304E+00    1.302E+00    1.300E+00    1.298E+00    1.296E+00
 Ala      Conc. = 1.46E+02
