 LCModel (Version 6.3-1L) Copyright: S.W. Provencher.          Ref.: Magn. Reson. Med. 30:672-679 (1993).                
 Slice#3 Row#13 Col#9  PD_05_press_1_raw_act
 36 lines in following concentration table = NCONC+1
    Conc.  %SD /Cr+PCr  Metabolite                                         
    0.000 999%   0.000 Ala                                                 
   40.066  96%   0.205 Asp                                                 
  195.010  11%   1.000 Cr                                                  
    0.000 999%   0.000 PCr                                                 
   15.594 152% 8.0E-02 GABA                                                
   21.682 108%   0.111 Glc                                                 
   15.656 896% 8.0E-02 Gln                                                 
  186.777  85%   0.958 Glu                                                 
    0.000 999%   0.000 GPC                                                 
   71.082  12%   0.365 PCh                                                 
    0.000 999%   0.000 GSH                                                 
  308.373  33%   1.581 Ins                                                 
    0.000 999%   0.000 Lac                                                 
  330.839   7%   1.697 NAA                                                 
    0.000 999%   0.000 NAAG                                                
   21.188  31%   0.109 Scyllo                                              
   87.456  42%   0.448 Tau                                                 
  175.502  21%   0.900 -CrCH2                                              
   71.082  12%   0.365 GPC+PCh                                             
  330.839   7%   1.697 NAA+NAAG                                            
  195.010  11%   1.000 Cr+PCr                                              
  202.433 124%   1.038 Glu+Gln                                             
    0.000 999%   0.000 Lip13a                                              
    0.000 999%   0.000 Lip13b                                              
    0.000 999%   0.000 Lip09                                               
  117.676  36%   0.603 MM09                                                
 3.57E-04 999% 1.8E-06 Lip20                                               
  200.354  35%   1.027 MM20                                                
   33.500  50%   0.172 MM12                                                
   57.299  88%   0.294 MM14                                                
   45.493  73%   0.233 MM17                                                
    0.000 999%   0.000 Lip13a+Lip13b                                       
   90.799  67%   0.466 MM14+Lip13a+Lip13b+MM12                             
  117.676  36%   0.603 MM09+Lip09                                          
  200.355  35%   1.027 MM20+Lip20                                          
   6 lines in following misc. output table
  FWHM = 0.069 ppm    S/N =   4                                            
  Data shift = 0.061 ppm                                                   
  Ph: -77 deg     -31.3 deg/ppm                                            
  alphaB,S = 9.7E-01,   5.1E+01                                            
   14 spline knots.   Ns =10(1)                                            
  (16) 7 infls.   (17) 3 extrs.                                            
  498 points on ppm-axis = NY
      4.000000     3.992357     3.984714     3.977070     3.969427     3.961784     3.954141     3.946497     3.938854     3.931211
      3.923568     3.915925     3.908281     3.900638     3.892995     3.885352     3.877708     3.870065     3.862422     3.854779
      3.847136     3.839492     3.831849     3.824206     3.816563     3.808919     3.801276     3.793633     3.785990     3.778347
      3.770703     3.763060     3.755417     3.747774     3.740130     3.732487     3.724844     3.717201     3.709558     3.701914
      3.694271     3.686628     3.678985     3.671341     3.663698     3.656055     3.648412     3.640769     3.633125     3.625482
      3.617839     3.610196     3.602552     3.594909     3.587266     3.579623     3.571980     3.564336     3.556693     3.549050
      3.541407     3.533763     3.526120     3.518477     3.510834     3.503191     3.495547     3.487904     3.480261     3.472618
      3.464974     3.457331     3.449688     3.442045     3.434402     3.426758     3.419115     3.411472     3.403829     3.396185
      3.388542     3.380899     3.373256     3.365613     3.357969     3.350326     3.342683     3.335040     3.327396     3.319753
      3.312110     3.304467     3.296824     3.289180     3.281537     3.273894     3.266251     3.258607     3.250964     3.243321
      3.235678     3.228034     3.220391     3.212748     3.205105     3.197462     3.189818     3.182175     3.174532     3.166889
      3.159245     3.151602     3.143959     3.136316     3.128673     3.121029     3.113386     3.105743     3.098100     3.090456
      3.082813     3.075170     3.067527     3.059884     3.052240     3.044597     3.036954     3.029311     3.021667     3.014024
      3.006381     2.998738     2.991095     2.983451     2.975808     2.968165     2.960522     2.952878     2.945235     2.937592
      2.929949     2.922306     2.914662     2.907019     2.899376     2.891733     2.884089     2.876446     2.868803     2.861160
      2.853517     2.845873     2.838230     2.830587     2.822944     2.815300     2.807657     2.800014     2.792371     2.784728
      2.777084     2.769441     2.761798     2.754155     2.746511     2.738868     2.731225     2.723582     2.715939     2.708295
      2.700652     2.693009     2.685366     2.677722     2.670079     2.662436     2.654793     2.647150     2.639506     2.631863
      2.624220     2.616577     2.608933     2.601290     2.593647     2.586004     2.578361     2.570717     2.563074     2.555431
      2.547788     2.540144     2.532501     2.524858     2.517215     2.509572     2.501928     2.494285     2.486642     2.478999
      2.471355     2.463712     2.456069     2.448426     2.440783     2.433139     2.425496     2.417853     2.410210     2.402566
      2.394923     2.387280     2.379637     2.371994     2.364350     2.356707     2.349064     2.341421     2.333777     2.326134
      2.318491     2.310848     2.303205     2.295561     2.287918     2.280275     2.272632     2.264988     2.257345     2.249702
      2.242059     2.234416     2.226772     2.219129     2.211486     2.203843     2.196199     2.188556     2.180913     2.173270
      2.165627     2.157983     2.150340     2.142697     2.135054     2.127410     2.119767     2.112124     2.104481     2.096838
      2.089194     2.081551     2.073908     2.066265     2.058621     2.050978     2.043335     2.035692     2.028049     2.020405
      2.012762     2.005119     1.997476     1.989833     1.982190     1.974546     1.966903     1.959260     1.951617     1.943974
      1.936331     1.928688     1.921045     1.913402     1.905759     1.898115     1.890472     1.882829     1.875186     1.867543
      1.859900     1.852257     1.844614     1.836971     1.829327     1.821684     1.814041     1.806398     1.798755     1.791112
      1.783469     1.775826     1.768183     1.760540     1.752896     1.745253     1.737610     1.729967     1.722324     1.714681
      1.707038     1.699395     1.691752     1.684108     1.676465     1.668822     1.661179     1.653536     1.645893     1.638250
      1.630607     1.622964     1.615321     1.607677     1.600034     1.592391     1.584748     1.577105     1.569462     1.561819
      1.554176     1.546533     1.538890     1.531246     1.523603     1.515960     1.508317     1.500674     1.493031     1.485388
      1.477745     1.470102     1.462458     1.454815     1.447172     1.439529     1.431886     1.424243     1.416600     1.408957
      1.401314     1.393671     1.386027     1.378384     1.370741     1.363098     1.355455     1.347812     1.340169     1.332526
      1.324883     1.317240     1.309596     1.301953     1.294310     1.286667     1.279024     1.271381     1.263738     1.256095
      1.248452     1.240808     1.233165     1.225522     1.217879     1.210236     1.202593     1.194950     1.187307     1.179664
      1.172021     1.164377     1.156734     1.149091     1.141448     1.133805     1.126162     1.118519     1.110876     1.103233
      1.095590     1.087946     1.080303     1.072660     1.065017     1.057374     1.049731     1.042088     1.034445     1.026802
      1.019158     1.011515     1.003872     0.996229     0.988586     0.980943     0.973300     0.965657     0.958014     0.950371
      0.942727     0.935084     0.927441     0.919798     0.912155     0.904512     0.896869     0.889226     0.881583     0.873940
      0.866296     0.858653     0.851010     0.843367     0.835724     0.828081     0.820438     0.812795     0.805152     0.797508
      0.789865     0.782222     0.774579     0.766936     0.759293     0.751650     0.744007     0.736364     0.728721     0.721077
      0.713434     0.705791     0.698148     0.690505     0.682862     0.675219     0.667576     0.659933     0.652290     0.644646
      0.637003     0.629360     0.621717     0.614074     0.606431     0.598788     0.591145     0.583502     0.575858     0.568215
      0.560572     0.552929     0.545286     0.537643     0.530000     0.522357     0.514714     0.507071     0.499427     0.491784
      0.484141     0.476498     0.468855     0.461212     0.453569     0.445925     0.438282     0.430639     0.422996     0.415353
      0.407710     0.400067     0.392424     0.384780     0.377137     0.369494     0.361851     0.354208     0.346565     0.338922
      0.331278     0.323635     0.315992     0.308349     0.300706     0.293063     0.285420     0.277777     0.270133     0.262490
      0.254847     0.247204     0.239561     0.231918     0.224275     0.216631     0.208988     0.201345
 NY phased data points follow
  -2.55375E+01 -2.53200E+01 -2.55919E+01 -2.45395E+01 -2.27843E+01 -2.45020E+01 -2.31352E+01 -2.30418E+01 -2.25096E+01 -2.29614E+01
  -1.87618E+01 -2.06632E+01 -2.19861E+01 -2.21841E+01 -2.14623E+01 -2.02210E+01 -2.25787E+01 -2.25037E+01 -2.01827E+01 -2.11674E+01
  -2.06806E+01 -2.12756E+01 -2.20038E+01 -2.16489E+01 -2.29235E+01 -2.25618E+01 -2.04587E+01 -1.90542E+01 -2.10510E+01 -2.05481E+01
  -1.89259E+01 -1.91303E+01 -1.87844E+01 -1.79878E+01 -1.81449E+01 -1.81777E+01 -1.88393E+01 -1.90135E+01 -1.80298E+01 -1.92172E+01
  -1.70785E+01 -1.76684E+01 -1.87812E+01 -1.89139E+01 -1.72661E+01 -1.54209E+01 -1.50046E+01 -1.59849E+01 -1.61650E+01 -1.61421E+01
  -1.52934E+01 -1.59231E+01 -1.46970E+01 -1.52660E+01 -1.63934E+01 -1.68828E+01 -1.47482E+01 -1.49201E+01 -1.62241E+01 -1.45429E+01
  -1.50133E+01 -1.44082E+01 -1.35696E+01 -1.37699E+01 -1.56389E+01 -1.37375E+01 -1.56820E+01 -1.42048E+01 -1.35753E+01 -1.48660E+01
  -1.52541E+01 -1.48588E+01 -1.18060E+01 -1.51003E+01 -1.31419E+01 -1.40242E+01 -1.29461E+01 -1.45398E+01 -1.28465E+01 -1.34689E+01
  -1.18576E+01 -1.18786E+01 -1.01750E+01 -1.14234E+01 -1.24085E+01 -1.25557E+01 -1.31375E+01 -1.16064E+01 -1.12249E+01 -1.13486E+01
  -1.12682E+01 -1.25400E+01 -1.04887E+01 -1.13769E+01 -1.01497E+01 -1.09573E+01 -1.12173E+01 -1.04146E+01 -1.02340E+01 -9.09661E+00
  -8.08068E+00 -7.18507E+00 -8.34605E+00 -6.72689E+00 -7.57937E+00 -5.87452E+00 -7.95493E+00 -8.75043E+00 -8.75706E+00 -8.67110E+00
  -7.93427E+00 -1.09056E+01 -9.36784E+00 -1.07769E+01 -9.58276E+00 -8.44825E+00 -8.46885E+00 -6.59792E+00 -7.02917E+00 -1.02421E+01
  -9.20732E+00 -9.43348E+00 -6.81041E+00 -7.12173E+00 -5.58545E+00 -5.70466E+00 -7.59455E+00 -3.85382E+00 -5.71021E+00 -4.51094E+00
  -6.51401E+00 -6.25056E+00 -5.77695E+00 -7.38665E+00 -5.62725E+00 -6.78066E+00 -8.58398E+00 -7.56843E+00 -8.72622E+00 -6.14153E+00
  -9.12540E+00 -6.98154E+00 -7.75244E+00 -8.63267E+00 -8.27851E+00 -6.58344E+00 -8.32571E+00 -1.05032E+01 -7.26827E+00 -8.21867E+00
  -8.37616E+00 -7.68885E+00 -7.70667E+00 -7.29298E+00 -7.20402E+00 -9.05176E+00 -7.61712E+00 -6.78464E+00 -7.01837E+00 -7.54710E+00
  -9.03561E+00 -8.09542E+00 -7.31413E+00 -5.09051E+00 -7.24924E+00 -8.12702E+00 -7.45819E+00 -7.47102E+00 -6.76238E+00 -8.38122E+00
  -6.67334E+00 -5.50165E+00 -7.19627E+00 -5.58333E+00 -7.66674E+00 -7.28733E+00 -7.82775E+00 -6.21353E+00 -6.94918E+00 -6.78115E+00
  -5.45471E+00 -7.42498E+00 -5.18858E+00 -4.59214E+00 -6.34147E+00 -4.97706E+00 -7.69908E+00 -4.86917E+00 -5.85390E+00 -6.40329E+00
  -5.88306E+00 -4.74252E+00 -4.03320E+00 -4.56153E+00 -3.81876E+00 -4.81542E+00 -3.82078E+00 -3.71331E+00 -1.70880E+00 -3.97353E+00
  -4.90013E+00 -3.50014E+00 -2.74642E+00 -3.75071E+00 -2.18446E+00 -3.04129E+00 -2.85510E+00 -3.50085E+00 -3.08763E+00 -3.84425E+00
  -4.92689E+00 -2.66633E+00 -3.42587E+00 -2.40088E+00 -1.43160E+00 -2.50971E+00 -3.71825E+00 -1.75087E+00 -1.20078E+00 -3.56051E+00
  -1.80634E+00 -2.97025E+00 -2.99343E+00 -4.52628E+00 -2.46549E+00 -3.45079E+00 -3.89901E+00 -2.68496E+00 -2.33781E+00 -2.21024E+00
  -2.88519E+00 -1.53732E+00 -2.36600E+00 -8.69838E-01 -2.04311E+00 -2.17180E+00 -2.09840E+00 -1.66378E-01 -7.17700E-01 -5.95138E-01
  -2.03224E+00 -4.03064E+00 -7.92280E-01 -3.09676E-01 -2.23381E+00 -1.78375E+00 -2.01349E+00 -1.20379E+00  8.55545E-01 -1.44406E+00
  -1.25550E+00 -1.19076E-01  1.39157E+00  2.00706E+00  9.72084E-01  1.01946E+00  6.99493E-01  4.04994E+00  4.93587E+00  7.84517E+00
   5.91936E+00  6.44061E+00  5.13988E+00  4.70937E+00  4.32829E+00  4.33044E+00  1.64505E+00  2.49371E+00  2.68707E-01  2.47997E+00
   1.21362E+00  9.97097E-02 -9.52764E-01  4.81527E-01  1.51379E+00 -7.37267E-02  1.61410E-01 -1.10059E+00 -6.54213E-01 -8.86964E-01
  -1.37749E+00 -1.12419E+00 -1.48308E+00 -1.76994E-02 -1.89519E+00 -2.31491E+00 -8.25276E-01  2.71109E-01 -1.34669E+00 -1.61681E+00
  -6.14647E-01 -1.79913E+00 -4.88071E-01  6.31205E-01 -1.38630E+00 -6.91193E-01  4.85272E-01  2.75446E-02 -1.00286E+00 -1.06459E+00
  -5.34911E-01  1.38454E+00  3.47957E-01 -1.20269E-01  6.52233E-01 -6.78569E-01 -2.14076E-01 -1.12198E+00  1.97924E-01 -5.53682E-01
   2.85235E-01 -2.15443E+00  1.09732E+00  1.91653E-01 -1.60278E+00 -6.55928E-01 -3.67900E-01 -1.02444E+00 -1.46073E+00 -1.18385E-01
  -1.17784E+00 -8.35211E-01  1.52585E+00 -1.90643E-01  1.77408E+00 -1.89491E+00 -1.13871E+00 -7.52598E-01  2.34037E+00  2.17858E-02
   1.22138E+00  1.54903E+00  1.71342E+00 -4.38013E-01  1.38690E+00  1.00866E+00 -4.69968E-01  9.33063E-03  2.66205E-01 -5.44849E-01
   1.60976E+00 -3.61705E-01 -6.95617E-01 -7.23541E-01 -1.49908E+00  1.57473E-01 -5.53624E-01 -7.61967E-01 -2.85227E-01  8.41303E-01
   4.02133E-01 -1.33193E+00 -6.04535E-01 -9.49727E-01 -7.44832E-01 -1.81819E-01  1.10603E+00 -6.38345E-01 -2.19199E-01 -2.43528E-02
  -5.85662E-01 -1.94898E-01  2.70572E+00  6.89837E-01  8.52309E-01  1.12698E-01  1.42714E+00  1.50532E+00  1.72913E+00  1.53315E+00
   1.97722E+00  5.16575E-01 -5.58652E-01  1.98317E+00  1.75446E+00  1.06614E+00  1.05872E+00 -1.54503E-01 -3.65523E-01  2.18026E-01
  -3.97881E-01  2.62400E-01 -1.32641E+00  2.78755E-01 -1.16983E+00  8.72694E-01  3.11561E-01  1.32701E+00  1.65827E+00  5.87712E-01
   1.91841E+00 -3.13765E-01  1.57437E+00  1.03985E+00  2.38027E+00  8.92231E-03  8.88930E-01  1.37637E+00  1.96791E+00  2.21500E+00
   1.79643E+00  1.84854E+00  2.60706E+00  2.92375E+00  1.03487E-01  2.81056E+00  8.53756E-01  1.53982E+00  8.99610E-01  2.36479E+00
   2.19687E+00  3.22032E+00  3.60725E+00  1.96216E+00  2.16021E-01  3.90762E+00  4.85918E-01  2.72889E+00  1.41758E+00  8.78963E-01
  -7.19059E-01  1.45531E+00  1.63296E+00  6.70779E-01  1.23186E+00  1.09929E+00  1.92886E+00  4.41651E-01  6.49859E-01  1.51355E+00
   1.97957E+00  5.51057E-01  1.17533E+00  1.88607E+00  3.00568E+00  1.53658E+00  2.47907E+00  6.49671E-01  1.20432E+00  3.19186E+00
   2.53017E+00  2.73279E+00 -5.93217E-01  1.70975E+00  3.54627E-01  1.81422E+00  3.00004E+00  2.21035E+00  1.48832E+00  3.13284E+00
   2.45880E+00  1.98423E+00  2.54617E+00  1.72334E+00  2.70395E+00  1.24513E+00  1.18062E+00  1.44261E+00  2.46835E+00  2.06294E+00
   6.52330E-01  2.39864E+00  2.17014E+00  3.24755E+00  2.55956E+00  3.94764E-01  7.63266E-01  1.98067E+00  2.39588E+00  2.61777E+00
   1.56023E+00  1.55383E+00  8.75925E-01  3.63933E+00  1.01067E+00  2.37592E-01  2.72027E+00  7.72297E-01  2.72229E+00  1.71772E+00
   2.45807E+00  1.89520E+00  1.70592E+00  2.01332E+00  1.75665E+00  4.13247E+00  7.84872E-01  2.14411E+00  2.91258E+00  1.18618E-01
   1.96454E+00  2.90560E+00  3.56843E+00  9.70140E-01  1.88320E+00  2.16502E+00  1.32651E+00  9.55858E-01
 NY points of the fit to the data follow
  -2.31848E+01 -2.29415E+01 -2.25879E+01 -2.25014E+01 -2.28040E+01 -2.32679E+01 -2.34674E+01 -2.31877E+01 -2.26061E+01 -2.20465E+01
  -2.16800E+01 -2.14962E+01 -2.13646E+01 -2.11618E+01 -2.09602E+01 -2.09123E+01 -2.09817E+01 -2.09395E+01 -2.07129E+01 -2.04726E+01
  -2.03998E+01 -2.04724E+01 -2.04785E+01 -2.03371E+01 -2.01707E+01 -2.00485E+01 -1.99732E+01 -1.98961E+01 -1.97628E+01 -1.95769E+01
  -1.93656E+01 -1.91507E+01 -1.89568E+01 -1.87948E+01 -1.86741E+01 -1.85993E+01 -1.85303E+01 -1.83850E+01 -1.81501E+01 -1.79354E+01
  -1.78458E+01 -1.78442E+01 -1.77758E+01 -1.75142E+01 -1.70842E+01 -1.66493E+01 -1.63624E+01 -1.62551E+01 -1.62618E+01 -1.62761E+01
  -1.62455E+01 -1.62094E+01 -1.62062E+01 -1.62236E+01 -1.61961E+01 -1.60858E+01 -1.59333E+01 -1.57960E+01 -1.56844E+01 -1.55604E+01
  -1.54287E+01 -1.53157E+01 -1.52002E+01 -1.50740E+01 -1.49512E+01 -1.48254E+01 -1.46833E+01 -1.45359E+01 -1.43975E+01 -1.42784E+01
  -1.41737E+01 -1.40470E+01 -1.38799E+01 -1.37052E+01 -1.35610E+01 -1.34528E+01 -1.33363E+01 -1.32418E+01 -1.32087E+01 -1.32104E+01
  -1.31766E+01 -1.30367E+01 -1.27951E+01 -1.25583E+01 -1.24326E+01 -1.24388E+01 -1.24973E+01 -1.25221E+01 -1.24737E+01 -1.23825E+01
  -1.23167E+01 -1.22697E+01 -1.20810E+01 -1.15266E+01 -1.09203E+01 -1.06741E+01 -1.07526E+01 -1.07618E+01 -1.02733E+01 -9.26265E+00
  -8.14009E+00 -7.33629E+00 -7.01106E+00 -7.04118E+00 -7.23980E+00 -7.45174E+00 -7.69972E+00 -8.07222E+00 -8.52026E+00 -8.85250E+00
  -9.00753E+00 -9.15923E+00 -9.47916E+00 -9.89852E+00 -1.01977E+01 -1.02165E+01 -9.91362E+00 -9.32947E+00 -8.87832E+00 -8.77469E+00
  -8.82983E+00 -8.65573E+00 -7.97200E+00 -6.91003E+00 -5.90851E+00 -5.30371E+00 -5.13680E+00 -5.25067E+00 -5.47411E+00 -5.70079E+00
  -5.99452E+00 -6.40236E+00 -6.81720E+00 -7.07412E+00 -7.21180E+00 -7.42885E+00 -7.80653E+00 -8.20741E+00 -8.43828E+00 -8.46616E+00
  -8.42761E+00 -8.36672E+00 -8.29067E+00 -8.20860E+00 -8.13045E+00 -8.05929E+00 -7.99120E+00 -7.92218E+00 -7.85214E+00 -7.78494E+00
  -7.72400E+00 -7.67399E+00 -7.62934E+00 -7.57031E+00 -7.49223E+00 -7.40208E+00 -7.32687E+00 -7.29446E+00 -7.29193E+00 -7.28226E+00
  -7.23492E+00 -7.14660E+00 -7.04244E+00 -6.95145E+00 -6.88460E+00 -6.83253E+00 -6.79067E+00 -6.75968E+00 -6.71835E+00 -6.65993E+00
  -6.59705E+00 -6.55316E+00 -6.53974E+00 -6.53122E+00 -6.49473E+00 -6.42136E+00 -6.33825E+00 -6.27931E+00 -6.23939E+00 -6.17377E+00
  -6.06176E+00 -5.92819E+00 -5.81696E+00 -5.74895E+00 -5.68913E+00 -5.58344E+00 -5.42177E+00 -5.23860E+00 -5.08772E+00 -4.98825E+00
  -4.90457E+00 -4.79836E+00 -4.66433E+00 -4.52524E+00 -4.39586E+00 -4.28452E+00 -4.19765E+00 -4.13879E+00 -4.10404E+00 -4.06709E+00
  -4.01530E+00 -3.94366E+00 -3.86370E+00 -3.80009E+00 -3.75606E+00 -3.71848E+00 -3.66762E+00 -3.63367E+00 -3.66435E+00 -3.73933E+00
  -3.78660E+00 -3.73909E+00 -3.61157E+00 -3.47395E+00 -3.35540E+00 -3.25443E+00 -3.19764E+00 -3.21942E+00 -3.31709E+00 -3.44671E+00
  -3.54317E+00 -3.55268E+00 -3.45896E+00 -3.28586E+00 -3.10288E+00 -2.96634E+00 -2.86830E+00 -2.76673E+00 -2.65104E+00 -2.54335E+00
  -2.44709E+00 -2.33795E+00 -2.20780E+00 -2.09017E+00 -2.00359E+00 -1.93443E+00 -1.86987E+00 -1.81919E+00 -1.78982E+00 -1.76694E+00
  -1.73341E+00 -1.68123E+00 -1.60966E+00 -1.51958E+00 -1.41308E+00 -1.30694E+00 -1.22038E+00 -1.15517E+00 -1.09314E+00 -9.71506E-01
  -5.37352E-01  4.01658E-01  1.19353E+00  1.37167E+00  1.17569E+00  1.25664E+00  2.16253E+00  3.77522E+00  5.37333E+00  6.34008E+00
   6.54451E+00  6.23382E+00  5.69502E+00  5.14533E+00  4.50682E+00  3.67942E+00  2.81116E+00  2.19864E+00  1.81815E+00  1.33883E+00
   5.80262E-01 -2.44300E-01 -7.88506E-01 -9.50847E-01 -9.77619E-01 -9.77345E-01 -9.68251E-01 -9.58853E-01 -9.53034E-01 -9.47072E-01
  -9.37737E-01 -9.23637E-01 -9.06154E-01 -8.87934E-01 -8.70979E-01 -8.53849E-01 -8.34438E-01 -8.12436E-01 -7.87807E-01 -7.60418E-01
  -7.30945E-01 -7.00107E-01 -6.68348E-01 -6.35998E-01 -6.03322E-01 -5.70942E-01 -5.39322E-01 -5.08290E-01 -4.77806E-01 -4.48074E-01
  -4.19484E-01 -3.92320E-01 -3.66917E-01 -3.43490E-01 -3.22109E-01 -3.02637E-01 -2.85120E-01 -2.69460E-01 -2.55547E-01 -2.43038E-01
  -2.31526E-01 -2.20568E-01 -2.09905E-01 -1.99260E-01 -1.88365E-01 -1.76798E-01 -1.64246E-01 -1.50473E-01 -1.35435E-01 -1.19090E-01
  -1.01457E-01 -8.24760E-02 -6.22193E-02 -4.08025E-02 -1.85073E-02  4.44390E-03  2.77999E-02  5.14017E-02  7.49779E-02  9.82705E-02
   1.20939E-01  1.42779E-01  1.63599E-01  1.83319E-01  2.01775E-01  2.18868E-01  2.34482E-01  2.48678E-01  2.61524E-01  2.73186E-01
   2.83735E-01  2.93323E-01  3.02081E-01  3.10285E-01  3.18161E-01  3.25969E-01  3.33844E-01  3.41973E-01  3.50490E-01  3.59617E-01
   3.69460E-01  3.80118E-01  3.91545E-01  4.03756E-01  4.16704E-01  4.30405E-01  4.44746E-01  4.59621E-01  4.74823E-01  4.90248E-01
   5.05754E-01  5.21282E-01  5.36667E-01  5.51805E-01  5.66546E-01  5.80889E-01  5.94810E-01  6.08375E-01  6.21562E-01  6.34442E-01
   6.47062E-01  6.59618E-01  6.72252E-01  6.85175E-01  6.98501E-01  7.12438E-01  7.27165E-01  7.42981E-01  7.60100E-01  7.78785E-01
   7.99209E-01  8.21650E-01  8.46350E-01  8.73644E-01  9.03755E-01  9.36942E-01  9.73354E-01  1.01322E+00  1.05665E+00  1.10378E+00
   1.15452E+00  1.20871E+00  1.26600E+00  1.32600E+00  1.38809E+00  1.45155E+00  1.51538E+00  1.57853E+00  1.63978E+00  1.69795E+00
   1.75178E+00  1.80010E+00  1.84174E+00  1.87578E+00  1.90148E+00  1.91845E+00  1.92650E+00  1.92576E+00  1.91660E+00  1.89974E+00
   1.87606E+00  1.84675E+00  1.81297E+00  1.77602E+00  1.73711E+00  1.69750E+00  1.65828E+00  1.62050E+00  1.58488E+00  1.55209E+00
   1.52252E+00  1.49650E+00  1.47417E+00  1.45558E+00  1.44055E+00  1.42893E+00  1.42044E+00  1.41488E+00  1.41193E+00  1.41134E+00
   1.41275E+00  1.41593E+00  1.42061E+00  1.42663E+00  1.43377E+00  1.44188E+00  1.45075E+00  1.46030E+00  1.47040E+00  1.48101E+00
   1.49204E+00  1.50341E+00  1.51503E+00  1.52690E+00  1.53897E+00  1.55125E+00  1.56367E+00  1.57621E+00  1.58881E+00  1.60152E+00
   1.61429E+00  1.62716E+00  1.64005E+00  1.65297E+00  1.66588E+00  1.67885E+00  1.69184E+00  1.70487E+00  1.71787E+00  1.73088E+00
   1.74387E+00  1.75689E+00  1.76992E+00  1.78296E+00  1.79596E+00  1.80896E+00  1.82194E+00  1.83495E+00  1.84795E+00  1.86095E+00
   1.87391E+00  1.88687E+00  1.89982E+00  1.91280E+00  1.92576E+00  1.93873E+00  1.95164E+00  1.96458E+00  1.97751E+00  1.99047E+00
   2.00341E+00  2.01635E+00  2.02925E+00  2.04220E+00  2.05514E+00  2.06812E+00  2.08107E+00  2.09403E+00  2.10698E+00  2.11998E+00
   2.13299E+00  2.14604E+00  2.15906E+00  2.17212E+00  2.18519E+00  2.19834E+00  2.21151E+00  2.22473E+00
 NY background values follow
    -2.364E+01   -2.352E+01   -2.340E+01   -2.328E+01   -2.315E+01   -2.303E+01   -2.291E+01   -2.278E+01   -2.266E+01   -2.254E+01
    -2.242E+01   -2.229E+01   -2.217E+01   -2.205E+01   -2.193E+01   -2.180E+01   -2.168E+01   -2.156E+01   -2.144E+01   -2.131E+01
    -2.119E+01   -2.107E+01   -2.095E+01   -2.083E+01   -2.070E+01   -2.058E+01   -2.046E+01   -2.034E+01   -2.022E+01   -2.010E+01
    -1.997E+01   -1.985E+01   -1.973E+01   -1.961E+01   -1.949E+01   -1.937E+01   -1.925E+01   -1.913E+01   -1.901E+01   -1.889E+01
    -1.877E+01   -1.865E+01   -1.853E+01   -1.841E+01   -1.829E+01   -1.818E+01   -1.806E+01   -1.794E+01   -1.782E+01   -1.770E+01
    -1.759E+01   -1.747E+01   -1.735E+01   -1.724E+01   -1.712E+01   -1.700E+01   -1.689E+01   -1.677E+01   -1.666E+01   -1.654E+01
    -1.643E+01   -1.631E+01   -1.620E+01   -1.608E+01   -1.597E+01   -1.586E+01   -1.574E+01   -1.563E+01   -1.552E+01   -1.541E+01
    -1.530E+01   -1.518E+01   -1.507E+01   -1.496E+01   -1.485E+01   -1.474E+01   -1.463E+01   -1.452E+01   -1.442E+01   -1.431E+01
    -1.420E+01   -1.409E+01   -1.399E+01   -1.388E+01   -1.377E+01   -1.367E+01   -1.356E+01   -1.346E+01   -1.335E+01   -1.325E+01
    -1.314E+01   -1.304E+01   -1.294E+01   -1.284E+01   -1.273E+01   -1.263E+01   -1.253E+01   -1.243E+01   -1.233E+01   -1.223E+01
    -1.213E+01   -1.203E+01   -1.193E+01   -1.184E+01   -1.174E+01   -1.164E+01   -1.154E+01   -1.145E+01   -1.135E+01   -1.126E+01
    -1.116E+01   -1.107E+01   -1.097E+01   -1.088E+01   -1.079E+01   -1.070E+01   -1.060E+01   -1.051E+01   -1.042E+01   -1.033E+01
    -1.024E+01   -1.015E+01   -1.006E+01   -9.970E+00   -9.881E+00   -9.793E+00   -9.705E+00   -9.618E+00   -9.531E+00   -9.444E+00
    -9.358E+00   -9.273E+00   -9.187E+00   -9.102E+00   -9.018E+00   -8.934E+00   -8.851E+00   -8.768E+00   -8.685E+00   -8.603E+00
    -8.521E+00   -8.440E+00   -8.359E+00   -8.278E+00   -8.198E+00   -8.119E+00   -8.040E+00   -7.961E+00   -7.882E+00   -7.805E+00
    -7.727E+00   -7.650E+00   -7.573E+00   -7.497E+00   -7.421E+00   -7.346E+00   -7.271E+00   -7.196E+00   -7.122E+00   -7.049E+00
    -6.975E+00   -6.902E+00   -6.830E+00   -6.758E+00   -6.686E+00   -6.615E+00   -6.544E+00   -6.474E+00   -6.404E+00   -6.334E+00
    -6.265E+00   -6.196E+00   -6.128E+00   -6.060E+00   -5.992E+00   -5.925E+00   -5.859E+00   -5.792E+00   -5.726E+00   -5.661E+00
    -5.596E+00   -5.531E+00   -5.467E+00   -5.403E+00   -5.339E+00   -5.276E+00   -5.214E+00   -5.151E+00   -5.090E+00   -5.028E+00
    -4.967E+00   -4.906E+00   -4.846E+00   -4.786E+00   -4.727E+00   -4.668E+00   -4.610E+00   -4.551E+00   -4.494E+00   -4.436E+00
    -4.380E+00   -4.323E+00   -4.267E+00   -4.212E+00   -4.156E+00   -4.102E+00   -4.047E+00   -3.994E+00   -3.940E+00   -3.887E+00
    -3.835E+00   -3.782E+00   -3.731E+00   -3.679E+00   -3.629E+00   -3.578E+00   -3.528E+00   -3.479E+00   -3.430E+00   -3.381E+00
    -3.333E+00   -3.286E+00   -3.238E+00   -3.191E+00   -3.145E+00   -3.099E+00   -3.054E+00   -3.009E+00   -2.964E+00   -2.920E+00
    -2.877E+00   -2.833E+00   -2.791E+00   -2.748E+00   -2.707E+00   -2.665E+00   -2.624E+00   -2.583E+00   -2.543E+00   -2.504E+00
    -2.464E+00   -2.425E+00   -2.387E+00   -2.349E+00   -2.311E+00   -2.273E+00   -2.237E+00   -2.200E+00   -2.164E+00   -2.128E+00
    -2.093E+00   -2.058E+00   -2.023E+00   -1.989E+00   -1.955E+00   -1.921E+00   -1.888E+00   -1.855E+00   -1.823E+00   -1.791E+00
    -1.759E+00   -1.727E+00   -1.696E+00   -1.665E+00   -1.635E+00   -1.605E+00   -1.575E+00   -1.546E+00   -1.517E+00   -1.488E+00
    -1.459E+00   -1.431E+00   -1.403E+00   -1.376E+00   -1.348E+00   -1.321E+00   -1.295E+00   -1.268E+00   -1.242E+00   -1.216E+00
    -1.191E+00   -1.166E+00   -1.140E+00   -1.116E+00   -1.091E+00   -1.067E+00   -1.043E+00   -1.019E+00   -9.959E-01   -9.727E-01
    -9.497E-01   -9.270E-01   -9.044E-01   -8.822E-01   -8.601E-01   -8.383E-01   -8.166E-01   -7.952E-01   -7.740E-01   -7.530E-01
    -7.322E-01   -7.116E-01   -6.912E-01   -6.710E-01   -6.510E-01   -6.311E-01   -6.115E-01   -5.920E-01   -5.727E-01   -5.535E-01
    -5.345E-01   -5.157E-01   -4.970E-01   -4.785E-01   -4.601E-01   -4.419E-01   -4.238E-01   -4.059E-01   -3.881E-01   -3.704E-01
    -3.528E-01   -3.354E-01   -3.181E-01   -3.009E-01   -2.838E-01   -2.669E-01   -2.500E-01   -2.333E-01   -2.166E-01   -2.001E-01
    -1.836E-01   -1.673E-01   -1.510E-01   -1.348E-01   -1.187E-01   -1.027E-01   -8.679E-02   -7.093E-02   -5.514E-02   -3.942E-02
    -2.376E-02   -8.169E-03    7.366E-03    2.285E-02    3.827E-02    5.365E-02    6.898E-02    8.426E-02    9.951E-02    1.147E-01
     1.299E-01    1.450E-01    1.602E-01    1.752E-01    1.903E-01    2.054E-01    2.204E-01    2.354E-01    2.504E-01    2.655E-01
     2.805E-01    2.955E-01    3.105E-01    3.255E-01    3.405E-01    3.555E-01    3.706E-01    3.856E-01    4.006E-01    4.157E-01
     4.307E-01    4.458E-01    4.608E-01    4.759E-01    4.909E-01    5.060E-01    5.210E-01    5.361E-01    5.512E-01    5.662E-01
     5.813E-01    5.964E-01    6.114E-01    6.265E-01    6.416E-01    6.567E-01    6.718E-01    6.868E-01    7.019E-01    7.170E-01
     7.321E-01    7.472E-01    7.622E-01    7.773E-01    7.924E-01    8.075E-01    8.226E-01    8.376E-01    8.527E-01    8.678E-01
     8.829E-01    8.979E-01    9.130E-01    9.281E-01    9.431E-01    9.582E-01    9.733E-01    9.883E-01    1.003E+00    1.018E+00
     1.033E+00    1.049E+00    1.064E+00    1.079E+00    1.094E+00    1.109E+00    1.124E+00    1.139E+00    1.154E+00    1.169E+00
     1.184E+00    1.198E+00    1.213E+00    1.228E+00    1.243E+00    1.258E+00    1.273E+00    1.288E+00    1.302E+00    1.317E+00
     1.332E+00    1.347E+00    1.361E+00    1.376E+00    1.391E+00    1.405E+00    1.420E+00    1.434E+00    1.449E+00    1.463E+00
     1.478E+00    1.492E+00    1.506E+00    1.521E+00    1.535E+00    1.549E+00    1.563E+00    1.578E+00    1.592E+00    1.606E+00
     1.620E+00    1.634E+00    1.648E+00    1.662E+00    1.675E+00    1.689E+00    1.703E+00    1.717E+00    1.730E+00    1.744E+00
     1.757E+00    1.771E+00    1.784E+00    1.798E+00    1.811E+00    1.825E+00    1.838E+00    1.851E+00    1.865E+00    1.878E+00
     1.891E+00    1.904E+00    1.917E+00    1.931E+00    1.944E+00    1.957E+00    1.970E+00    1.983E+00    1.996E+00    2.009E+00
     2.022E+00    2.035E+00    2.048E+00    2.061E+00    2.074E+00    2.087E+00    2.100E+00    2.113E+00    2.126E+00    2.139E+00
     2.152E+00    2.164E+00    2.177E+00    2.190E+00    2.203E+00    2.216E+00    2.229E+00    2.242E+00
 Asp      Conc. = 4.01E+01
