 LCModel (Version 6.3-1L) Copyright: S.W. Provencher.          Ref.: Magn. Reson. Med. 30:672-679 (1993).                
 Slice#2 Row#3 Col#8  PD_05_press_1_raw_act
 36 lines in following concentration table = NCONC+1
    Conc.  %SD /Cr+PCr  Metabolite                                         
   53.513 349% 2.8E-02 Ala                                                 
    0.000 999%   0.000 Asp                                                 
  146.741 183% 7.8E-02 Cr                                                  
 1.74E+03  16%   0.922 PCr                                                 
  192.946 106%   0.102 GABA                                                
    0.000 999%   0.000 Glc                                                 
 1.42E+03  23%   0.755 Gln                                                 
 2.40E+03  16%   1.275 Glu                                                 
  731.218   3%   0.388 GPC                                                 
    0.000 999%   0.000 PCh                                                 
  747.834  11%   0.397 GSH                                                 
 2.72E+03   9%   1.445 Ins                                                 
  166.953 123% 8.9E-02 Lac                                                 
 2.61E+03   3%   1.383 NAA                                                 
    0.000 999%   0.000 NAAG                                                
  195.381  15%   0.104 Scyllo                                              
    0.000 999%   0.000 Tau                                                 
    0.000 999%   0.000 -CrCH2                                              
  731.218   3%   0.388 GPC+PCh                                             
 2.61E+03   3%   1.383 NAA+NAAG                                            
 1.88E+03   3%   1.000 Cr+PCr                                              
 3.83E+03  15%   2.030 Glu+Gln                                             
  371.360 173%   0.197 Lip13a                                              
  315.648 128%   0.167 Lip13b                                              
    0.000 999%   0.000 Lip09                                               
 1.87E+03  10%   0.990 MM09                                                
  109.039 106% 5.8E-02 Lip20                                               
 3.99E+03   9%   2.117 MM20                                                
  627.307  28%   0.333 MM12                                                
 5.08E+03   4%   2.693+MM14                                                
 2.01E+03  15%   1.066 MM17                                                
  687.009  52%   0.364 Lip13a+Lip13b                                       
 6.39E+03   5%   3.391 MM14+Lip13a+Lip13b+MM12                             
 1.87E+03  10%   0.990 MM09+Lip09                                          
 4.10E+03   9%   2.174 MM20+Lip20                                          
   6 lines in following misc. output table
  FWHM = 0.069 ppm    S/N =  13                                            
  Data shift = 0.008 ppm                                                   
  Ph: -22 deg     -13.5 deg/ppm                                            
  alphaB,S = 8.5E+01,   2.9E+02                                            
   14 spline knots.   Ns =10(1)                                            
   3 inflections.     1 extrema                                            
  498 points on ppm-axis = NY
      4.000000     3.992357     3.984714     3.977070     3.969427     3.961784     3.954141     3.946497     3.938854     3.931211
      3.923568     3.915925     3.908281     3.900638     3.892995     3.885352     3.877708     3.870065     3.862422     3.854779
      3.847136     3.839492     3.831849     3.824206     3.816563     3.808919     3.801276     3.793633     3.785990     3.778347
      3.770703     3.763060     3.755417     3.747774     3.740130     3.732487     3.724844     3.717201     3.709558     3.701914
      3.694271     3.686628     3.678985     3.671341     3.663698     3.656055     3.648412     3.640769     3.633125     3.625482
      3.617839     3.610196     3.602552     3.594909     3.587266     3.579623     3.571980     3.564336     3.556693     3.549050
      3.541407     3.533763     3.526120     3.518477     3.510834     3.503191     3.495547     3.487904     3.480261     3.472618
      3.464974     3.457331     3.449688     3.442045     3.434402     3.426758     3.419115     3.411472     3.403829     3.396185
      3.388542     3.380899     3.373256     3.365613     3.357969     3.350326     3.342683     3.335040     3.327396     3.319753
      3.312110     3.304467     3.296824     3.289180     3.281537     3.273894     3.266251     3.258607     3.250964     3.243321
      3.235678     3.228034     3.220391     3.212748     3.205105     3.197462     3.189818     3.182175     3.174532     3.166889
      3.159245     3.151602     3.143959     3.136316     3.128673     3.121029     3.113386     3.105743     3.098100     3.090456
      3.082813     3.075170     3.067527     3.059884     3.052240     3.044597     3.036954     3.029311     3.021667     3.014024
      3.006381     2.998738     2.991095     2.983451     2.975808     2.968165     2.960522     2.952878     2.945235     2.937592
      2.929949     2.922306     2.914662     2.907019     2.899376     2.891733     2.884089     2.876446     2.868803     2.861160
      2.853517     2.845873     2.838230     2.830587     2.822944     2.815300     2.807657     2.800014     2.792371     2.784728
      2.777084     2.769441     2.761798     2.754155     2.746511     2.738868     2.731225     2.723582     2.715939     2.708295
      2.700652     2.693009     2.685366     2.677722     2.670079     2.662436     2.654793     2.647150     2.639506     2.631863
      2.624220     2.616577     2.608933     2.601290     2.593647     2.586004     2.578361     2.570717     2.563074     2.555431
      2.547788     2.540144     2.532501     2.524858     2.517215     2.509572     2.501928     2.494285     2.486642     2.478999
      2.471355     2.463712     2.456069     2.448426     2.440783     2.433139     2.425496     2.417853     2.410210     2.402566
      2.394923     2.387280     2.379637     2.371994     2.364350     2.356707     2.349064     2.341421     2.333777     2.326134
      2.318491     2.310848     2.303205     2.295561     2.287918     2.280275     2.272632     2.264988     2.257345     2.249702
      2.242059     2.234416     2.226772     2.219129     2.211486     2.203843     2.196199     2.188556     2.180913     2.173270
      2.165627     2.157983     2.150340     2.142697     2.135054     2.127410     2.119767     2.112124     2.104481     2.096838
      2.089194     2.081551     2.073908     2.066265     2.058621     2.050978     2.043335     2.035692     2.028049     2.020405
      2.012762     2.005119     1.997476     1.989833     1.982190     1.974546     1.966903     1.959260     1.951617     1.943974
      1.936331     1.928688     1.921045     1.913402     1.905759     1.898115     1.890472     1.882829     1.875186     1.867543
      1.859900     1.852257     1.844614     1.836971     1.829327     1.821684     1.814041     1.806398     1.798755     1.791112
      1.783469     1.775826     1.768183     1.760540     1.752896     1.745253     1.737610     1.729967     1.722324     1.714681
      1.707038     1.699395     1.691752     1.684108     1.676465     1.668822     1.661179     1.653536     1.645893     1.638250
      1.630607     1.622964     1.615321     1.607677     1.600034     1.592391     1.584748     1.577105     1.569462     1.561819
      1.554176     1.546533     1.538890     1.531246     1.523603     1.515960     1.508317     1.500674     1.493031     1.485388
      1.477745     1.470102     1.462458     1.454815     1.447172     1.439529     1.431886     1.424243     1.416600     1.408957
      1.401314     1.393671     1.386027     1.378384     1.370741     1.363098     1.355455     1.347812     1.340169     1.332526
      1.324883     1.317240     1.309596     1.301953     1.294310     1.286667     1.279024     1.271381     1.263738     1.256095
      1.248452     1.240808     1.233165     1.225522     1.217879     1.210236     1.202593     1.194950     1.187307     1.179664
      1.172021     1.164377     1.156734     1.149091     1.141448     1.133805     1.126162     1.118519     1.110876     1.103233
      1.095590     1.087946     1.080303     1.072660     1.065017     1.057374     1.049731     1.042088     1.034445     1.026802
      1.019158     1.011515     1.003872     0.996229     0.988586     0.980943     0.973300     0.965657     0.958014     0.950371
      0.942727     0.935084     0.927441     0.919798     0.912155     0.904512     0.896869     0.889226     0.881583     0.873940
      0.866296     0.858653     0.851010     0.843367     0.835724     0.828081     0.820438     0.812795     0.805152     0.797508
      0.789865     0.782222     0.774579     0.766936     0.759293     0.751650     0.744007     0.736364     0.728721     0.721077
      0.713434     0.705791     0.698148     0.690505     0.682862     0.675219     0.667576     0.659933     0.652290     0.644646
      0.637003     0.629360     0.621717     0.614074     0.606431     0.598788     0.591145     0.583502     0.575858     0.568215
      0.560572     0.552929     0.545286     0.537643     0.530000     0.522357     0.514714     0.507071     0.499427     0.491784
      0.484141     0.476498     0.468855     0.461212     0.453569     0.445925     0.438282     0.430639     0.422996     0.415353
      0.407710     0.400067     0.392424     0.384780     0.377137     0.369494     0.361851     0.354208     0.346565     0.338922
      0.331278     0.323635     0.315992     0.308349     0.300706     0.293063     0.285420     0.277777     0.270133     0.262490
      0.254847     0.247204     0.239561     0.231918     0.224275     0.216631     0.208988     0.201345
 NY phased data points follow
   1.17853E+01  1.28015E+01  1.14196E+01  1.53502E+01  2.12437E+01  3.24143E+01  2.97261E+01  3.79680E+01  3.95365E+01  3.73608E+01
   3.78008E+01  3.55906E+01  3.19485E+01  2.66014E+01  1.86458E+01  1.75623E+01  1.52076E+01  1.25648E+01  1.13841E+01  1.32148E+01
   1.37848E+01  1.00616E+01  8.67641E+00  1.36434E+01  1.18356E+01  1.56678E+01  1.69665E+01  1.67012E+01  2.09831E+01  2.00476E+01
   2.11934E+01  1.78320E+01  1.37452E+01  1.37934E+01  1.16970E+01  1.27182E+01  1.62354E+01  1.52951E+01  1.53804E+01  1.25409E+01
   1.65825E+01  1.70251E+01  1.72005E+01  1.67539E+01  2.03936E+01  2.29553E+01  2.16090E+01  2.19609E+01  1.91304E+01  1.56151E+01
   1.33550E+01  1.40664E+01  1.51877E+01  1.26522E+01  1.25273E+01  1.00344E+01  1.26884E+01  1.40026E+01  1.10728E+01  8.40429E+00
   1.20102E+01  4.23077E+00  7.28083E+00  1.98031E+00  5.56404E-01  7.23634E+00  2.22007E+00 -6.76397E-01  3.48178E+00  2.69874E+00
   2.08221E+00  4.76376E+00  5.69191E+00  6.68720E+00  4.75203E+00  6.72235E+00  5.87547E+00  6.62472E+00  3.92386E+00  2.43729E+00
   3.40227E+00  6.58289E+00  7.98436E+00  8.44052E+00  7.95297E+00  8.58766E+00  6.98914E+00  7.69638E+00  9.63782E+00  6.10692E+00
   8.98846E+00  1.07989E+01  1.40770E+01  1.76316E+01  1.29988E+01  1.68538E+01  1.75895E+01  2.27181E+01  2.92359E+01  3.64238E+01
   4.72617E+01  5.32238E+01  5.37965E+01  4.55265E+01  4.35975E+01  4.34701E+01  3.43767E+01  2.75177E+01  2.74708E+01  1.69560E+01
   1.48024E+01  1.08103E+01  5.44129E+00  3.94821E+00  2.77105E+00  9.68628E+00  1.21962E+01  1.14911E+01  1.35672E+01  9.49898E+00
   1.18262E+01  2.06498E+01  2.80174E+01  3.28041E+01  4.57042E+01  5.22076E+01  5.52609E+01  5.26437E+01  4.92781E+01  4.18835E+01
   3.78916E+01  3.03482E+01  2.22424E+01  1.88880E+01  1.21709E+01  6.53814E+00  2.47182E+00  8.27085E+00  4.75185E+00  4.84942E+00
   4.63620E+00  5.05240E+00  6.83654E+00  4.88684E+00  4.75238E+00  4.66411E+00  6.22938E+00  1.55986E+00  6.44428E+00  3.29258E+00
   6.58183E+00  1.44489E+00  2.23299E+00  3.19260E+00  3.03836E+00  6.46687E-01  3.58153E+00  1.32463E+00 -1.79033E+00 -3.81530E+00
   1.13678E+00 -4.81167E-01 -7.67373E-01 -5.06377E-01  1.57186E+00  1.84665E+00  1.13946E+00 -7.72670E-02  1.97899E+00  7.53557E-01
  -3.83794E-01 -3.91203E+00 -6.98378E+00 -7.40505E+00 -7.69981E+00 -2.62599E+00 -4.33747E+00 -5.71017E+00 -5.96331E+00 -7.14934E+00
  -3.33762E+00 -6.46178E+00 -7.80712E+00 -6.25668E+00 -4.59307E+00 -9.24645E+00 -5.44499E+00 -4.06443E+00 -2.13063E+00  5.78225E-01
   3.57763E+00  5.43445E+00  4.92024E+00  5.50193E+00  5.80028E+00  4.09194E+00  6.01390E+00  4.66232E+00  5.82638E+00  5.92904E+00
   6.44659E+00  4.42041E+00  4.80509E+00  5.48320E+00  8.21622E+00  7.96493E+00  4.08095E+00  2.10481E+00  2.84373E+00 -2.26205E-01
   3.02341E+00  8.34261E+00  5.39382E+00  1.07395E+01  1.34433E+01  1.64194E+01  1.44929E+01  1.25288E+01  1.01197E+01  6.03736E+00
   1.91291E+00  3.16578E+00  7.47244E+00  5.97759E+00  4.29843E-01  7.98805E+00  1.02338E+01  1.26801E+01  1.03809E+01  5.72973E+00
   1.00158E+01  9.06977E+00  1.24827E+01  9.18005E+00  1.04492E+01  1.38402E+01  1.01423E+01  9.61692E+00  1.08282E+01  1.20987E+01
   1.47362E+01  9.33893E+00  1.17828E+01  1.37536E+01  1.64690E+01  1.73684E+01  1.66633E+01  1.72612E+01  1.82759E+01  2.82471E+01
   2.95860E+01  3.19142E+01  2.88494E+01  2.87153E+01  3.76180E+01  4.34581E+01  5.73126E+01  6.89366E+01  7.54499E+01  8.18274E+01
   8.30121E+01  7.47676E+01  7.29905E+01  6.29231E+01  5.58680E+01  4.90226E+01  4.18304E+01  3.28734E+01  2.19518E+01  1.72911E+01
   1.91806E+01  1.58012E+01  1.63519E+01  1.36615E+01  1.49308E+01  1.11035E+01  1.12873E+01  8.41780E+00  1.15392E+01  1.14250E+01
   8.20448E+00  8.82541E+00  9.03536E+00  8.31728E+00  5.74736E+00  7.09710E+00  1.26544E+01  1.14277E+01  8.56350E+00  1.11740E+01
   4.80843E+00  6.47762E+00  9.64624E+00  7.22771E+00  9.76309E+00  9.75421E+00  7.15439E+00  1.05256E+01  9.76172E+00  8.59011E+00
   1.09982E+01  1.28718E+01  1.08860E+01  1.31307E+01  1.52138E+01  1.72615E+01  1.29520E+01  1.67439E+01  1.60782E+01  1.75007E+01
   1.66733E+01  1.85075E+01  1.95164E+01  2.00360E+01  2.06611E+01  2.38403E+01  2.35943E+01  2.23405E+01  2.31338E+01  1.92573E+01
   1.77168E+01  2.15865E+01  2.30793E+01  2.18641E+01  2.86842E+01  2.62915E+01  2.97761E+01  2.93454E+01  3.20330E+01  3.27745E+01
   3.93485E+01  3.84162E+01  3.96407E+01  4.60115E+01  4.88006E+01  4.73507E+01  4.65067E+01  4.79956E+01  4.45945E+01  4.62149E+01
   4.39389E+01  4.09995E+01  3.34277E+01  3.87318E+01  3.48276E+01  3.18201E+01  3.35432E+01  2.38163E+01  2.45047E+01  2.45718E+01
   2.12105E+01  2.12815E+01  2.10710E+01  2.07444E+01  1.57332E+01  2.03213E+01  1.87355E+01  1.67948E+01  1.70315E+01  1.04819E+01
   1.18509E+01  1.41715E+01  1.30837E+01  1.22084E+01  1.19158E+01  9.38292E+00  1.28395E+01  1.16172E+01  1.27957E+01  1.17931E+01
   8.94950E+00  9.67182E+00  7.92541E+00  6.07642E+00  8.70142E+00  6.26317E+00  9.56120E+00  6.46978E+00  3.79145E+00  1.04714E+01
   9.98485E+00  5.44137E+00  8.44075E+00  2.80911E+00  6.48627E+00  9.42264E+00  1.00416E+01  9.65881E+00  8.81643E+00  9.48441E+00
   1.24833E+01  1.21528E+01  1.23359E+01  1.40439E+01  1.60914E+01  8.96262E+00  9.62656E+00  1.66619E+01  1.56760E+01  1.27420E+01
   1.19251E+01  1.61535E+01  1.58912E+01  1.30323E+01  1.14350E+01  1.68675E+01  1.61544E+01  1.67280E+01  1.66183E+01  1.26603E+01
   1.77097E+01  1.69040E+01  1.46507E+01  1.67839E+01  1.43421E+01  1.50353E+01  1.52703E+01  1.04905E+01  9.96554E+00  1.02701E+01
   8.77651E+00  1.24811E+01  1.04849E+01  1.04485E+01  8.61746E+00  1.11242E+01  8.32491E+00  4.64657E+00  7.55265E+00  5.73727E+00
   8.00835E+00  8.52738E+00  5.33805E+00  6.05763E+00  4.40789E+00  7.33961E+00  8.49626E+00  5.67258E+00  4.80514E+00  4.80501E+00
   3.20268E+00  7.76187E+00  7.05261E+00  1.37351E+00  7.31831E+00  6.64962E+00  4.62324E+00  5.48925E+00  4.31582E+00  2.97033E+00
   4.65591E+00  8.61280E+00  4.79313E+00  7.52438E+00  5.87151E+00  5.00947E+00  4.81582E+00  7.41212E+00  5.36035E+00  1.03434E+00
   2.90438E+00  5.42920E+00  4.80331E+00  5.81259E+00  3.94111E+00  4.34086E+00  5.17474E+00  4.63571E+00  8.89361E+00  2.11562E+00
   4.11221E+00  2.78992E+00  5.15702E+00  5.28707E+00  2.78638E+00  5.45807E+00  6.36657E+00  4.54075E+00  7.38723E+00  5.14441E+00
   6.96051E+00  8.45043E+00  3.60991E+00  5.02649E+00  4.75005E+00  4.62436E+00  7.95495E+00  2.99296E+00  3.66390E+00  5.11264E+00
   7.33035E+00  6.85588E+00  1.00767E+01  6.87800E+00  5.22258E+00  6.35543E+00  9.48081E+00  5.57276E+00
 NY points of the fit to the data follow
   1.26989E+01  1.33952E+01  1.48820E+01  1.78117E+01  2.22634E+01  2.75775E+01  3.27158E+01  3.66048E+01  3.84264E+01  3.80753E+01
   3.60871E+01  3.31200E+01  2.96793E+01  2.60898E+01  2.25573E+01  1.91131E+01  1.59204E+01  1.32983E+01  1.13386E+01  1.01995E+01
   9.58892E+00  9.40876E+00  9.47698E+00  1.00031E+01  1.12288E+01  1.30829E+01  1.53031E+01  1.75961E+01  1.95207E+01  2.06781E+01
   2.10319E+01  2.06534E+01  1.96300E+01  1.80770E+01  1.61141E+01  1.40808E+01  1.25327E+01  1.16266E+01  1.10989E+01  1.08887E+01
   1.12786E+01  1.26322E+01  1.47912E+01  1.72308E+01  1.93412E+01  2.05813E+01  2.06290E+01  1.95165E+01  1.76923E+01  1.56627E+01
   1.36619E+01  1.18340E+01  1.02705E+01  9.06829E+00  8.36424E+00  8.22460E+00  8.49108E+00  8.83970E+00  9.04408E+00  8.98487E+00
   8.61109E+00  8.06585E+00  7.48629E+00  6.98685E+00  6.67558E+00  6.59627E+00  6.72928E+00  7.02084E+00  7.38379E+00  7.70222E+00
   7.91127E+00  7.98679E+00  7.92545E+00  7.76847E+00  7.53569E+00  7.24549E+00  6.95306E+00  6.88669E+00  6.80807E+00  6.59477E+00
   6.45530E+00  6.56681E+00  6.93740E+00  7.49349E+00  8.04152E+00  8.42126E+00  8.51739E+00  8.30189E+00  7.94796E+00  7.65676E+00
   7.53303E+00  7.73618E+00  9.10350E+00  1.16627E+01  1.35113E+01  1.49453E+01  1.77180E+01  2.29392E+01  3.03693E+01  3.88381E+01
   4.64821E+01  5.15078E+01  5.29183E+01  5.09308E+01  4.66187E+01  4.10702E+01  3.50511E+01  2.90713E+01  2.33543E+01  1.79633E+01
   1.31799E+01  9.45023E+00  6.84074E+00  4.98399E+00  3.94841E+00  4.01023E+00  5.35286E+00  8.29186E+00  1.08780E+01  1.29587E+01
   1.60712E+01  2.13866E+01  2.88504E+01  3.73582E+01  4.51371E+01  5.05242E+01  5.26025E+01  5.14637E+01  4.80132E+01  4.32046E+01
   3.76194E+01  3.16766E+01  2.55942E+01  1.96203E+01  1.42605E+01  1.01377E+01  7.43799E+00  5.74013E+00  4.82760E+00  4.80091E+00
   4.98759E+00  5.10330E+00  5.12724E+00  5.05578E+00  4.90092E+00  4.69588E+00  4.41650E+00  4.04834E+00  3.63356E+00  3.21365E+00
   2.81398E+00  2.42488E+00  2.10623E+00  1.92079E+00  1.81563E+00  1.71640E+00  1.49814E+00  1.15780E+00  8.13686E-01  5.74203E-01
   4.81696E-01  4.99775E-01  5.37593E-01  4.99912E-01  3.30156E-01  2.97333E-02 -3.70092E-01 -7.65672E-01 -1.06448E+00 -1.35372E+00
  -1.74440E+00 -2.26246E+00 -2.76980E+00 -3.13383E+00 -3.35003E+00 -3.45980E+00 -3.50325E+00 -3.53214E+00 -3.50551E+00 -3.36633E+00
  -3.15699E+00 -2.92961E+00 -2.68799E+00 -2.37548E+00 -1.84402E+00 -1.04619E+00 -2.71678E-02  1.09034E+00  2.10505E+00  2.81930E+00
   3.16444E+00  3.17106E+00  2.93795E+00  2.66140E+00  2.65363E+00  2.98943E+00  3.63260E+00  4.52329E+00  5.53067E+00  6.46850E+00
   7.33223E+00  8.06594E+00  8.28762E+00  7.68597E+00  6.39640E+00  4.76845E+00  3.29842E+00  2.12106E+00  1.31361E+00  1.23426E+00
   2.09801E+00  3.76114E+00  5.78957E+00  7.76866E+00  9.43422E+00  1.04259E+01  1.02975E+01  9.00251E+00  6.97146E+00  4.81937E+00
   3.07558E+00  2.05593E+00  2.00020E+00  2.88192E+00  4.25985E+00  5.65785E+00  7.00337E+00  8.26581E+00  9.34011E+00  1.02350E+01
   1.10480E+01  1.17773E+01  1.24295E+01  1.31081E+01  1.38793E+01  1.46047E+01  1.50395E+01  1.50232E+01  1.45933E+01  1.39647E+01
   1.33775E+01  1.30504E+01  1.31454E+01  1.36721E+01  1.45162E+01  1.55232E+01  1.65513E+01  1.75368E+01  1.85371E+01  2.00354E+01
   2.34077E+01  2.78907E+01  3.12836E+01  3.43399E+01  3.91238E+01  4.66602E+01  5.64233E+01  6.68589E+01  7.57882E+01  8.11175E+01
   8.18109E+01  7.83885E+01  7.22138E+01  6.45383E+01  5.62775E+01  4.80215E+01  4.00032E+01  3.23791E+01  2.56300E+01  2.03254E+01
   1.64028E+01  1.34262E+01  1.16432E+01  1.09512E+01  1.05644E+01  1.02289E+01  9.89843E+00  9.55179E+00  9.16958E+00  8.78099E+00
   8.40997E+00  8.06944E+00  7.77031E+00  7.52712E+00  7.33864E+00  7.20538E+00  7.13263E+00  7.11787E+00  7.15613E+00  7.24368E+00
   7.37691E+00  7.55709E+00  7.78761E+00  8.06952E+00  8.40915E+00  8.81081E+00  9.27411E+00  9.79775E+00  1.03797E+01  1.10139E+01
   1.16906E+01  1.23982E+01  1.31239E+01  1.38521E+01  1.45665E+01  1.52524E+01  1.58952E+01  1.64829E+01  1.70064E+01  1.74609E+01
   1.78462E+01  1.81678E+01  1.84375E+01  1.86726E+01  1.88966E+01  1.91381E+01  1.94319E+01  1.98145E+01  2.02961E+01  2.09013E+01
   2.16776E+01  2.26544E+01  2.38315E+01  2.51881E+01  2.66957E+01  2.83423E+01  3.01037E+01  3.19317E+01  3.37943E+01  3.56690E+01
   3.75232E+01  3.93078E+01  4.09595E+01  4.24050E+01  4.35717E+01  4.44009E+01  4.48616E+01  4.49485E+01  4.45988E+01  4.38020E+01
   4.26529E+01  4.12303E+01  3.95584E+01  3.76314E+01  3.54662E+01  3.31611E+01  3.07602E+01  2.83110E+01  2.59500E+01  2.38324E+01
   2.20651E+01  2.06849E+01  1.96594E+01  1.88983E+01  1.82839E+01  1.77137E+01  1.71206E+01  1.64638E+01  1.57336E+01  1.49601E+01
   1.41579E+01  1.33360E+01  1.25250E+01  1.17629E+01  1.10863E+01  1.05055E+01  1.00099E+01  9.61092E+00  9.29917E+00  9.04952E+00
   8.84513E+00  8.67451E+00  8.52996E+00  8.40691E+00  8.30321E+00  8.21854E+00  8.15375E+00  8.11052E+00  8.09096E+00  8.09737E+00
   8.13214E+00  8.19759E+00  8.29590E+00  8.42908E+00  8.59889E+00  8.80680E+00  9.05390E+00  9.34078E+00  9.66745E+00  1.00332E+01
   1.04364E+01  1.08746E+01  1.13441E+01  1.18399E+01  1.23560E+01  1.28851E+01  1.34184E+01  1.39465E+01  1.44589E+01  1.49448E+01
   1.53930E+01  1.57928E+01  1.61338E+01  1.64072E+01  1.66054E+01  1.67227E+01  1.67556E+01  1.67028E+01  1.65656E+01  1.63473E+01
   1.60536E+01  1.56919E+01  1.52710E+01  1.48009E+01  1.42924E+01  1.37562E+01  1.32029E+01  1.26426E+01  1.20844E+01  1.15364E+01
   1.10053E+01  1.04968E+01  1.00149E+01  9.56263E+00  9.14176E+00  8.75308E+00  8.39652E+00  8.07133E+00  7.77624E+00  7.50956E+00
   7.26941E+00  7.05374E+00  6.86044E+00  6.68744E+00  6.53275E+00  6.39448E+00  6.27091E+00  6.16042E+00  6.06158E+00  5.97308E+00
   5.89376E+00  5.82262E+00  5.75875E+00  5.70134E+00  5.64970E+00  5.60320E+00  5.56131E+00  5.52356E+00  5.48954E+00  5.45887E+00
   5.43122E+00  5.40632E+00  5.38391E+00  5.36378E+00  5.34573E+00  5.32956E+00  5.31513E+00  5.30228E+00  5.29090E+00  5.28086E+00
   5.27207E+00  5.26443E+00  5.25784E+00  5.25225E+00  5.24757E+00  5.24374E+00  5.24071E+00  5.23840E+00  5.23679E+00  5.23582E+00
   5.23546E+00  5.23567E+00  5.23642E+00  5.23766E+00  5.23938E+00  5.24156E+00  5.24415E+00  5.24715E+00  5.25051E+00  5.25424E+00
   5.25831E+00  5.26271E+00  5.26741E+00  5.27241E+00  5.27769E+00  5.28325E+00  5.28907E+00  5.29515E+00  5.30147E+00  5.30803E+00
   5.31483E+00  5.32187E+00  5.32914E+00  5.33665E+00  5.34438E+00  5.35236E+00  5.36060E+00  5.36911E+00
 NY background values follow
    -9.410E-01   -9.290E-01   -9.170E-01   -9.050E-01   -8.930E-01   -8.811E-01   -8.691E-01   -8.571E-01   -8.451E-01   -8.331E-01
    -8.211E-01   -8.091E-01   -7.971E-01   -7.851E-01   -7.731E-01   -7.611E-01   -7.491E-01   -7.371E-01   -7.251E-01   -7.131E-01
    -7.011E-01   -6.891E-01   -6.771E-01   -6.651E-01   -6.531E-01   -6.411E-01   -6.291E-01   -6.171E-01   -6.051E-01   -5.931E-01
    -5.811E-01   -5.691E-01   -5.571E-01   -5.451E-01   -5.331E-01   -5.211E-01   -5.091E-01   -4.971E-01   -4.851E-01   -4.731E-01
    -4.611E-01   -4.491E-01   -4.371E-01   -4.251E-01   -4.131E-01   -4.011E-01   -3.891E-01   -3.771E-01   -3.651E-01   -3.531E-01
    -3.411E-01   -3.291E-01   -3.171E-01   -3.051E-01   -2.931E-01   -2.811E-01   -2.691E-01   -2.571E-01   -2.451E-01   -2.330E-01
    -2.210E-01   -2.090E-01   -1.970E-01   -1.850E-01   -1.730E-01   -1.610E-01   -1.490E-01   -1.370E-01   -1.250E-01   -1.130E-01
    -1.010E-01   -8.897E-02   -7.696E-02   -6.495E-02   -5.294E-02   -4.093E-02   -2.892E-02   -1.691E-02   -4.906E-03    7.104E-03
     1.911E-02    3.112E-02    4.313E-02    5.514E-02    6.715E-02    7.917E-02    9.118E-02    1.032E-01    1.152E-01    1.272E-01
     1.392E-01    1.512E-01    1.632E-01    1.753E-01    1.873E-01    1.993E-01    2.113E-01    2.233E-01    2.353E-01    2.473E-01
     2.594E-01    2.714E-01    2.834E-01    2.954E-01    3.074E-01    3.194E-01    3.314E-01    3.435E-01    3.555E-01    3.675E-01
     3.795E-01    3.915E-01    4.035E-01    4.156E-01    4.276E-01    4.396E-01    4.516E-01    4.636E-01    4.756E-01    4.877E-01
     4.997E-01    5.117E-01    5.237E-01    5.357E-01    5.477E-01    5.598E-01    5.718E-01    5.838E-01    5.958E-01    6.078E-01
     6.199E-01    6.319E-01    6.439E-01    6.559E-01    6.679E-01    6.800E-01    6.920E-01    7.040E-01    7.160E-01    7.281E-01
     7.401E-01    7.521E-01    7.641E-01    7.761E-01    7.882E-01    8.002E-01    8.122E-01    8.242E-01    8.363E-01    8.483E-01
     8.603E-01    8.723E-01    8.844E-01    8.964E-01    9.084E-01    9.204E-01    9.325E-01    9.445E-01    9.565E-01    9.685E-01
     9.806E-01    9.926E-01    1.005E+00    1.017E+00    1.029E+00    1.041E+00    1.053E+00    1.065E+00    1.077E+00    1.089E+00
     1.101E+00    1.113E+00    1.125E+00    1.137E+00    1.149E+00    1.161E+00    1.173E+00    1.185E+00    1.197E+00    1.209E+00
     1.221E+00    1.233E+00    1.245E+00    1.257E+00    1.269E+00    1.281E+00    1.293E+00    1.305E+00    1.317E+00    1.329E+00
     1.341E+00    1.353E+00    1.365E+00    1.378E+00    1.390E+00    1.402E+00    1.414E+00    1.426E+00    1.438E+00    1.450E+00
     1.462E+00    1.474E+00    1.486E+00    1.498E+00    1.510E+00    1.522E+00    1.534E+00    1.546E+00    1.558E+00    1.570E+00
     1.582E+00    1.594E+00    1.606E+00    1.618E+00    1.630E+00    1.642E+00    1.654E+00    1.666E+00    1.678E+00    1.690E+00
     1.702E+00    1.714E+00    1.726E+00    1.739E+00    1.751E+00    1.763E+00    1.775E+00    1.787E+00    1.799E+00    1.811E+00
     1.823E+00    1.835E+00    1.847E+00    1.859E+00    1.871E+00    1.883E+00    1.895E+00    1.907E+00    1.919E+00    1.931E+00
     1.943E+00    1.955E+00    1.967E+00    1.979E+00    1.991E+00    2.003E+00    2.015E+00    2.027E+00    2.039E+00    2.051E+00
     2.063E+00    2.076E+00    2.088E+00    2.100E+00    2.112E+00    2.124E+00    2.136E+00    2.148E+00    2.160E+00    2.172E+00
     2.184E+00    2.196E+00    2.208E+00    2.220E+00    2.232E+00    2.244E+00    2.256E+00    2.268E+00    2.280E+00    2.292E+00
     2.304E+00    2.316E+00    2.328E+00    2.340E+00    2.352E+00    2.364E+00    2.376E+00    2.389E+00    2.401E+00    2.413E+00
     2.425E+00    2.437E+00    2.449E+00    2.461E+00    2.473E+00    2.485E+00    2.497E+00    2.509E+00    2.521E+00    2.533E+00
     2.545E+00    2.557E+00    2.569E+00    2.581E+00    2.593E+00    2.605E+00    2.617E+00    2.629E+00    2.641E+00    2.653E+00
     2.665E+00    2.677E+00    2.689E+00    2.702E+00    2.714E+00    2.726E+00    2.738E+00    2.750E+00    2.762E+00    2.774E+00
     2.786E+00    2.798E+00    2.810E+00    2.822E+00    2.834E+00    2.846E+00    2.858E+00    2.870E+00    2.882E+00    2.894E+00
     2.906E+00    2.918E+00    2.930E+00    2.942E+00    2.954E+00    2.966E+00    2.978E+00    2.990E+00    3.003E+00    3.015E+00
     3.027E+00    3.039E+00    3.051E+00    3.063E+00    3.075E+00    3.087E+00    3.099E+00    3.111E+00    3.123E+00    3.135E+00
     3.147E+00    3.159E+00    3.171E+00    3.183E+00    3.195E+00    3.207E+00    3.219E+00    3.231E+00    3.243E+00    3.255E+00
     3.267E+00    3.279E+00    3.291E+00    3.304E+00    3.316E+00    3.328E+00    3.340E+00    3.352E+00    3.364E+00    3.376E+00
     3.388E+00    3.400E+00    3.412E+00    3.424E+00    3.436E+00    3.448E+00    3.460E+00    3.472E+00    3.484E+00    3.496E+00
     3.508E+00    3.520E+00    3.532E+00    3.544E+00    3.556E+00    3.568E+00    3.580E+00    3.592E+00    3.605E+00    3.617E+00
     3.629E+00    3.641E+00    3.653E+00    3.665E+00    3.677E+00    3.689E+00    3.701E+00    3.713E+00    3.725E+00    3.737E+00
     3.749E+00    3.761E+00    3.773E+00    3.785E+00    3.797E+00    3.809E+00    3.821E+00    3.833E+00    3.845E+00    3.857E+00
     3.869E+00    3.881E+00    3.893E+00    3.906E+00    3.918E+00    3.930E+00    3.942E+00    3.954E+00    3.966E+00    3.978E+00
     3.990E+00    4.002E+00    4.014E+00    4.026E+00    4.038E+00    4.050E+00    4.062E+00    4.074E+00    4.086E+00    4.098E+00
     4.110E+00    4.122E+00    4.134E+00    4.146E+00    4.158E+00    4.170E+00    4.182E+00    4.194E+00    4.207E+00    4.219E+00
     4.231E+00    4.243E+00    4.255E+00    4.267E+00    4.279E+00    4.291E+00    4.303E+00    4.315E+00    4.327E+00    4.339E+00
     4.351E+00    4.363E+00    4.375E+00    4.387E+00    4.399E+00    4.411E+00    4.423E+00    4.435E+00    4.447E+00    4.459E+00
     4.471E+00    4.483E+00    4.496E+00    4.508E+00    4.520E+00    4.532E+00    4.544E+00    4.556E+00    4.568E+00    4.580E+00
     4.592E+00    4.604E+00    4.616E+00    4.628E+00    4.640E+00    4.652E+00    4.664E+00    4.676E+00    4.688E+00    4.700E+00
     4.712E+00    4.724E+00    4.736E+00    4.748E+00    4.760E+00    4.772E+00    4.784E+00    4.797E+00    4.809E+00    4.821E+00
     4.833E+00    4.845E+00    4.857E+00    4.869E+00    4.881E+00    4.893E+00    4.905E+00    4.917E+00    4.929E+00    4.941E+00
     4.953E+00    4.965E+00    4.977E+00    4.989E+00    5.001E+00    5.013E+00    5.025E+00    5.037E+00
 Ala      Conc. = 5.35E+01
