 LCModel (Version 6.3-1L) Copyright: S.W. Provencher.          Ref.: Magn. Reson. Med. 30:672-679 (1993).                
 Slice#3 Row#2 Col#13  PD_05_press_1_raw_act
 36 lines in following concentration table = NCONC+1
    Conc.  %SD /Cr+PCr  Metabolite                                         
 4.56E+04   5% 618.142 Ala                                                 
   25.495  50%   0.346 Asp                                                 
   73.708 109%   1.000 Cr                                                  
    0.000 999%   0.000 PCr                                                 
   15.326  50%   0.208 GABA                                                
   15.495  50%   0.210 Glc                                                 
 3.31E+03  28%  44.858 Gln                                                 
 2.72E+03  42%  36.969 Glu                                                 
  145.419  25%   1.973 GPC                                                 
    0.000 999%   0.000 PCh                                                 
  688.276  30%   9.338 GSH                                                 
 1.81E+03  24%  24.502 Ins                                                 
 7.92E+03  22% 107.410 Lac                                                 
    0.000 999%   0.000 NAA                                                 
    0.000 999%   0.000 NAAG                                                
    5.375  48% 7.3E-02 Scyllo                                              
   26.154  49%   0.355 Tau                                                 
    5.139 588% 7.0E-02 -CrCH2                                              
  145.419  25%   1.973 GPC+PCh                                             
    0.000 999%   0.000 NAA+NAAG                                            
   73.708 109%   1.000 Cr+PCr                                              
 6.03E+03  31%  81.827 Glu+Gln                                             
    0.000 999%   0.000 Lip13a                                              
  904.457  21%  12.271 Lip13b                                              
  228.664  34%   3.102 Lip09                                               
 5.00E+03  11%  67.797 MM09                                                
  125.718  40%   1.706 Lip20                                               
  810.946  38%  11.002-MM20                                                
 1.28E+03  30%  17.397 MM12                                                
 2.75E+04   2% 372.856+MM14                                                
 6.95E+03  13%  94.330+MM17                                                
  904.457  21%  12.271 Lip13a+Lip13b                                       
 2.97E+04   3% 402.524 MM14+Lip13a+Lip13b+MM12                             
 5.23E+03  11%  70.899 MM09+Lip09                                          
  936.664  33%  12.708 MM20+Lip20                                          
   6 lines in following misc. output table
  FWHM = 0.153 ppm    S/N =  41                                            
  Data shift = 0.206 ppm                                                   
  Ph:  12 deg     -16.6 deg/ppm                                            
  alphaB,S = 8.5E+01,   1.6E+03                                            
    7 spline knots.   Ns = 9(2)                                            
   2 inflections.     1 extrema                                            
  498 points on ppm-axis = NY
      4.000000     3.992357     3.984714     3.977070     3.969427     3.961784     3.954141     3.946497     3.938854     3.931211
      3.923568     3.915925     3.908281     3.900638     3.892995     3.885352     3.877708     3.870065     3.862422     3.854779
      3.847136     3.839492     3.831849     3.824206     3.816563     3.808919     3.801276     3.793633     3.785990     3.778347
      3.770703     3.763060     3.755417     3.747774     3.740130     3.732487     3.724844     3.717201     3.709558     3.701914
      3.694271     3.686628     3.678985     3.671341     3.663698     3.656055     3.648412     3.640769     3.633125     3.625482
      3.617839     3.610196     3.602552     3.594909     3.587266     3.579623     3.571980     3.564336     3.556693     3.549050
      3.541407     3.533763     3.526120     3.518477     3.510834     3.503191     3.495547     3.487904     3.480261     3.472618
      3.464974     3.457331     3.449688     3.442045     3.434402     3.426758     3.419115     3.411472     3.403829     3.396185
      3.388542     3.380899     3.373256     3.365613     3.357969     3.350326     3.342683     3.335040     3.327396     3.319753
      3.312110     3.304467     3.296824     3.289180     3.281537     3.273894     3.266251     3.258607     3.250964     3.243321
      3.235678     3.228034     3.220391     3.212748     3.205105     3.197462     3.189818     3.182175     3.174532     3.166889
      3.159245     3.151602     3.143959     3.136316     3.128673     3.121029     3.113386     3.105743     3.098100     3.090456
      3.082813     3.075170     3.067527     3.059884     3.052240     3.044597     3.036954     3.029311     3.021667     3.014024
      3.006381     2.998738     2.991095     2.983451     2.975808     2.968165     2.960522     2.952878     2.945235     2.937592
      2.929949     2.922306     2.914662     2.907019     2.899376     2.891733     2.884089     2.876446     2.868803     2.861160
      2.853517     2.845873     2.838230     2.830587     2.822944     2.815300     2.807657     2.800014     2.792371     2.784728
      2.777084     2.769441     2.761798     2.754155     2.746511     2.738868     2.731225     2.723582     2.715939     2.708295
      2.700652     2.693009     2.685366     2.677722     2.670079     2.662436     2.654793     2.647150     2.639506     2.631863
      2.624220     2.616577     2.608933     2.601290     2.593647     2.586004     2.578361     2.570717     2.563074     2.555431
      2.547788     2.540144     2.532501     2.524858     2.517215     2.509572     2.501928     2.494285     2.486642     2.478999
      2.471355     2.463712     2.456069     2.448426     2.440783     2.433139     2.425496     2.417853     2.410210     2.402566
      2.394923     2.387280     2.379637     2.371994     2.364350     2.356707     2.349064     2.341421     2.333777     2.326134
      2.318491     2.310848     2.303205     2.295561     2.287918     2.280275     2.272632     2.264988     2.257345     2.249702
      2.242059     2.234416     2.226772     2.219129     2.211486     2.203843     2.196199     2.188556     2.180913     2.173270
      2.165627     2.157983     2.150340     2.142697     2.135054     2.127410     2.119767     2.112124     2.104481     2.096838
      2.089194     2.081551     2.073908     2.066265     2.058621     2.050978     2.043335     2.035692     2.028049     2.020405
      2.012762     2.005119     1.997476     1.989833     1.982190     1.974546     1.966903     1.959260     1.951617     1.943974
      1.936331     1.928688     1.921045     1.913402     1.905759     1.898115     1.890472     1.882829     1.875186     1.867543
      1.859900     1.852257     1.844614     1.836971     1.829327     1.821684     1.814041     1.806398     1.798755     1.791112
      1.783469     1.775826     1.768183     1.760540     1.752896     1.745253     1.737610     1.729967     1.722324     1.714681
      1.707038     1.699395     1.691752     1.684108     1.676465     1.668822     1.661179     1.653536     1.645893     1.638250
      1.630607     1.622964     1.615321     1.607677     1.600034     1.592391     1.584748     1.577105     1.569462     1.561819
      1.554176     1.546533     1.538890     1.531246     1.523603     1.515960     1.508317     1.500674     1.493031     1.485388
      1.477745     1.470102     1.462458     1.454815     1.447172     1.439529     1.431886     1.424243     1.416600     1.408957
      1.401314     1.393671     1.386027     1.378384     1.370741     1.363098     1.355455     1.347812     1.340169     1.332526
      1.324883     1.317240     1.309596     1.301953     1.294310     1.286667     1.279024     1.271381     1.263738     1.256095
      1.248452     1.240808     1.233165     1.225522     1.217879     1.210236     1.202593     1.194950     1.187307     1.179664
      1.172021     1.164377     1.156734     1.149091     1.141448     1.133805     1.126162     1.118519     1.110876     1.103233
      1.095590     1.087946     1.080303     1.072660     1.065017     1.057374     1.049731     1.042088     1.034445     1.026802
      1.019158     1.011515     1.003872     0.996229     0.988586     0.980943     0.973300     0.965657     0.958014     0.950371
      0.942727     0.935084     0.927441     0.919798     0.912155     0.904512     0.896869     0.889226     0.881583     0.873940
      0.866296     0.858653     0.851010     0.843367     0.835724     0.828081     0.820438     0.812795     0.805152     0.797508
      0.789865     0.782222     0.774579     0.766936     0.759293     0.751650     0.744007     0.736364     0.728721     0.721077
      0.713434     0.705791     0.698148     0.690505     0.682862     0.675219     0.667576     0.659933     0.652290     0.644646
      0.637003     0.629360     0.621717     0.614074     0.606431     0.598788     0.591145     0.583502     0.575858     0.568215
      0.560572     0.552929     0.545286     0.537643     0.530000     0.522357     0.514714     0.507071     0.499427     0.491784
      0.484141     0.476498     0.468855     0.461212     0.453569     0.445925     0.438282     0.430639     0.422996     0.415353
      0.407710     0.400067     0.392424     0.384780     0.377137     0.369494     0.361851     0.354208     0.346565     0.338922
      0.331278     0.323635     0.315992     0.308349     0.300706     0.293063     0.285420     0.277777     0.270133     0.262490
      0.254847     0.247204     0.239561     0.231918     0.224275     0.216631     0.208988     0.201345
 NY phased data points follow
   6.91482E+00  7.08997E+00  7.29856E+00  9.53852E+00  9.72522E+00  9.14960E+00  8.72938E+00  8.79366E+00  8.63167E+00  7.61329E+00
   8.12683E+00  1.00912E+01  8.68740E+00  6.61626E+00  7.22204E+00  7.40246E+00  1.03207E+01  7.46792E+00  8.48195E+00  7.58987E+00
   8.31418E+00  8.31579E+00  8.56872E+00  7.57475E+00  9.15187E+00  7.74685E+00  8.16342E+00  7.08455E+00  8.96620E+00  8.31572E+00
   7.39566E+00  8.44840E+00  7.70443E+00  5.55722E+00  7.58373E+00  7.25874E+00  7.10720E+00  8.45343E+00  8.26857E+00  7.41101E+00
   6.26275E+00  6.78755E+00  7.34170E+00  8.10711E+00  8.27690E+00  7.75378E+00  9.02188E+00  5.74160E+00  7.32480E+00  7.16677E+00
   9.21883E+00  8.68174E+00  9.10059E+00  6.10791E+00  7.48672E+00  1.02235E+01  8.25399E+00  8.40746E+00  7.63896E+00  8.02787E+00
   5.95844E+00  6.33015E+00  8.99814E+00  6.94114E+00  5.49850E+00  5.67994E+00  6.78442E+00  7.07127E+00  7.70419E+00  6.94188E+00
   7.49953E+00  7.00245E+00  8.64768E+00  8.29854E+00  6.87606E+00  6.75502E+00  7.65710E+00  6.89413E+00  7.11593E+00  7.29567E+00
   7.38570E+00  6.36662E+00  8.03014E+00  7.50669E+00  8.00431E+00  6.78236E+00  6.33717E+00  7.04307E+00  7.11766E+00  6.59976E+00
   6.57894E+00  6.63050E+00  6.67683E+00  5.45264E+00  7.29784E+00  6.82715E+00  4.79420E+00  6.81902E+00  6.32663E+00  6.83918E+00
   7.22917E+00  8.60567E+00  5.64590E+00  7.91021E+00  8.60312E+00  7.59913E+00  6.59755E+00  6.83229E+00  5.36578E+00  5.49596E+00
   6.44835E+00  5.83970E+00  7.04669E+00  4.31258E+00  4.90803E+00  6.02541E+00  7.63997E+00  5.48984E+00  6.13494E+00  5.83946E+00
   5.97869E+00  5.83664E+00  6.53443E+00  7.82407E+00  5.30197E+00  5.10515E+00  5.70397E+00  5.15237E+00  7.28114E+00  4.83555E+00
   7.44136E+00  5.49787E+00  4.87438E+00  6.61516E+00  2.94492E+00  7.46585E+00  4.63090E+00  4.18804E+00  5.29808E+00  5.27218E+00
   4.31870E+00  6.81595E+00  6.16042E+00  3.26384E+00  4.85839E+00  5.72796E+00  5.16829E+00  4.28671E+00  5.29172E+00  5.29291E+00
   5.66375E+00  5.71887E+00  5.03824E+00  4.48870E+00  5.58582E+00  5.32336E+00  5.01738E+00  3.97770E+00  4.57679E+00  4.45660E+00
   4.19126E+00  2.08740E+00  5.66561E+00  5.15940E+00  5.06072E+00  3.98722E+00  4.83078E+00  4.92190E+00  5.70265E+00  3.89091E+00
   5.73191E+00  4.75897E+00  4.24784E+00  3.61045E+00  3.07546E+00  3.25812E+00  4.31090E+00  3.06066E+00  3.19127E+00  2.64895E+00
   4.88992E+00  4.44974E+00  5.28127E+00  3.45563E+00  3.61729E+00  6.36609E+00  2.93449E+00  4.16015E+00  5.27047E+00  3.89180E+00
   3.43627E+00  4.06030E+00  3.25142E+00  5.09054E+00  3.63878E+00  3.29398E+00  5.18913E+00  4.16901E+00  3.32873E+00  3.56312E+00
   5.84504E+00  5.37138E+00  4.40691E+00  6.89344E+00  5.95765E+00  4.54479E+00  5.56250E+00  8.27313E+00  7.47452E+00  5.70990E+00
   9.12639E+00  8.52303E+00  6.78044E+00  8.37689E+00  7.64607E+00  9.04053E+00  7.59112E+00  8.41203E+00  7.69495E+00  7.18373E+00
   9.90097E+00  7.06701E+00  9.34673E+00  8.93408E+00  1.15036E+01  9.22441E+00  9.82701E+00  9.29680E+00  1.12368E+01  1.12792E+01
   1.05522E+01  9.20524E+00  1.21481E+01  1.40141E+01  1.21507E+01  1.49911E+01  1.32630E+01  1.29757E+01  1.37401E+01  1.56887E+01
   1.36528E+01  1.24942E+01  1.14572E+01  1.26781E+01  1.24056E+01  1.29810E+01  1.18997E+01  1.34081E+01  1.21643E+01  1.28362E+01
   1.20295E+01  1.18295E+01  1.44280E+01  1.16562E+01  1.31393E+01  1.25888E+01  1.15357E+01  1.41296E+01  1.20826E+01  1.09657E+01
   1.43805E+01  1.24216E+01  1.29700E+01  1.32609E+01  1.20728E+01  1.40916E+01  1.36395E+01  1.38668E+01  1.33063E+01  1.19871E+01
   1.46179E+01  1.69536E+01  1.63809E+01  1.50451E+01  1.74386E+01  1.86764E+01  1.72929E+01  1.84365E+01  1.90149E+01  2.10631E+01
   2.14092E+01  2.33407E+01  2.28463E+01  2.57713E+01  2.63483E+01  2.71680E+01  2.68729E+01  3.09200E+01  3.22312E+01  3.71608E+01
   4.08923E+01  4.25300E+01  4.37057E+01  4.47509E+01  5.03427E+01  5.25451E+01  5.84005E+01  6.19982E+01  6.44593E+01  6.80789E+01
   7.53183E+01  7.91208E+01  8.65783E+01  9.26844E+01  9.85377E+01  1.04973E+02  1.10180E+02  1.19725E+02  1.23561E+02  1.33003E+02
   1.40787E+02  1.46979E+02  1.54083E+02  1.62881E+02  1.71155E+02  1.78335E+02  1.85038E+02  1.93135E+02  2.03162E+02  2.09639E+02
   2.18360E+02  2.22825E+02  2.28573E+02  2.36323E+02  2.40609E+02  2.46474E+02  2.52688E+02  2.57458E+02  2.61014E+02  2.62486E+02
   2.65865E+02  2.62562E+02  2.62701E+02  2.62041E+02  2.60200E+02  2.56038E+02  2.52696E+02  2.47731E+02  2.41044E+02  2.35159E+02
   2.25420E+02  2.15309E+02  2.08471E+02  1.97147E+02  1.88116E+02  1.77050E+02  1.66880E+02  1.56794E+02  1.46935E+02  1.40276E+02
   1.29877E+02  1.22300E+02  1.14127E+02  1.09125E+02  1.02009E+02  9.67842E+01  9.04060E+01  8.58845E+01  7.98975E+01  7.62255E+01
   7.08645E+01  6.88540E+01  6.38804E+01  6.09154E+01  5.93044E+01  5.45741E+01  5.17874E+01  4.84134E+01  4.87500E+01  4.69163E+01
   4.69198E+01  4.39418E+01  4.37299E+01  4.07074E+01  4.02246E+01  4.12417E+01  4.03376E+01  3.88375E+01  4.01666E+01  3.86454E+01
   3.75238E+01  3.70975E+01  3.56411E+01  3.61994E+01  3.71550E+01  3.70364E+01  3.56547E+01  3.51188E+01  3.48939E+01  3.45540E+01
   3.32343E+01  3.46736E+01  3.35809E+01  3.41819E+01  3.30421E+01  3.30210E+01  3.33615E+01  3.28184E+01  3.25866E+01  3.20544E+01
   3.20714E+01  3.19235E+01  2.93043E+01  3.11325E+01  3.22824E+01  3.07633E+01  3.19949E+01  3.15380E+01  2.95638E+01  3.02333E+01
   2.75654E+01  2.94554E+01  2.84227E+01  2.94871E+01  2.71057E+01  2.68677E+01  2.61939E+01  2.59969E+01  2.70363E+01  2.62311E+01
   2.54894E+01  2.53067E+01  2.39728E+01  2.47980E+01  2.45490E+01  2.59576E+01  2.34640E+01  2.29897E+01  2.31239E+01  2.44210E+01
   2.38995E+01  2.34755E+01  2.29024E+01  2.20571E+01  2.20595E+01  2.33285E+01  2.18316E+01  2.12357E+01  2.12074E+01  2.29241E+01
   2.03341E+01  2.20299E+01  1.95109E+01  2.03472E+01  1.77281E+01  2.05509E+01  2.20816E+01  1.94490E+01  1.87474E+01  2.04440E+01
   1.93516E+01  1.98134E+01  2.13616E+01  2.03935E+01  1.97796E+01  1.83254E+01  2.02271E+01  1.95670E+01  1.92177E+01  1.64526E+01
   1.87092E+01  1.76610E+01  1.83784E+01  1.61890E+01  1.93730E+01  1.77718E+01  1.72480E+01  1.64987E+01  1.81813E+01  1.63153E+01
   1.73349E+01  1.67739E+01  1.69934E+01  1.56328E+01  1.67381E+01  1.50124E+01  1.65938E+01  1.67796E+01  1.68511E+01  1.66393E+01
   1.62793E+01  1.83361E+01  1.64117E+01  1.71815E+01  1.58717E+01  1.68377E+01  1.60991E+01  1.59082E+01  1.53782E+01  1.61623E+01
   1.44670E+01  1.57952E+01  1.51100E+01  1.68570E+01  1.44641E+01  1.33760E+01  1.43452E+01  1.64640E+01
 NY points of the fit to the data follow
   8.00602E+00  8.82046E+00  7.16318E+00  7.85339E+00  6.88823E+00  7.89130E+00  7.74237E+00  9.06902E+00  8.80036E+00  9.35344E+00
   8.79674E+00  8.98550E+00  8.18860E+00  8.25422E+00  7.51275E+00  7.96261E+00  7.66043E+00  8.16161E+00  7.87508E+00  8.05443E+00
   7.76004E+00  7.96032E+00  7.71718E+00  7.63257E+00  7.51562E+00  7.16394E+00  7.18415E+00  6.58617E+00  6.81083E+00  6.11360E+00
   6.72994E+00  6.22488E+00  7.35609E+00  6.93627E+00  8.23732E+00  7.72463E+00  8.97837E+00  8.33988E+00  9.38718E+00  8.54437E+00
   9.25666E+00  8.38784E+00  8.94186E+00  8.17848E+00  8.75451E+00  8.34488E+00  9.19785E+00  9.14176E+00  9.57241E+00  9.06039E+00
   9.08684E+00  8.43857E+00  8.12020E+00  7.27834E+00  7.02606E+00  6.69156E+00  6.99486E+00  6.89443E+00  7.38940E+00  7.28890E+00
   7.79550E+00  7.67919E+00  8.01178E+00  7.64262E+00  7.89725E+00  7.46503E+00  7.71492E+00  7.26724E+00  7.51530E+00  7.07134E+00
   7.32328E+00  6.93134E+00  7.21794E+00  6.79282E+00  6.99430E+00  6.51276E+00  6.63996E+00  6.12589E+00  6.20125E+00  5.66181E+00
   5.71242E+00  5.17284E+00  5.18650E+00  4.73265E+00  4.96798E+00  4.65719E+00  4.93722E+00  4.70230E+00  4.99409E+00  4.85817E+00
   5.20258E+00  5.20440E+00  5.58806E+00  5.72425E+00  6.08079E+00  6.31286E+00  6.59887E+00  6.88431E+00  7.05669E+00  7.35736E+00
   7.39520E+00  7.67150E+00  7.54789E+00  7.76393E+00  7.47573E+00  7.61103E+00  7.20649E+00  7.26556E+00  6.82385E+00  6.86048E+00
   6.43256E+00  6.40703E+00  6.01366E+00  5.96155E+00  5.69843E+00  5.69170E+00  5.51906E+00  5.51706E+00  5.43511E+00  5.42879E+00
   5.42211E+00  5.45604E+00  5.48943E+00  5.61149E+00  5.73968E+00  5.93126E+00  5.96262E+00  6.17310E+00  6.10057E+00  6.35351E+00
   6.18521E+00  6.48213E+00  6.20239E+00  6.53066E+00  6.14686E+00  6.49507E+00  6.03590E+00  6.41032E+00  5.91636E+00  6.30982E+00
   5.79812E+00  6.17707E+00  5.66197E+00  5.99963E+00  5.51040E+00  5.79322E+00  5.35882E+00  5.58244E+00  5.21242E+00  5.39339E+00
   5.08843E+00  5.19735E+00  4.95971E+00  5.02194E+00  4.87820E+00  4.92765E+00  4.81159E+00  4.81061E+00  4.71600E+00  4.67560E+00
   4.61648E+00  4.58161E+00  4.55877E+00  4.55223E+00  4.53643E+00  4.54003E+00  4.50613E+00  4.50965E+00  4.46199E+00  4.47147E+00
   4.42560E+00  4.46728E+00  4.44335E+00  4.52472E+00  4.50679E+00  4.58598E+00  4.51833E+00  4.58871E+00  4.41435E+00  4.42525E+00
   4.24263E+00  4.24449E+00  4.06900E+00  4.14473E+00  4.06584E+00  4.20029E+00  4.18198E+00  4.44412E+00  4.47564E+00  4.76819E+00
   4.83058E+00  4.94016E+00  4.75190E+00  4.88236E+00  4.76598E+00  4.97447E+00  4.95911E+00  5.36409E+00  5.40220E+00  5.77165E+00
   5.81492E+00  6.14759E+00  6.19682E+00  6.39214E+00  6.38624E+00  6.53924E+00  6.66204E+00  6.70714E+00  6.95720E+00  6.89124E+00
   7.28893E+00  7.18004E+00  7.74895E+00  7.57158E+00  8.33397E+00  8.07464E+00  8.94664E+00  8.53348E+00  9.27948E+00  8.83222E+00
   9.59104E+00  9.22799E+00  1.00114E+01  9.91638E+00  1.05885E+01  1.05594E+01  1.10713E+01  1.12144E+01  1.14747E+01  1.17228E+01
   1.17285E+01  1.18664E+01  1.14673E+01  1.16671E+01  1.12344E+01  1.15420E+01  1.11314E+01  1.16101E+01  1.12407E+01  1.16203E+01
   1.13027E+01  1.15536E+01  1.13360E+01  1.14087E+01  1.12746E+01  1.13189E+01  1.14398E+01  1.14221E+01  1.17951E+01  1.17352E+01
   1.23143E+01  1.22011E+01  1.28978E+01  1.26837E+01  1.34857E+01  1.32045E+01  1.40840E+01  1.37012E+01  1.45366E+01  1.41442E+01
   1.50002E+01  1.46161E+01  1.54592E+01  1.51569E+01  1.58942E+01  1.55414E+01  1.62306E+01  1.59181E+01  1.65123E+01  1.62810E+01
   1.68109E+01  1.66515E+01  1.71202E+01  1.70990E+01  1.75778E+01  1.77223E+01  1.82303E+01  1.85458E+01  1.90989E+01  1.95710E+01
   2.02283E+01  2.09284E+01  2.18112E+01  2.28335E+01  2.40347E+01  2.54745E+01  2.70993E+01  2.90216E+01  3.11849E+01  3.36799E+01
   3.64459E+01  3.95513E+01  4.29288E+01  4.66124E+01  5.05378E+01  5.47041E+01  5.90306E+01  6.34911E+01  6.80119E+01  7.25612E+01
   7.70915E+01  8.15956E+01  8.60852E+01  9.06298E+01  9.53463E+01  1.00451E+02  1.06278E+02  1.13362E+02  1.22314E+02  1.32464E+02
   1.41334E+02  1.50452E+02  1.58038E+02  1.66172E+02  1.72535E+02  1.79456E+02  1.84662E+02  1.93365E+02  2.00155E+02  2.09308E+02
   2.15623E+02  2.23566E+02  2.28881E+02  2.35876E+02  2.40764E+02  2.46881E+02  2.51258E+02  2.55691E+02  2.59333E+02  2.62182E+02
   2.63720E+02  2.63477E+02  2.63551E+02  2.61137E+02  2.60033E+02  2.55228E+02  2.52183E+02  2.46197E+02  2.41277E+02  2.33145E+02
   2.25960E+02  2.16156E+02  2.07214E+02  1.96821E+02  1.86623E+02  1.76303E+02  1.65883E+02  1.56904E+02  1.48014E+02  1.41218E+02
   1.32301E+02  1.25529E+02  1.16806E+02  1.10526E+02  1.01970E+02  9.57214E+01  8.77256E+01  8.35629E+01  7.82835E+01  7.52056E+01
   7.09787E+01  6.81657E+01  6.45391E+01  6.18980E+01  5.88249E+01  5.62752E+01  5.39040E+01  5.17677E+01  5.03449E+01  4.92352E+01
   4.78042E+01  4.63292E+01  4.49397E+01  4.31751E+01  4.17601E+01  3.97013E+01  3.83456E+01  3.74197E+01  3.67286E+01  3.61925E+01
   3.57693E+01  3.54335E+01  3.51673E+01  3.49578E+01  3.47946E+01  3.46694E+01  3.45742E+01  3.45026E+01  3.44481E+01  3.44054E+01
   3.43689E+01  3.43340E+01  3.42956E+01  3.42499E+01  3.41926E+01  3.41207E+01  3.40309E+01  3.39209E+01  3.37882E+01  3.36315E+01
   3.34494E+01  3.32416E+01  3.30075E+01  3.27476E+01  3.24622E+01  3.21527E+01  3.18201E+01  3.14663E+01  3.10929E+01  3.07024E+01
   3.02965E+01  2.98780E+01  2.94489E+01  2.90121E+01  2.85695E+01  2.81238E+01  2.76770E+01  2.72313E+01  2.67887E+01  2.63512E+01
   2.59201E+01  2.54971E+01  2.50834E+01  2.46803E+01  2.42884E+01  2.39088E+01  2.35417E+01  2.31879E+01  2.28473E+01  2.25205E+01
   2.22071E+01  2.19074E+01  2.16209E+01  2.13476E+01  2.10871E+01  2.08392E+01  2.06033E+01  2.03792E+01  2.01663E+01  1.99643E+01
   1.97725E+01  1.95908E+01  1.94185E+01  1.92554E+01  1.91007E+01  1.89544E+01  1.88157E+01  1.86846E+01  1.85604E+01  1.84430E+01
   1.83319E+01  1.82269E+01  1.81275E+01  1.80337E+01  1.79449E+01  1.78612E+01  1.77820E+01  1.77074E+01  1.76369E+01  1.75706E+01
   1.75079E+01  1.74490E+01  1.73934E+01  1.73413E+01  1.72922E+01  1.72463E+01  1.72031E+01  1.71628E+01  1.71250E+01  1.70898E+01
   1.70570E+01  1.70266E+01  1.69982E+01  1.69722E+01  1.69481E+01  1.69261E+01  1.69060E+01  1.68877E+01  1.68712E+01  1.68566E+01
   1.68435E+01  1.68323E+01  1.68225E+01  1.68145E+01  1.68080E+01  1.68032E+01  1.67998E+01  1.67982E+01  1.67981E+01  1.67999E+01
   1.68033E+01  1.68087E+01  1.68159E+01  1.68255E+01  1.68374E+01  1.68523E+01  1.68704E+01  1.68927E+01
 NY background values follow
     5.017E-01    5.219E-01    5.420E-01    5.621E-01    5.822E-01    6.023E-01    6.223E-01    6.424E-01    6.624E-01    6.824E-01
     7.024E-01    7.224E-01    7.424E-01    7.623E-01    7.823E-01    8.022E-01    8.222E-01    8.421E-01    8.620E-01    8.819E-01
     9.019E-01    9.218E-01    9.416E-01    9.615E-01    9.814E-01    1.001E+00    1.021E+00    1.041E+00    1.061E+00    1.081E+00
     1.101E+00    1.121E+00    1.140E+00    1.160E+00    1.180E+00    1.200E+00    1.220E+00    1.240E+00    1.260E+00    1.280E+00
     1.300E+00    1.319E+00    1.339E+00    1.359E+00    1.379E+00    1.399E+00    1.419E+00    1.439E+00    1.459E+00    1.479E+00
     1.499E+00    1.519E+00    1.539E+00    1.559E+00    1.579E+00    1.599E+00    1.619E+00    1.639E+00    1.659E+00    1.679E+00
     1.700E+00    1.720E+00    1.740E+00    1.760E+00    1.780E+00    1.801E+00    1.821E+00    1.841E+00    1.861E+00    1.882E+00
     1.902E+00    1.923E+00    1.943E+00    1.963E+00    1.984E+00    2.004E+00    2.025E+00    2.045E+00    2.066E+00    2.086E+00
     2.107E+00    2.128E+00    2.148E+00    2.169E+00    2.190E+00    2.211E+00    2.232E+00    2.252E+00    2.273E+00    2.294E+00
     2.315E+00    2.336E+00    2.357E+00    2.378E+00    2.399E+00    2.420E+00    2.442E+00    2.463E+00    2.484E+00    2.505E+00
     2.527E+00    2.548E+00    2.570E+00    2.591E+00    2.613E+00    2.634E+00    2.656E+00    2.678E+00    2.699E+00    2.721E+00
     2.743E+00    2.765E+00    2.787E+00    2.809E+00    2.831E+00    2.853E+00    2.875E+00    2.897E+00    2.919E+00    2.941E+00
     2.964E+00    2.986E+00    3.009E+00    3.031E+00    3.054E+00    3.076E+00    3.099E+00    3.122E+00    3.144E+00    3.167E+00
     3.190E+00    3.213E+00    3.236E+00    3.259E+00    3.282E+00    3.306E+00    3.329E+00    3.352E+00    3.376E+00    3.399E+00
     3.422E+00    3.446E+00    3.470E+00    3.493E+00    3.517E+00    3.541E+00    3.565E+00    3.589E+00    3.613E+00    3.637E+00
     3.661E+00    3.685E+00    3.709E+00    3.734E+00    3.758E+00    3.782E+00    3.807E+00    3.831E+00    3.856E+00    3.881E+00
     3.905E+00    3.930E+00    3.955E+00    3.980E+00    4.005E+00    4.030E+00    4.055E+00    4.080E+00    4.106E+00    4.131E+00
     4.156E+00    4.182E+00    4.207E+00    4.233E+00    4.259E+00    4.284E+00    4.310E+00    4.336E+00    4.362E+00    4.388E+00
     4.414E+00    4.440E+00    4.466E+00    4.493E+00    4.519E+00    4.545E+00    4.572E+00    4.598E+00    4.625E+00    4.652E+00
     4.678E+00    4.705E+00    4.732E+00    4.759E+00    4.786E+00    4.813E+00    4.840E+00    4.867E+00    4.895E+00    4.922E+00
     4.950E+00    4.977E+00    5.005E+00    5.032E+00    5.060E+00    5.088E+00    5.116E+00    5.144E+00    5.172E+00    5.200E+00
     5.228E+00    5.256E+00    5.285E+00    5.313E+00    5.341E+00    5.370E+00    5.399E+00    5.427E+00    5.456E+00    5.485E+00
     5.514E+00    5.543E+00    5.572E+00    5.601E+00    5.630E+00    5.659E+00    5.689E+00    5.718E+00    5.748E+00    5.777E+00
     5.807E+00    5.837E+00    5.866E+00    5.896E+00    5.926E+00    5.956E+00    5.986E+00    6.017E+00    6.047E+00    6.077E+00
     6.108E+00    6.138E+00    6.169E+00    6.199E+00    6.230E+00    6.261E+00    6.292E+00    6.323E+00    6.354E+00    6.385E+00
     6.416E+00    6.447E+00    6.479E+00    6.510E+00    6.542E+00    6.573E+00    6.605E+00    6.637E+00    6.669E+00    6.700E+00
     6.732E+00    6.764E+00    6.797E+00    6.829E+00    6.861E+00    6.893E+00    6.926E+00    6.958E+00    6.991E+00    7.023E+00
     7.056E+00    7.089E+00    7.121E+00    7.154E+00    7.187E+00    7.220E+00    7.253E+00    7.286E+00    7.319E+00    7.353E+00
     7.386E+00    7.419E+00    7.452E+00    7.486E+00    7.519E+00    7.553E+00    7.587E+00    7.620E+00    7.654E+00    7.688E+00
     7.721E+00    7.755E+00    7.789E+00    7.823E+00    7.857E+00    7.891E+00    7.925E+00    7.959E+00    7.994E+00    8.028E+00
     8.062E+00    8.096E+00    8.131E+00    8.165E+00    8.200E+00    8.234E+00    8.269E+00    8.303E+00    8.338E+00    8.372E+00
     8.407E+00    8.442E+00    8.477E+00    8.511E+00    8.546E+00    8.581E+00    8.616E+00    8.651E+00    8.686E+00    8.721E+00
     8.756E+00    8.791E+00    8.826E+00    8.861E+00    8.896E+00    8.931E+00    8.966E+00    9.002E+00    9.037E+00    9.072E+00
     9.107E+00    9.143E+00    9.178E+00    9.213E+00    9.249E+00    9.284E+00    9.319E+00    9.355E+00    9.390E+00    9.426E+00
     9.461E+00    9.496E+00    9.532E+00    9.567E+00    9.603E+00    9.638E+00    9.674E+00    9.710E+00    9.745E+00    9.781E+00
     9.816E+00    9.852E+00    9.887E+00    9.923E+00    9.959E+00    9.994E+00    1.003E+01    1.007E+01    1.010E+01    1.014E+01
     1.017E+01    1.021E+01    1.024E+01    1.028E+01    1.031E+01    1.035E+01    1.039E+01    1.042E+01    1.046E+01    1.049E+01
     1.053E+01    1.056E+01    1.060E+01    1.064E+01    1.067E+01    1.071E+01    1.074E+01    1.078E+01    1.081E+01    1.085E+01
     1.088E+01    1.092E+01    1.096E+01    1.099E+01    1.103E+01    1.106E+01    1.110E+01    1.113E+01    1.117E+01    1.120E+01
     1.124E+01    1.127E+01    1.131E+01    1.134E+01    1.138E+01    1.142E+01    1.145E+01    1.149E+01    1.152E+01    1.156E+01
     1.159E+01    1.163E+01    1.166E+01    1.170E+01    1.173E+01    1.177E+01    1.180E+01    1.184E+01    1.187E+01    1.191E+01
     1.195E+01    1.198E+01    1.202E+01    1.205E+01    1.209E+01    1.212E+01    1.216E+01    1.219E+01    1.223E+01    1.226E+01
     1.230E+01    1.233E+01    1.237E+01    1.240E+01    1.244E+01    1.247E+01    1.251E+01    1.254E+01    1.258E+01    1.261E+01
     1.265E+01    1.268E+01    1.272E+01    1.275E+01    1.279E+01    1.282E+01    1.286E+01    1.289E+01    1.293E+01    1.296E+01
     1.300E+01    1.303E+01    1.306E+01    1.310E+01    1.313E+01    1.317E+01    1.320E+01    1.324E+01    1.327E+01    1.331E+01
     1.334E+01    1.338E+01    1.341E+01    1.345E+01    1.348E+01    1.352E+01    1.355E+01    1.358E+01    1.362E+01    1.365E+01
     1.369E+01    1.372E+01    1.376E+01    1.379E+01    1.383E+01    1.386E+01    1.389E+01    1.393E+01    1.396E+01    1.400E+01
     1.403E+01    1.407E+01    1.410E+01    1.413E+01    1.417E+01    1.420E+01    1.424E+01    1.427E+01    1.430E+01    1.434E+01
     1.437E+01    1.441E+01    1.444E+01    1.447E+01    1.451E+01    1.454E+01    1.458E+01    1.461E+01    1.464E+01    1.468E+01
     1.471E+01    1.475E+01    1.478E+01    1.481E+01    1.485E+01    1.488E+01    1.492E+01    1.495E+01
 Ala      Conc. = 4.56E+04
