 LCModel (Version 6.3-1L) Copyright: S.W. Provencher.          Ref.: Magn. Reson. Med. 30:672-679 (1993).                
 Slice#1 Row#7 Col#1  PD_05_press_1_raw_act
 36 lines in following concentration table = NCONC+1
    Conc.  %SD /Cr+PCr  Metabolite                                         
    4.052 635%   0.755 Ala                                                 
    1.793  95%   0.334 Asp                                                 
    0.000 999%   0.000 Cr                                                  
    5.369 231%   1.000 PCr                                                 
    1.088  93%   0.203 GABA                                                
    1.070  95%   0.199 Glc                                                 
    0.000 999%   0.000 Gln                                                 
    0.000 999%   0.000 Glu                                                 
    6.781  71%   1.263 GPC                                                 
    0.000 999%   0.000 PCh                                                 
    0.000 999%   0.000 GSH                                                 
    0.000 999%   0.000 Ins                                                 
   53.597  66%   9.982 Lac                                                 
    2.509 664%   0.467 NAA                                                 
    7.872 216%   1.466 NAAG                                                
    0.353  96% 6.6E-02 Scyllo                                              
    1.771  96%   0.330 Tau                                                 
    0.509 285% 9.5E-02 -CrCH2                                              
    6.781  71%   1.263 GPC+PCh                                             
   10.381 190%   1.933 NAA+NAAG                                            
    5.369 231%   1.000 Cr+PCr                                              
    0.000 999%   0.000 Glu+Gln                                             
    0.000 999%   0.000 Lip13a                                              
   60.778 107%  11.319 Lip13b                                              
    2.584 999%   0.481 Lip09                                               
  275.316  20%  51.275 MM09                                                
   12.600 173%   2.347 Lip20                                               
  483.563  18%  90.059 MM20                                                
   85.151  42%  15.858 MM12                                                
  496.886  17%  92.540 MM14                                                
  149.301  36%  27.806 MM17                                                
   60.778 107%  11.319 Lip13a+Lip13b                                       
  642.815  13% 119.718 MM14+Lip13a+Lip13b+MM12                             
  277.900  19%  51.756 MM09+Lip09                                          
  496.163  18%  92.405 MM20+Lip20                                          
   6 lines in following misc. output table
  FWHM = 0.046 ppm    S/N =   1                                            
  Data shift = 0.031 ppm                                                   
  Ph: 131 deg      13.2 deg/ppm                                            
  alphaB,S = 5.4E+00,   1.3E+01                                            
   14 spline knots.   Ns = 5(1)                                            
   2 inflections.     1 extrema                                            
  498 points on ppm-axis = NY
      4.000000     3.992357     3.984714     3.977070     3.969427     3.961784     3.954141     3.946497     3.938854     3.931211
      3.923568     3.915925     3.908281     3.900638     3.892995     3.885352     3.877708     3.870065     3.862422     3.854779
      3.847136     3.839492     3.831849     3.824206     3.816563     3.808919     3.801276     3.793633     3.785990     3.778347
      3.770703     3.763060     3.755417     3.747774     3.740130     3.732487     3.724844     3.717201     3.709558     3.701914
      3.694271     3.686628     3.678985     3.671341     3.663698     3.656055     3.648412     3.640769     3.633125     3.625482
      3.617839     3.610196     3.602552     3.594909     3.587266     3.579623     3.571980     3.564336     3.556693     3.549050
      3.541407     3.533763     3.526120     3.518477     3.510834     3.503191     3.495547     3.487904     3.480261     3.472618
      3.464974     3.457331     3.449688     3.442045     3.434402     3.426758     3.419115     3.411472     3.403829     3.396185
      3.388542     3.380899     3.373256     3.365613     3.357969     3.350326     3.342683     3.335040     3.327396     3.319753
      3.312110     3.304467     3.296824     3.289180     3.281537     3.273894     3.266251     3.258607     3.250964     3.243321
      3.235678     3.228034     3.220391     3.212748     3.205105     3.197462     3.189818     3.182175     3.174532     3.166889
      3.159245     3.151602     3.143959     3.136316     3.128673     3.121029     3.113386     3.105743     3.098100     3.090456
      3.082813     3.075170     3.067527     3.059884     3.052240     3.044597     3.036954     3.029311     3.021667     3.014024
      3.006381     2.998738     2.991095     2.983451     2.975808     2.968165     2.960522     2.952878     2.945235     2.937592
      2.929949     2.922306     2.914662     2.907019     2.899376     2.891733     2.884089     2.876446     2.868803     2.861160
      2.853517     2.845873     2.838230     2.830587     2.822944     2.815300     2.807657     2.800014     2.792371     2.784728
      2.777084     2.769441     2.761798     2.754155     2.746511     2.738868     2.731225     2.723582     2.715939     2.708295
      2.700652     2.693009     2.685366     2.677722     2.670079     2.662436     2.654793     2.647150     2.639506     2.631863
      2.624220     2.616577     2.608933     2.601290     2.593647     2.586004     2.578361     2.570717     2.563074     2.555431
      2.547788     2.540144     2.532501     2.524858     2.517215     2.509572     2.501928     2.494285     2.486642     2.478999
      2.471355     2.463712     2.456069     2.448426     2.440783     2.433139     2.425496     2.417853     2.410210     2.402566
      2.394923     2.387280     2.379637     2.371994     2.364350     2.356707     2.349064     2.341421     2.333777     2.326134
      2.318491     2.310848     2.303205     2.295561     2.287918     2.280275     2.272632     2.264988     2.257345     2.249702
      2.242059     2.234416     2.226772     2.219129     2.211486     2.203843     2.196199     2.188556     2.180913     2.173270
      2.165627     2.157983     2.150340     2.142697     2.135054     2.127410     2.119767     2.112124     2.104481     2.096838
      2.089194     2.081551     2.073908     2.066265     2.058621     2.050978     2.043335     2.035692     2.028049     2.020405
      2.012762     2.005119     1.997476     1.989833     1.982190     1.974546     1.966903     1.959260     1.951617     1.943974
      1.936331     1.928688     1.921045     1.913402     1.905759     1.898115     1.890472     1.882829     1.875186     1.867543
      1.859900     1.852257     1.844614     1.836971     1.829327     1.821684     1.814041     1.806398     1.798755     1.791112
      1.783469     1.775826     1.768183     1.760540     1.752896     1.745253     1.737610     1.729967     1.722324     1.714681
      1.707038     1.699395     1.691752     1.684108     1.676465     1.668822     1.661179     1.653536     1.645893     1.638250
      1.630607     1.622964     1.615321     1.607677     1.600034     1.592391     1.584748     1.577105     1.569462     1.561819
      1.554176     1.546533     1.538890     1.531246     1.523603     1.515960     1.508317     1.500674     1.493031     1.485388
      1.477745     1.470102     1.462458     1.454815     1.447172     1.439529     1.431886     1.424243     1.416600     1.408957
      1.401314     1.393671     1.386027     1.378384     1.370741     1.363098     1.355455     1.347812     1.340169     1.332526
      1.324883     1.317240     1.309596     1.301953     1.294310     1.286667     1.279024     1.271381     1.263738     1.256095
      1.248452     1.240808     1.233165     1.225522     1.217879     1.210236     1.202593     1.194950     1.187307     1.179664
      1.172021     1.164377     1.156734     1.149091     1.141448     1.133805     1.126162     1.118519     1.110876     1.103233
      1.095590     1.087946     1.080303     1.072660     1.065017     1.057374     1.049731     1.042088     1.034445     1.026802
      1.019158     1.011515     1.003872     0.996229     0.988586     0.980943     0.973300     0.965657     0.958014     0.950371
      0.942727     0.935084     0.927441     0.919798     0.912155     0.904512     0.896869     0.889226     0.881583     0.873940
      0.866296     0.858653     0.851010     0.843367     0.835724     0.828081     0.820438     0.812795     0.805152     0.797508
      0.789865     0.782222     0.774579     0.766936     0.759293     0.751650     0.744007     0.736364     0.728721     0.721077
      0.713434     0.705791     0.698148     0.690505     0.682862     0.675219     0.667576     0.659933     0.652290     0.644646
      0.637003     0.629360     0.621717     0.614074     0.606431     0.598788     0.591145     0.583502     0.575858     0.568215
      0.560572     0.552929     0.545286     0.537643     0.530000     0.522357     0.514714     0.507071     0.499427     0.491784
      0.484141     0.476498     0.468855     0.461212     0.453569     0.445925     0.438282     0.430639     0.422996     0.415353
      0.407710     0.400067     0.392424     0.384780     0.377137     0.369494     0.361851     0.354208     0.346565     0.338922
      0.331278     0.323635     0.315992     0.308349     0.300706     0.293063     0.285420     0.277777     0.270133     0.262490
      0.254847     0.247204     0.239561     0.231918     0.224275     0.216631     0.208988     0.201345
 NY phased data points follow
   1.04215E+01  1.02783E+01  8.76825E+00  9.73033E+00  8.26361E+00  9.92381E+00  7.23908E+00  9.30810E+00  7.97751E+00  8.77792E+00
   7.09024E+00  1.00363E+01  7.41091E+00  7.15081E+00  4.83718E+00  8.34429E+00  8.65740E+00  8.02690E+00  9.15593E+00  6.99312E+00
   8.78048E+00  7.02740E+00  6.60740E+00  6.70191E+00  6.39894E+00  6.70062E+00  6.46468E+00  6.43507E+00  6.28279E+00  9.05122E+00
   5.23061E+00  6.26675E+00  4.56182E+00  6.54466E+00  6.45009E+00  7.23808E+00  6.15320E+00  6.30101E+00  6.24555E+00  7.87235E+00
   7.31282E+00  7.21256E+00  7.63825E+00  7.05148E+00  5.75121E+00  6.80618E+00  7.54524E+00  5.66437E+00  7.31073E+00  4.35797E+00
   6.10074E+00  5.58032E+00  5.41371E+00  5.77142E+00  5.31555E+00  6.73839E+00  5.49189E+00  6.79363E+00  5.77798E+00  5.37388E+00
   4.79895E+00  4.36683E+00  6.26115E+00  6.46312E+00  5.75341E+00  4.81174E+00  6.60478E+00  3.32581E+00  6.39931E+00  5.78971E+00
   5.28124E+00  4.12699E+00  6.21073E+00  3.68397E+00  4.41349E+00  5.97112E+00  5.36785E+00  5.38878E+00  2.55647E+00  4.82542E+00
   5.79087E+00  4.32143E+00  4.97760E+00  4.22009E+00  5.07916E+00  2.87401E+00  4.65881E+00  5.11693E+00  4.11950E+00  4.66943E+00
   4.52478E+00  4.31558E+00  4.47107E+00  3.34789E+00  4.23030E+00  2.24531E+00  4.23502E+00  4.86432E+00  6.08870E+00  5.42205E+00
   4.85966E+00  4.31553E+00  5.61003E+00  5.97019E+00  6.13991E+00  4.65191E+00  3.26118E+00  5.15852E+00  3.91592E+00  3.98280E+00
   5.51954E+00  3.87298E+00  4.00854E+00  3.01077E+00  3.98496E+00  5.92393E+00  3.35133E+00  3.12888E+00  4.03621E+00  4.20136E+00
   3.65288E+00  4.58069E+00  5.34975E+00  3.92592E+00  4.17739E+00  3.46308E+00  3.49108E+00  2.84342E+00  5.82039E+00  4.37603E+00
   3.67363E+00  3.93513E+00  6.72185E+00  2.72643E+00  5.16295E+00  1.81259E+00  2.85034E+00  3.76885E+00  2.42638E+00  4.21467E+00
   3.46557E+00  2.70801E+00  4.36211E+00  3.93309E+00  4.85080E+00  4.15801E+00  2.94053E+00  3.78507E+00  4.13636E+00  3.88401E+00
   2.58417E+00  3.32051E+00  5.50945E+00  3.66066E+00  4.13489E+00  4.38002E+00  4.18246E+00  4.12739E+00  4.18625E+00  1.95768E+00
   3.02982E+00  3.49370E+00  2.83236E+00  3.76282E+00  3.35484E+00  2.27672E+00  3.69362E+00  5.69716E-01  2.29137E+00  1.56474E+00
   3.96953E+00  3.17680E+00  1.63510E+00  2.91568E+00  2.15568E+00  3.01339E+00  1.40794E+00  2.19659E+00  3.67029E+00  3.99967E+00
   2.45715E+00  1.42014E+00  2.79110E+00  1.72461E+00  2.80378E+00  1.82156E-01  3.37406E+00  1.21066E+00  9.89766E-01  8.89500E-01
   2.68359E+00  1.35472E+00  3.39631E+00  6.27120E-01  3.18011E+00  2.42477E+00  1.38678E+00  2.52737E+00  3.13374E+00  2.20067E+00
   3.14293E+00  1.21047E+00  9.20716E-01  2.46863E+00  3.45385E+00  3.05729E+00  1.27286E+00  3.16128E+00  2.71263E+00  1.33492E+00
   3.20677E+00  2.82177E+00  1.28090E+00  1.69231E+00  2.62284E+00  2.52468E+00  2.30527E+00  3.09306E+00  8.78478E-01  1.60564E+00
   1.99213E-01  3.37484E+00  7.99418E-01  3.79462E+00  2.28466E+00  2.15990E+00  1.96681E+00  2.48554E+00  3.06899E+00  1.50559E+00
   1.73455E+00  3.43077E-01  3.71105E+00  5.37852E-01  1.90648E+00  1.64505E+00  2.71067E-01  1.63672E+00  4.43499E-01  3.30027E-01
   2.81414E-01  2.64839E+00  1.71504E+00  2.15294E+00  4.22160E+00  4.50236E-01  2.15511E+00  2.64679E+00  3.27865E+00  1.64041E+00
   2.14222E+00  4.03094E+00  3.52577E+00  3.49213E+00  3.15746E+00  3.35021E+00  1.94890E+00  2.52942E+00  2.37313E+00  4.21034E+00
   6.34237E+00  4.63728E+00  3.24193E+00  2.34751E+00  2.13989E+00  8.80561E-01  1.38048E+00  2.02196E+00  2.46292E+00  2.93303E+00
   1.02334E+00  3.29597E-01  1.05211E+00  1.09282E+00  1.74704E+00  1.42868E+00  2.70325E+00  5.85747E-01  4.19392E-01  9.05901E-01
   8.90867E-01 -1.04593E-01 -8.52998E-01  1.32419E+00  2.60576E+00  7.15798E-01  7.76407E-01  9.77981E-01  2.54158E+00  5.86965E-01
   1.05697E+00  2.37475E-01  2.28809E+00  1.13341E+00  3.44402E-01  5.66693E-01  2.68841E-01  4.89888E-01  2.83169E-01  1.17216E+00
   3.90334E-01  1.58227E+00 -2.89134E-01  6.31051E-01  1.42142E+00  2.68191E-01 -3.67410E-02 -1.33625E-01  2.08876E+00 -1.17551E+00
   2.42383E+00 -7.78898E-01  1.31101E+00 -5.41652E-01  1.01316E+00  1.47261E-01  1.91638E+00  1.63160E+00  1.73109E-01  1.03017E+00
   3.45640E-01  1.27413E+00 -1.49805E+00 -1.40813E+00 -1.10354E+00  9.12383E-01  1.06817E+00  5.31681E-01 -2.77698E+00 -2.90968E+00
   1.55098E-02 -6.14077E-03  9.87649E-01 -1.78259E+00  4.55676E-01 -3.06839E-01  1.59061E+00  1.88957E+00  1.88855E+00  4.72208E-01
   1.34550E+00  2.08511E+00  2.00817E+00  2.19827E+00  2.38855E+00  3.47330E+00  3.25361E+00  2.23672E+00  3.84937E+00  2.08860E+00
   2.64341E+00  3.29017E+00  1.99783E+00  2.12262E+00  2.73339E-01  3.13362E+00  2.32120E+00  3.88827E+00  3.52515E+00  3.17810E+00
   3.88276E+00  3.96890E+00  2.41335E+00  2.69213E+00  3.45823E+00  6.30535E-01  9.39593E-01  1.93487E+00 -3.62044E-01 -5.68449E-01
   6.69596E-01  4.10292E-01  1.52685E-02  5.73267E-01  7.68917E-01  1.16666E+00  2.30873E+00  1.40656E+00  1.94884E+00  2.49736E+00
   1.48558E+00 -1.83037E-01  2.03545E+00  1.56589E+00  1.22439E+00  1.32222E+00  2.21214E+00  1.09127E+00  2.95167E-01  1.19619E+00
   1.58155E+00  1.02109E+00  8.71201E-01  2.04645E+00 -6.50842E-01  8.28257E-01  1.07621E+00  1.38417E+00 -5.87672E-01 -2.49812E-01
  -2.49815E-01  4.90082E-01  2.16305E+00  6.24550E-01  2.38893E+00  3.30704E-01  4.61530E-01  2.43628E+00  2.45281E+00  6.62916E-01
   2.50239E+00  1.50222E+00 -1.28154E-02  1.81150E+00  1.05706E+00  1.97199E+00  1.54698E+00  1.67633E+00  1.96100E+00  2.17213E+00
   8.56683E-01  2.41972E+00  1.51669E+00  2.87114E+00  2.08270E+00  2.75461E+00 -2.55954E-02  1.83887E+00  1.33293E+00  1.32803E+00
  -2.47603E-02  8.34225E-01  1.17184E+00  9.30279E-01  2.19848E+00  2.56761E+00  2.29666E+00  2.78045E+00  1.16798E+00  1.34311E+00
   1.22576E-01  2.21883E-01  1.47652E+00  1.89392E+00  6.05476E-01 -9.06605E-01  2.04643E+00  1.22475E+00 -3.61907E-01  1.59463E+00
  -1.48078E-01  1.85793E+00  2.19544E+00  3.62573E-01  1.10877E+00  1.29448E-02  7.21960E-01  2.64557E-02  1.40218E+00  9.09463E-01
   1.51677E+00  8.88596E-01 -6.44924E-01  5.95829E-01  9.04120E-01  8.16980E-01  1.29809E+00  4.86837E-01  1.39613E+00  8.26861E-02
   2.18399E+00  2.76224E+00 -4.49873E-01  7.15801E-01  7.46710E-01  1.94493E+00  2.28540E+00  1.65082E+00  6.64167E-01 -5.85641E-01
   3.71002E-01  9.87418E-01  1.10233E+00 -6.41177E-01  1.10057E+00  2.50177E+00  1.24415E+00  3.87675E+00 -3.57282E-01  1.13720E+00
   1.84507E+00  1.15041E+00 -6.03978E-01 -1.93299E-01  5.26556E-01  1.52617E+00  1.87972E+00 -6.40363E-01
 NY points of the fit to the data follow
   7.57548E+00  7.55865E+00  7.54658E+00  7.53583E+00  7.53236E+00  7.53849E+00  7.54572E+00  7.55089E+00  7.55013E+00  7.53570E+00
   7.50381E+00  7.45849E+00  7.40831E+00  7.35714E+00  7.30887E+00  7.26873E+00  7.23274E+00  7.19592E+00  7.15908E+00  7.12335E+00
   7.09021E+00  7.05935E+00  7.02892E+00  6.99800E+00  6.96499E+00  6.92935E+00  6.89132E+00  6.85176E+00  6.81318E+00  6.77831E+00
   6.74723E+00  6.71970E+00  6.69485E+00  6.67204E+00  6.65169E+00  6.63178E+00  6.60700E+00  6.57820E+00  6.54947E+00  6.51944E+00
   6.48617E+00  6.45412E+00  6.42524E+00  6.39522E+00  6.36273E+00  6.33264E+00  6.30452E+00  6.27529E+00  6.24661E+00  6.22076E+00
   6.19571E+00  6.16863E+00  6.13982E+00  6.10866E+00  6.07448E+00  6.03892E+00  6.00415E+00  5.96988E+00  5.93599E+00  5.90258E+00
   5.86978E+00  5.83791E+00  5.80696E+00  5.77617E+00  5.74555E+00  5.71492E+00  5.68365E+00  5.65170E+00  5.61929E+00  5.58630E+00
   5.55380E+00  5.52355E+00  5.49510E+00  5.46731E+00  5.43921E+00  5.40993E+00  5.37816E+00  5.34381E+00  5.30810E+00  5.27198E+00
   5.23619E+00  5.20384E+00  5.17668E+00  5.15124E+00  5.12546E+00  5.09848E+00  5.06896E+00  5.03577E+00  4.99875E+00  4.95831E+00
   4.91511E+00  4.86993E+00  4.82361E+00  4.77611E+00  4.72684E+00  4.67378E+00  4.61391E+00  4.56659E+00  4.61853E+00  4.75589E+00
   4.92186E+00  5.09617E+00  5.25264E+00  5.34178E+00  5.32581E+00  5.21703E+00  5.05900E+00  4.88876E+00  4.74385E+00  4.66016E+00
   4.60983E+00  4.56723E+00  4.53034E+00  4.49783E+00  4.46896E+00  4.44266E+00  4.41821E+00  4.39532E+00  4.37317E+00  4.35075E+00
   4.32715E+00  4.30567E+00  4.30877E+00  4.33840E+00  4.37907E+00  4.42451E+00  4.46817E+00  4.49650E+00  4.49703E+00  4.46979E+00
   4.42505E+00  4.37301E+00  4.32337E+00  4.28671E+00  4.25860E+00  4.23149E+00  4.20470E+00  4.17757E+00  4.14929E+00  4.11975E+00
   4.08885E+00  4.05676E+00  4.02393E+00  3.99023E+00  3.95568E+00  3.92047E+00  3.88444E+00  3.84750E+00  3.80972E+00  3.77098E+00
   3.73084E+00  3.69005E+00  3.64933E+00  3.60916E+00  3.57054E+00  3.53343E+00  3.49703E+00  3.46097E+00  3.42479E+00  3.38776E+00
   3.34955E+00  3.31063E+00  3.27243E+00  3.23572E+00  3.20033E+00  3.16521E+00  3.12936E+00  3.09389E+00  3.05931E+00  3.02586E+00
   2.99360E+00  2.96153E+00  2.92916E+00  2.89639E+00  2.86296E+00  2.82880E+00  2.79411E+00  2.75934E+00  2.72423E+00  2.68922E+00
   2.65557E+00  2.62297E+00  2.59100E+00  2.56057E+00  2.53239E+00  2.50532E+00  2.47794E+00  2.45016E+00  2.42184E+00  2.39179E+00
   2.36070E+00  2.32905E+00  2.29637E+00  2.26215E+00  2.22665E+00  2.19201E+00  2.15890E+00  2.12694E+00  2.09614E+00  2.06645E+00
   2.03701E+00  2.00725E+00  1.97709E+00  1.94672E+00  1.91507E+00  1.88203E+00  1.84891E+00  1.81604E+00  1.78339E+00  1.75155E+00
   1.72170E+00  1.69398E+00  1.66787E+00  1.64288E+00  1.61879E+00  1.59512E+00  1.57187E+00  1.54936E+00  1.52791E+00  1.50796E+00
   1.48983E+00  1.47345E+00  1.45859E+00  1.44452E+00  1.43028E+00  1.41553E+00  1.39892E+00  1.38028E+00  1.36102E+00  1.34225E+00
   1.32601E+00  1.31442E+00  1.30841E+00  1.30725E+00  1.31058E+00  1.31827E+00  1.32998E+00  1.34410E+00  1.36080E+00  1.38272E+00
   1.41157E+00  1.44806E+00  1.49275E+00  1.54553E+00  1.60472E+00  1.66831E+00  1.73389E+00  1.79889E+00  1.86043E+00  1.91470E+00
   1.96044E+00  2.02445E+00  2.12422E+00  2.23953E+00  2.35840E+00  2.47656E+00  2.58801E+00  2.66803E+00  2.70390E+00  2.70418E+00
   2.67917E+00  2.63573E+00  2.58804E+00  2.53959E+00  2.48288E+00  2.41979E+00  2.35539E+00  2.29478E+00  2.23482E+00  2.17409E+00
   2.11310E+00  2.05236E+00  1.99132E+00  1.92912E+00  1.86520E+00  1.79929E+00  1.73114E+00  1.66096E+00  1.58978E+00  1.51883E+00
   1.44845E+00  1.37918E+00  1.31145E+00  1.24512E+00  1.18018E+00  1.11681E+00  1.05513E+00  9.95717E-01  9.39472E-01  8.87178E-01
   8.39606E-01  7.97275E-01  7.60744E-01  7.30171E-01  7.05214E-01  6.85566E-01  6.71149E-01  6.61633E-01  6.56793E-01  6.56255E-01
   6.59301E-01  6.64970E-01  6.72034E-01  6.79105E-01  6.84716E-01  6.87319E-01  6.85528E-01  6.78203E-01  6.64326E-01  6.43105E-01
   6.14000E-01  5.76759E-01  5.31436E-01  4.78406E-01  4.18371E-01  3.52354E-01  2.81681E-01  2.07949E-01  1.33014E-01  5.89872E-02
  -1.17103E-02 -7.57603E-02 -1.25760E-01 -1.56522E-01 -1.74228E-01 -1.80468E-01 -1.74922E-01 -1.59417E-01 -1.36410E-01 -1.06587E-01
  -6.53542E-02  1.62859E-03  9.93869E-02  2.28398E-01  3.86106E-01  5.64819E-01  7.56430E-01  9.50362E-01  1.13793E+00  1.31390E+00
   1.47519E+00  1.62910E+00  1.83493E+00  2.15878E+00  2.49441E+00  2.77640E+00  2.98302E+00  3.07116E+00  2.98310E+00  2.68383E+00
   2.26033E+00  1.91532E+00  1.71700E+00  1.70109E+00  1.88005E+00  2.17408E+00  2.49917E+00  2.76654E+00  2.92486E+00  2.96282E+00
   2.88278E+00  2.73530E+00  2.59030E+00  2.44686E+00  2.30448E+00  2.16708E+00  2.03768E+00  1.91796E+00  1.80830E+00  1.70814E+00
   1.61633E+00  1.53149E+00  1.45225E+00  1.37736E+00  1.30579E+00  1.23672E+00  1.16957E+00  1.10393E+00  1.03960E+00  9.76508E-01
   9.14698E-01  8.54332E-01  7.95679E-01  7.39117E-01  6.85126E-01  6.34275E-01  5.87222E-01  5.44710E-01  5.07561E-01  4.76663E-01
   4.52940E-01  4.37324E-01  4.30713E-01  4.33939E-01  4.47719E-01  4.72610E-01  5.08948E-01  5.56802E-01  6.15942E-01  6.85811E-01
   7.65518E-01  8.53837E-01  9.49231E-01  1.04989E+00  1.15379E+00  1.25878E+00  1.36265E+00  1.46324E+00  1.55848E+00  1.64653E+00
   1.72580E+00  1.79502E+00  1.85329E+00  1.90006E+00  1.93516E+00  1.95874E+00  1.97127E+00  1.97346E+00  1.96624E+00  1.95064E+00
   1.92780E+00  1.89888E+00  1.86502E+00  1.82731E+00  1.78675E+00  1.74425E+00  1.70059E+00  1.65643E+00  1.61234E+00  1.56874E+00
   1.52600E+00  1.48435E+00  1.44399E+00  1.40502E+00  1.36753E+00  1.33154E+00  1.29705E+00  1.26402E+00  1.23242E+00  1.20220E+00
   1.17331E+00  1.14567E+00  1.11922E+00  1.09391E+00  1.06967E+00  1.04644E+00  1.02416E+00  1.00280E+00  9.82284E-01  9.62579E-01
   9.43640E-01  9.25430E-01  9.07911E-01  8.91047E-01  8.74806E-01  8.59158E-01  8.44078E-01  8.29540E-01  8.15520E-01  8.01995E-01
   7.88944E-01  7.76347E-01  7.64189E-01  7.52453E-01  7.41123E-01  7.30181E-01  7.19615E-01  7.09413E-01  6.99564E-01  6.90055E-01
   6.80875E-01  6.72013E-01  6.63459E-01  6.55207E-01  6.47247E-01  6.39572E-01  6.32171E-01  6.25037E-01  6.18165E-01  6.11549E-01
   6.05183E-01  5.99058E-01  5.93169E-01  5.87511E-01  5.82079E-01  5.76869E-01  5.71875E-01  5.67091E-01  5.62512E-01  5.58136E-01
   5.53958E-01  5.49974E-01  5.46179E-01  5.42567E-01  5.39136E-01  5.35882E-01  5.32801E-01  5.29888E-01
 NY background values follow
     7.866E+00    7.838E+00    7.810E+00    7.781E+00    7.753E+00    7.724E+00    7.696E+00    7.668E+00    7.640E+00    7.611E+00
     7.583E+00    7.555E+00    7.527E+00    7.498E+00    7.470E+00    7.442E+00    7.414E+00    7.386E+00    7.357E+00    7.329E+00
     7.301E+00    7.273E+00    7.245E+00    7.217E+00    7.189E+00    7.161E+00    7.133E+00    7.105E+00    7.077E+00    7.049E+00
     7.021E+00    6.993E+00    6.965E+00    6.937E+00    6.910E+00    6.882E+00    6.854E+00    6.826E+00    6.798E+00    6.771E+00
     6.743E+00    6.715E+00    6.688E+00    6.660E+00    6.632E+00    6.605E+00    6.577E+00    6.550E+00    6.522E+00    6.495E+00
     6.467E+00    6.440E+00    6.413E+00    6.385E+00    6.358E+00    6.331E+00    6.303E+00    6.276E+00    6.249E+00    6.222E+00
     6.194E+00    6.167E+00    6.140E+00    6.113E+00    6.086E+00    6.059E+00    6.032E+00    6.005E+00    5.978E+00    5.951E+00
     5.925E+00    5.898E+00    5.871E+00    5.844E+00    5.817E+00    5.791E+00    5.764E+00    5.738E+00    5.711E+00    5.684E+00
     5.658E+00    5.632E+00    5.605E+00    5.579E+00    5.552E+00    5.526E+00    5.500E+00    5.474E+00    5.447E+00    5.421E+00
     5.395E+00    5.369E+00    5.343E+00    5.317E+00    5.291E+00    5.265E+00    5.239E+00    5.213E+00    5.188E+00    5.162E+00
     5.136E+00    5.110E+00    5.085E+00    5.059E+00    5.034E+00    5.008E+00    4.983E+00    4.957E+00    4.932E+00    4.907E+00
     4.881E+00    4.856E+00    4.831E+00    4.806E+00    4.780E+00    4.755E+00    4.730E+00    4.705E+00    4.680E+00    4.656E+00
     4.631E+00    4.606E+00    4.581E+00    4.556E+00    4.532E+00    4.507E+00    4.483E+00    4.458E+00    4.434E+00    4.409E+00
     4.385E+00    4.361E+00    4.336E+00    4.312E+00    4.288E+00    4.264E+00    4.240E+00    4.216E+00    4.192E+00    4.168E+00
     4.144E+00    4.120E+00    4.096E+00    4.072E+00    4.049E+00    4.025E+00    4.002E+00    3.978E+00    3.955E+00    3.931E+00
     3.908E+00    3.884E+00    3.861E+00    3.838E+00    3.815E+00    3.792E+00    3.769E+00    3.746E+00    3.723E+00    3.700E+00
     3.677E+00    3.654E+00    3.631E+00    3.609E+00    3.586E+00    3.563E+00    3.541E+00    3.518E+00    3.496E+00    3.474E+00
     3.451E+00    3.429E+00    3.407E+00    3.385E+00    3.363E+00    3.341E+00    3.319E+00    3.297E+00    3.275E+00    3.253E+00
     3.231E+00    3.210E+00    3.188E+00    3.166E+00    3.145E+00    3.123E+00    3.102E+00    3.081E+00    3.059E+00    3.038E+00
     3.017E+00    2.996E+00    2.975E+00    2.954E+00    2.933E+00    2.912E+00    2.891E+00    2.870E+00    2.850E+00    2.829E+00
     2.809E+00    2.788E+00    2.768E+00    2.747E+00    2.727E+00    2.707E+00    2.686E+00    2.666E+00    2.646E+00    2.626E+00
     2.606E+00    2.586E+00    2.566E+00    2.547E+00    2.527E+00    2.507E+00    2.488E+00    2.468E+00    2.449E+00    2.429E+00
     2.410E+00    2.391E+00    2.371E+00    2.352E+00    2.333E+00    2.314E+00    2.295E+00    2.276E+00    2.257E+00    2.239E+00
     2.220E+00    2.201E+00    2.183E+00    2.164E+00    2.146E+00    2.127E+00    2.109E+00    2.091E+00    2.073E+00    2.054E+00
     2.036E+00    2.018E+00    2.000E+00    1.983E+00    1.965E+00    1.947E+00    1.929E+00    1.912E+00    1.894E+00    1.877E+00
     1.860E+00    1.842E+00    1.825E+00    1.808E+00    1.791E+00    1.774E+00    1.757E+00    1.740E+00    1.723E+00    1.706E+00
     1.689E+00    1.673E+00    1.656E+00    1.640E+00    1.623E+00    1.607E+00    1.591E+00    1.575E+00    1.558E+00    1.542E+00
     1.526E+00    1.510E+00    1.495E+00    1.479E+00    1.463E+00    1.447E+00    1.432E+00    1.416E+00    1.401E+00    1.386E+00
     1.370E+00    1.355E+00    1.340E+00    1.325E+00    1.310E+00    1.295E+00    1.280E+00    1.266E+00    1.251E+00    1.236E+00
     1.222E+00    1.207E+00    1.193E+00    1.179E+00    1.164E+00    1.150E+00    1.136E+00    1.122E+00    1.108E+00    1.094E+00
     1.080E+00    1.067E+00    1.053E+00    1.040E+00    1.026E+00    1.013E+00    9.993E-01    9.860E-01    9.728E-01    9.597E-01
     9.467E-01    9.338E-01    9.209E-01    9.081E-01    8.954E-01    8.827E-01    8.702E-01    8.577E-01    8.453E-01    8.329E-01
     8.207E-01    8.085E-01    7.964E-01    7.844E-01    7.724E-01    7.606E-01    7.488E-01    7.371E-01    7.254E-01    7.139E-01
     7.024E-01    6.910E-01    6.797E-01    6.685E-01    6.573E-01    6.463E-01    6.353E-01    6.244E-01    6.135E-01    6.028E-01
     5.921E-01    5.815E-01    5.710E-01    5.606E-01    5.502E-01    5.399E-01    5.297E-01    5.196E-01    5.096E-01    4.997E-01
     4.898E-01    4.800E-01    4.703E-01    4.607E-01    4.511E-01    4.417E-01    4.323E-01    4.230E-01    4.138E-01    4.047E-01
     3.956E-01    3.866E-01    3.778E-01    3.690E-01    3.602E-01    3.516E-01    3.430E-01    3.346E-01    3.262E-01    3.179E-01
     3.097E-01    3.015E-01    2.935E-01    2.855E-01    2.776E-01    2.698E-01    2.621E-01    2.544E-01    2.469E-01    2.394E-01
     2.320E-01    2.247E-01    2.175E-01    2.103E-01    2.033E-01    1.963E-01    1.894E-01    1.826E-01    1.759E-01    1.693E-01
     1.627E-01    1.563E-01    1.499E-01    1.436E-01    1.374E-01    1.313E-01    1.253E-01    1.193E-01    1.134E-01    1.077E-01
     1.020E-01    9.635E-02    9.082E-02    8.538E-02    8.003E-02    7.476E-02    6.957E-02    6.448E-02    5.947E-02    5.454E-02
     4.970E-02    4.495E-02    4.028E-02    3.570E-02    3.120E-02    2.679E-02    2.247E-02    1.823E-02    1.408E-02    1.002E-02
     6.039E-03    2.147E-03   -1.657E-03   -5.375E-03   -9.007E-03   -1.255E-02   -1.601E-02   -1.938E-02   -2.267E-02   -2.586E-02
    -2.897E-02   -3.200E-02   -3.493E-02   -3.778E-02   -4.055E-02   -4.322E-02   -4.581E-02   -4.831E-02   -5.073E-02   -5.305E-02
    -5.529E-02   -5.745E-02   -5.951E-02   -6.149E-02   -6.338E-02   -6.518E-02   -6.689E-02   -6.852E-02   -7.006E-02   -7.151E-02
    -7.288E-02   -7.416E-02   -7.535E-02   -7.645E-02   -7.746E-02   -7.839E-02   -7.923E-02   -7.998E-02   -8.064E-02   -8.121E-02
    -8.170E-02   -8.210E-02   -8.241E-02   -8.264E-02   -8.277E-02   -8.282E-02   -8.278E-02   -8.265E-02   -8.243E-02   -8.213E-02
    -8.174E-02   -8.126E-02   -8.069E-02   -8.003E-02   -7.929E-02   -7.845E-02   -7.753E-02   -7.652E-02   -7.543E-02   -7.424E-02
    -7.297E-02   -7.161E-02   -7.016E-02   -6.862E-02   -6.699E-02   -6.528E-02   -6.348E-02   -6.159E-02   -5.961E-02   -5.754E-02
    -5.539E-02   -5.315E-02   -5.082E-02   -4.840E-02   -4.589E-02   -4.329E-02   -4.061E-02   -3.784E-02
 Ala      Conc. = 4.05E+00
