 LCModel (Version 6.3-1L) Copyright: S.W. Provencher.          Ref.: Magn. Reson. Med. 30:672-679 (1993).                
 Slice#1 Row#14 Col#2  PD_05_press_1_raw_act
 36 lines in following concentration table = NCONC+1
    Conc.  %SD /Cr+PCr  Metabolite                                         
   15.510 184%   0.000 Ala                                                 
    2.378 128%   0.000 Asp                                                 
    0.000 999%   0.000 Cr                                                  
    0.000 999%   0.000 PCr                                                 
    1.581 115%   0.000 GABA                                                
    1.498 122%   0.000 Glc                                                 
    0.000 999%   0.000 Gln                                                 
    0.000 999%   0.000 Glu                                                 
    0.000 999%   0.000 GPC                                                 
   17.033  27%   0.000 PCh                                                 
    0.000 999%   0.000 GSH                                                 
    0.000 999%   0.000 Ins                                                 
   46.350  69%   0.000 Lac                                                 
    0.000 999%   0.000 NAA                                                 
    0.000 999%   0.000 NAAG                                                
    0.620  98%   0.000 Scyllo                                              
    2.800 108%   0.000 Tau                                                 
    0.782 565%   0.000 -CrCH2                                              
   17.033  27%   0.000 GPC+PCh                                             
    0.000 999%   0.000 NAA+NAAG                                            
    0.000 999%   0.000 Cr+PCr                                              
    0.000 999%   0.000 Glu+Gln                                             
  173.826  39%   0.000 Lip13a                                              
    0.000 999%   0.000 Lip13b                                              
   46.267  51%   0.000 Lip09                                               
    6.000 306%   0.000 MM09                                                
   19.499  83%   0.000 Lip20                                               
    0.000 999%   0.000 MM20                                                
    2.037 496%   0.000 MM12                                                
   25.456 145%   0.000 MM14                                                
    0.000 999%   0.000 MM17                                                
  173.826  39%   0.000 Lip13a+Lip13b                                       
  201.320  32%   0.000 MM14+Lip13a+Lip13b+MM12                             
   52.267  47%   0.000 MM09+Lip09                                          
   19.499  83%   0.000 MM20+Lip20                                          
   6 lines in following misc. output table
  FWHM = 0.061 ppm    S/N =   1                                            
  Data shift =-0.023 ppm                                                   
  Ph:  -2 deg       8.2 deg/ppm                                            
  alphaB,S = 8.5E+01,   4.5E+01                                            
   14 spline knots.   Ns = 5(1)                                            
   2 inflections.     1 extrema                                            
  498 points on ppm-axis = NY
      4.000000     3.992357     3.984714     3.977070     3.969427     3.961784     3.954141     3.946497     3.938854     3.931211
      3.923568     3.915925     3.908281     3.900638     3.892995     3.885352     3.877708     3.870065     3.862422     3.854779
      3.847136     3.839492     3.831849     3.824206     3.816563     3.808919     3.801276     3.793633     3.785990     3.778347
      3.770703     3.763060     3.755417     3.747774     3.740130     3.732487     3.724844     3.717201     3.709558     3.701914
      3.694271     3.686628     3.678985     3.671341     3.663698     3.656055     3.648412     3.640769     3.633125     3.625482
      3.617839     3.610196     3.602552     3.594909     3.587266     3.579623     3.571980     3.564336     3.556693     3.549050
      3.541407     3.533763     3.526120     3.518477     3.510834     3.503191     3.495547     3.487904     3.480261     3.472618
      3.464974     3.457331     3.449688     3.442045     3.434402     3.426758     3.419115     3.411472     3.403829     3.396185
      3.388542     3.380899     3.373256     3.365613     3.357969     3.350326     3.342683     3.335040     3.327396     3.319753
      3.312110     3.304467     3.296824     3.289180     3.281537     3.273894     3.266251     3.258607     3.250964     3.243321
      3.235678     3.228034     3.220391     3.212748     3.205105     3.197462     3.189818     3.182175     3.174532     3.166889
      3.159245     3.151602     3.143959     3.136316     3.128673     3.121029     3.113386     3.105743     3.098100     3.090456
      3.082813     3.075170     3.067527     3.059884     3.052240     3.044597     3.036954     3.029311     3.021667     3.014024
      3.006381     2.998738     2.991095     2.983451     2.975808     2.968165     2.960522     2.952878     2.945235     2.937592
      2.929949     2.922306     2.914662     2.907019     2.899376     2.891733     2.884089     2.876446     2.868803     2.861160
      2.853517     2.845873     2.838230     2.830587     2.822944     2.815300     2.807657     2.800014     2.792371     2.784728
      2.777084     2.769441     2.761798     2.754155     2.746511     2.738868     2.731225     2.723582     2.715939     2.708295
      2.700652     2.693009     2.685366     2.677722     2.670079     2.662436     2.654793     2.647150     2.639506     2.631863
      2.624220     2.616577     2.608933     2.601290     2.593647     2.586004     2.578361     2.570717     2.563074     2.555431
      2.547788     2.540144     2.532501     2.524858     2.517215     2.509572     2.501928     2.494285     2.486642     2.478999
      2.471355     2.463712     2.456069     2.448426     2.440783     2.433139     2.425496     2.417853     2.410210     2.402566
      2.394923     2.387280     2.379637     2.371994     2.364350     2.356707     2.349064     2.341421     2.333777     2.326134
      2.318491     2.310848     2.303205     2.295561     2.287918     2.280275     2.272632     2.264988     2.257345     2.249702
      2.242059     2.234416     2.226772     2.219129     2.211486     2.203843     2.196199     2.188556     2.180913     2.173270
      2.165627     2.157983     2.150340     2.142697     2.135054     2.127410     2.119767     2.112124     2.104481     2.096838
      2.089194     2.081551     2.073908     2.066265     2.058621     2.050978     2.043335     2.035692     2.028049     2.020405
      2.012762     2.005119     1.997476     1.989833     1.982190     1.974546     1.966903     1.959260     1.951617     1.943974
      1.936331     1.928688     1.921045     1.913402     1.905759     1.898115     1.890472     1.882829     1.875186     1.867543
      1.859900     1.852257     1.844614     1.836971     1.829327     1.821684     1.814041     1.806398     1.798755     1.791112
      1.783469     1.775826     1.768183     1.760540     1.752896     1.745253     1.737610     1.729967     1.722324     1.714681
      1.707038     1.699395     1.691752     1.684108     1.676465     1.668822     1.661179     1.653536     1.645893     1.638250
      1.630607     1.622964     1.615321     1.607677     1.600034     1.592391     1.584748     1.577105     1.569462     1.561819
      1.554176     1.546533     1.538890     1.531246     1.523603     1.515960     1.508317     1.500674     1.493031     1.485388
      1.477745     1.470102     1.462458     1.454815     1.447172     1.439529     1.431886     1.424243     1.416600     1.408957
      1.401314     1.393671     1.386027     1.378384     1.370741     1.363098     1.355455     1.347812     1.340169     1.332526
      1.324883     1.317240     1.309596     1.301953     1.294310     1.286667     1.279024     1.271381     1.263738     1.256095
      1.248452     1.240808     1.233165     1.225522     1.217879     1.210236     1.202593     1.194950     1.187307     1.179664
      1.172021     1.164377     1.156734     1.149091     1.141448     1.133805     1.126162     1.118519     1.110876     1.103233
      1.095590     1.087946     1.080303     1.072660     1.065017     1.057374     1.049731     1.042088     1.034445     1.026802
      1.019158     1.011515     1.003872     0.996229     0.988586     0.980943     0.973300     0.965657     0.958014     0.950371
      0.942727     0.935084     0.927441     0.919798     0.912155     0.904512     0.896869     0.889226     0.881583     0.873940
      0.866296     0.858653     0.851010     0.843367     0.835724     0.828081     0.820438     0.812795     0.805152     0.797508
      0.789865     0.782222     0.774579     0.766936     0.759293     0.751650     0.744007     0.736364     0.728721     0.721077
      0.713434     0.705791     0.698148     0.690505     0.682862     0.675219     0.667576     0.659933     0.652290     0.644646
      0.637003     0.629360     0.621717     0.614074     0.606431     0.598788     0.591145     0.583502     0.575858     0.568215
      0.560572     0.552929     0.545286     0.537643     0.530000     0.522357     0.514714     0.507071     0.499427     0.491784
      0.484141     0.476498     0.468855     0.461212     0.453569     0.445925     0.438282     0.430639     0.422996     0.415353
      0.407710     0.400067     0.392424     0.384780     0.377137     0.369494     0.361851     0.354208     0.346565     0.338922
      0.331278     0.323635     0.315992     0.308349     0.300706     0.293063     0.285420     0.277777     0.270133     0.262490
      0.254847     0.247204     0.239561     0.231918     0.224275     0.216631     0.208988     0.201345
 NY phased data points follow
  -4.75843E+00 -2.95750E+00 -2.97024E+00 -4.58760E+00 -3.02537E+00 -2.65673E+00 -4.75100E+00 -2.83087E+00 -2.91861E+00 -3.74288E+00
  -2.28305E+00 -3.66935E+00 -4.10613E+00 -3.86295E+00 -2.97964E+00 -3.42212E+00 -4.37086E+00 -4.07182E+00 -2.18753E+00 -2.35724E+00
  -4.89666E+00 -2.75273E+00 -3.73021E+00 -4.41154E+00 -4.80093E+00 -2.91425E+00 -2.43645E+00 -3.35947E+00 -3.20261E+00 -3.34511E+00
  -2.74606E+00 -4.21719E+00 -4.58946E+00 -3.50011E+00 -1.91119E+00 -2.80399E+00 -3.07359E+00 -3.19642E+00 -4.67032E+00 -4.74017E+00
  -2.88775E+00 -2.04243E+00 -2.04642E+00 -3.25002E+00 -3.56222E+00 -3.67575E+00 -1.88833E+00 -3.26107E+00 -3.47333E+00 -2.60931E+00
  -1.63904E+00 -1.91915E+00 -2.38253E+00 -3.91981E+00 -4.08983E+00 -1.55421E+00 -3.38892E+00 -2.28739E+00 -2.33005E+00 -2.52309E+00
  -2.93843E+00 -3.59224E+00 -1.14359E+00 -6.85471E-01 -3.20303E+00 -2.04904E+00 -2.89884E+00 -2.74489E+00 -3.13223E+00 -1.79713E+00
  -3.04233E+00 -1.99961E+00 -2.77971E+00 -1.78134E+00 -4.31414E+00 -3.22392E+00 -2.74512E+00 -2.49652E+00 -2.94766E+00 -2.40327E+00
  -3.43962E+00 -7.17955E-01 -2.71501E+00 -3.83362E+00 -8.72643E-01 -1.70709E+00 -2.21260E+00 -2.19517E+00 -1.16003E+00 -2.38084E+00
  -5.68922E-01 -1.77572E+00 -1.77574E+00 -2.83014E+00 -2.37804E+00 -2.43574E+00 -2.60600E+00 -2.61851E+00 -2.19213E+00 -1.28816E+00
  -1.58875E+00 -4.96229E-01  8.29765E-01 -5.03328E-01 -1.61121E+00 -3.76556E+00 -2.52150E+00 -5.77596E-01 -1.62168E+00 -2.62486E+00
  -3.75318E+00 -1.13293E+00 -3.64445E+00 -2.09708E+00 -1.22751E+00 -3.25505E+00 -5.16546E-01 -2.44660E+00 -1.73276E+00 -2.42313E+00
  -1.84736E+00 -2.43245E+00 -1.30913E+00 -1.68934E+00 -2.19519E+00 -8.26042E-01 -2.95478E+00 -1.54974E+00 -3.48877E+00 -2.24687E+00
  -3.84976E+00 -2.63946E+00 -2.14525E+00 -3.49531E+00 -2.19476E+00 -8.03743E-01 -3.64297E+00 -1.67251E+00 -1.33134E+00 -1.67878E+00
  -1.92898E+00 -1.04251E+00 -3.34541E+00 -2.38486E+00 -1.93991E+00 -1.63512E+00 -2.77080E+00 -2.67385E+00 -2.30390E+00 -1.73842E+00
  -4.95882E-03 -1.50103E+00 -1.89783E+00 -1.65571E+00 -2.05445E+00 -2.89582E+00 -1.82906E+00 -1.32758E+00 -2.50072E+00 -1.27856E+00
  -1.56895E+00 -2.53461E+00 -3.47831E+00 -2.35648E+00 -3.38285E-01 -2.58588E+00 -7.97964E-01 -2.22211E+00 -2.49817E+00 -4.99920E-01
  -1.10904E+00 -2.28630E+00 -2.77471E+00 -2.85746E+00 -3.84217E+00 -7.51566E-01 -2.71491E+00 -2.09181E+00 -2.20207E+00 -1.79616E+00
  -2.75459E+00 -1.74504E+00 -2.37567E+00 -1.01865E+00 -2.13489E+00 -3.37626E+00 -2.73704E+00 -2.57351E+00 -2.14238E+00 -2.26636E+00
  -1.71723E+00 -2.00045E+00 -1.79401E+00 -2.67071E+00 -4.46040E+00 -1.77483E+00 -3.86862E+00 -2.90590E+00 -2.35640E+00 -3.28185E+00
  -2.34294E+00 -4.22394E+00 -4.04432E+00 -2.52877E+00 -3.19634E+00 -2.75826E+00 -3.37795E+00 -1.81972E+00 -1.73168E+00 -2.56102E+00
  -3.66949E+00 -2.81646E+00 -2.72039E+00 -4.82033E+00 -2.95222E+00 -2.57711E+00 -2.12344E+00 -1.63083E+00 -2.83102E+00 -3.78643E+00
  -4.13992E+00 -2.09647E+00 -4.49731E+00 -1.54913E+00 -1.90288E+00 -1.62849E+00 -3.31219E+00 -2.45374E+00 -2.76627E+00 -2.90131E+00
  -1.59260E+00 -2.67453E+00 -3.67224E+00 -3.55382E+00 -1.22813E+00 -1.43511E+00 -1.27126E+00 -1.72937E+00 -9.36400E-01 -2.82845E-01
  -2.93077E+00 -2.13355E+00 -1.28398E+00 -1.19277E+00 -1.31243E+00 -9.57056E-01 -1.28547E+00 -6.15888E-01 -8.74458E-01 -1.10583E+00
  -2.66151E+00 -3.07200E+00 -1.85225E+00 -2.66858E+00 -1.09889E+00 -1.80749E+00 -9.75778E-01 -2.58981E+00 -1.22744E+00 -2.54141E+00
  -7.40566E-01 -2.83363E+00 -8.99161E-01 -3.35579E+00 -3.81078E+00 -1.85293E+00 -7.68254E-02 -2.54850E+00 -3.20831E+00 -2.20068E+00
  -2.09704E+00 -1.21824E+00 -2.20364E+00 -1.82597E+00 -7.06819E-01 -1.32239E+00 -1.64701E+00 -1.25554E+00 -2.60158E+00 -2.67797E+00
  -2.03829E+00 -1.47791E+00 -2.11586E+00 -2.31530E+00 -2.40631E+00 -1.27903E+00 -1.11991E-01 -1.17654E+00 -3.41706E-01 -1.98127E+00
  -1.20688E+00 -2.32817E+00 -1.74711E+00 -2.67218E+00 -1.76913E+00 -1.69747E+00 -2.66035E+00 -2.96821E+00 -1.70092E+00 -3.53075E+00
  -2.73316E+00 -2.58660E+00 -6.90817E-01 -3.87202E+00 -1.71597E+00 -1.94032E+00 -6.03473E-01 -2.09120E+00 -2.09219E+00 -2.50927E+00
  -3.27250E+00 -2.64367E+00 -2.92114E+00 -3.42771E+00 -2.82275E+00 -2.47666E+00  1.30864E+00  5.21718E-01 -3.07639E+00 -1.89433E+00
  -2.77215E+00 -1.04335E+00 -2.81700E+00 -2.26646E-01 -2.07201E+00 -8.45977E-01 -1.95839E+00 -3.88760E-02 -1.45495E+00 -1.15158E+00
  -1.96338E+00 -1.88668E+00 -2.52562E-01  1.45680E-01 -2.27597E-01 -1.40859E-01 -2.93004E-01  1.39334E-01  4.53186E-01  1.98597E+00
  -1.57861E+00  3.93392E-01  2.07463E+00  2.15011E+00  2.25628E-01 -5.12266E-01 -1.26542E+00 -1.17562E+00  2.50158E-01 -7.27214E-01
   1.82897E-01  1.20316E+00 -1.59549E+00 -4.08686E-01 -9.79366E-01 -2.25239E+00 -1.01326E+00  7.90097E-01 -1.92682E-01 -5.77426E-01
   9.51177E-01 -9.68996E-01  7.24902E-01 -2.14931E-01  4.76546E-01 -6.46131E-01 -9.62067E-01 -1.33971E+00  1.66045E+00 -1.39088E+00
  -1.05502E+00 -6.70680E-01 -3.37904E-01 -2.27207E+00  1.40797E+00 -7.58589E-01  2.10002E-01 -1.52042E+00 -8.11052E-01 -4.28215E-02
   5.15908E-02 -2.23180E+00 -5.00621E-01 -2.72807E-01  3.67920E-01 -1.38532E+00 -1.15432E+00  1.12982E+00  1.64551E-01  3.98812E-01
   9.31811E-01 -2.12822E+00 -4.64121E-01 -2.36660E-01 -2.34997E+00 -1.26367E-01  1.16965E+00 -1.31115E+00 -1.61876E+00  1.20880E-01
   6.96183E-01 -1.98727E-01  3.12624E-01 -8.36363E-01  1.93902E-01 -1.28429E+00 -1.46676E+00 -8.36039E-01  6.55298E-01 -1.20612E-01
  -5.08479E-01 -8.82485E-01 -2.08833E-01 -8.02302E-01 -6.69315E-01 -8.60376E-01 -8.75416E-01 -5.51695E-01 -2.84580E+00  1.42089E-01
  -1.28608E+00 -8.23443E-01 -6.08853E-01  2.75376E-01  1.18515E+00 -1.99634E+00 -2.28716E-01 -7.17501E-01  3.60258E-01 -1.71621E+00
   2.80811E-01 -5.60407E-01 -1.24796E-01  1.72593E-01 -6.19562E-01 -4.61156E-01 -1.66715E-01 -4.48678E-01 -1.29048E+00 -1.99331E+00
  -7.57152E-01  6.78627E-01 -3.81086E-01  2.79258E-01 -8.89924E-01 -1.42697E+00 -8.43931E-01 -2.61792E+00  1.02744E-01 -7.99312E-01
  -1.31808E+00 -1.05324E+00 -5.07865E-01 -8.11328E-01 -7.49299E-01 -6.13600E-01 -1.26150E+00 -1.46687E+00 -1.57953E-01 -2.01300E-01
  -7.90668E-01 -4.59894E-01 -8.91392E-01  6.82078E-01 -1.25599E-01 -8.18273E-01  3.69365E-01  5.85589E-01 -7.34133E-01 -7.26169E-01
   8.26330E-01 -1.90385E-01  5.63864E-01 -8.41021E-01 -8.79390E-01 -1.56012E-01  1.03499E+00  3.99109E-01 -5.51635E-01  6.40813E-02
   9.16878E-01  5.60376E-02  7.27224E-01  1.43660E+00 -8.18319E-01 -4.75192E-01 -1.85327E+00  1.43347E+00 -7.24833E-01  2.08414E-01
  -8.77208E-01 -3.15416E-01  5.33340E-01 -4.46502E-01 -9.49409E-02 -7.70583E-01 -2.19695E-01  7.36343E-01
 NY points of the fit to the data follow
  -3.19546E+00 -3.18429E+00 -3.16891E+00 -3.15255E+00 -3.14171E+00 -3.13877E+00 -3.13809E+00 -3.13582E+00 -3.13135E+00 -3.12534E+00
  -3.11862E+00 -3.11144E+00 -3.10439E+00 -3.09904E+00 -3.09485E+00 -3.09097E+00 -3.08624E+00 -3.07849E+00 -3.06675E+00 -3.05063E+00
  -3.02988E+00 -3.01039E+00 -2.99814E+00 -2.99395E+00 -2.99695E+00 -3.00547E+00 -3.01667E+00 -3.02899E+00 -3.03692E+00 -3.03457E+00
  -3.02209E+00 -3.00124E+00 -2.97540E+00 -2.95092E+00 -2.93068E+00 -2.91472E+00 -2.90289E+00 -2.89642E+00 -2.89868E+00 -2.90729E+00
  -2.91715E+00 -2.92397E+00 -2.92567E+00 -2.92356E+00 -2.91957E+00 -2.91405E+00 -2.90898E+00 -2.90265E+00 -2.89200E+00 -2.87812E+00
  -2.86405E+00 -2.85106E+00 -2.84096E+00 -2.83302E+00 -2.82551E+00 -2.81891E+00 -2.81352E+00 -2.80965E+00 -2.80788E+00 -2.80585E+00
  -2.80210E+00 -2.79696E+00 -2.79073E+00 -2.78426E+00 -2.77780E+00 -2.77196E+00 -2.76708E+00 -2.76257E+00 -2.75785E+00 -2.75277E+00
  -2.74607E+00 -2.73679E+00 -2.72651E+00 -2.71706E+00 -2.70961E+00 -2.70471E+00 -2.70141E+00 -2.69834E+00 -2.69454E+00 -2.68984E+00
  -2.68397E+00 -2.67390E+00 -2.65848E+00 -2.64147E+00 -2.62687E+00 -2.61641E+00 -2.60988E+00 -2.60594E+00 -2.60367E+00 -2.60311E+00
  -2.60455E+00 -2.60716E+00 -2.60802E+00 -2.60258E+00 -2.58922E+00 -2.56944E+00 -2.53923E+00 -2.46609E+00 -2.22222E+00 -1.79441E+00
  -1.35262E+00 -1.02930E+00 -8.79465E-01 -8.91455E-01 -1.01333E+00 -1.19399E+00 -1.41425E+00 -1.68363E+00 -1.99412E+00 -2.27607E+00
  -2.42679E+00 -2.46529E+00 -2.47560E+00 -2.47874E+00 -2.47888E+00 -2.47740E+00 -2.47502E+00 -2.47190E+00 -2.46839E+00 -2.46469E+00
  -2.46067E+00 -2.45601E+00 -2.45042E+00 -2.44386E+00 -2.43666E+00 -2.42900E+00 -2.42111E+00 -2.41347E+00 -2.40638E+00 -2.40014E+00
  -2.39509E+00 -2.39064E+00 -2.38637E+00 -2.38199E+00 -2.37699E+00 -2.37123E+00 -2.36485E+00 -2.35816E+00 -2.35139E+00 -2.34443E+00
  -2.33714E+00 -2.32928E+00 -2.32105E+00 -2.31299E+00 -2.30563E+00 -2.29898E+00 -2.29255E+00 -2.28605E+00 -2.27954E+00 -2.27334E+00
  -2.26748E+00 -2.26170E+00 -2.25578E+00 -2.24956E+00 -2.24348E+00 -2.23806E+00 -2.23308E+00 -2.22813E+00 -2.22305E+00 -2.21796E+00
  -2.21299E+00 -2.20804E+00 -2.20251E+00 -2.19616E+00 -2.18921E+00 -2.18209E+00 -2.17533E+00 -2.16920E+00 -2.16348E+00 -2.15794E+00
  -2.15248E+00 -2.14736E+00 -2.14277E+00 -2.13858E+00 -2.13441E+00 -2.13020E+00 -2.12598E+00 -2.12174E+00 -2.11748E+00 -2.11288E+00
  -2.10752E+00 -2.10154E+00 -2.09529E+00 -2.08912E+00 -2.08328E+00 -2.07776E+00 -2.07254E+00 -2.06775E+00 -2.06373E+00 -2.06018E+00
  -2.05648E+00 -2.05204E+00 -2.04666E+00 -2.04067E+00 -2.03435E+00 -2.02785E+00 -2.02119E+00 -2.01438E+00 -2.00752E+00 -2.00091E+00
  -1.99470E+00 -1.98862E+00 -1.98249E+00 -1.97629E+00 -1.97002E+00 -1.96367E+00 -1.95724E+00 -1.95072E+00 -1.94410E+00 -1.93739E+00
  -1.93065E+00 -1.92404E+00 -1.91768E+00 -1.91158E+00 -1.90551E+00 -1.89920E+00 -1.89250E+00 -1.88521E+00 -1.87690E+00 -1.86726E+00
  -1.85659E+00 -1.84584E+00 -1.83593E+00 -1.82746E+00 -1.82064E+00 -1.81565E+00 -1.81227E+00 -1.80945E+00 -1.80594E+00 -1.80108E+00
  -1.79466E+00 -1.78688E+00 -1.77835E+00 -1.76969E+00 -1.76106E+00 -1.75255E+00 -1.74447E+00 -1.73727E+00 -1.73097E+00 -1.72493E+00
  -1.71867E+00 -1.71214E+00 -1.70540E+00 -1.69848E+00 -1.69139E+00 -1.68417E+00 -1.67684E+00 -1.66945E+00 -1.66205E+00 -1.65468E+00
  -1.64740E+00 -1.64024E+00 -1.63327E+00 -1.62655E+00 -1.62015E+00 -1.61414E+00 -1.60850E+00 -1.60308E+00 -1.59773E+00 -1.59231E+00
  -1.58688E+00 -1.58168E+00 -1.57687E+00 -1.57249E+00 -1.56868E+00 -1.56567E+00 -1.56326E+00 -1.56115E+00 -1.55898E+00 -1.55638E+00
  -1.55315E+00 -1.54908E+00 -1.54420E+00 -1.53884E+00 -1.53336E+00 -1.52793E+00 -1.52286E+00 -1.51833E+00 -1.51415E+00 -1.51019E+00
  -1.50623E+00 -1.50197E+00 -1.49721E+00 -1.49185E+00 -1.48589E+00 -1.47954E+00 -1.47295E+00 -1.46621E+00 -1.45939E+00 -1.45262E+00
  -1.44597E+00 -1.43944E+00 -1.43292E+00 -1.42629E+00 -1.41953E+00 -1.41264E+00 -1.40557E+00 -1.39830E+00 -1.39085E+00 -1.38322E+00
  -1.37539E+00 -1.36736E+00 -1.35914E+00 -1.35069E+00 -1.34200E+00 -1.33303E+00 -1.32374E+00 -1.31409E+00 -1.30403E+00 -1.29351E+00
  -1.28248E+00 -1.27086E+00 -1.25856E+00 -1.24546E+00 -1.23143E+00 -1.21630E+00 -1.19984E+00 -1.18168E+00 -1.16128E+00 -1.13767E+00
  -1.10890E+00 -1.06990E+00 -1.01290E+00 -9.57724E-01 -9.31811E-01 -9.39753E-01 -9.73116E-01 -1.01934E+00 -1.06879E+00 -1.11775E+00
  -1.14675E+00 -1.13266E+00 -1.07660E+00 -9.85966E-01 -8.73624E-01 -7.65898E-01 -6.75883E-01 -5.97944E-01 -5.26644E-01 -4.61249E-01
  -4.00932E-01 -3.28023E-01 -1.98417E-01 -5.57301E-02  5.58403E-03 -3.80995E-02 -1.66097E-01 -3.42484E-01 -5.38214E-01 -7.30350E-01
  -8.41100E-01 -8.33426E-01 -7.29435E-01 -5.51647E-01 -3.30271E-01 -1.34888E-01 -4.13963E-03  7.63428E-02  1.14761E-01  1.01822E-01
   2.76673E-02 -8.60680E-02 -1.81074E-01 -2.46317E-01 -2.98594E-01 -3.44595E-01 -3.86769E-01 -4.26125E-01 -4.63056E-01 -4.97649E-01
  -5.29852E-01 -5.59572E-01 -5.86728E-01 -6.11270E-01 -6.33166E-01 -6.52405E-01 -6.68994E-01 -6.82974E-01 -6.94414E-01 -7.03402E-01
  -7.10022E-01 -7.14349E-01 -7.16455E-01 -7.16415E-01 -7.14307E-01 -7.10205E-01 -7.04169E-01 -6.96256E-01 -6.86527E-01 -6.75067E-01
  -6.61979E-01 -6.47387E-01 -6.31433E-01 -6.14290E-01 -5.96173E-01 -5.77340E-01 -5.58086E-01 -5.38734E-01 -5.19624E-01 -5.01115E-01
  -4.83576E-01 -4.67374E-01 -4.52850E-01 -4.40303E-01 -4.29978E-01 -4.22065E-01 -4.16684E-01 -4.13887E-01 -4.13642E-01 -4.15839E-01
  -4.20298E-01 -4.26785E-01 -4.35022E-01 -4.44700E-01 -4.55484E-01 -4.67033E-01 -4.79014E-01 -4.91122E-01 -5.03081E-01 -5.14651E-01
  -5.25627E-01 -5.35843E-01 -5.45181E-01 -5.53563E-01 -5.60949E-01 -5.67323E-01 -5.72693E-01 -5.77089E-01 -5.80557E-01 -5.83158E-01
  -5.84957E-01 -5.86019E-01 -5.86408E-01 -5.86187E-01 -5.85420E-01 -5.84168E-01 -5.82486E-01 -5.80418E-01 -5.78006E-01 -5.75288E-01
  -5.72301E-01 -5.69078E-01 -5.65644E-01 -5.62020E-01 -5.58225E-01 -5.54277E-01 -5.50195E-01 -5.45993E-01 -5.41683E-01 -5.37271E-01
  -5.32767E-01 -5.28181E-01 -5.23522E-01 -5.18798E-01 -5.14010E-01 -5.09163E-01 -5.04262E-01 -4.99313E-01 -4.94322E-01 -4.89291E-01
  -4.84219E-01 -4.79110E-01 -4.73967E-01 -4.68795E-01 -4.63596E-01 -4.58371E-01 -4.53117E-01 -4.47839E-01 -4.42539E-01 -4.37221E-01
  -4.31884E-01 -4.26528E-01 -4.21152E-01 -4.15759E-01 -4.10351E-01 -4.04932E-01 -3.99498E-01 -3.94050E-01 -3.88587E-01 -3.83113E-01
  -3.77630E-01 -3.72137E-01 -3.66633E-01 -3.61118E-01 -3.55592E-01 -3.50059E-01 -3.44518E-01 -3.38970E-01 -3.33413E-01 -3.27848E-01
  -3.22274E-01 -3.16695E-01 -3.11111E-01 -3.05520E-01 -2.99922E-01 -2.94316E-01 -2.88705E-01 -2.83089E-01
 NY background values follow
    -3.170E+00   -3.165E+00   -3.159E+00   -3.153E+00   -3.147E+00   -3.142E+00   -3.136E+00   -3.130E+00   -3.124E+00   -3.118E+00
    -3.113E+00   -3.107E+00   -3.101E+00   -3.095E+00   -3.089E+00   -3.084E+00   -3.078E+00   -3.072E+00   -3.066E+00   -3.060E+00
    -3.055E+00   -3.049E+00   -3.043E+00   -3.037E+00   -3.032E+00   -3.026E+00   -3.020E+00   -3.014E+00   -3.008E+00   -3.003E+00
    -2.997E+00   -2.991E+00   -2.985E+00   -2.979E+00   -2.974E+00   -2.968E+00   -2.962E+00   -2.956E+00   -2.950E+00   -2.945E+00
    -2.939E+00   -2.933E+00   -2.927E+00   -2.922E+00   -2.916E+00   -2.910E+00   -2.904E+00   -2.898E+00   -2.893E+00   -2.887E+00
    -2.881E+00   -2.875E+00   -2.869E+00   -2.864E+00   -2.858E+00   -2.852E+00   -2.846E+00   -2.841E+00   -2.835E+00   -2.829E+00
    -2.823E+00   -2.817E+00   -2.812E+00   -2.806E+00   -2.800E+00   -2.794E+00   -2.788E+00   -2.783E+00   -2.777E+00   -2.771E+00
    -2.765E+00   -2.759E+00   -2.754E+00   -2.748E+00   -2.742E+00   -2.736E+00   -2.731E+00   -2.725E+00   -2.719E+00   -2.713E+00
    -2.707E+00   -2.702E+00   -2.696E+00   -2.690E+00   -2.684E+00   -2.678E+00   -2.673E+00   -2.667E+00   -2.661E+00   -2.655E+00
    -2.649E+00   -2.644E+00   -2.638E+00   -2.632E+00   -2.626E+00   -2.621E+00   -2.615E+00   -2.609E+00   -2.603E+00   -2.597E+00
    -2.592E+00   -2.586E+00   -2.580E+00   -2.574E+00   -2.568E+00   -2.563E+00   -2.557E+00   -2.551E+00   -2.545E+00   -2.540E+00
    -2.534E+00   -2.528E+00   -2.522E+00   -2.516E+00   -2.511E+00   -2.505E+00   -2.499E+00   -2.493E+00   -2.487E+00   -2.482E+00
    -2.476E+00   -2.470E+00   -2.464E+00   -2.458E+00   -2.453E+00   -2.447E+00   -2.441E+00   -2.435E+00   -2.430E+00   -2.424E+00
    -2.418E+00   -2.412E+00   -2.406E+00   -2.401E+00   -2.395E+00   -2.389E+00   -2.383E+00   -2.377E+00   -2.372E+00   -2.366E+00
    -2.360E+00   -2.354E+00   -2.348E+00   -2.343E+00   -2.337E+00   -2.331E+00   -2.325E+00   -2.320E+00   -2.314E+00   -2.308E+00
    -2.302E+00   -2.296E+00   -2.291E+00   -2.285E+00   -2.279E+00   -2.273E+00   -2.267E+00   -2.262E+00   -2.256E+00   -2.250E+00
    -2.244E+00   -2.238E+00   -2.233E+00   -2.227E+00   -2.221E+00   -2.215E+00   -2.210E+00   -2.204E+00   -2.198E+00   -2.192E+00
    -2.186E+00   -2.181E+00   -2.175E+00   -2.169E+00   -2.163E+00   -2.157E+00   -2.152E+00   -2.146E+00   -2.140E+00   -2.134E+00
    -2.129E+00   -2.123E+00   -2.117E+00   -2.111E+00   -2.105E+00   -2.100E+00   -2.094E+00   -2.088E+00   -2.082E+00   -2.076E+00
    -2.071E+00   -2.065E+00   -2.059E+00   -2.053E+00   -2.047E+00   -2.042E+00   -2.036E+00   -2.030E+00   -2.024E+00   -2.019E+00
    -2.013E+00   -2.007E+00   -2.001E+00   -1.995E+00   -1.990E+00   -1.984E+00   -1.978E+00   -1.972E+00   -1.966E+00   -1.961E+00
    -1.955E+00   -1.949E+00   -1.943E+00   -1.937E+00   -1.932E+00   -1.926E+00   -1.920E+00   -1.914E+00   -1.909E+00   -1.903E+00
    -1.897E+00   -1.891E+00   -1.885E+00   -1.880E+00   -1.874E+00   -1.868E+00   -1.862E+00   -1.856E+00   -1.851E+00   -1.845E+00
    -1.839E+00   -1.833E+00   -1.827E+00   -1.822E+00   -1.816E+00   -1.810E+00   -1.804E+00   -1.799E+00   -1.793E+00   -1.787E+00
    -1.781E+00   -1.775E+00   -1.770E+00   -1.764E+00   -1.758E+00   -1.752E+00   -1.746E+00   -1.741E+00   -1.735E+00   -1.729E+00
    -1.723E+00   -1.717E+00   -1.712E+00   -1.706E+00   -1.700E+00   -1.694E+00   -1.689E+00   -1.683E+00   -1.677E+00   -1.671E+00
    -1.665E+00   -1.660E+00   -1.654E+00   -1.648E+00   -1.642E+00   -1.636E+00   -1.631E+00   -1.625E+00   -1.619E+00   -1.613E+00
    -1.607E+00   -1.602E+00   -1.596E+00   -1.590E+00   -1.584E+00   -1.579E+00   -1.573E+00   -1.567E+00   -1.561E+00   -1.555E+00
    -1.550E+00   -1.544E+00   -1.538E+00   -1.532E+00   -1.526E+00   -1.521E+00   -1.515E+00   -1.509E+00   -1.503E+00   -1.497E+00
    -1.492E+00   -1.486E+00   -1.480E+00   -1.474E+00   -1.469E+00   -1.463E+00   -1.457E+00   -1.451E+00   -1.445E+00   -1.440E+00
    -1.434E+00   -1.428E+00   -1.422E+00   -1.416E+00   -1.411E+00   -1.405E+00   -1.399E+00   -1.393E+00   -1.387E+00   -1.382E+00
    -1.376E+00   -1.370E+00   -1.364E+00   -1.359E+00   -1.353E+00   -1.347E+00   -1.341E+00   -1.335E+00   -1.330E+00   -1.324E+00
    -1.318E+00   -1.312E+00   -1.306E+00   -1.301E+00   -1.295E+00   -1.289E+00   -1.283E+00   -1.277E+00   -1.272E+00   -1.266E+00
    -1.260E+00   -1.254E+00   -1.249E+00   -1.243E+00   -1.237E+00   -1.231E+00   -1.225E+00   -1.220E+00   -1.214E+00   -1.208E+00
    -1.202E+00   -1.196E+00   -1.191E+00   -1.185E+00   -1.179E+00   -1.173E+00   -1.167E+00   -1.162E+00   -1.156E+00   -1.150E+00
    -1.144E+00   -1.139E+00   -1.133E+00   -1.127E+00   -1.121E+00   -1.115E+00   -1.110E+00   -1.104E+00   -1.098E+00   -1.092E+00
    -1.086E+00   -1.081E+00   -1.075E+00   -1.069E+00   -1.063E+00   -1.057E+00   -1.052E+00   -1.046E+00   -1.040E+00   -1.034E+00
    -1.029E+00   -1.023E+00   -1.017E+00   -1.011E+00   -1.005E+00   -9.996E-01   -9.938E-01   -9.880E-01   -9.822E-01   -9.764E-01
    -9.706E-01   -9.648E-01   -9.590E-01   -9.532E-01   -9.475E-01   -9.417E-01   -9.359E-01   -9.301E-01   -9.243E-01   -9.185E-01
    -9.127E-01   -9.069E-01   -9.011E-01   -8.953E-01   -8.896E-01   -8.838E-01   -8.780E-01   -8.722E-01   -8.664E-01   -8.606E-01
    -8.548E-01   -8.490E-01   -8.432E-01   -8.374E-01   -8.317E-01   -8.259E-01   -8.201E-01   -8.143E-01   -8.085E-01   -8.027E-01
    -7.969E-01   -7.911E-01   -7.853E-01   -7.795E-01   -7.738E-01   -7.680E-01   -7.622E-01   -7.564E-01   -7.506E-01   -7.448E-01
    -7.390E-01   -7.332E-01   -7.274E-01   -7.216E-01   -7.159E-01   -7.101E-01   -7.043E-01   -6.985E-01   -6.927E-01   -6.869E-01
    -6.811E-01   -6.753E-01   -6.695E-01   -6.637E-01   -6.580E-01   -6.522E-01   -6.464E-01   -6.406E-01   -6.348E-01   -6.290E-01
    -6.232E-01   -6.174E-01   -6.116E-01   -6.058E-01   -6.001E-01   -5.943E-01   -5.885E-01   -5.827E-01   -5.769E-01   -5.711E-01
    -5.653E-01   -5.595E-01   -5.537E-01   -5.479E-01   -5.422E-01   -5.364E-01   -5.306E-01   -5.248E-01   -5.190E-01   -5.132E-01
    -5.074E-01   -5.016E-01   -4.958E-01   -4.900E-01   -4.843E-01   -4.785E-01   -4.727E-01   -4.669E-01   -4.611E-01   -4.553E-01
    -4.495E-01   -4.437E-01   -4.379E-01   -4.321E-01   -4.264E-01   -4.206E-01   -4.148E-01   -4.090E-01   -4.032E-01   -3.974E-01
    -3.916E-01   -3.858E-01   -3.800E-01   -3.742E-01   -3.685E-01   -3.627E-01   -3.569E-01   -3.511E-01   -3.453E-01   -3.395E-01
    -3.337E-01   -3.279E-01   -3.221E-01   -3.163E-01   -3.105E-01   -3.048E-01   -2.990E-01   -2.932E-01
 Ala      Conc. = 1.55E+01
