 LCModel (Version 6.3-1L) Copyright: S.W. Provencher.          Ref.: Magn. Reson. Med. 30:672-679 (1993).                
 Slice#3 Row#8 Col#11  PD_05_press_1_raw_act
 36 lines in following concentration table = NCONC+1
    Conc.  %SD /Cr+PCr  Metabolite                                         
    0.000 999%   0.000 Ala                                                 
    0.000 999%   0.000 Asp                                                 
  225.198  73%   0.284 Cr                                                  
  567.754  30%   0.716 PCr                                                 
    0.000 999%   0.000 GABA                                                
    0.000 999%   0.000 Glc                                                 
  341.543  40%   0.431 Gln                                                 
  975.607  16%   1.230 Glu                                                 
  205.207   6%   0.259 GPC                                                 
    0.000 999%   0.000 PCh                                                 
  177.072  24%   0.223 GSH                                                 
  642.396  23%   0.810 Ins                                                 
  197.774  35%   0.249 Lac                                                 
 1.42E+03   7%   1.789 NAA                                                 
  296.015  33%   0.373 NAAG                                                
   29.625  51% 3.7E-02 Scyllo                                              
    0.000 999%   0.000 Tau                                                 
  439.053  15%   0.554 -CrCH2                                              
  205.207   6%   0.259 GPC+PCh                                             
 1.71E+03   3%   2.162 NAA+NAAG                                            
  792.953   4%   1.000 Cr+PCr                                              
 1.32E+03  17%   1.661 Glu+Gln                                             
    0.000 999%   0.000 Lip13a                                              
    0.000 999%   0.000 Lip13b                                              
    0.000 999%   0.000 Lip09                                               
  693.371  16%   0.874 MM09                                                
    0.200 999% 2.5E-04 Lip20                                               
 1.96E+03  10%   2.470+MM20                                                
  139.336  48%   0.176 MM12                                                
  112.440 122%   0.142 MM14                                                
  348.750  33%   0.440 MM17                                                
    0.000 999%   0.000 Lip13a+Lip13b                                       
  251.776  68%   0.318 MM14+Lip13a+Lip13b+MM12                             
  693.371  16%   0.874 MM09+Lip09                                          
 1.96E+03  10%   2.470 MM20+Lip20                                          
   6 lines in following misc. output table
  FWHM = 0.054 ppm    S/N =  14                                            
  Data shift = 0.015 ppm                                                   
  Ph:   4 deg     -11.7 deg/ppm                                            
  alphaB,S = 6.7E-01,   1.7E+02                                            
   14 spline knots.   Ns = 7(1)                                            
  (13) 2 infls.   ( 7) 1 extrs.                                            
  498 points on ppm-axis = NY
      4.000000     3.992357     3.984714     3.977070     3.969427     3.961784     3.954141     3.946497     3.938854     3.931211
      3.923568     3.915925     3.908281     3.900638     3.892995     3.885352     3.877708     3.870065     3.862422     3.854779
      3.847136     3.839492     3.831849     3.824206     3.816563     3.808919     3.801276     3.793633     3.785990     3.778347
      3.770703     3.763060     3.755417     3.747774     3.740130     3.732487     3.724844     3.717201     3.709558     3.701914
      3.694271     3.686628     3.678985     3.671341     3.663698     3.656055     3.648412     3.640769     3.633125     3.625482
      3.617839     3.610196     3.602552     3.594909     3.587266     3.579623     3.571980     3.564336     3.556693     3.549050
      3.541407     3.533763     3.526120     3.518477     3.510834     3.503191     3.495547     3.487904     3.480261     3.472618
      3.464974     3.457331     3.449688     3.442045     3.434402     3.426758     3.419115     3.411472     3.403829     3.396185
      3.388542     3.380899     3.373256     3.365613     3.357969     3.350326     3.342683     3.335040     3.327396     3.319753
      3.312110     3.304467     3.296824     3.289180     3.281537     3.273894     3.266251     3.258607     3.250964     3.243321
      3.235678     3.228034     3.220391     3.212748     3.205105     3.197462     3.189818     3.182175     3.174532     3.166889
      3.159245     3.151602     3.143959     3.136316     3.128673     3.121029     3.113386     3.105743     3.098100     3.090456
      3.082813     3.075170     3.067527     3.059884     3.052240     3.044597     3.036954     3.029311     3.021667     3.014024
      3.006381     2.998738     2.991095     2.983451     2.975808     2.968165     2.960522     2.952878     2.945235     2.937592
      2.929949     2.922306     2.914662     2.907019     2.899376     2.891733     2.884089     2.876446     2.868803     2.861160
      2.853517     2.845873     2.838230     2.830587     2.822944     2.815300     2.807657     2.800014     2.792371     2.784728
      2.777084     2.769441     2.761798     2.754155     2.746511     2.738868     2.731225     2.723582     2.715939     2.708295
      2.700652     2.693009     2.685366     2.677722     2.670079     2.662436     2.654793     2.647150     2.639506     2.631863
      2.624220     2.616577     2.608933     2.601290     2.593647     2.586004     2.578361     2.570717     2.563074     2.555431
      2.547788     2.540144     2.532501     2.524858     2.517215     2.509572     2.501928     2.494285     2.486642     2.478999
      2.471355     2.463712     2.456069     2.448426     2.440783     2.433139     2.425496     2.417853     2.410210     2.402566
      2.394923     2.387280     2.379637     2.371994     2.364350     2.356707     2.349064     2.341421     2.333777     2.326134
      2.318491     2.310848     2.303205     2.295561     2.287918     2.280275     2.272632     2.264988     2.257345     2.249702
      2.242059     2.234416     2.226772     2.219129     2.211486     2.203843     2.196199     2.188556     2.180913     2.173270
      2.165627     2.157983     2.150340     2.142697     2.135054     2.127410     2.119767     2.112124     2.104481     2.096838
      2.089194     2.081551     2.073908     2.066265     2.058621     2.050978     2.043335     2.035692     2.028049     2.020405
      2.012762     2.005119     1.997476     1.989833     1.982190     1.974546     1.966903     1.959260     1.951617     1.943974
      1.936331     1.928688     1.921045     1.913402     1.905759     1.898115     1.890472     1.882829     1.875186     1.867543
      1.859900     1.852257     1.844614     1.836971     1.829327     1.821684     1.814041     1.806398     1.798755     1.791112
      1.783469     1.775826     1.768183     1.760540     1.752896     1.745253     1.737610     1.729967     1.722324     1.714681
      1.707038     1.699395     1.691752     1.684108     1.676465     1.668822     1.661179     1.653536     1.645893     1.638250
      1.630607     1.622964     1.615321     1.607677     1.600034     1.592391     1.584748     1.577105     1.569462     1.561819
      1.554176     1.546533     1.538890     1.531246     1.523603     1.515960     1.508317     1.500674     1.493031     1.485388
      1.477745     1.470102     1.462458     1.454815     1.447172     1.439529     1.431886     1.424243     1.416600     1.408957
      1.401314     1.393671     1.386027     1.378384     1.370741     1.363098     1.355455     1.347812     1.340169     1.332526
      1.324883     1.317240     1.309596     1.301953     1.294310     1.286667     1.279024     1.271381     1.263738     1.256095
      1.248452     1.240808     1.233165     1.225522     1.217879     1.210236     1.202593     1.194950     1.187307     1.179664
      1.172021     1.164377     1.156734     1.149091     1.141448     1.133805     1.126162     1.118519     1.110876     1.103233
      1.095590     1.087946     1.080303     1.072660     1.065017     1.057374     1.049731     1.042088     1.034445     1.026802
      1.019158     1.011515     1.003872     0.996229     0.988586     0.980943     0.973300     0.965657     0.958014     0.950371
      0.942727     0.935084     0.927441     0.919798     0.912155     0.904512     0.896869     0.889226     0.881583     0.873940
      0.866296     0.858653     0.851010     0.843367     0.835724     0.828081     0.820438     0.812795     0.805152     0.797508
      0.789865     0.782222     0.774579     0.766936     0.759293     0.751650     0.744007     0.736364     0.728721     0.721077
      0.713434     0.705791     0.698148     0.690505     0.682862     0.675219     0.667576     0.659933     0.652290     0.644646
      0.637003     0.629360     0.621717     0.614074     0.606431     0.598788     0.591145     0.583502     0.575858     0.568215
      0.560572     0.552929     0.545286     0.537643     0.530000     0.522357     0.514714     0.507071     0.499427     0.491784
      0.484141     0.476498     0.468855     0.461212     0.453569     0.445925     0.438282     0.430639     0.422996     0.415353
      0.407710     0.400067     0.392424     0.384780     0.377137     0.369494     0.361851     0.354208     0.346565     0.338922
      0.331278     0.323635     0.315992     0.308349     0.300706     0.293063     0.285420     0.277777     0.270133     0.262490
      0.254847     0.247204     0.239561     0.231918     0.224275     0.216631     0.208988     0.201345
 NY phased data points follow
   3.89148E+00  4.96442E+00  5.21183E+00  6.70554E+00  7.32086E+00  6.92012E+00  7.39180E+00  8.28557E+00  7.85651E+00  1.23441E+01
   1.03947E+01  1.39029E+01  1.21747E+01  1.05323E+01  1.09552E+01  7.24851E+00  8.13093E+00  7.00329E+00  7.96321E+00  4.06753E+00
   5.05140E+00  4.32147E+00  6.37550E+00  5.90460E+00  7.20277E+00  8.36368E+00  8.86769E+00  7.60551E+00  6.52707E+00  7.26648E+00
   6.36571E+00  8.00038E+00  7.99552E+00  7.71246E+00  7.92826E+00  7.38218E+00  6.41783E+00  6.31674E+00  7.16101E+00  8.40410E+00
   7.55944E+00  7.94213E+00  8.27637E+00  7.34990E+00  1.05154E+01  1.04304E+01  1.14604E+01  1.38233E+01  1.15065E+01  1.07508E+01
   8.81639E+00  1.05819E+01  8.31320E+00  6.87349E+00  5.98306E+00  5.47451E+00  8.22264E+00  7.83718E+00  7.55059E+00  4.89216E+00
   5.12922E+00  3.89486E+00  4.42990E+00  2.49921E+00  2.20575E+00  4.03816E+00  2.39985E+00  2.97677E+00  4.16946E+00  2.93983E+00
   4.35759E+00  5.09784E+00  3.00501E+00  2.30162E+00  3.28009E+00  1.88432E+00  3.58452E+00  2.41571E+00  9.14554E-01  3.56747E+00
   2.66254E+00  2.10438E+00  3.19455E+00  6.61938E+00  5.16623E+00  3.21021E+00  5.69730E+00  4.53584E+00  5.10609E+00  5.41393E+00
   2.79797E+00  4.29428E+00  2.58818E+00  4.39589E+00  6.15690E+00  7.33557E+00  7.39218E+00  9.78439E+00  1.03357E+01  1.23521E+01
   1.52579E+01  1.70402E+01  2.06795E+01  2.26484E+01  2.11011E+01  2.16453E+01  1.64041E+01  1.39014E+01  1.00078E+01  6.93795E+00
   4.97546E+00  4.38854E+00  3.87312E+00  3.93607E+00  5.53473E+00  6.22796E+00  3.84948E+00  4.96023E+00  7.29531E+00  8.81367E+00
   9.81165E+00  1.20680E+01  1.28483E+01  1.47267E+01  2.04167E+01  2.45496E+01  2.98223E+01  3.26522E+01  3.15351E+01  2.84379E+01
   2.40138E+01  1.85285E+01  1.45689E+01  1.17564E+01  7.25770E+00  7.64202E+00  5.75184E+00  8.93573E+00  5.05709E+00  7.37486E+00
   8.48617E+00  6.05930E+00  9.46121E+00  5.85270E+00  6.52335E+00  6.58574E+00  6.67641E+00  7.22791E+00  6.92398E+00  6.62095E+00
   5.14214E+00  7.89367E+00  7.25875E+00  6.27841E+00  8.91310E+00  4.77919E+00  5.55263E+00  6.24400E+00  5.68818E+00  5.19080E+00
   4.43690E+00  6.11330E+00  5.66620E+00  5.28730E+00  3.41974E+00  6.14664E+00  5.09943E+00  2.61805E+00  1.29829E+00  3.84083E+00
   2.38044E+00  2.87541E+00  1.14058E+00 -1.40232E+00 -2.36310E+00 -2.39423E+00 -2.25176E+00 -2.28402E+00 -1.02608E+00 -7.29724E-01
   1.19702E+00  9.19551E-01 -1.46862E+00  4.25538E+00  1.52210E+00  2.44387E+00  3.82015E+00  1.64323E+00  3.10930E+00  3.76014E+00
   3.87429E+00  5.25207E+00  6.51707E+00  6.93317E+00  4.68264E+00  2.75375E+00  4.99707E+00  4.45656E+00  3.84935E-01  2.95105E+00
   2.54739E+00  5.42982E+00  6.21753E+00  6.53470E+00  8.06336E+00  8.04028E+00  5.97032E+00  5.48193E+00  6.28136E+00  4.61408E+00
   6.50877E+00  8.93839E+00  9.39256E+00  1.32361E+01  1.47669E+01  1.49395E+01  1.36945E+01  1.43171E+01  9.22497E+00  1.07718E+01
   8.08278E+00  5.88597E+00  4.98213E+00  5.36518E+00  8.83589E+00  8.43998E+00  1.03129E+01  1.09128E+01  1.27743E+01  1.18164E+01
   1.07264E+01  1.07540E+01  1.42380E+01  9.57335E+00  1.37858E+01  1.15475E+01  8.73078E+00  1.03070E+01  1.04202E+01  1.11977E+01
   8.62783E+00  9.33406E+00  9.33237E+00  9.05286E+00  1.12697E+01  1.21887E+01  1.23495E+01  1.48470E+01  1.25964E+01  1.54575E+01
   1.60799E+01  1.83133E+01  2.14111E+01  2.24003E+01  2.93048E+01  3.69759E+01  4.12285E+01  4.72796E+01  5.57533E+01  5.91544E+01
   6.14818E+01  5.86130E+01  5.33918E+01  4.20543E+01  3.41623E+01  2.38845E+01  1.90080E+01  1.35012E+01  1.14744E+01  1.24182E+01
   1.26902E+01  9.44954E+00  8.72924E+00  1.08642E+01  9.97455E+00  8.13995E+00  9.82517E+00  9.42992E+00  7.21080E+00  9.66150E+00
   8.90527E+00  5.70529E+00  7.23103E+00  5.25009E+00  5.31601E+00  6.30921E+00  6.90856E+00  5.47146E+00  6.01434E+00  6.80293E+00
   6.51480E+00  5.35151E+00  5.52115E+00  7.14590E+00  5.48461E+00  6.51557E+00  7.02943E+00  6.58511E+00  5.55979E+00  5.15534E+00
   7.03000E+00  3.80370E+00  3.83066E+00  4.02116E+00  5.19530E+00  4.23701E+00  7.49613E+00  6.82659E+00  6.24595E+00  6.42248E+00
   6.03974E+00  7.75378E+00  6.75435E+00  4.87700E+00  6.81408E+00  5.63199E+00  6.66884E+00  7.20845E+00  2.56749E+00  5.22270E+00
   5.45317E+00  3.70203E+00  4.14749E+00  1.92995E+00  3.15963E+00  3.43919E+00  9.28255E-01  1.84656E+00  2.69274E+00  5.00367E+00
   4.96655E+00  5.34235E+00  6.62908E+00  3.92550E+00  3.59373E+00  5.69001E+00  4.68217E+00  3.28767E+00  6.18597E+00  3.72954E+00
   3.53129E+00  5.61726E+00  3.40951E+00  4.18092E+00  3.43229E+00  5.47193E+00  3.07765E+00  3.48581E+00  1.93542E+00  1.49763E+00
   4.71277E-01 -1.71596E+00 -1.19170E+00 -1.34641E+00 -2.16311E+00  1.37183E-01 -1.04556E+00 -4.68123E-01 -1.20519E+00  2.48320E+00
   2.47704E+00  2.89964E+00  4.12591E+00  4.09346E+00  3.08019E+00  2.72164E+00  3.69973E+00  2.94814E+00  3.01830E+00  3.66194E+00
   5.77310E+00  2.85240E+00  2.47836E+00  1.95575E+00  3.41547E+00  4.83379E+00  1.52733E+00  2.34605E+00  2.77610E+00  1.46242E+00
   3.36508E+00  3.28998E+00 -6.47951E-01  1.20507E+00  1.11880E+00  8.83298E-01 -1.30297E-01  3.16830E-01 -4.11123E-01  2.27183E+00
   4.10396E+00  4.58197E+00  2.22826E+00  2.61928E+00  4.88896E+00  5.21644E+00  2.82602E+00  4.39739E+00  5.11363E+00  3.47247E+00
   5.78400E+00  5.89021E+00  3.66520E+00  5.75214E+00  3.90743E+00  6.63985E+00  4.92820E+00  4.19800E+00  5.42624E+00  5.14351E+00
   4.61809E+00  4.37838E+00  4.36301E+00  3.02210E+00  3.19256E+00  5.68473E+00  3.02431E+00  4.85762E+00  3.45895E+00  2.75894E+00
   2.82157E+00  2.31088E+00  2.09049E+00  2.12205E+00  2.70301E+00  1.83136E+00  1.31687E+00  2.09921E+00 -1.03239E+00  7.80920E-01
   3.87872E+00  1.17075E+00 -1.00696E-02  3.07747E-01  2.37323E+00  2.23544E+00  2.78646E+00  3.76748E-01 -9.06804E-01  1.16072E+00
   3.63979E+00  1.37920E-01  1.28362E+00 -4.53653E-01 -6.38193E-01  2.00868E+00  4.73975E-02  1.21105E+00 -7.55335E-01 -4.76383E-01
  -5.63849E-02  1.22401E+00  1.98548E+00  1.19784E+00  1.28837E+00  1.35056E+00  1.09363E+00  8.94772E-01 -5.48411E-02 -2.61131E-01
   9.22234E-01 -1.88377E+00  1.77614E+00 -7.25297E-02  1.04763E+00 -1.69158E+00 -2.73736E+00  5.47811E-01  1.72939E+00  1.44955E+00
   1.50940E+00  9.12768E-01 -5.13678E-01 -3.35137E-01  2.23799E-01  1.24056E+00  1.91400E+00  1.40348E+00  5.28194E-01  5.60118E-01
  -3.83363E-01  2.92702E-01 -9.53476E-01  9.61820E-01 -9.95345E-01 -3.18092E-01  1.48074E+00  4.57546E-01  1.71746E+00  2.91240E-01
   1.84429E+00  2.26420E-01  1.88789E-01  8.46017E-01  1.02683E+00  9.76110E-01 -5.77324E-01 -1.85379E+00
 NY points of the fit to the data follow
   4.77633E+00  4.59056E+00  4.68029E+00  5.02112E+00  5.66227E+00  6.62361E+00  7.75976E+00  8.95917E+00  1.01541E+01  1.12238E+01
   1.19863E+01  1.22597E+01  1.19704E+01  1.11931E+01  1.01162E+01  8.96787E+00  7.93509E+00  7.12152E+00  6.55877E+00  6.20504E+00
   5.99872E+00  5.80663E+00  5.65633E+00  5.66075E+00  5.76011E+00  5.96151E+00  6.33068E+00  6.92217E+00  7.70710E+00  8.55591E+00
   9.32650E+00  9.85923E+00  9.99507E+00  9.68716E+00  8.97223E+00  7.97390E+00  6.90234E+00  5.95019E+00  5.28098E+00  5.01884E+00
   5.22195E+00  5.81932E+00  6.60904E+00  7.43615E+00  8.24024E+00  8.97748E+00  9.54739E+00  9.80388E+00  9.63862E+00  9.04627E+00
   8.12680E+00  7.06970E+00  6.11512E+00  5.43193E+00  5.08023E+00  5.03846E+00  5.21855E+00  5.51028E+00  5.80829E+00  6.02649E+00
   6.10773E+00  6.01744E+00  5.76786E+00  5.41403E+00  5.05617E+00  4.80410E+00  4.70376E+00  4.75141E+00  4.91525E+00  5.14103E+00
   5.36521E+00  5.53012E+00  5.60027E+00  5.56990E+00  5.45886E+00  5.30205E+00  5.13778E+00  4.99428E+00  4.89397E+00  4.87151E+00
   4.91869E+00  4.96444E+00  4.98237E+00  4.98913E+00  4.98166E+00  4.92285E+00  4.77941E+00  4.55569E+00  4.29246E+00  4.06676E+00
   3.93673E+00  3.91729E+00  3.99374E+00  4.13602E+00  4.33522E+00  4.82674E+00  6.15578E+00  8.04957E+00  1.01941E+01  1.26934E+01
   1.56529E+01  1.87571E+01  2.13043E+01  2.25458E+01  2.20645E+01  1.99636E+01  1.67983E+01  1.33335E+01  1.02226E+01  7.84252E+00
   6.30146E+00  5.51205E+00  5.23732E+00  5.16388E+00  5.15076E+00  5.16714E+00  5.20716E+00  5.28395E+00  5.45264E+00  6.02394E+00
   7.76750E+00  1.04832E+01  1.36347E+01  1.72102E+01  2.13106E+01  2.55777E+01  2.91592E+01  3.10686E+01  3.06850E+01  2.80817E+01
   2.39500E+01  1.92705E+01  1.49167E+01  1.14024E+01  8.91865E+00  7.41685E+00  6.67382E+00  6.34867E+00  6.25574E+00  6.32396E+00
   6.47446E+00  6.62332E+00  6.70327E+00  6.67748E+00  6.55305E+00  6.36868E+00  6.16525E+00  5.96439E+00  5.77785E+00  5.61722E+00
   5.48293E+00  5.36955E+00  5.27971E+00  5.19539E+00  5.07640E+00  4.94578E+00  4.83285E+00  4.73709E+00  4.64651E+00  4.50815E+00
   4.33052E+00  4.18419E+00  4.11970E+00  4.11701E+00  4.11881E+00  4.06198E+00  3.90224E+00  3.63959E+00  3.30220E+00  2.91893E+00
   2.57152E+00  2.33958E+00  2.19682E+00  2.07588E+00  1.92915E+00  1.80597E+00  1.78399E+00  1.88103E+00  2.03541E+00  2.16801E+00
   2.22875E+00  2.28461E+00  2.41664E+00  2.64779E+00  2.98072E+00  3.43396E+00  4.01603E+00  4.70389E+00  5.44737E+00  6.15452E+00
   6.71437E+00  7.01442E+00  7.04175E+00  6.85942E+00  6.56918E+00  6.28061E+00  6.11989E+00  6.20103E+00  6.53561E+00  7.06749E+00
   7.69072E+00  8.27960E+00  8.67960E+00  8.71990E+00  8.39050E+00  7.69602E+00  6.64787E+00  5.44412E+00  4.39981E+00  3.87710E+00
   3.98117E+00  4.64675E+00  5.80705E+00  7.30324E+00  8.79509E+00  9.80829E+00  9.99521E+00  9.33924E+00  8.03544E+00  6.33475E+00
   4.62787E+00  3.34394E+00  2.83117E+00  3.23543E+00  4.40722E+00  6.01754E+00  7.68278E+00  9.07296E+00  9.98769E+00  1.04006E+01
   1.04674E+01  1.03657E+01  1.02659E+01  1.02950E+01  1.04855E+01  1.07520E+01  1.09697E+01  1.11006E+01  1.11344E+01  1.10441E+01
   1.08373E+01  1.06335E+01  1.05733E+01  1.07356E+01  1.11208E+01  1.16752E+01  1.23214E+01  1.29629E+01  1.36340E+01  1.46057E+01
   1.58584E+01  1.73101E+01  1.94091E+01  2.35576E+01  2.96393E+01  3.61603E+01  4.25478E+01  4.88688E+01  5.47533E+01  5.90748E+01
   6.05030E+01  5.81831E+01  5.22360E+01  4.37769E+01  3.45019E+01  2.59723E+01  1.91266E+01  1.43161E+01  1.14402E+01  1.00397E+01
   9.38224E+00  8.97869E+00  8.70437E+00  8.50083E+00  8.31421E+00  8.11158E+00  7.88315E+00  7.63000E+00  7.36374E+00  7.10572E+00
   6.87638E+00  6.68671E+00  6.53748E+00  6.41882E+00  6.31567E+00  6.21904E+00  6.12516E+00  6.03512E+00  5.95449E+00  5.89086E+00
   5.85128E+00  5.83789E+00  5.84507E+00  5.86526E+00  5.89105E+00  5.91583E+00  5.93608E+00  5.95172E+00  5.96547E+00  5.98066E+00
   5.99966E+00  6.02194E+00  6.04361E+00  6.05907E+00  6.06322E+00  6.05213E+00  6.02366E+00  5.97697E+00  5.91288E+00  5.83323E+00
   5.74013E+00  5.63542E+00  5.52122E+00  5.39953E+00  5.27266E+00  5.14294E+00  5.01283E+00  4.88445E+00  4.75981E+00  4.64040E+00
   4.52759E+00  4.42224E+00  4.32503E+00  4.23611E+00  4.15555E+00  4.08299E+00  4.01812E+00  3.96033E+00  3.90915E+00  3.86387E+00
   3.82399E+00  3.78902E+00  3.75884E+00  3.73352E+00  3.71365E+00  3.70026E+00  3.69547E+00  3.70280E+00  3.72899E+00  3.78770E+00
   3.91321E+00  4.13576E+00  4.34562E+00  4.47333E+00  4.52902E+00  4.49459E+00  4.28750E+00  3.81336E+00  3.08186E+00  2.28085E+00
   1.55299E+00  1.01306E+00  7.86378E-01  9.53496E-01  1.48860E+00  2.25710E+00  3.06143E+00  3.70748E+00  4.06957E+00  4.14024E+00
   3.99348E+00  3.72646E+00  3.42644E+00  3.15564E+00  2.94979E+00  2.81284E+00  2.71677E+00  2.64151E+00  2.57864E+00  2.52388E+00
   2.47512E+00  2.43117E+00  2.39161E+00  2.35628E+00  2.32547E+00  2.29952E+00  2.27912E+00  2.26492E+00  2.25778E+00  2.25844E+00
   2.26789E+00  2.28698E+00  2.31682E+00  2.35830E+00  2.41249E+00  2.48019E+00  2.56237E+00  2.65967E+00  2.77277E+00  2.90188E+00
   3.04706E+00  3.20776E+00  3.38318E+00  3.57178E+00  3.77161E+00  3.97987E+00  4.19328E+00  4.40780E+00  4.61905E+00  4.82207E+00
   5.01182E+00  5.18298E+00  5.33055E+00  5.44976E+00  5.53663E+00  5.58779E+00  5.60104E+00  5.57506E+00  5.50990E+00  5.40664E+00
   5.26763E+00  5.09609E+00  4.89620E+00  4.67260E+00  4.43051E+00  4.17519E+00  3.91200E+00  3.64586E+00  3.38143E+00  3.12263E+00
   2.87292E+00  2.63495E+00  2.41083E+00  2.20181E+00  2.00874E+00  1.83174E+00  1.67072E+00  1.52507E+00  1.39408E+00  1.27667E+00
   1.17183E+00  1.07834E+00  9.95176E-01  9.21178E-01  8.55391E-01  7.96762E-01  7.44494E-01  6.97737E-01  6.55900E-01  6.18304E-01
   5.84485E-01  5.53886E-01  5.26184E-01  5.00969E-01  4.78036E-01  4.57045E-01  4.37836E-01  4.20122E-01  4.03822E-01  3.88726E-01
   3.74798E-01  3.61838E-01  3.49809E-01  3.38542E-01  3.28056E-01  3.18224E-01  3.09069E-01  3.00444E-01  2.92369E-01  2.84726E-01
   2.77573E-01  2.70811E-01  2.64483E-01  2.58466E-01  2.52806E-01  2.47414E-01  2.42364E-01  2.37561E-01  2.33055E-01  2.28737E-01
   2.24671E-01  2.20782E-01  2.17152E-01  2.13685E-01  2.10436E-01  2.07306E-01  2.04372E-01  2.01565E-01  1.98962E-01  1.96466E-01
   1.94134E-01  1.91880E-01  1.89793E-01  1.87806E-01  1.85990E-01  1.84251E-01  1.82652E-01  1.81120E-01  1.79749E-01  1.78470E-01
   1.77352E-01  1.76304E-01  1.75401E-01  1.74584E-01  1.73952E-01  1.73439E-01  1.73115E-01  1.72903E-01
 NY background values follow
     3.560E+00    3.562E+00    3.564E+00    3.566E+00    3.568E+00    3.569E+00    3.571E+00    3.573E+00    3.575E+00    3.576E+00
     3.578E+00    3.580E+00    3.582E+00    3.583E+00    3.585E+00    3.587E+00    3.589E+00    3.591E+00    3.592E+00    3.594E+00
     3.596E+00    3.598E+00    3.600E+00    3.602E+00    3.603E+00    3.605E+00    3.607E+00    3.609E+00    3.611E+00    3.613E+00
     3.615E+00    3.617E+00    3.619E+00    3.621E+00    3.623E+00    3.625E+00    3.627E+00    3.629E+00    3.631E+00    3.633E+00
     3.636E+00    3.638E+00    3.640E+00    3.642E+00    3.645E+00    3.647E+00    3.649E+00    3.652E+00    3.654E+00    3.657E+00
     3.659E+00    3.662E+00    3.664E+00    3.667E+00    3.670E+00    3.673E+00    3.676E+00    3.679E+00    3.682E+00    3.685E+00
     3.688E+00    3.692E+00    3.695E+00    3.699E+00    3.703E+00    3.706E+00    3.710E+00    3.715E+00    3.719E+00    3.723E+00
     3.728E+00    3.732E+00    3.737E+00    3.742E+00    3.747E+00    3.753E+00    3.758E+00    3.764E+00    3.770E+00    3.776E+00
     3.782E+00    3.789E+00    3.795E+00    3.802E+00    3.809E+00    3.816E+00    3.824E+00    3.831E+00    3.839E+00    3.848E+00
     3.856E+00    3.865E+00    3.874E+00    3.883E+00    3.892E+00    3.902E+00    3.911E+00    3.921E+00    3.931E+00    3.942E+00
     3.952E+00    3.963E+00    3.974E+00    3.985E+00    3.996E+00    4.008E+00    4.019E+00    4.031E+00    4.042E+00    4.054E+00
     4.066E+00    4.078E+00    4.090E+00    4.103E+00    4.115E+00    4.127E+00    4.140E+00    4.152E+00    4.165E+00    4.178E+00
     4.190E+00    4.203E+00    4.216E+00    4.229E+00    4.241E+00    4.254E+00    4.267E+00    4.280E+00    4.292E+00    4.305E+00
     4.318E+00    4.330E+00    4.343E+00    4.355E+00    4.368E+00    4.380E+00    4.392E+00    4.405E+00    4.417E+00    4.429E+00
     4.441E+00    4.453E+00    4.465E+00    4.476E+00    4.488E+00    4.500E+00    4.512E+00    4.523E+00    4.535E+00    4.546E+00
     4.558E+00    4.569E+00    4.581E+00    4.592E+00    4.603E+00    4.615E+00    4.626E+00    4.637E+00    4.648E+00    4.660E+00
     4.671E+00    4.682E+00    4.693E+00    4.705E+00    4.716E+00    4.727E+00    4.738E+00    4.750E+00    4.761E+00    4.772E+00
     4.784E+00    4.795E+00    4.806E+00    4.818E+00    4.829E+00    4.841E+00    4.852E+00    4.864E+00    4.876E+00    4.887E+00
     4.899E+00    4.911E+00    4.923E+00    4.935E+00    4.947E+00    4.959E+00    4.971E+00    4.982E+00    4.994E+00    5.006E+00
     5.018E+00    5.030E+00    5.041E+00    5.053E+00    5.064E+00    5.075E+00    5.086E+00    5.097E+00    5.107E+00    5.118E+00
     5.128E+00    5.138E+00    5.148E+00    5.157E+00    5.166E+00    5.175E+00    5.183E+00    5.191E+00    5.199E+00    5.207E+00
     5.214E+00    5.220E+00    5.226E+00    5.232E+00    5.237E+00    5.242E+00    5.247E+00    5.250E+00    5.254E+00    5.256E+00
     5.259E+00    5.260E+00    5.262E+00    5.262E+00    5.262E+00    5.261E+00    5.260E+00    5.258E+00    5.255E+00    5.252E+00
     5.248E+00    5.243E+00    5.238E+00    5.232E+00    5.226E+00    5.219E+00    5.211E+00    5.202E+00    5.194E+00    5.184E+00
     5.174E+00    5.163E+00    5.152E+00    5.140E+00    5.127E+00    5.114E+00    5.100E+00    5.086E+00    5.071E+00    5.056E+00
     5.040E+00    5.024E+00    5.007E+00    4.989E+00    4.971E+00    4.952E+00    4.933E+00    4.913E+00    4.893E+00    4.872E+00
     4.851E+00    4.829E+00    4.807E+00    4.784E+00    4.761E+00    4.737E+00    4.713E+00    4.688E+00    4.663E+00    4.637E+00
     4.611E+00    4.585E+00    4.558E+00    4.530E+00    4.502E+00    4.474E+00    4.445E+00    4.416E+00    4.386E+00    4.356E+00
     4.325E+00    4.295E+00    4.263E+00    4.232E+00    4.200E+00    4.168E+00    4.135E+00    4.102E+00    4.069E+00    4.036E+00
     4.002E+00    3.968E+00    3.934E+00    3.899E+00    3.864E+00    3.829E+00    3.794E+00    3.758E+00    3.723E+00    3.687E+00
     3.651E+00    3.614E+00    3.578E+00    3.541E+00    3.505E+00    3.468E+00    3.431E+00    3.393E+00    3.356E+00    3.319E+00
     3.281E+00    3.244E+00    3.206E+00    3.168E+00    3.130E+00    3.093E+00    3.055E+00    3.017E+00    2.979E+00    2.941E+00
     2.903E+00    2.865E+00    2.827E+00    2.789E+00    2.752E+00    2.714E+00    2.676E+00    2.638E+00    2.601E+00    2.563E+00
     2.526E+00    2.489E+00    2.452E+00    2.415E+00    2.378E+00    2.341E+00    2.305E+00    2.268E+00    2.232E+00    2.196E+00
     2.160E+00    2.125E+00    2.090E+00    2.055E+00    2.020E+00    1.985E+00    1.951E+00    1.917E+00    1.883E+00    1.849E+00
     1.816E+00    1.783E+00    1.751E+00    1.719E+00    1.687E+00    1.655E+00    1.624E+00    1.593E+00    1.563E+00    1.533E+00
     1.503E+00    1.474E+00    1.446E+00    1.417E+00    1.389E+00    1.362E+00    1.335E+00    1.308E+00    1.282E+00    1.256E+00
     1.231E+00    1.206E+00    1.181E+00    1.157E+00    1.133E+00    1.110E+00    1.087E+00    1.065E+00    1.043E+00    1.021E+00
     9.996E-01    9.787E-01    9.581E-01    9.380E-01    9.182E-01    8.989E-01    8.799E-01    8.613E-01    8.431E-01    8.253E-01
     8.078E-01    7.907E-01    7.740E-01    7.577E-01    7.417E-01    7.261E-01    7.109E-01    6.960E-01    6.816E-01    6.674E-01
     6.536E-01    6.402E-01    6.272E-01    6.144E-01    6.021E-01    5.901E-01    5.784E-01    5.671E-01    5.561E-01    5.455E-01
     5.352E-01    5.252E-01    5.155E-01    5.062E-01    4.972E-01    4.884E-01    4.800E-01    4.718E-01    4.639E-01    4.563E-01
     4.490E-01    4.419E-01    4.351E-01    4.285E-01    4.222E-01    4.162E-01    4.103E-01    4.047E-01    3.993E-01    3.941E-01
     3.892E-01    3.844E-01    3.798E-01    3.754E-01    3.712E-01    3.672E-01    3.634E-01    3.597E-01    3.562E-01    3.528E-01
     3.496E-01    3.465E-01    3.436E-01    3.408E-01    3.381E-01    3.355E-01    3.331E-01    3.307E-01    3.284E-01    3.263E-01
     3.242E-01    3.222E-01    3.203E-01    3.185E-01    3.167E-01    3.150E-01    3.133E-01    3.117E-01    3.102E-01    3.087E-01
     3.073E-01    3.060E-01    3.047E-01    3.034E-01    3.022E-01    3.010E-01    2.999E-01    2.988E-01    2.978E-01    2.968E-01
     2.958E-01    2.949E-01    2.940E-01    2.931E-01    2.923E-01    2.915E-01    2.907E-01    2.900E-01    2.892E-01    2.885E-01
     2.878E-01    2.871E-01    2.864E-01    2.858E-01    2.851E-01    2.844E-01    2.838E-01    2.832E-01    2.825E-01    2.819E-01
     2.812E-01    2.806E-01    2.799E-01    2.793E-01    2.786E-01    2.779E-01    2.772E-01    2.765E-01
 Cr       Conc. = 2.25E+02
