 LCModel (Version 6.3-1L) Copyright: S.W. Provencher.          Ref.: Magn. Reson. Med. 30:672-679 (1993).                
 Slice#1 Row#1 Col#9  PD_05_press_1_raw_act
 36 lines in following concentration table = NCONC+1
    Conc.  %SD /Cr+PCr  Metabolite                                         
   33.340 126%   0.475 Ala                                                 
    9.082  62%   0.129 Asp                                                 
    0.000 999%   0.000 Cr                                                  
   70.135  30%   1.000 PCr                                                 
    5.335  63% 7.6E-02 GABA                                                
    5.416  62% 7.7E-02 Glc                                                 
  105.637  80%   1.506 Gln                                                 
  188.887  51%   2.693 Glu                                                 
   21.378  38%   0.305 GPC                                                 
    0.000 999%   0.000 PCh                                                 
   53.902  56%   0.769 GSH                                                 
  262.091  35%   3.737 Ins                                                 
   25.736 210%   0.367 Lac                                                 
   42.989  53%   0.613 NAA                                                 
    0.000 999%   0.000 NAAG                                                
    1.718  66% 2.5E-02 Scyllo                                              
    8.792  64%   0.125 Tau                                                 
    3.933 194% 5.6E-02 -CrCH2                                              
   21.378  38%   0.305 GPC+PCh                                             
   42.989  53%   0.613 NAA+NAAG                                            
   70.135  30%   1.000 Cr+PCr                                              
  294.524  44%   4.199 Glu+Gln                                             
    0.000 999%   0.000 Lip13a                                              
  427.460  32%   6.095 Lip13b                                              
  114.132  32%   1.627 Lip09                                               
    0.000 999%   0.000 MM09                                                
   64.118  32%   0.914 Lip20                                               
    0.000 999%   0.000 MM20                                                
    0.000 999%   0.000 MM12                                                
  245.174  40%   3.496 MM14                                                
   45.433 135%   0.648 MM17                                                
  427.460  32%   6.095 Lip13a+Lip13b                                       
  672.634  18%   9.591 MM14+Lip13a+Lip13b+MM12                             
  114.132  32%   1.627 MM09+Lip09                                          
   64.118  32%   0.914 MM20+Lip20                                          
   6 lines in following misc. output table
  FWHM = 0.038 ppm    S/N =   1                                            
  Data shift = 0.023 ppm                                                   
  Ph: 178 deg     -35.2 deg/ppm                                            
  alphaB,S = 8.5E+01,   2.6E+01                                            
   14 spline knots.   Ns = 5(1)                                            
   2 inflections.     1 extrema                                            
  498 points on ppm-axis = NY
      4.000000     3.992357     3.984714     3.977070     3.969427     3.961784     3.954141     3.946497     3.938854     3.931211
      3.923568     3.915925     3.908281     3.900638     3.892995     3.885352     3.877708     3.870065     3.862422     3.854779
      3.847136     3.839492     3.831849     3.824206     3.816563     3.808919     3.801276     3.793633     3.785990     3.778347
      3.770703     3.763060     3.755417     3.747774     3.740130     3.732487     3.724844     3.717201     3.709558     3.701914
      3.694271     3.686628     3.678985     3.671341     3.663698     3.656055     3.648412     3.640769     3.633125     3.625482
      3.617839     3.610196     3.602552     3.594909     3.587266     3.579623     3.571980     3.564336     3.556693     3.549050
      3.541407     3.533763     3.526120     3.518477     3.510834     3.503191     3.495547     3.487904     3.480261     3.472618
      3.464974     3.457331     3.449688     3.442045     3.434402     3.426758     3.419115     3.411472     3.403829     3.396185
      3.388542     3.380899     3.373256     3.365613     3.357969     3.350326     3.342683     3.335040     3.327396     3.319753
      3.312110     3.304467     3.296824     3.289180     3.281537     3.273894     3.266251     3.258607     3.250964     3.243321
      3.235678     3.228034     3.220391     3.212748     3.205105     3.197462     3.189818     3.182175     3.174532     3.166889
      3.159245     3.151602     3.143959     3.136316     3.128673     3.121029     3.113386     3.105743     3.098100     3.090456
      3.082813     3.075170     3.067527     3.059884     3.052240     3.044597     3.036954     3.029311     3.021667     3.014024
      3.006381     2.998738     2.991095     2.983451     2.975808     2.968165     2.960522     2.952878     2.945235     2.937592
      2.929949     2.922306     2.914662     2.907019     2.899376     2.891733     2.884089     2.876446     2.868803     2.861160
      2.853517     2.845873     2.838230     2.830587     2.822944     2.815300     2.807657     2.800014     2.792371     2.784728
      2.777084     2.769441     2.761798     2.754155     2.746511     2.738868     2.731225     2.723582     2.715939     2.708295
      2.700652     2.693009     2.685366     2.677722     2.670079     2.662436     2.654793     2.647150     2.639506     2.631863
      2.624220     2.616577     2.608933     2.601290     2.593647     2.586004     2.578361     2.570717     2.563074     2.555431
      2.547788     2.540144     2.532501     2.524858     2.517215     2.509572     2.501928     2.494285     2.486642     2.478999
      2.471355     2.463712     2.456069     2.448426     2.440783     2.433139     2.425496     2.417853     2.410210     2.402566
      2.394923     2.387280     2.379637     2.371994     2.364350     2.356707     2.349064     2.341421     2.333777     2.326134
      2.318491     2.310848     2.303205     2.295561     2.287918     2.280275     2.272632     2.264988     2.257345     2.249702
      2.242059     2.234416     2.226772     2.219129     2.211486     2.203843     2.196199     2.188556     2.180913     2.173270
      2.165627     2.157983     2.150340     2.142697     2.135054     2.127410     2.119767     2.112124     2.104481     2.096838
      2.089194     2.081551     2.073908     2.066265     2.058621     2.050978     2.043335     2.035692     2.028049     2.020405
      2.012762     2.005119     1.997476     1.989833     1.982190     1.974546     1.966903     1.959260     1.951617     1.943974
      1.936331     1.928688     1.921045     1.913402     1.905759     1.898115     1.890472     1.882829     1.875186     1.867543
      1.859900     1.852257     1.844614     1.836971     1.829327     1.821684     1.814041     1.806398     1.798755     1.791112
      1.783469     1.775826     1.768183     1.760540     1.752896     1.745253     1.737610     1.729967     1.722324     1.714681
      1.707038     1.699395     1.691752     1.684108     1.676465     1.668822     1.661179     1.653536     1.645893     1.638250
      1.630607     1.622964     1.615321     1.607677     1.600034     1.592391     1.584748     1.577105     1.569462     1.561819
      1.554176     1.546533     1.538890     1.531246     1.523603     1.515960     1.508317     1.500674     1.493031     1.485388
      1.477745     1.470102     1.462458     1.454815     1.447172     1.439529     1.431886     1.424243     1.416600     1.408957
      1.401314     1.393671     1.386027     1.378384     1.370741     1.363098     1.355455     1.347812     1.340169     1.332526
      1.324883     1.317240     1.309596     1.301953     1.294310     1.286667     1.279024     1.271381     1.263738     1.256095
      1.248452     1.240808     1.233165     1.225522     1.217879     1.210236     1.202593     1.194950     1.187307     1.179664
      1.172021     1.164377     1.156734     1.149091     1.141448     1.133805     1.126162     1.118519     1.110876     1.103233
      1.095590     1.087946     1.080303     1.072660     1.065017     1.057374     1.049731     1.042088     1.034445     1.026802
      1.019158     1.011515     1.003872     0.996229     0.988586     0.980943     0.973300     0.965657     0.958014     0.950371
      0.942727     0.935084     0.927441     0.919798     0.912155     0.904512     0.896869     0.889226     0.881583     0.873940
      0.866296     0.858653     0.851010     0.843367     0.835724     0.828081     0.820438     0.812795     0.805152     0.797508
      0.789865     0.782222     0.774579     0.766936     0.759293     0.751650     0.744007     0.736364     0.728721     0.721077
      0.713434     0.705791     0.698148     0.690505     0.682862     0.675219     0.667576     0.659933     0.652290     0.644646
      0.637003     0.629360     0.621717     0.614074     0.606431     0.598788     0.591145     0.583502     0.575858     0.568215
      0.560572     0.552929     0.545286     0.537643     0.530000     0.522357     0.514714     0.507071     0.499427     0.491784
      0.484141     0.476498     0.468855     0.461212     0.453569     0.445925     0.438282     0.430639     0.422996     0.415353
      0.407710     0.400067     0.392424     0.384780     0.377137     0.369494     0.361851     0.354208     0.346565     0.338922
      0.331278     0.323635     0.315992     0.308349     0.300706     0.293063     0.285420     0.277777     0.270133     0.262490
      0.254847     0.247204     0.239561     0.231918     0.224275     0.216631     0.208988     0.201345
 NY phased data points follow
   4.63521E+00  1.71029E+00 -3.82250E-01  9.40141E-01 -9.10664E-01 -1.31418E-01  2.01151E+00  7.50422E-01  4.81052E+00  7.38311E-01
   7.67185E-01  3.59385E+00  2.61044E+00  5.90961E+00  1.86523E+00  8.41528E-01  1.41086E-01  3.25054E+00 -4.85284E-03 -2.33049E+00
  -1.33898E+00  2.14414E+00  6.79792E-01  3.69559E+00  4.25902E+00 -1.02507E+00 -1.83512E+00  1.42759E+00  1.15938E+00  4.54616E-01
  -3.83888E-01  1.44011E+00  5.85505E-01  2.36497E+00  2.22134E+00  3.95875E+00  2.01462E+00 -1.41151E+00  1.48580E+00 -6.50431E-01
   1.16017E+00  8.95445E-02  2.61836E+00 -6.05428E-01  1.73364E+00  1.30963E+00  3.03689E+00 -1.55729E+00  2.59223E+00  6.24246E-01
   2.83434E+00  8.36059E-01 -1.33781E-01  3.10658E+00  1.19722E+00 -1.33475E+00  1.95683E+00  2.25202E+00  3.11529E-01 -8.51023E-01
   1.83720E-01  1.66334E+00 -5.56817E-01 -2.85842E-01  3.31950E-01 -3.50416E+00  2.11725E+00 -1.01009E+00  2.89159E+00 -2.63985E+00
  -5.18746E-01  1.61268E+00  3.32011E+00  3.30347E+00 -2.14245E+00  2.84698E+00  1.24851E+00  4.01700E+00  1.39448E-01  9.12823E-01
   1.01873E+00 -1.37200E+00 -1.40145E+00 -2.09266E+00 -2.59741E-01 -1.06698E+00  1.77905E+00 -1.34519E+00 -3.10395E+00 -3.51599E+00
   2.22653E+00 -8.45218E-02  1.63902E+00 -1.37925E+00  2.06177E+00 -3.34954E-01 -3.57699E+00  2.18170E+00 -8.50359E-01 -1.40194E+00
  -1.72079E-01 -2.46345E+00  4.18834E-01  3.24926E+00  4.24110E-01  1.65505E+00  2.18540E+00  2.88925E+00 -1.50230E+00 -5.11171E-01
   3.70099E-01 -9.97196E-01 -3.12457E+00 -1.67194E+00 -2.17845E-01 -1.44669E+00  9.57421E-01  4.79247E-01 -4.46110E+00 -2.21767E+00
  -1.39932E+00 -5.88235E-01 -1.81451E+00 -2.73441E+00 -1.49532E+00  8.66809E-01  8.46719E-01  1.74186E+00 -8.19330E-01  3.04948E+00
  -3.43249E-01  3.26515E+00  7.08718E-01  2.33054E+00 -2.73240E+00  1.04930E+00  1.14235E+00  1.37830E+00  7.79637E-01 -4.12364E-01
  -1.68769E+00 -5.46406E-01  2.63915E-01 -1.35142E+00 -1.84482E+00 -9.27885E-01 -2.11801E+00 -1.88043E+00  3.70274E+00 -6.69305E-02
  -8.39850E-01  1.24066E+00  1.34141E-01 -1.42022E+00  2.32219E+00 -2.08784E-01 -8.19484E-01 -2.77733E-01 -1.09471E+00  1.76614E+00
  -2.63524E+00 -2.41436E+00 -2.65681E+00 -4.60038E+00 -1.87333E-02  1.08669E+00  4.18260E-01 -3.18433E+00 -1.06926E+00 -1.49376E+00
   2.85098E+00  1.79701E+00  4.74589E-01  2.01636E-01 -3.68076E+00 -4.87695E-01 -1.21635E+00 -1.05087E+00 -1.87440E-01 -1.11505E+00
   1.90044E+00 -7.38151E-01  1.57778E+00  7.77174E-01 -1.38365E+00 -1.96842E+00 -2.01467E-01 -3.29289E+00  3.23232E-01 -8.33152E-01
  -3.45663E+00 -3.47487E+00 -1.29395E+00  7.36746E-01 -3.36045E+00 -1.99108E+00  4.33978E-01  7.66798E-01 -1.84297E+00 -2.85868E+00
  -9.77545E-01 -1.10107E+00  1.36577E+00 -3.37713E-01  7.33133E-01  1.99176E+00  1.69397E+00  1.91024E+00  3.41307E-01  9.06702E-02
   1.32055E+00  7.54843E-01 -1.09643E+00 -2.62710E+00 -8.62685E-01  8.67392E-01 -2.91303E+00 -8.74192E-01  1.88515E+00  1.13091E+00
  -5.40167E-01 -1.82777E+00 -2.87850E-01 -3.36817E+00 -1.90931E+00 -1.95748E+00 -6.89318E-01  1.79960E+00 -3.92912E-01 -2.35610E+00
  -3.67968E+00 -1.43949E+00  3.14325E+00  7.46784E-01  7.39571E-01 -1.61081E+00 -1.85550E+00  1.95703E+00  2.09808E+00  3.56226E-01
  -2.13508E+00  2.19827E+00  2.55349E+00  6.15914E-01 -1.54109E+00 -1.32583E+00 -1.24418E+00  5.22221E-01 -6.55903E-01 -2.37896E+00
  -2.00237E+00  2.47353E+00 -3.50220E+00 -4.51499E-01 -3.15758E+00 -4.60913E+00 -4.48582E+00 -3.02277E+00 -1.84161E-01 -1.80916E+00
  -2.66586E+00 -1.72208E+00  3.59490E+00  2.82162E+00  2.42336E+00  2.25366E+00  2.86405E+00  1.57003E+00  1.32889E+00 -7.50850E-01
   7.26225E-01 -2.79714E+00 -4.43533E-01 -9.02768E-01  2.47240E-01  1.74640E+00  1.26107E+00 -9.85712E-01 -6.23920E-01 -2.14486E+00
  -1.51282E+00  8.11233E-02 -2.32992E+00 -2.10905E+00 -4.30142E-01 -6.33353E-01 -1.47655E+00  3.05350E-01  2.59850E+00  3.39345E+00
   6.56117E-01  1.13900E+00 -1.03525E+00  2.11721E+00 -1.53326E-01  1.32062E+00  1.25528E+00  8.52441E-01 -6.40857E-01 -2.68788E+00
   1.06450E+00 -3.03979E+00  1.39101E+00  3.15180E+00 -1.20006E+00 -2.69174E+00  1.99259E+00  1.05887E+00  8.50538E-01  1.64342E-01
   3.27033E-01  1.30938E+00 -1.36693E+00  1.26429E+00  3.33138E-01 -4.76730E-01  1.12489E+00  1.06609E+00 -2.10671E+00 -3.34553E-01
   1.15526E+00  9.32310E-01  5.98403E-02 -4.52924E-02 -2.50997E+00 -6.79718E-02  2.43988E+00 -1.01117E+00  7.84238E-01  1.83053E+00
  -3.66751E-01  1.68433E+00  1.42625E+00  6.08751E-02  1.06912E+00  9.56636E-01  2.78150E+00  3.24469E+00  3.98562E+00  1.16161E+00
   8.37810E-01  5.81905E+00  4.70348E+00  3.15519E+00  3.77872E+00  4.97886E+00  5.66642E+00  3.29914E+00  3.28049E+00  1.54544E+00
   6.00219E+00  7.15669E+00  3.82287E+00  2.92782E+00  5.43335E+00  3.50089E+00  1.25827E+00  2.68996E+00  3.91302E+00  1.11131E-01
   2.19686E+00  7.42289E-01  2.12793E+00  4.42524E+00  1.51585E+00 -1.24407E+00  1.31080E+00 -1.51305E+00  2.30092E-01 -3.06591E+00
  -4.84879E-01 -2.14833E+00 -3.85994E+00 -1.56925E-01 -3.20596E+00 -9.51114E-01  5.38830E-01 -6.74561E-01 -2.60249E+00 -2.54963E+00
  -4.96199E-01 -6.11870E-01  1.21979E+00  3.49696E-01 -2.82534E-01 -2.90784E+00 -1.50554E-01 -1.96466E+00  9.60600E-01 -1.22642E+00
   5.52515E-01 -2.42832E-01 -8.41558E-01  9.66468E-01 -1.72704E+00 -2.10845E+00  5.75993E-01 -7.44952E-01  1.59478E+00 -2.48608E+00
  -3.74227E-02  6.80328E-01  3.58353E-01  5.72707E-01 -3.32475E+00 -2.91296E+00 -2.73595E+00  7.78359E-01 -2.31781E+00 -1.18732E+00
   1.05066E+00  4.73290E-01  2.75938E+00  1.86929E+00  5.35321E-01  9.80871E-02  4.42269E+00  2.40005E+00  1.53471E+00 -1.48889E+00
   1.08515E+00  2.20809E+00  1.12839E+00 -5.63969E-01  2.99443E+00  5.66846E-01 -7.26568E-03  9.98598E-01  5.58897E-01 -1.19302E+00
   2.36019E-02  9.94170E-01  2.57725E+00 -2.39411E-01 -3.03681E+00  1.57828E+00 -6.54376E-01  1.60536E+00  3.08413E-02  1.18786E+00
   1.67919E+00  3.00583E+00 -8.81594E-01  2.11647E+00 -7.71468E-01  7.44754E-02 -2.01256E+00 -4.71841E-01  2.23467E+00  1.45135E+00
   1.33325E+00  1.69202E+00  5.89439E-01  9.62633E-02 -1.74497E+00 -2.57922E+00 -1.24368E+00  4.36358E-01  2.39096E+00 -1.72316E+00
   1.85505E-02  1.37749E+00  1.57559E+00  2.80872E-01 -3.04727E+00 -1.68967E+00  1.96655E-01 -3.18543E-01 -3.39929E-04  1.34683E+00
   1.66771E+00 -8.69202E-01  1.38625E+00  1.32865E+00  1.21667E+00 -1.34740E+00 -1.56569E+00  5.87644E-01 -2.73858E-01  8.98100E-01
  -2.96699E+00 -6.55133E-01 -3.00528E+00  6.64383E-01 -6.62670E-01 -9.28125E-01  1.09508E+00  8.31869E-01 -8.67418E-01  4.26370E-01
  -1.39725E+00 -8.09059E-01 -2.36609E+00 -1.07675E+00 -2.58326E+00 -8.26176E-01 -1.80977E+00 -1.89285E+00
 NY points of the fit to the data follow
   6.52421E-01  4.06555E-01  1.90437E-01  9.21068E-02  6.88854E-02  1.15392E-01  2.81275E-01  5.49750E-01  8.63311E-01  1.19140E+00
   1.52072E+00  1.78944E+00  1.87773E+00  1.68294E+00  1.20483E+00  6.22713E-01  2.63633E-01  1.70546E-01  1.49473E-01  1.56269E-01
   1.76779E-01  2.08443E-01  2.62175E-01  3.31286E-01  3.73467E-01  3.43116E-01  2.76816E-01  2.44048E-01  2.68253E-01  3.67542E-01
   5.95011E-01  1.00055E+00  1.56289E+00  2.10672E+00  2.37153E+00  2.17961E+00  1.62502E+00  1.01154E+00  4.81337E-01  6.34918E-02
  -1.48393E-01 -1.78548E-01 -1.08751E-01  2.36094E-02  2.79953E-01  6.63693E-01  1.09018E+00  1.51969E+00  1.91987E+00  2.23941E+00
   2.34388E+00  2.05801E+00  1.34830E+00  4.52508E-01 -2.17243E-01 -4.43788E-01 -3.56912E-01 -1.48492E-01  9.93111E-02  3.53234E-01
   5.83022E-01  7.64052E-01  8.69173E-01  8.66983E-01  7.15674E-01  4.27305E-01  1.32199E-01 -5.42047E-02 -8.65265E-02  3.36529E-02
   2.21575E-01  4.05245E-01  5.41234E-01  6.18630E-01  6.51402E-01  6.36740E-01  5.74138E-01  4.61247E-01  3.34493E-01  2.58075E-01
   2.12068E-01  1.72997E-01  1.45017E-01  1.23579E-01  8.13434E-02 -3.83799E-03 -1.31218E-01 -2.92975E-01 -4.78858E-01 -6.67204E-01
  -8.15377E-01 -8.64826E-01 -7.66072E-01 -5.31476E-01 -2.72140E-01 -8.00957E-02  1.11351E-02  1.89668E-02 -2.76533E-02 -2.38395E-02
   1.05647E-01  3.45250E-01  6.62893E-01  1.08087E+00  1.55991E+00  1.92656E+00  1.97570E+00  1.58453E+00  8.41562E-01  1.14572E-01
  -1.89276E-01 -2.54251E-01 -2.75642E-01 -2.78250E-01 -2.76311E-01 -2.71702E-01 -2.71201E-01 -2.77590E-01 -2.89303E-01 -3.02625E-01
  -3.14955E-01 -3.23941E-01 -3.21051E-01 -2.15345E-01  8.07696E-02  5.29573E-01  1.04443E+00  1.58384E+00  2.12682E+00  2.55967E+00
   2.68167E+00  2.33649E+00  1.55598E+00  6.73492E-01  1.93754E-01  4.91869E-02 -5.91265E-02 -1.99967E-01 -3.64741E-01 -5.04193E-01
  -5.43098E-01 -4.39132E-01 -2.56390E-01 -7.75931E-02  4.79141E-02  8.49663E-02  4.19946E-02 -3.34670E-02 -1.13741E-01 -1.61261E-01
  -1.89066E-01 -2.11237E-01 -2.32093E-01 -2.51184E-01 -2.69635E-01 -2.86475E-01 -2.95815E-01 -2.98491E-01 -2.98829E-01 -2.98041E-01
  -2.98681E-01 -3.04738E-01 -3.19152E-01 -3.35963E-01 -3.44386E-01 -3.40993E-01 -3.28003E-01 -3.14902E-01 -3.13202E-01 -3.23589E-01
  -3.38134E-01 -3.50519E-01 -3.57211E-01 -3.65854E-01 -3.79109E-01 -3.93093E-01 -4.07959E-01 -4.26779E-01 -4.49872E-01 -4.70502E-01
  -4.79055E-01 -4.75078E-01 -4.72726E-01 -4.87061E-01 -5.14044E-01 -5.33158E-01 -5.36509E-01 -5.23506E-01 -4.94900E-01 -4.42465E-01
  -3.60209E-01 -2.53553E-01 -1.53119E-01 -1.03803E-01 -1.42490E-01 -2.79751E-01 -4.81228E-01 -6.82376E-01 -8.13613E-01 -8.29089E-01
  -7.20253E-01 -5.03147E-01 -1.90389E-01  1.49320E-01  4.06088E-01  5.00670E-01  4.14737E-01  1.62834E-01 -1.94572E-01 -5.75041E-01
  -9.32260E-01 -1.21439E+00 -1.27854E+00 -1.03073E+00 -5.24974E-01  1.28867E-01  7.48389E-01  1.09186E+00  1.10416E+00  8.02524E-01
   2.03722E-01 -5.32622E-01 -1.17383E+00 -1.50688E+00 -1.57517E+00 -1.40800E+00 -9.87252E-01 -3.96050E-01  1.53864E-01  4.30804E-01
   4.17419E-01  2.83090E-01  1.21540E-01 -6.79609E-02 -2.14334E-01 -2.56598E-01 -1.92679E-01 -6.69363E-02  5.53570E-02  1.20639E-01
   1.34834E-01  1.02407E-01 -7.91394E-03 -2.28633E-01 -4.67106E-01 -6.07586E-01 -6.45968E-01 -6.03663E-01 -4.72797E-01 -3.05341E-01
  -2.29390E-01 -2.15342E-01 -2.14611E-01 -1.97294E-01 -1.59586E-01 -9.44858E-02 -7.48546E-03  1.24775E-01  3.08320E-01  5.15186E-01
   7.56585E-01  1.06467E+00  1.41408E+00  1.67419E+00  1.67539E+00  1.31798E+00  7.18464E-01  2.17624E-01  6.03441E-03 -1.04815E-01
  -1.78946E-01 -2.12431E-01 -2.29301E-01 -2.42637E-01 -2.31994E-01 -1.98333E-01 -1.52525E-01 -1.11437E-01 -9.18702E-02 -1.02811E-01
  -1.30845E-01 -1.58930E-01 -1.82676E-01 -1.99898E-01 -2.07441E-01 -2.04759E-01 -1.93876E-01 -1.80189E-01 -1.68417E-01 -1.57417E-01
  -1.46988E-01 -1.37242E-01 -1.27181E-01 -1.15686E-01 -1.02915E-01 -8.98972E-02 -7.66524E-02 -6.26607E-02 -4.85617E-02 -3.49709E-02
  -2.17877E-02 -9.39784E-03  1.98921E-03  1.22513E-02  2.13970E-02  2.94967E-02  3.66320E-02  4.28998E-02  4.84998E-02  5.38904E-02
   5.99191E-02  6.73066E-02  7.66205E-02  8.85607E-02  1.03814E-01  1.23095E-01  1.47170E-01  1.76808E-01  2.12801E-01  2.55998E-01
   3.07430E-01  3.68502E-01  4.43038E-01  5.45332E-01  6.74917E-01  8.03825E-01  9.08208E-01  9.82011E-01  1.01774E+00  9.89131E-01
   8.66835E-01  6.71486E-01  4.95463E-01  4.49480E-01  5.86453E-01  8.17913E-01  1.07486E+00  1.36798E+00  1.67470E+00  1.93637E+00
   2.09243E+00  2.13808E+00  2.18894E+00  2.35084E+00  2.60554E+00  2.91514E+00  3.24591E+00  3.57598E+00  3.88141E+00  4.11918E+00
   4.23701E+00  4.22270E+00  4.12077E+00  4.00004E+00  3.91091E+00  3.81240E+00  3.64801E+00  3.43577E+00  3.17684E+00  2.84825E+00
   2.42882E+00  1.94357E+00  1.49808E+00  1.14497E+00  8.61973E-01  6.35099E-01  4.55016E-01  3.13466E-01  2.02955E-01  1.16928E-01
   4.99056E-02 -2.52632E-03 -4.37966E-02 -7.64984E-02 -1.02538E-01 -1.23306E-01 -1.39804E-01 -1.52766E-01 -1.62718E-01 -1.70036E-01
  -1.74973E-01 -1.77700E-01 -1.78323E-01 -1.76906E-01 -1.73465E-01 -1.67990E-01 -1.60436E-01 -1.50751E-01 -1.38873E-01 -1.24745E-01
  -1.08316E-01 -8.95594E-02 -6.84721E-02 -4.51034E-02 -1.95522E-02  8.01307E-03  3.73574E-02  6.81612E-02  1.00026E-01  1.32465E-01
   1.64921E-01  1.96771E-01  2.27345E-01  2.55943E-01  2.81866E-01  3.04434E-01  3.23028E-01  3.37106E-01  3.46236E-01  3.50111E-01
   3.48567E-01  3.41589E-01  3.29321E-01  3.12043E-01  2.90170E-01  2.64219E-01  2.34797E-01  2.02564E-01  1.68213E-01  1.32431E-01
   9.58813E-02  5.91759E-02  2.28685E-02 -1.25669E-02 -4.67343E-02 -7.93289E-02 -1.10126E-01 -1.38982E-01 -1.65816E-01 -1.90608E-01
  -2.13386E-01 -2.34220E-01 -2.53206E-01 -2.70465E-01 -2.86119E-01 -3.00301E-01 -3.13141E-01 -3.24775E-01 -3.35325E-01 -3.44908E-01
  -3.53623E-01 -3.61566E-01 -3.68822E-01 -3.75473E-01 -3.81584E-01 -3.87217E-01 -3.92418E-01 -3.97237E-01 -4.01715E-01 -4.05893E-01
  -4.09799E-01 -4.13460E-01 -4.16895E-01 -4.20130E-01 -4.23183E-01 -4.26075E-01 -4.28817E-01 -4.31419E-01 -4.33890E-01 -4.36246E-01
  -4.38499E-01 -4.40658E-01 -4.42727E-01 -4.44711E-01 -4.46614E-01 -4.48448E-01 -4.50217E-01 -4.51927E-01 -4.53576E-01 -4.55168E-01
  -4.56709E-01 -4.58208E-01 -4.59666E-01 -4.61084E-01 -4.62457E-01 -4.63790E-01 -4.65089E-01 -4.66360E-01 -4.67601E-01 -4.68811E-01
  -4.69988E-01 -4.71139E-01 -4.72268E-01 -4.73379E-01 -4.74465E-01 -4.75527E-01 -4.76563E-01 -4.77581E-01 -4.78583E-01 -4.79572E-01
  -4.80538E-01 -4.81484E-01 -4.82409E-01 -4.83323E-01 -4.84224E-01 -4.85112E-01 -4.85978E-01 -4.86823E-01
 NY background values follow
    -2.784E-01   -2.789E-01   -2.794E-01   -2.798E-01   -2.803E-01   -2.808E-01   -2.812E-01   -2.817E-01   -2.822E-01   -2.827E-01
    -2.831E-01   -2.836E-01   -2.841E-01   -2.845E-01   -2.850E-01   -2.855E-01   -2.860E-01   -2.864E-01   -2.869E-01   -2.874E-01
    -2.878E-01   -2.883E-01   -2.888E-01   -2.893E-01   -2.897E-01   -2.902E-01   -2.907E-01   -2.911E-01   -2.916E-01   -2.921E-01
    -2.926E-01   -2.930E-01   -2.935E-01   -2.940E-01   -2.944E-01   -2.949E-01   -2.954E-01   -2.959E-01   -2.963E-01   -2.968E-01
    -2.973E-01   -2.977E-01   -2.982E-01   -2.987E-01   -2.992E-01   -2.996E-01   -3.001E-01   -3.006E-01   -3.011E-01   -3.015E-01
    -3.020E-01   -3.025E-01   -3.029E-01   -3.034E-01   -3.039E-01   -3.044E-01   -3.048E-01   -3.053E-01   -3.058E-01   -3.062E-01
    -3.067E-01   -3.072E-01   -3.077E-01   -3.081E-01   -3.086E-01   -3.091E-01   -3.095E-01   -3.100E-01   -3.105E-01   -3.110E-01
    -3.114E-01   -3.119E-01   -3.124E-01   -3.128E-01   -3.133E-01   -3.138E-01   -3.143E-01   -3.147E-01   -3.152E-01   -3.157E-01
    -3.161E-01   -3.166E-01   -3.171E-01   -3.176E-01   -3.180E-01   -3.185E-01   -3.190E-01   -3.194E-01   -3.199E-01   -3.204E-01
    -3.209E-01   -3.213E-01   -3.218E-01   -3.223E-01   -3.228E-01   -3.232E-01   -3.237E-01   -3.242E-01   -3.246E-01   -3.251E-01
    -3.256E-01   -3.261E-01   -3.265E-01   -3.270E-01   -3.275E-01   -3.279E-01   -3.284E-01   -3.289E-01   -3.294E-01   -3.298E-01
    -3.303E-01   -3.308E-01   -3.312E-01   -3.317E-01   -3.322E-01   -3.327E-01   -3.331E-01   -3.336E-01   -3.341E-01   -3.345E-01
    -3.350E-01   -3.355E-01   -3.360E-01   -3.364E-01   -3.369E-01   -3.374E-01   -3.378E-01   -3.383E-01   -3.388E-01   -3.393E-01
    -3.397E-01   -3.402E-01   -3.407E-01   -3.411E-01   -3.416E-01   -3.421E-01   -3.426E-01   -3.430E-01   -3.435E-01   -3.440E-01
    -3.444E-01   -3.449E-01   -3.454E-01   -3.459E-01   -3.463E-01   -3.468E-01   -3.473E-01   -3.477E-01   -3.482E-01   -3.487E-01
    -3.492E-01   -3.496E-01   -3.501E-01   -3.506E-01   -3.510E-01   -3.515E-01   -3.520E-01   -3.525E-01   -3.529E-01   -3.534E-01
    -3.539E-01   -3.543E-01   -3.548E-01   -3.553E-01   -3.558E-01   -3.562E-01   -3.567E-01   -3.572E-01   -3.576E-01   -3.581E-01
    -3.586E-01   -3.591E-01   -3.595E-01   -3.600E-01   -3.605E-01   -3.609E-01   -3.614E-01   -3.619E-01   -3.624E-01   -3.628E-01
    -3.633E-01   -3.638E-01   -3.642E-01   -3.647E-01   -3.652E-01   -3.657E-01   -3.661E-01   -3.666E-01   -3.671E-01   -3.675E-01
    -3.680E-01   -3.685E-01   -3.690E-01   -3.694E-01   -3.699E-01   -3.704E-01   -3.708E-01   -3.713E-01   -3.718E-01   -3.723E-01
    -3.727E-01   -3.732E-01   -3.737E-01   -3.741E-01   -3.746E-01   -3.751E-01   -3.755E-01   -3.760E-01   -3.765E-01   -3.770E-01
    -3.774E-01   -3.779E-01   -3.784E-01   -3.788E-01   -3.793E-01   -3.798E-01   -3.803E-01   -3.807E-01   -3.812E-01   -3.817E-01
    -3.821E-01   -3.826E-01   -3.831E-01   -3.836E-01   -3.840E-01   -3.845E-01   -3.850E-01   -3.854E-01   -3.859E-01   -3.864E-01
    -3.869E-01   -3.873E-01   -3.878E-01   -3.883E-01   -3.887E-01   -3.892E-01   -3.897E-01   -3.902E-01   -3.906E-01   -3.911E-01
    -3.916E-01   -3.920E-01   -3.925E-01   -3.930E-01   -3.934E-01   -3.939E-01   -3.944E-01   -3.949E-01   -3.953E-01   -3.958E-01
    -3.963E-01   -3.967E-01   -3.972E-01   -3.977E-01   -3.982E-01   -3.986E-01   -3.991E-01   -3.996E-01   -4.000E-01   -4.005E-01
    -4.010E-01   -4.015E-01   -4.019E-01   -4.024E-01   -4.029E-01   -4.033E-01   -4.038E-01   -4.043E-01   -4.048E-01   -4.052E-01
    -4.057E-01   -4.062E-01   -4.066E-01   -4.071E-01   -4.076E-01   -4.080E-01   -4.085E-01   -4.090E-01   -4.095E-01   -4.099E-01
    -4.104E-01   -4.109E-01   -4.113E-01   -4.118E-01   -4.123E-01   -4.128E-01   -4.132E-01   -4.137E-01   -4.142E-01   -4.146E-01
    -4.151E-01   -4.156E-01   -4.161E-01   -4.165E-01   -4.170E-01   -4.175E-01   -4.179E-01   -4.184E-01   -4.189E-01   -4.193E-01
    -4.198E-01   -4.203E-01   -4.208E-01   -4.212E-01   -4.217E-01   -4.222E-01   -4.226E-01   -4.231E-01   -4.236E-01   -4.241E-01
    -4.245E-01   -4.250E-01   -4.255E-01   -4.259E-01   -4.264E-01   -4.269E-01   -4.273E-01   -4.278E-01   -4.283E-01   -4.288E-01
    -4.292E-01   -4.297E-01   -4.302E-01   -4.306E-01   -4.311E-01   -4.316E-01   -4.321E-01   -4.325E-01   -4.330E-01   -4.335E-01
    -4.339E-01   -4.344E-01   -4.349E-01   -4.354E-01   -4.358E-01   -4.363E-01   -4.368E-01   -4.372E-01   -4.377E-01   -4.382E-01
    -4.386E-01   -4.391E-01   -4.396E-01   -4.401E-01   -4.405E-01   -4.410E-01   -4.415E-01   -4.419E-01   -4.424E-01   -4.429E-01
    -4.434E-01   -4.438E-01   -4.443E-01   -4.448E-01   -4.452E-01   -4.457E-01   -4.462E-01   -4.466E-01   -4.471E-01   -4.476E-01
    -4.481E-01   -4.485E-01   -4.490E-01   -4.495E-01   -4.499E-01   -4.504E-01   -4.509E-01   -4.514E-01   -4.518E-01   -4.523E-01
    -4.528E-01   -4.532E-01   -4.537E-01   -4.542E-01   -4.546E-01   -4.551E-01   -4.556E-01   -4.561E-01   -4.565E-01   -4.570E-01
    -4.575E-01   -4.579E-01   -4.584E-01   -4.589E-01   -4.594E-01   -4.598E-01   -4.603E-01   -4.608E-01   -4.612E-01   -4.617E-01
    -4.622E-01   -4.626E-01   -4.631E-01   -4.636E-01   -4.641E-01   -4.645E-01   -4.650E-01   -4.655E-01   -4.659E-01   -4.664E-01
    -4.669E-01   -4.674E-01   -4.678E-01   -4.683E-01   -4.688E-01   -4.692E-01   -4.697E-01   -4.702E-01   -4.706E-01   -4.711E-01
    -4.716E-01   -4.721E-01   -4.725E-01   -4.730E-01   -4.735E-01   -4.739E-01   -4.744E-01   -4.749E-01   -4.753E-01   -4.758E-01
    -4.763E-01   -4.768E-01   -4.772E-01   -4.777E-01   -4.782E-01   -4.786E-01   -4.791E-01   -4.796E-01   -4.801E-01   -4.805E-01
    -4.810E-01   -4.815E-01   -4.819E-01   -4.824E-01   -4.829E-01   -4.833E-01   -4.838E-01   -4.843E-01   -4.848E-01   -4.852E-01
    -4.857E-01   -4.862E-01   -4.866E-01   -4.871E-01   -4.876E-01   -4.881E-01   -4.885E-01   -4.890E-01   -4.895E-01   -4.899E-01
    -4.904E-01   -4.909E-01   -4.913E-01   -4.918E-01   -4.923E-01   -4.928E-01   -4.932E-01   -4.937E-01   -4.942E-01   -4.946E-01
    -4.951E-01   -4.956E-01   -4.961E-01   -4.965E-01   -4.970E-01   -4.975E-01   -4.979E-01   -4.984E-01   -4.989E-01   -4.993E-01
    -4.998E-01   -5.003E-01   -5.008E-01   -5.012E-01   -5.017E-01   -5.022E-01   -5.026E-01   -5.031E-01   -5.036E-01   -5.041E-01
    -5.045E-01   -5.050E-01   -5.055E-01   -5.059E-01   -5.064E-01   -5.069E-01   -5.073E-01   -5.078E-01   -5.083E-01   -5.088E-01
    -5.092E-01   -5.097E-01   -5.102E-01   -5.106E-01   -5.111E-01   -5.116E-01   -5.120E-01   -5.125E-01
 Ala      Conc. = 3.33E+01
