 LCModel (Version 6.3-1L) Copyright: S.W. Provencher.          Ref.: Magn. Reson. Med. 30:672-679 (1993).                
 Slice#2 Row#6 Col#6  PD_05_press_1_raw_act
 36 lines in following concentration table = NCONC+1
    Conc.  %SD /Cr+PCr  Metabolite                                         
    0.000 999%   0.000 Ala                                                 
    0.000 999%   0.000 Asp                                                 
  582.491  36%   0.414 Cr                                                  
  824.113  26%   0.586 PCr                                                 
    0.000 999%   0.000 GABA                                                
  175.668  87%   0.125 Glc                                                 
 1.02E+03  22%   0.722 Gln                                                 
 1.30E+03  19%   0.925 Glu                                                 
  660.100   4%   0.469 GPC                                                 
    0.000 999%   0.000 PCh                                                 
  536.977  13%   0.382 GSH                                                 
 1.88E+03  15%   1.333 Ins                                                 
    0.000 999%   0.000 Lac                                                 
 2.53E+03   5%   1.801 NAA                                                 
   13.374 927% 9.5E-03 NAAG                                                
  164.597  17%   0.117 Scyllo                                              
    0.000 999%   0.000 Tau                                                 
  205.975  54%   0.146 -CrCH2                                              
  660.100   4%   0.469 GPC+PCh                                             
 2.55E+03   3%   1.810 NAA+NAAG                                            
 1.41E+03   4%   1.000 Cr+PCr                                              
 2.32E+03  16%   1.647 Glu+Gln                                             
    0.000 999%   0.000 Lip13a                                              
    0.000 999%   0.000 Lip13b                                              
    0.000 999%   0.000 Lip09                                               
 1.35E+03  15%   0.960 MM09                                                
    0.000 999%   0.000 Lip20                                               
 2.53E+03  14%   1.802 MM20                                                
  462.768  32%   0.329 MM12                                                
  204.110 123%   0.145 MM14                                                
  730.907  27%   0.520 MM17                                                
    0.000 999%   0.000 Lip13a+Lip13b                                       
  666.877  49%   0.474 MM14+Lip13a+Lip13b+MM12                             
 1.35E+03  15%   0.960 MM09+Lip09                                          
 2.53E+03  14%   1.802 MM20+Lip20                                          
   6 lines in following misc. output table
  FWHM = 0.061 ppm    S/N =  15                                            
  Data shift =-0.015 ppm                                                   
  Ph: -49 deg     -13.2 deg/ppm                                            
  alphaB,S = 7.3E-01,   2.7E+01                                            
   14 spline knots.   Ns = 8(1)                                            
  (14) 5 infls.   ( 9) 1 extrs.                                            
  498 points on ppm-axis = NY
      4.000000     3.992357     3.984714     3.977070     3.969427     3.961784     3.954141     3.946497     3.938854     3.931211
      3.923568     3.915925     3.908281     3.900638     3.892995     3.885352     3.877708     3.870065     3.862422     3.854779
      3.847136     3.839492     3.831849     3.824206     3.816563     3.808919     3.801276     3.793633     3.785990     3.778347
      3.770703     3.763060     3.755417     3.747774     3.740130     3.732487     3.724844     3.717201     3.709558     3.701914
      3.694271     3.686628     3.678985     3.671341     3.663698     3.656055     3.648412     3.640769     3.633125     3.625482
      3.617839     3.610196     3.602552     3.594909     3.587266     3.579623     3.571980     3.564336     3.556693     3.549050
      3.541407     3.533763     3.526120     3.518477     3.510834     3.503191     3.495547     3.487904     3.480261     3.472618
      3.464974     3.457331     3.449688     3.442045     3.434402     3.426758     3.419115     3.411472     3.403829     3.396185
      3.388542     3.380899     3.373256     3.365613     3.357969     3.350326     3.342683     3.335040     3.327396     3.319753
      3.312110     3.304467     3.296824     3.289180     3.281537     3.273894     3.266251     3.258607     3.250964     3.243321
      3.235678     3.228034     3.220391     3.212748     3.205105     3.197462     3.189818     3.182175     3.174532     3.166889
      3.159245     3.151602     3.143959     3.136316     3.128673     3.121029     3.113386     3.105743     3.098100     3.090456
      3.082813     3.075170     3.067527     3.059884     3.052240     3.044597     3.036954     3.029311     3.021667     3.014024
      3.006381     2.998738     2.991095     2.983451     2.975808     2.968165     2.960522     2.952878     2.945235     2.937592
      2.929949     2.922306     2.914662     2.907019     2.899376     2.891733     2.884089     2.876446     2.868803     2.861160
      2.853517     2.845873     2.838230     2.830587     2.822944     2.815300     2.807657     2.800014     2.792371     2.784728
      2.777084     2.769441     2.761798     2.754155     2.746511     2.738868     2.731225     2.723582     2.715939     2.708295
      2.700652     2.693009     2.685366     2.677722     2.670079     2.662436     2.654793     2.647150     2.639506     2.631863
      2.624220     2.616577     2.608933     2.601290     2.593647     2.586004     2.578361     2.570717     2.563074     2.555431
      2.547788     2.540144     2.532501     2.524858     2.517215     2.509572     2.501928     2.494285     2.486642     2.478999
      2.471355     2.463712     2.456069     2.448426     2.440783     2.433139     2.425496     2.417853     2.410210     2.402566
      2.394923     2.387280     2.379637     2.371994     2.364350     2.356707     2.349064     2.341421     2.333777     2.326134
      2.318491     2.310848     2.303205     2.295561     2.287918     2.280275     2.272632     2.264988     2.257345     2.249702
      2.242059     2.234416     2.226772     2.219129     2.211486     2.203843     2.196199     2.188556     2.180913     2.173270
      2.165627     2.157983     2.150340     2.142697     2.135054     2.127410     2.119767     2.112124     2.104481     2.096838
      2.089194     2.081551     2.073908     2.066265     2.058621     2.050978     2.043335     2.035692     2.028049     2.020405
      2.012762     2.005119     1.997476     1.989833     1.982190     1.974546     1.966903     1.959260     1.951617     1.943974
      1.936331     1.928688     1.921045     1.913402     1.905759     1.898115     1.890472     1.882829     1.875186     1.867543
      1.859900     1.852257     1.844614     1.836971     1.829327     1.821684     1.814041     1.806398     1.798755     1.791112
      1.783469     1.775826     1.768183     1.760540     1.752896     1.745253     1.737610     1.729967     1.722324     1.714681
      1.707038     1.699395     1.691752     1.684108     1.676465     1.668822     1.661179     1.653536     1.645893     1.638250
      1.630607     1.622964     1.615321     1.607677     1.600034     1.592391     1.584748     1.577105     1.569462     1.561819
      1.554176     1.546533     1.538890     1.531246     1.523603     1.515960     1.508317     1.500674     1.493031     1.485388
      1.477745     1.470102     1.462458     1.454815     1.447172     1.439529     1.431886     1.424243     1.416600     1.408957
      1.401314     1.393671     1.386027     1.378384     1.370741     1.363098     1.355455     1.347812     1.340169     1.332526
      1.324883     1.317240     1.309596     1.301953     1.294310     1.286667     1.279024     1.271381     1.263738     1.256095
      1.248452     1.240808     1.233165     1.225522     1.217879     1.210236     1.202593     1.194950     1.187307     1.179664
      1.172021     1.164377     1.156734     1.149091     1.141448     1.133805     1.126162     1.118519     1.110876     1.103233
      1.095590     1.087946     1.080303     1.072660     1.065017     1.057374     1.049731     1.042088     1.034445     1.026802
      1.019158     1.011515     1.003872     0.996229     0.988586     0.980943     0.973300     0.965657     0.958014     0.950371
      0.942727     0.935084     0.927441     0.919798     0.912155     0.904512     0.896869     0.889226     0.881583     0.873940
      0.866296     0.858653     0.851010     0.843367     0.835724     0.828081     0.820438     0.812795     0.805152     0.797508
      0.789865     0.782222     0.774579     0.766936     0.759293     0.751650     0.744007     0.736364     0.728721     0.721077
      0.713434     0.705791     0.698148     0.690505     0.682862     0.675219     0.667576     0.659933     0.652290     0.644646
      0.637003     0.629360     0.621717     0.614074     0.606431     0.598788     0.591145     0.583502     0.575858     0.568215
      0.560572     0.552929     0.545286     0.537643     0.530000     0.522357     0.514714     0.507071     0.499427     0.491784
      0.484141     0.476498     0.468855     0.461212     0.453569     0.445925     0.438282     0.430639     0.422996     0.415353
      0.407710     0.400067     0.392424     0.384780     0.377137     0.369494     0.361851     0.354208     0.346565     0.338922
      0.331278     0.323635     0.315992     0.308349     0.300706     0.293063     0.285420     0.277777     0.270133     0.262490
      0.254847     0.247204     0.239561     0.231918     0.224275     0.216631     0.208988     0.201345
 NY phased data points follow
  -1.07480E+02 -9.89361E+01 -1.00505E+02 -9.34593E+01 -8.75541E+01 -8.28139E+01 -8.26247E+01 -7.15574E+01 -6.93868E+01 -6.53761E+01
  -6.42206E+01 -6.25407E+01 -6.38001E+01 -6.88495E+01 -8.20343E+01 -7.66463E+01 -8.19368E+01 -8.28640E+01 -8.38778E+01 -8.39137E+01
  -8.11975E+01 -7.80622E+01 -7.44268E+01 -7.80126E+01 -7.34461E+01 -6.97706E+01 -7.29082E+01 -6.88363E+01 -6.55655E+01 -6.69401E+01
  -6.46170E+01 -6.38993E+01 -6.60426E+01 -6.46752E+01 -6.60151E+01 -6.80767E+01 -6.38064E+01 -6.53008E+01 -6.65246E+01 -5.92058E+01
  -5.86502E+01 -6.03834E+01 -5.84417E+01 -5.75826E+01 -5.74152E+01 -5.41026E+01 -5.28270E+01 -5.27120E+01 -5.33697E+01 -5.34053E+01
  -5.67926E+01 -5.70861E+01 -5.80648E+01 -5.69579E+01 -5.61849E+01 -5.66712E+01 -5.68926E+01 -5.36861E+01 -5.57149E+01 -5.68326E+01
  -5.31582E+01 -5.82049E+01 -5.69867E+01 -5.72235E+01 -5.87977E+01 -5.92571E+01 -5.76869E+01 -5.86694E+01 -5.84340E+01 -5.44591E+01
  -5.32534E+01 -5.36411E+01 -4.92781E+01 -4.93676E+01 -5.10905E+01 -4.86014E+01 -4.83254E+01 -4.89995E+01 -4.62821E+01 -4.86346E+01
  -4.60480E+01 -4.57015E+01 -4.42772E+01 -4.19210E+01 -4.47036E+01 -3.95215E+01 -4.67130E+01 -4.52224E+01 -4.36314E+01 -3.90738E+01
  -4.20046E+01 -4.19542E+01 -4.19923E+01 -3.99070E+01 -3.63441E+01 -3.14786E+01 -3.03714E+01 -2.32077E+01 -1.88265E+01 -9.52113E+00
  -5.40618E+00  3.25511E+00  7.99246E+00  9.34091E+00  3.73718E+00 -1.51337E+00 -8.84877E+00 -1.96380E+01 -2.87815E+01 -3.05776E+01
  -3.70285E+01 -3.16542E+01 -3.55736E+01 -3.24018E+01 -3.64884E+01 -3.50252E+01 -3.43061E+01 -3.53203E+01 -3.06691E+01 -2.82406E+01
  -2.67288E+01 -2.26343E+01 -1.77359E+01 -1.44755E+01 -5.73047E+00 -3.19806E+00  5.16507E+00  3.88084E+00  7.46222E+00  2.51248E+00
  -4.16364E+00 -1.43311E+01 -2.47252E+01 -2.59956E+01 -2.95709E+01 -3.02306E+01 -3.12967E+01 -3.25460E+01 -3.36612E+01 -3.28742E+01
  -3.01020E+01 -2.94604E+01 -3.34394E+01 -3.15863E+01 -3.38636E+01 -2.95640E+01 -2.97480E+01 -3.15697E+01 -3.12876E+01 -3.09277E+01
  -2.76745E+01 -3.24251E+01 -3.10361E+01 -2.94291E+01 -3.15818E+01 -3.16511E+01 -3.23336E+01 -3.24660E+01 -3.15466E+01 -2.94910E+01
  -3.16194E+01 -2.78943E+01 -3.29480E+01 -3.22352E+01 -3.21926E+01 -3.03446E+01 -2.73810E+01 -2.71222E+01 -3.31795E+01 -2.75863E+01
  -2.99519E+01 -3.25757E+01 -3.21083E+01 -3.23935E+01 -3.40252E+01 -3.26859E+01 -3.52956E+01 -3.75468E+01 -3.29426E+01 -2.88975E+01
  -3.28649E+01 -3.29520E+01 -3.30588E+01 -3.27466E+01 -3.38731E+01 -2.93748E+01 -2.71161E+01 -2.40186E+01 -2.36023E+01 -1.95697E+01
  -2.04900E+01 -1.77594E+01 -1.74118E+01 -1.89632E+01 -1.67500E+01 -1.84731E+01 -1.68148E+01 -1.71158E+01 -2.27700E+01 -1.72323E+01
  -2.08284E+01 -1.87078E+01 -1.77941E+01 -1.55353E+01 -1.82762E+01 -1.60032E+01 -2.51834E+01 -1.96589E+01 -2.06027E+01 -1.81414E+01
  -2.46044E+01 -1.65569E+01 -1.67324E+01 -1.29372E+01 -1.15156E+01 -9.31799E+00 -9.11629E+00 -1.25111E+01 -7.16951E+00 -1.20975E+01
  -1.05115E+01 -1.52442E+01 -1.79951E+01 -1.55874E+01 -1.27811E+01 -1.64018E+01 -8.35191E+00 -3.82467E+00 -6.00580E+00 -7.25116E+00
  -5.22953E+00 -9.00139E+00 -4.02699E+00 -8.80606E+00 -6.87774E+00 -7.13040E+00 -4.64390E+00 -6.53660E+00 -3.34622E+00 -6.31122E+00
  -1.10491E+01 -8.28519E+00 -7.67487E+00 -1.04422E+01 -8.75411E+00 -5.82903E+00 -3.23373E+00 -2.70611E+00 -2.98483E+00  1.13305E+00
   1.35209E+00  6.76533E+00  4.71355E+00  1.52989E+01  1.99189E+01  2.74074E+01  3.84294E+01  4.48688E+01  5.38979E+01  6.24127E+01
   7.02246E+01  7.05514E+01  6.55904E+01  5.10488E+01  4.15374E+01  2.29440E+01  1.22444E+01  6.21972E+00  2.22109E+00  1.87860E+00
  -8.83376E-01 -1.68025E-01  1.14733E+00  3.53747E+00 -3.49475E+00 -2.27992E-01 -4.11663E+00 -4.14778E+00 -4.11418E+00 -3.75805E+00
  -4.69711E+00 -7.12007E+00 -6.50777E+00 -3.50864E+00 -9.60548E+00 -4.35285E+00 -3.12177E+00 -5.59420E+00 -4.71769E+00 -6.06349E+00
  -8.40348E+00 -3.61969E+00 -6.94120E+00 -6.47061E+00 -5.36835E+00 -6.87702E+00 -5.95676E+00 -7.28077E+00 -5.38067E+00 -2.01400E+00
  -3.99663E+00 -1.72737E+00 -4.56472E+00 -4.60649E+00 -4.84281E+00 -4.65257E+00 -6.63174E-01 -2.50187E+00  1.44979E+00  1.90713E-01
   3.40992E+00  1.44461E+00  7.76243E-01  2.29219E+00  2.13054E+00 -3.81973E-01 -8.06984E-01 -1.37233E-01  7.69781E-01  1.50542E-01
   1.04581E+00  1.07530E+00 -2.65750E-01 -1.95685E-01  2.40234E-01 -1.29132E+00 -1.55196E+00  1.58297E+00 -8.58138E-01 -1.57559E+00
   1.64446E-01  1.59812E+00 -7.56927E-01  2.80504E-01 -1.80895E+00 -4.45372E-01 -1.62488E+00 -1.88999E+00 -2.97849E+00 -2.73292E+00
  -2.42120E+00 -2.59506E+00 -6.83886E-01 -1.84556E+00 -1.64052E+00 -7.17499E+00 -6.00101E-01 -2.15846E+00  1.40663E+00  3.66397E+00
  -5.31449E-01  1.93930E+00  3.61882E+00 -4.09001E-01 -9.39806E-01 -1.69458E+00 -4.36019E+00  9.56225E-01  1.96075E+00 -6.01361E-01
  -1.85018E+00  1.33616E+00 -1.01613E+00  3.26272E+00  3.53093E-01  1.57525E+00  2.28266E+00  3.93798E+00  6.40813E+00  1.25413E+00
   3.22012E+00  4.90777E+00  4.73735E+00  1.88410E+00  2.83941E+00  3.34611E+00  2.74030E+00  4.48117E+00  5.20995E+00 -1.80052E+00
   2.39194E+00  7.04258E-01  2.94479E+00  2.52235E+00  3.39434E+00  9.76072E-01  4.06621E+00  5.87930E+00  3.34928E+00  3.31299E+00
   5.16433E+00  5.92419E+00  2.35292E+00  3.94172E+00  6.37602E+00  5.26412E+00  7.45562E+00  4.48774E+00  6.92339E+00  5.36440E+00
   4.56901E+00  6.99219E+00  1.15069E+01  7.68275E+00  1.15234E+01  9.23692E+00  1.18251E+01  1.14145E+01  1.09181E+01  1.41305E+01
   1.69805E+01  1.39040E+01  1.72999E+01  1.46625E+01  1.53965E+01  1.35317E+01  1.24276E+01  1.10712E+01  1.12760E+01  8.55530E+00
   6.65163E+00  9.33905E+00  9.36759E+00  7.32632E+00  1.02713E+01  8.96899E+00  6.72403E+00  7.25785E+00  7.75963E+00  8.54759E+00
   5.01694E+00  8.30315E+00  5.00447E+00  5.89531E+00  4.33428E+00  5.16669E+00  3.90808E+00  1.97913E+00  7.90980E+00  2.64990E+00
   4.84801E+00  3.99756E+00  6.37951E+00  8.62476E+00  4.93194E+00  4.20688E+00  6.81646E+00  7.84828E+00  6.59362E+00  1.26333E+00
   1.44080E+00  6.34044E+00  8.27877E+00  9.31486E+00  5.08089E+00  7.54122E+00  3.43892E+00  9.54181E+00  4.97690E+00  7.85287E+00
   5.16267E+00  5.48182E+00  7.35202E+00  5.05558E+00  4.62461E+00  3.85005E+00  4.60094E+00  5.74667E+00  3.99867E+00  2.46634E+00
   6.27909E+00  1.03145E+01  2.26672E+00  5.72817E+00  6.26644E+00  5.12256E+00  4.33708E+00  8.25963E+00  4.94098E+00  5.12091E+00
   7.54987E+00  4.73097E+00  7.76154E+00  8.60013E+00  7.48822E+00  6.73324E+00  7.78670E+00  9.31527E+00  5.98196E+00  6.84523E+00
   7.26532E+00  6.48287E+00  7.98685E+00  7.63506E+00  5.38077E+00  9.42105E+00  5.25959E+00  5.74071E+00
 NY points of the fit to the data follow
  -9.69813E+01 -9.56418E+01 -9.26043E+01 -8.94893E+01 -8.64560E+01 -8.28180E+01 -7.89546E+01 -7.51049E+01 -7.10720E+01 -6.74869E+01
  -6.52690E+01 -6.49825E+01 -6.65784E+01 -6.96047E+01 -7.37377E+01 -7.74189E+01 -7.95858E+01 -8.03942E+01 -8.04621E+01 -8.06852E+01
  -8.10182E+01 -8.04291E+01 -7.88629E+01 -7.76742E+01 -7.61636E+01 -7.42206E+01 -7.21208E+01 -6.97259E+01 -6.70849E+01 -6.45566E+01
  -6.26932E+01 -6.21647E+01 -6.26319E+01 -6.38712E+01 -6.59048E+01 -6.74418E+01 -6.85063E+01 -6.88337E+01 -6.78799E+01 -6.66864E+01
  -6.52677E+01 -6.34334E+01 -6.11636E+01 -5.89067E+01 -5.68032E+01 -5.48535E+01 -5.35462E+01 -5.33196E+01 -5.40728E+01 -5.56430E+01
  -5.76143E+01 -5.94375E+01 -6.05404E+01 -6.03649E+01 -5.94967E+01 -5.85469E+01 -5.77589E+01 -5.69642E+01 -5.60449E+01 -5.53434E+01
  -5.50482E+01 -5.50821E+01 -5.53739E+01 -5.56681E+01 -5.58185E+01 -5.56519E+01 -5.49212E+01 -5.38248E+01 -5.27487E+01 -5.16806E+01
  -5.08170E+01 -5.01737E+01 -4.97076E+01 -4.94456E+01 -4.92432E+01 -4.91381E+01 -4.90450E+01 -4.87921E+01 -4.81823E+01 -4.71321E+01
  -4.67819E+01 -4.62116E+01 -4.53941E+01 -4.46941E+01 -4.39366E+01 -4.30600E+01 -4.24777E+01 -4.22817E+01 -4.24593E+01 -4.30760E+01
  -4.36671E+01 -4.42432E+01 -4.41276E+01 -4.30088E+01 -3.94733E+01 -3.29418E+01 -2.90875E+01 -2.42999E+01 -1.77018E+01 -1.11976E+01
  -4.47668E+00  2.81937E+00  8.23969E+00  9.81454E+00  6.93647E+00 -2.21683E-01 -9.73810E+00 -2.08276E+01 -2.91176E+01 -3.31952E+01
  -3.50723E+01 -3.55301E+01 -3.72784E+01 -3.81818E+01 -3.82198E+01 -3.80200E+01 -3.76660E+01 -3.70476E+01 -3.52244E+01 -3.05611E+01
  -2.62287E+01 -2.27299E+01 -1.75672E+01 -1.20259E+01 -6.64179E+00 -7.21688E-01  4.36156E+00  6.63758E+00  5.64150E+00  1.14093E+00
  -5.73903E+00 -1.40612E+01 -2.17311E+01 -2.60950E+01 -2.83923E+01 -2.94821E+01 -3.08798E+01 -3.23053E+01 -3.24011E+01 -3.17480E+01
  -3.08563E+01 -3.01071E+01 -2.96940E+01 -2.96940E+01 -2.98554E+01 -3.01291E+01 -3.04313E+01 -3.05512E+01 -3.06153E+01 -3.06185E+01
  -3.06316E+01 -3.06253E+01 -3.05899E+01 -3.06866E+01 -3.07601E+01 -3.06792E+01 -3.06061E+01 -3.04428E+01 -3.03554E+01 -3.04566E+01
  -3.05314E+01 -3.05658E+01 -3.05225E+01 -3.02962E+01 -2.99761E+01 -2.97186E+01 -2.96089E+01 -2.98403E+01 -3.03503E+01 -3.09982E+01
  -3.12903E+01 -3.13252E+01 -3.13716E+01 -3.14585E+01 -3.16087E+01 -3.16325E+01 -3.15105E+01 -3.12773E+01 -3.08755E+01 -3.05481E+01
  -3.02513E+01 -2.96537E+01 -2.91990E+01 -2.87242E+01 -2.79761E+01 -2.71454E+01 -2.60147E+01 -2.49172E+01 -2.38607E+01 -2.27135E+01
  -2.17363E+01 -2.10065E+01 -2.06619E+01 -2.08025E+01 -2.11547E+01 -2.13204E+01 -2.07800E+01 -1.97757E+01 -1.85961E+01 -1.72086E+01
  -1.60606E+01 -1.55134E+01 -1.51909E+01 -1.51489E+01 -1.58954E+01 -1.72323E+01 -1.87308E+01 -1.99675E+01 -2.08340E+01 -2.08912E+01
  -2.03133E+01 -1.88339E+01 -1.66730E+01 -1.45144E+01 -1.27478E+01 -1.17217E+01 -1.12969E+01 -1.13443E+01 -1.21603E+01 -1.35884E+01
  -1.52154E+01 -1.67480E+01 -1.73103E+01 -1.67988E+01 -1.55130E+01 -1.35926E+01 -1.18132E+01 -1.02405E+01 -8.93201E+00 -8.21793E+00
  -8.19119E+00 -8.21043E+00 -7.79754E+00 -7.34169E+00 -7.04686E+00 -6.46183E+00 -5.78100E+00 -5.26171E+00 -5.05374E+00 -5.23045E+00
  -5.71167E+00 -6.40999E+00 -7.02461E+00 -7.18859E+00 -6.65271E+00 -5.50486E+00 -4.05297E+00 -2.61916E+00 -1.27443E+00 -2.60917E-01
   4.18578E-01  1.76933E+00  6.92951E+00  1.61529E+01  2.13885E+01  2.83011E+01  3.74935E+01  4.59151E+01  5.43420E+01  6.33523E+01
   6.94109E+01  7.00926E+01  6.47889E+01  5.39251E+01  3.99251E+01  2.37709E+01  1.21731E+01  6.42476E+00  3.45932E+00  2.26265E+00
  -1.05098E+00 -2.75288E+00 -3.31377E+00 -3.59205E+00 -3.78491E+00 -3.88636E+00 -3.98972E+00 -4.12800E+00 -4.30744E+00 -4.51742E+00
  -4.72090E+00 -4.88590E+00 -5.00418E+00 -5.09310E+00 -5.16319E+00 -5.20123E+00 -5.21611E+00 -5.22452E+00 -5.22190E+00 -5.20732E+00
  -5.16890E+00 -5.10938E+00 -5.03018E+00 -4.92772E+00 -4.80059E+00 -4.64924E+00 -4.47121E+00 -4.26724E+00 -4.03498E+00 -3.77469E+00
  -3.48687E+00 -3.17372E+00 -2.83708E+00 -2.48195E+00 -2.11313E+00 -1.73784E+00 -1.36298E+00 -9.97134E-01 -6.48104E-01 -3.24207E-01
  -3.21106E-02  2.20674E-01  4.28771E-01  5.86788E-01  6.93007E-01  7.46665E-01  7.49888E-01  7.05465E-01  6.18962E-01  4.96259E-01
   3.45359E-01  1.73783E-01 -9.85216E-03 -1.98359E-01 -3.84177E-01 -5.61664E-01 -7.25201E-01 -8.71447E-01 -9.97345E-01 -1.10209E+00
  -1.18487E+00 -1.24670E+00 -1.28821E+00 -1.31157E+00 -1.31826E+00 -1.31088E+00 -1.29094E+00 -1.26071E+00 -1.22119E+00 -1.17415E+00
  -1.12007E+00 -1.06010E+00 -9.94040E-01 -9.22403E-01 -8.44536E-01 -7.60689E-01 -6.70099E-01 -5.72927E-01 -4.68377E-01 -3.56717E-01
  -2.37471E-01 -1.11373E-01  2.15528E-02  1.60121E-01  3.03868E-01  4.51124E-01  6.00876E-01  7.50960E-01  9.00019E-01  1.04575E+00
   1.18677E+00  1.32083E+00  1.44670E+00  1.56245E+00  1.66740E+00  1.76034E+00  1.84135E+00  1.90996E+00  1.96700E+00  2.01279E+00
   2.04897E+00  2.07662E+00  2.09796E+00  2.11450E+00  2.12876E+00  2.14250E+00  2.15841E+00  2.17833E+00  2.20489E+00  2.23976E+00
   2.28545E+00  2.34357E+00  2.41663E+00  2.50627E+00  2.61499E+00  2.74451E+00  2.89750E+00  3.07598E+00  3.28289E+00  3.52038E+00
   3.79139E+00  4.09794E+00  4.44261E+00  4.82678E+00  5.25194E+00  5.71783E+00  6.22383E+00  6.76712E+00  7.34408E+00  7.94854E+00
   8.57326E+00  9.20834E+00  9.84301E+00  1.04643E+01  1.10592E+01  1.16133E+01  1.21131E+01  1.25452E+01  1.28984E+01  1.31629E+01
   1.33322E+01  1.34021E+01  1.33725E+01  1.32456E+01  1.30276E+01  1.27268E+01  1.23545E+01  1.19230E+01  1.14462E+01  1.09379E+01
   1.04121E+01  9.88143E+00  9.35786E+00  8.85098E+00  8.36929E+00  7.91865E+00  7.50380E+00  7.12701E+00  6.78974E+00  6.49136E+00
   6.23098E+00  6.00619E+00  5.81482E+00  5.65363E+00  5.51995E+00  5.41036E+00  5.32231E+00  5.25273E+00  5.19952E+00  5.16008E+00
   5.13276E+00  5.11547E+00  5.10706E+00  5.10592E+00  5.11132E+00  5.12198E+00  5.13742E+00  5.15662E+00  5.17938E+00  5.20488E+00
   5.23308E+00  5.26327E+00  5.29546E+00  5.32908E+00  5.36426E+00  5.40052E+00  5.43804E+00  5.47633E+00  5.51559E+00  5.55541E+00
   5.59605E+00  5.63711E+00  5.67886E+00  5.72089E+00  5.76346E+00  5.80624E+00  5.84952E+00  5.89294E+00  5.93679E+00  5.98070E+00
   6.02498E+00  6.06930E+00  6.11400E+00  6.15872E+00  6.20376E+00  6.24878E+00  6.29411E+00  6.33944E+00  6.38509E+00  6.43072E+00
   6.47663E+00  6.52251E+00  6.56869E+00  6.61488E+00  6.66138E+00  6.70788E+00  6.75467E+00  6.80147E+00  6.84861E+00  6.89580E+00
   6.94334E+00  6.99093E+00  7.03887E+00  7.08689E+00  7.13534E+00  7.18393E+00  7.23297E+00  7.28216E+00
 NY background values follow
    -1.019E+02   -1.011E+02   -1.004E+02   -9.968E+01   -9.895E+01   -9.821E+01   -9.748E+01   -9.675E+01   -9.602E+01   -9.529E+01
    -9.457E+01   -9.384E+01   -9.312E+01   -9.239E+01   -9.167E+01   -9.095E+01   -9.024E+01   -8.952E+01   -8.881E+01   -8.810E+01
    -8.739E+01   -8.668E+01   -8.598E+01   -8.528E+01   -8.458E+01   -8.388E+01   -8.319E+01   -8.250E+01   -8.182E+01   -8.113E+01
    -8.046E+01   -7.978E+01   -7.911E+01   -7.844E+01   -7.777E+01   -7.711E+01   -7.646E+01   -7.581E+01   -7.516E+01   -7.451E+01
    -7.388E+01   -7.324E+01   -7.261E+01   -7.199E+01   -7.137E+01   -7.075E+01   -7.014E+01   -6.954E+01   -6.894E+01   -6.834E+01
    -6.775E+01   -6.717E+01   -6.659E+01   -6.602E+01   -6.545E+01   -6.489E+01   -6.433E+01   -6.378E+01   -6.323E+01   -6.269E+01
    -6.215E+01   -6.162E+01   -6.109E+01   -6.057E+01   -6.005E+01   -5.954E+01   -5.903E+01   -5.853E+01   -5.804E+01   -5.754E+01
    -5.706E+01   -5.658E+01   -5.610E+01   -5.563E+01   -5.517E+01   -5.471E+01   -5.425E+01   -5.380E+01   -5.336E+01   -5.292E+01
    -5.249E+01   -5.206E+01   -5.163E+01   -5.121E+01   -5.080E+01   -5.039E+01   -4.999E+01   -4.959E+01   -4.920E+01   -4.881E+01
    -4.843E+01   -4.805E+01   -4.768E+01   -4.731E+01   -4.695E+01   -4.659E+01   -4.624E+01   -4.589E+01   -4.555E+01   -4.521E+01
    -4.487E+01   -4.454E+01   -4.422E+01   -4.390E+01   -4.358E+01   -4.327E+01   -4.296E+01   -4.265E+01   -4.235E+01   -4.206E+01
    -4.176E+01   -4.147E+01   -4.118E+01   -4.090E+01   -4.062E+01   -4.034E+01   -4.007E+01   -3.980E+01   -3.953E+01   -3.927E+01
    -3.901E+01   -3.875E+01   -3.849E+01   -3.824E+01   -3.799E+01   -3.774E+01   -3.750E+01   -3.725E+01   -3.701E+01   -3.678E+01
    -3.654E+01   -3.630E+01   -3.607E+01   -3.584E+01   -3.561E+01   -3.538E+01   -3.516E+01   -3.493E+01   -3.471E+01   -3.449E+01
    -3.427E+01   -3.405E+01   -3.384E+01   -3.362E+01   -3.340E+01   -3.319E+01   -3.298E+01   -3.277E+01   -3.255E+01   -3.234E+01
    -3.213E+01   -3.192E+01   -3.171E+01   -3.151E+01   -3.130E+01   -3.109E+01   -3.088E+01   -3.068E+01   -3.047E+01   -3.026E+01
    -3.005E+01   -2.985E+01   -2.964E+01   -2.943E+01   -2.922E+01   -2.901E+01   -2.880E+01   -2.859E+01   -2.838E+01   -2.817E+01
    -2.796E+01   -2.775E+01   -2.753E+01   -2.732E+01   -2.710E+01   -2.689E+01   -2.667E+01   -2.645E+01   -2.623E+01   -2.601E+01
    -2.579E+01   -2.556E+01   -2.534E+01   -2.511E+01   -2.488E+01   -2.465E+01   -2.442E+01   -2.419E+01   -2.395E+01   -2.372E+01
    -2.348E+01   -2.325E+01   -2.301E+01   -2.277E+01   -2.254E+01   -2.230E+01   -2.206E+01   -2.183E+01   -2.159E+01   -2.135E+01
    -2.112E+01   -2.088E+01   -2.064E+01   -2.041E+01   -2.017E+01   -1.994E+01   -1.971E+01   -1.947E+01   -1.924E+01   -1.901E+01
    -1.879E+01   -1.856E+01   -1.833E+01   -1.811E+01   -1.789E+01   -1.767E+01   -1.745E+01   -1.723E+01   -1.702E+01   -1.680E+01
    -1.659E+01   -1.638E+01   -1.618E+01   -1.598E+01   -1.578E+01   -1.558E+01   -1.539E+01   -1.519E+01   -1.501E+01   -1.482E+01
    -1.464E+01   -1.446E+01   -1.428E+01   -1.411E+01   -1.393E+01   -1.377E+01   -1.360E+01   -1.343E+01   -1.327E+01   -1.311E+01
    -1.296E+01   -1.280E+01   -1.265E+01   -1.250E+01   -1.236E+01   -1.221E+01   -1.207E+01   -1.193E+01   -1.179E+01   -1.165E+01
    -1.152E+01   -1.138E+01   -1.125E+01   -1.113E+01   -1.100E+01   -1.087E+01   -1.075E+01   -1.063E+01   -1.051E+01   -1.039E+01
    -1.027E+01   -1.016E+01   -1.004E+01   -9.932E+00   -9.821E+00   -9.711E+00   -9.603E+00   -9.496E+00   -9.390E+00   -9.286E+00
    -9.183E+00   -9.081E+00   -8.979E+00   -8.879E+00   -8.780E+00   -8.682E+00   -8.585E+00   -8.489E+00   -8.394E+00   -8.300E+00
    -8.206E+00   -8.113E+00   -8.022E+00   -7.930E+00   -7.840E+00   -7.750E+00   -7.661E+00   -7.573E+00   -7.485E+00   -7.398E+00
    -7.312E+00   -7.226E+00   -7.140E+00   -7.055E+00   -6.971E+00   -6.886E+00   -6.803E+00   -6.719E+00   -6.636E+00   -6.554E+00
    -6.471E+00   -6.389E+00   -6.307E+00   -6.225E+00   -6.144E+00   -6.062E+00   -5.981E+00   -5.900E+00   -5.818E+00   -5.737E+00
    -5.656E+00   -5.575E+00   -5.494E+00   -5.412E+00   -5.331E+00   -5.250E+00   -5.168E+00   -5.086E+00   -5.004E+00   -4.921E+00
    -4.839E+00   -4.756E+00   -4.674E+00   -4.591E+00   -4.508E+00   -4.424E+00   -4.341E+00   -4.258E+00   -4.174E+00   -4.091E+00
    -4.007E+00   -3.924E+00   -3.840E+00   -3.756E+00   -3.673E+00   -3.589E+00   -3.505E+00   -3.422E+00   -3.338E+00   -3.255E+00
    -3.171E+00   -3.088E+00   -3.004E+00   -2.921E+00   -2.838E+00   -2.755E+00   -2.672E+00   -2.589E+00   -2.507E+00   -2.424E+00
    -2.342E+00   -2.260E+00   -2.178E+00   -2.096E+00   -2.015E+00   -1.934E+00   -1.853E+00   -1.772E+00   -1.691E+00   -1.611E+00
    -1.531E+00   -1.452E+00   -1.372E+00   -1.293E+00   -1.215E+00   -1.136E+00   -1.058E+00   -9.802E-01   -9.027E-01   -8.255E-01
    -7.486E-01   -6.720E-01   -5.956E-01   -5.195E-01   -4.437E-01   -3.681E-01   -2.928E-01   -2.178E-01   -1.430E-01   -6.842E-02
     5.882E-03    7.995E-02    1.538E-01    2.274E-01    3.008E-01    3.739E-01    4.468E-01    5.196E-01    5.921E-01    6.644E-01
     7.365E-01    8.084E-01    8.801E-01    9.516E-01    1.023E+00    1.094E+00    1.165E+00    1.236E+00    1.307E+00    1.377E+00
     1.447E+00    1.517E+00    1.587E+00    1.657E+00    1.727E+00    1.797E+00    1.866E+00    1.935E+00    2.005E+00    2.074E+00
     2.143E+00    2.211E+00    2.280E+00    2.348E+00    2.417E+00    2.485E+00    2.553E+00    2.620E+00    2.688E+00    2.755E+00
     2.822E+00    2.889E+00    2.956E+00    3.023E+00    3.089E+00    3.155E+00    3.221E+00    3.286E+00    3.352E+00    3.417E+00
     3.481E+00    3.546E+00    3.610E+00    3.674E+00    3.738E+00    3.801E+00    3.864E+00    3.927E+00    3.990E+00    4.052E+00
     4.114E+00    4.175E+00    4.236E+00    4.297E+00    4.358E+00    4.418E+00    4.478E+00    4.537E+00    4.596E+00    4.655E+00
     4.713E+00    4.771E+00    4.829E+00    4.886E+00    4.943E+00    4.999E+00    5.055E+00    5.111E+00    5.166E+00    5.221E+00
     5.276E+00    5.330E+00    5.384E+00    5.438E+00    5.492E+00    5.545E+00    5.598E+00    5.651E+00    5.703E+00    5.756E+00
     5.808E+00    5.860E+00    5.912E+00    5.963E+00    6.015E+00    6.066E+00    6.117E+00    6.168E+00    6.219E+00    6.270E+00
     6.320E+00    6.371E+00    6.422E+00    6.472E+00    6.522E+00    6.573E+00    6.623E+00    6.674E+00    6.724E+00    6.774E+00
     6.825E+00    6.875E+00    6.925E+00    6.976E+00    7.026E+00    7.077E+00    7.128E+00    7.178E+00
 Cr       Conc. = 5.82E+02
