 LCModel (Version 6.3-1L) Copyright: S.W. Provencher.          Ref.: Magn. Reson. Med. 30:672-679 (1993).                
 Slice#2 Row#13 Col#13  PD_05_press_1_raw_act
 36 lines in following concentration table = NCONC+1
    Conc.  %SD /Cr+PCr  Metabolite                                         
   56.121  49%   5.532 Ala                                                 
    1.482 221%   0.146 Asp                                                 
   10.144  99%   1.000 Cr                                                  
    0.000 999%   0.000 PCr                                                 
    1.016 193%   0.100 GABA                                                
    1.110 177%   0.109 Glc                                                 
    0.000 999%   0.000 Gln                                                 
    0.000 999%   0.000 Glu                                                 
    0.000 999%   0.000 GPC                                                 
    6.441  59%   0.635 PCh                                                 
   37.838  41%   3.730 GSH                                                 
    0.000 999%   0.000 Ins                                                 
   89.227  46%   8.796 Lac                                                 
    3.030 404%   0.299 NAA                                                 
    0.000 999%   0.000 NAAG                                                
    0.340 192% 3.4E-02 Scyllo                                              
    1.686 193%   0.166 Tau                                                 
    0.712 787% 7.0E-02 -CrCH2                                              
    6.441  59%   0.635 GPC+PCh                                             
    3.030 404%   0.299 NAA+NAAG                                            
   10.144  99%   1.000 Cr+PCr                                              
    0.000 999%   0.000 Glu+Gln                                             
 1.75E+03  20% 172.418 Lip13a                                              
  264.345  25%  26.059 Lip13b                                              
  549.269  21%  54.147 Lip09                                               
  538.855  18%  53.120 MM09                                                
   55.933 129%   5.514 Lip20                                               
    0.000 999%   0.000 MM20                                                
  190.862  42%  18.815 MM12                                                
 2.13E+03  12% 209.560+MM14                                                
  805.351  21%  79.391 MM17                                                
 2.01E+03  17% 198.477 Lip13a+Lip13b                                       
 4.33E+03   7% 426.853 MM14+Lip13a+Lip13b+MM12                             
 1.09E+03  11% 107.267 MM09+Lip09                                          
   55.933 129%   5.514 MM20+Lip20                                          
   6 lines in following misc. output table
  FWHM = 0.061 ppm    S/N =   9                                            
  Data shift = 0.008 ppm                                                   
  Ph:  32 deg     -20.5 deg/ppm                                            
  alphaB,S = 1.2E+00,   4.4E+01                                            
   14 spline knots.   Ns = 5(1)                                            
  ( 7) 2 infls.   ( 9) 1 extrs.                                            
  498 points on ppm-axis = NY
      4.000000     3.992357     3.984714     3.977070     3.969427     3.961784     3.954141     3.946497     3.938854     3.931211
      3.923568     3.915925     3.908281     3.900638     3.892995     3.885352     3.877708     3.870065     3.862422     3.854779
      3.847136     3.839492     3.831849     3.824206     3.816563     3.808919     3.801276     3.793633     3.785990     3.778347
      3.770703     3.763060     3.755417     3.747774     3.740130     3.732487     3.724844     3.717201     3.709558     3.701914
      3.694271     3.686628     3.678985     3.671341     3.663698     3.656055     3.648412     3.640769     3.633125     3.625482
      3.617839     3.610196     3.602552     3.594909     3.587266     3.579623     3.571980     3.564336     3.556693     3.549050
      3.541407     3.533763     3.526120     3.518477     3.510834     3.503191     3.495547     3.487904     3.480261     3.472618
      3.464974     3.457331     3.449688     3.442045     3.434402     3.426758     3.419115     3.411472     3.403829     3.396185
      3.388542     3.380899     3.373256     3.365613     3.357969     3.350326     3.342683     3.335040     3.327396     3.319753
      3.312110     3.304467     3.296824     3.289180     3.281537     3.273894     3.266251     3.258607     3.250964     3.243321
      3.235678     3.228034     3.220391     3.212748     3.205105     3.197462     3.189818     3.182175     3.174532     3.166889
      3.159245     3.151602     3.143959     3.136316     3.128673     3.121029     3.113386     3.105743     3.098100     3.090456
      3.082813     3.075170     3.067527     3.059884     3.052240     3.044597     3.036954     3.029311     3.021667     3.014024
      3.006381     2.998738     2.991095     2.983451     2.975808     2.968165     2.960522     2.952878     2.945235     2.937592
      2.929949     2.922306     2.914662     2.907019     2.899376     2.891733     2.884089     2.876446     2.868803     2.861160
      2.853517     2.845873     2.838230     2.830587     2.822944     2.815300     2.807657     2.800014     2.792371     2.784728
      2.777084     2.769441     2.761798     2.754155     2.746511     2.738868     2.731225     2.723582     2.715939     2.708295
      2.700652     2.693009     2.685366     2.677722     2.670079     2.662436     2.654793     2.647150     2.639506     2.631863
      2.624220     2.616577     2.608933     2.601290     2.593647     2.586004     2.578361     2.570717     2.563074     2.555431
      2.547788     2.540144     2.532501     2.524858     2.517215     2.509572     2.501928     2.494285     2.486642     2.478999
      2.471355     2.463712     2.456069     2.448426     2.440783     2.433139     2.425496     2.417853     2.410210     2.402566
      2.394923     2.387280     2.379637     2.371994     2.364350     2.356707     2.349064     2.341421     2.333777     2.326134
      2.318491     2.310848     2.303205     2.295561     2.287918     2.280275     2.272632     2.264988     2.257345     2.249702
      2.242059     2.234416     2.226772     2.219129     2.211486     2.203843     2.196199     2.188556     2.180913     2.173270
      2.165627     2.157983     2.150340     2.142697     2.135054     2.127410     2.119767     2.112124     2.104481     2.096838
      2.089194     2.081551     2.073908     2.066265     2.058621     2.050978     2.043335     2.035692     2.028049     2.020405
      2.012762     2.005119     1.997476     1.989833     1.982190     1.974546     1.966903     1.959260     1.951617     1.943974
      1.936331     1.928688     1.921045     1.913402     1.905759     1.898115     1.890472     1.882829     1.875186     1.867543
      1.859900     1.852257     1.844614     1.836971     1.829327     1.821684     1.814041     1.806398     1.798755     1.791112
      1.783469     1.775826     1.768183     1.760540     1.752896     1.745253     1.737610     1.729967     1.722324     1.714681
      1.707038     1.699395     1.691752     1.684108     1.676465     1.668822     1.661179     1.653536     1.645893     1.638250
      1.630607     1.622964     1.615321     1.607677     1.600034     1.592391     1.584748     1.577105     1.569462     1.561819
      1.554176     1.546533     1.538890     1.531246     1.523603     1.515960     1.508317     1.500674     1.493031     1.485388
      1.477745     1.470102     1.462458     1.454815     1.447172     1.439529     1.431886     1.424243     1.416600     1.408957
      1.401314     1.393671     1.386027     1.378384     1.370741     1.363098     1.355455     1.347812     1.340169     1.332526
      1.324883     1.317240     1.309596     1.301953     1.294310     1.286667     1.279024     1.271381     1.263738     1.256095
      1.248452     1.240808     1.233165     1.225522     1.217879     1.210236     1.202593     1.194950     1.187307     1.179664
      1.172021     1.164377     1.156734     1.149091     1.141448     1.133805     1.126162     1.118519     1.110876     1.103233
      1.095590     1.087946     1.080303     1.072660     1.065017     1.057374     1.049731     1.042088     1.034445     1.026802
      1.019158     1.011515     1.003872     0.996229     0.988586     0.980943     0.973300     0.965657     0.958014     0.950371
      0.942727     0.935084     0.927441     0.919798     0.912155     0.904512     0.896869     0.889226     0.881583     0.873940
      0.866296     0.858653     0.851010     0.843367     0.835724     0.828081     0.820438     0.812795     0.805152     0.797508
      0.789865     0.782222     0.774579     0.766936     0.759293     0.751650     0.744007     0.736364     0.728721     0.721077
      0.713434     0.705791     0.698148     0.690505     0.682862     0.675219     0.667576     0.659933     0.652290     0.644646
      0.637003     0.629360     0.621717     0.614074     0.606431     0.598788     0.591145     0.583502     0.575858     0.568215
      0.560572     0.552929     0.545286     0.537643     0.530000     0.522357     0.514714     0.507071     0.499427     0.491784
      0.484141     0.476498     0.468855     0.461212     0.453569     0.445925     0.438282     0.430639     0.422996     0.415353
      0.407710     0.400067     0.392424     0.384780     0.377137     0.369494     0.361851     0.354208     0.346565     0.338922
      0.331278     0.323635     0.315992     0.308349     0.300706     0.293063     0.285420     0.277777     0.270133     0.262490
      0.254847     0.247204     0.239561     0.231918     0.224275     0.216631     0.208988     0.201345
 NY phased data points follow
   2.39688E+00  2.72696E+00  7.07897E-01  1.88977E+00  2.31685E+00  2.42693E+00  1.00377E+00  2.01773E+00  2.34151E+00  1.53264E+00
   2.53547E+00  1.59255E+00  1.09198E+00  2.47027E+00  2.45922E+00  1.71625E+00  1.74584E+00  1.88445E+00  1.53164E+00  1.69209E+00
   2.05579E+00  1.85966E+00  1.32434E+00  2.24501E+00  1.78225E+00  1.83865E+00  1.49027E+00  2.60816E+00  1.86083E+00  3.08620E+00
   2.38629E+00  2.49606E+00  2.98884E+00  1.86638E+00  1.49900E+00  2.53894E+00  2.14370E+00  1.56328E+00  1.80998E+00  1.65509E+00
   1.02371E+00  8.81503E-01  1.58713E+00  8.17722E-01  2.11463E+00  1.25835E+00  1.26849E+00  2.33941E-01  2.24189E+00  9.80040E-01
   7.11631E-01  1.61679E+00  1.47607E+00  2.55045E+00  7.22458E-01  7.14852E-01  1.65271E+00  1.03265E+00  1.61295E+00  4.09883E-01
   6.23701E-01  1.99257E+00  1.16928E+00  7.89727E-01  1.53451E+00  9.60541E-01  1.24540E+00  2.04745E+00  9.21484E-01  8.64407E-01
   1.69656E+00  2.06575E+00  1.06257E+00  6.53609E-01  2.04640E+00  1.87311E+00  1.97737E+00  2.00692E+00  1.95613E+00  2.75696E+00
   1.37371E+00  1.81008E+00  1.79103E+00  1.95728E+00  1.03181E+00  6.52998E-01  8.59648E-01  5.83285E-01  2.10094E+00  1.88249E+00
   1.88397E+00  1.76564E+00  2.74168E-01  1.76547E+00  1.35343E+00  9.11528E-01  1.09900E+00  5.58628E-01  7.93336E-01  1.16328E+00
   1.40454E+00  2.85461E+00  1.43856E+00  1.49786E+00  1.56384E+00  1.64299E+00  2.30024E+00  9.89016E-01  1.84350E+00  1.39932E+00
   1.09093E+00  7.03863E-01  6.74842E-01  3.88397E-01  1.71685E+00  3.70593E-01  1.99746E+00  1.64897E+00  6.13039E-01  1.63961E+00
   5.27774E-01 -1.38134E-02  1.98489E+00  1.83655E+00  6.87310E-01  2.47336E+00  5.19472E-01  1.51509E+00  4.39726E-01  9.16515E-01
   2.49925E+00  3.16692E+00  5.50660E-01  9.93645E-01  1.55907E+00  1.67692E+00  8.28473E-01  1.82985E-01  1.23882E+00  4.02879E-01
   2.18087E+00  2.54347E+00  3.14451E-01  2.14089E+00  2.34477E+00  1.53640E+00  5.22871E-01  9.47823E-01  6.31250E-02  1.13143E+00
   1.25917E+00  1.14741E+00  1.29623E+00  4.94042E-01  1.62445E+00  2.19554E+00  1.15103E+00  9.31732E-01  9.04900E-02  2.46750E+00
   1.52882E+00  2.03870E+00  1.06734E+00  1.36649E+00  9.17398E-01  1.13892E+00  3.26508E-01  1.95102E+00  1.12517E+00  1.24148E+00
  -1.38936E-01  4.63922E-01  8.52538E-01  1.29485E+00  2.17587E+00  1.58227E+00  3.15569E-01  1.45041E+00  1.30669E+00  3.19257E-01
   1.58906E-01  1.95429E+00  1.06474E+00  3.07273E+00  1.78259E+00  2.01842E-01  1.33843E+00  1.00819E+00  2.03987E+00 -4.66939E-02
   1.35636E+00  1.40440E+00  1.64294E+00  1.94109E+00  1.29464E+00  7.23301E-01  1.57478E+00  1.27834E+00  1.61780E+00 -5.44350E-02
   1.40440E+00  6.43785E-01  1.59712E+00  1.23322E+00 -5.75135E-01  1.23859E+00  1.88213E+00  1.92402E+00  6.04229E-01  2.45080E-01
   1.31267E+00  5.94138E-01  1.38350E-01  7.82937E-01  5.72918E-02  4.73493E-02  8.18903E-01 -9.35923E-01  8.99123E-01  8.80216E-01
   8.55414E-01  1.66358E+00  1.36679E+00  3.51099E-01  7.35700E-01 -1.23530E-01  9.58169E-01  1.43764E+00  6.63891E-01  3.25812E-01
   1.72331E+00  9.29328E-01  9.31709E-01  8.04201E-01  9.27074E-01  9.05401E-01  1.49095E+00  8.94959E-01  1.76268E+00  9.62838E-01
   5.41895E-01  9.19189E-01  2.69982E+00  1.42863E+00  1.65987E+00  1.68198E+00  2.32401E+00  1.77272E+00  8.22397E-01  1.10193E+00
   1.37006E+00  1.17713E+00  1.46731E+00  1.33340E+00  8.51501E-01  5.81980E-01  1.96736E+00  1.07833E+00  9.68448E-01  1.37368E+00
   2.20993E+00  2.58910E+00  3.23606E+00  2.21448E+00  2.50518E+00  1.94592E+00  3.07553E+00  1.93967E+00  2.02462E+00  1.78834E+00
   3.24407E+00  2.50974E+00  2.65075E+00  1.75345E+00  3.13264E+00  2.87583E+00  2.28422E+00  2.70757E+00  3.72311E+00  3.23700E+00
   2.61677E+00  2.21091E+00  3.11904E+00  3.36579E+00  4.31024E+00  4.04883E+00  3.68047E+00  2.32755E+00  4.30732E+00  4.29796E+00
   3.55393E+00  4.15659E+00  4.70373E+00  5.53691E+00  4.33810E+00  5.19313E+00  5.75888E+00  4.99133E+00  5.97996E+00  5.63604E+00
   6.71553E+00  6.49371E+00  5.44536E+00  5.94264E+00  5.93046E+00  8.68577E+00  7.27158E+00  5.77077E+00  7.60167E+00  8.79405E+00
   8.90560E+00  9.67216E+00  9.38717E+00  9.53829E+00  1.04327E+01  9.98925E+00  1.08251E+01  1.08397E+01  1.17195E+01  1.28335E+01
   1.20336E+01  1.45367E+01  1.40006E+01  1.50944E+01  1.57416E+01  1.52410E+01  1.44684E+01  1.57904E+01  1.68359E+01  1.66333E+01
   1.68796E+01  1.65486E+01  1.86250E+01  1.69363E+01  1.67117E+01  1.72344E+01  1.79459E+01  1.70701E+01  1.78248E+01  1.68306E+01
   1.66705E+01  1.64310E+01  1.78610E+01  1.57610E+01  1.62936E+01  1.65326E+01  1.50963E+01  1.48823E+01  1.46935E+01  1.45544E+01
   1.39251E+01  1.45814E+01  1.34811E+01  1.32946E+01  1.35488E+01  1.31573E+01  1.19425E+01  1.21833E+01  1.16190E+01  1.13935E+01
   1.06620E+01  9.51428E+00  9.50727E+00  8.82096E+00  7.44028E+00  8.42302E+00  7.53232E+00  7.96274E+00  9.38393E+00  8.60207E+00
   8.79455E+00  7.00802E+00  7.69404E+00  8.46860E+00  8.52889E+00  7.66491E+00  8.70961E+00  8.02606E+00  7.51707E+00  9.24242E+00
   8.82190E+00  9.52188E+00  7.76219E+00  7.33934E+00  8.05620E+00  8.38028E+00  8.06082E+00  8.34126E+00  7.95565E+00  7.07468E+00
   6.89094E+00  6.56678E+00  7.31969E+00  7.74734E+00  7.08794E+00  6.03513E+00  7.42124E+00  6.26488E+00  6.68533E+00  6.58986E+00
   5.61213E+00  7.68734E+00  6.10981E+00  6.76846E+00  7.55942E+00  6.33403E+00  6.20249E+00  5.92404E+00  4.86505E+00  6.30674E+00
   5.99052E+00  5.06888E+00  5.26905E+00  4.05170E+00  5.03175E+00  4.10175E+00  4.64009E+00  5.28014E+00  3.80696E+00  4.09411E+00
   4.86701E+00  4.00617E+00  4.82877E+00  4.07613E+00  3.35036E+00  3.15503E+00  3.61578E+00  4.00743E+00  4.20085E+00  4.03616E+00
   4.13156E+00  3.09936E+00  3.90818E+00  3.73992E+00  3.07547E+00  2.52126E+00  2.66596E+00  5.02237E+00  2.48961E+00  3.31719E+00
   3.40527E+00  3.42144E+00  2.90023E+00  3.50763E+00  2.94895E+00  2.60740E+00  2.68911E+00  2.20711E+00  2.40158E+00  2.25800E+00
   4.03809E+00  2.29782E+00  3.18563E+00  2.41781E+00  2.66793E+00  1.94019E+00  2.11863E+00  1.85849E+00  2.91686E+00  2.38295E+00
   2.19476E+00  3.29161E+00  1.74521E+00  2.90697E+00  2.09800E+00  2.66128E+00  8.75413E-01  2.47957E+00  2.75927E+00  3.16420E+00
   2.08353E+00  1.91699E+00  1.28337E+00  1.49426E+00  3.35575E+00  2.75625E+00  1.74604E+00  1.36272E+00  1.48154E+00  2.17917E+00
   2.21593E+00  2.88125E+00  5.79372E-01  2.79500E+00  8.02378E-01  1.22421E+00  3.03947E+00  1.23531E+00  2.04688E+00  1.02464E+00
   1.94301E+00  2.49908E+00  2.14130E+00  2.28293E+00 -1.40769E-01  2.33602E+00  8.65156E-01  2.26310E+00
 NY points of the fit to the data follow
   1.72482E+00  1.72207E+00  1.73126E+00  1.74730E+00  1.75888E+00  1.76104E+00  1.77771E+00  1.82006E+00  1.86874E+00  1.90506E+00
   1.92226E+00  1.92395E+00  1.91339E+00  1.88671E+00  1.84612E+00  1.79767E+00  1.74870E+00  1.71210E+00  1.70399E+00  1.71781E+00
   1.74107E+00  1.75536E+00  1.74598E+00  1.71633E+00  1.69559E+00  1.77058E+00  1.94098E+00  2.10886E+00  2.22103E+00  2.28447E+00
   2.31953E+00  2.33128E+00  2.31556E+00  2.25143E+00  2.13052E+00  1.96531E+00  1.79977E+00  1.70409E+00  1.65708E+00  1.61473E+00
   1.58188E+00  1.56072E+00  1.54184E+00  1.52201E+00  1.50760E+00  1.50253E+00  1.50265E+00  1.50105E+00  1.49643E+00  1.49207E+00
   1.48762E+00  1.48284E+00  1.47721E+00  1.47078E+00  1.46439E+00  1.45800E+00  1.45121E+00  1.44392E+00  1.43570E+00  1.42715E+00
   1.41934E+00  1.41237E+00  1.40614E+00  1.40015E+00  1.39420E+00  1.38794E+00  1.38121E+00  1.37433E+00  1.36759E+00  1.36101E+00
   1.35526E+00  1.35103E+00  1.34753E+00  1.34376E+00  1.33910E+00  1.33324E+00  1.32667E+00  1.31985E+00  1.31303E+00  1.30622E+00
   1.29962E+00  1.29503E+00  1.29357E+00  1.29356E+00  1.29259E+00  1.28974E+00  1.28527E+00  1.27973E+00  1.27301E+00  1.26465E+00
   1.25448E+00  1.24318E+00  1.23242E+00  1.22472E+00  1.22075E+00  1.21891E+00  1.21930E+00  1.22845E+00  1.28343E+00  1.41627E+00
   1.57478E+00  1.70113E+00  1.77056E+00  1.79102E+00  1.78017E+00  1.74504E+00  1.68025E+00  1.58020E+00  1.45121E+00  1.31848E+00
   1.22749E+00  1.19432E+00  1.18114E+00  1.17354E+00  1.16839E+00  1.16251E+00  1.15473E+00  1.14609E+00  1.13811E+00  1.13280E+00
   1.13365E+00  1.14687E+00  1.19597E+00  1.27966E+00  1.36555E+00  1.43039E+00  1.46923E+00  1.49083E+00  1.51214E+00  1.53856E+00
   1.54100E+00  1.49186E+00  1.39350E+00  1.27265E+00  1.17377E+00  1.11290E+00  1.07905E+00  1.07230E+00  1.08280E+00  1.10554E+00
   1.14571E+00  1.20209E+00  1.25359E+00  1.28557E+00  1.29467E+00  1.27923E+00  1.24719E+00  1.21115E+00  1.17918E+00  1.15844E+00
   1.14234E+00  1.12904E+00  1.11958E+00  1.11361E+00  1.10973E+00  1.10715E+00  1.10626E+00  1.10634E+00  1.10675E+00  1.10701E+00
   1.10623E+00  1.10289E+00  1.09685E+00  1.09069E+00  1.08606E+00  1.08265E+00  1.07996E+00  1.07773E+00  1.07642E+00  1.07605E+00
   1.07498E+00  1.07140E+00  1.06509E+00  1.05702E+00  1.04851E+00  1.03994E+00  1.03058E+00  1.02045E+00  1.01027E+00  1.00211E+00
   9.92746E-01  9.79578E-01  9.64330E-01  9.50615E-01  9.44412E-01  9.54632E-01  9.86883E-01  1.03782E+00  1.09406E+00  1.13997E+00
   1.16792E+00  1.17554E+00  1.15421E+00  1.09887E+00  1.03202E+00  9.77460E-01  9.45445E-01  9.37514E-01  9.51079E-01  9.82738E-01
   1.02741E+00  1.07863E+00  1.12965E+00  1.17134E+00  1.19365E+00  1.19524E+00  1.19266E+00  1.19365E+00  1.19657E+00  1.19918E+00
   1.20023E+00  1.20089E+00  1.20234E+00  1.20506E+00  1.20914E+00  1.21514E+00  1.22387E+00  1.23535E+00  1.24940E+00  1.26573E+00
   1.28330E+00  1.30025E+00  1.31536E+00  1.32933E+00  1.34233E+00  1.35254E+00  1.35168E+00  1.33344E+00  1.30986E+00  1.29720E+00
   1.30370E+00  1.33059E+00  1.37956E+00  1.44890E+00  1.51450E+00  1.55422E+00  1.56421E+00  1.55124E+00  1.51835E+00  1.46795E+00
   1.41794E+00  1.38897E+00  1.38805E+00  1.41533E+00  1.47037E+00  1.54535E+00  1.61889E+00  1.67757E+00  1.71838E+00  1.74092E+00
   1.74715E+00  1.74201E+00  1.73746E+00  1.74348E+00  1.75997E+00  1.79052E+00  1.83718E+00  1.88990E+00  1.93819E+00  1.97615E+00
   2.00458E+00  2.02638E+00  2.04374E+00  2.05648E+00  2.06434E+00  2.06890E+00  2.07486E+00  2.08966E+00  2.11464E+00  2.14410E+00
   2.17655E+00  2.21207E+00  2.25088E+00  2.29306E+00  2.33870E+00  2.38803E+00  2.44118E+00  2.49839E+00  2.56021E+00  2.62723E+00
   2.70014E+00  2.77974E+00  2.86676E+00  2.96192E+00  3.06591E+00  3.17927E+00  3.30257E+00  3.43633E+00  3.58094E+00  3.73673E+00
   3.90391E+00  4.08250E+00  4.27237E+00  4.47315E+00  4.68417E+00  4.90448E+00  5.13293E+00  5.36809E+00  5.60837E+00  5.85207E+00
   6.09757E+00  6.34335E+00  6.58812E+00  6.83099E+00  7.07155E+00  7.31006E+00  7.54747E+00  7.78554E+00  8.02676E+00  8.27439E+00
   8.53232E+00  8.80497E+00  9.09705E+00  9.41334E+00  9.75838E+00  1.01362E+01  1.05502E+01  1.10029E+01  1.14960E+01  1.20308E+01
   1.26109E+01  1.32492E+01  1.39562E+01  1.46373E+01  1.51988E+01  1.56297E+01  1.59633E+01  1.62295E+01  1.64262E+01  1.65394E+01
   1.66420E+01  1.68107E+01  1.70363E+01  1.72839E+01  1.75077E+01  1.76275E+01  1.76270E+01  1.75296E+01  1.73430E+01  1.70718E+01
   1.67363E+01  1.64103E+01  1.62383E+01  1.61587E+01  1.60002E+01  1.57329E+01  1.54096E+01  1.50802E+01  1.47355E+01  1.43474E+01
   1.40189E+01  1.38036E+01  1.36521E+01  1.35161E+01  1.33682E+01  1.31227E+01  1.27527E+01  1.23057E+01  1.17988E+01  1.12311E+01
   1.06089E+01  9.99173E+00  9.50303E+00  9.14801E+00  8.87484E+00  8.65641E+00  8.47670E+00  8.32525E+00  8.19552E+00  8.08377E+00
   7.98827E+00  7.90844E+00  7.84428E+00  7.79592E+00  7.76338E+00  7.74636E+00  7.74407E+00  7.75518E+00  7.77779E+00  7.80943E+00
   7.84723E+00  7.88801E+00  7.92832E+00  7.96467E+00  7.99363E+00  8.01202E+00  8.01714E+00  8.00679E+00  7.97947E+00  7.93435E+00
   7.87133E+00  7.79106E+00  7.69487E+00  7.58465E+00  7.46271E+00  7.33161E+00  7.19409E+00  7.05282E+00  6.91036E+00  6.76894E+00
   6.63042E+00  6.49619E+00  6.36720E+00  6.24393E+00  6.12643E+00  6.01436E+00  5.90708E+00  5.80369E+00  5.70317E+00  5.60445E+00
   5.50648E+00  5.40827E+00  5.30899E+00  5.20796E+00  5.10471E+00  4.99902E+00  4.89084E+00  4.78030E+00  4.66773E+00  4.55359E+00
   4.43844E+00  4.32295E+00  4.20780E+00  4.09369E+00  3.98128E+00  3.87122E+00  3.76410E+00  3.66042E+00  3.56061E+00  3.46499E+00
   3.37381E+00  3.28725E+00  3.20540E+00  3.12829E+00  3.05587E+00  2.98803E+00  2.92466E+00  2.86559E+00  2.81063E+00  2.75957E+00
   2.71219E+00  2.66826E+00  2.62757E+00  2.58989E+00  2.55502E+00  2.52275E+00  2.49287E+00  2.46521E+00  2.43960E+00  2.41588E+00
   2.39391E+00  2.37352E+00  2.35461E+00  2.33705E+00  2.32074E+00  2.30559E+00  2.29151E+00  2.27840E+00  2.26619E+00  2.25483E+00
   2.24424E+00  2.23438E+00  2.22518E+00  2.21660E+00  2.20859E+00  2.20112E+00  2.19415E+00  2.18764E+00  2.18157E+00  2.17589E+00
   2.17060E+00  2.16566E+00  2.16106E+00  2.15677E+00  2.15278E+00  2.14905E+00  2.14558E+00  2.14237E+00  2.13938E+00  2.13662E+00
   2.13405E+00  2.13169E+00  2.12951E+00  2.12751E+00  2.12568E+00  2.12401E+00  2.12249E+00  2.12112E+00  2.11989E+00  2.11880E+00
   2.11784E+00  2.11701E+00  2.11629E+00  2.11569E+00  2.11521E+00  2.11484E+00  2.11458E+00  2.11442E+00
 NY background values follow
     1.956E+00    1.949E+00    1.941E+00    1.934E+00    1.926E+00    1.918E+00    1.911E+00    1.903E+00    1.896E+00    1.888E+00
     1.881E+00    1.873E+00    1.866E+00    1.858E+00    1.850E+00    1.843E+00    1.835E+00    1.828E+00    1.820E+00    1.813E+00
     1.805E+00    1.798E+00    1.790E+00    1.783E+00    1.775E+00    1.768E+00    1.760E+00    1.753E+00    1.745E+00    1.738E+00
     1.731E+00    1.723E+00    1.716E+00    1.708E+00    1.701E+00    1.694E+00    1.686E+00    1.679E+00    1.671E+00    1.664E+00
     1.657E+00    1.650E+00    1.642E+00    1.635E+00    1.628E+00    1.621E+00    1.613E+00    1.606E+00    1.599E+00    1.592E+00
     1.585E+00    1.578E+00    1.571E+00    1.564E+00    1.557E+00    1.550E+00    1.543E+00    1.536E+00    1.529E+00    1.522E+00
     1.515E+00    1.508E+00    1.501E+00    1.494E+00    1.487E+00    1.481E+00    1.474E+00    1.467E+00    1.460E+00    1.454E+00
     1.447E+00    1.440E+00    1.434E+00    1.427E+00    1.420E+00    1.414E+00    1.407E+00    1.401E+00    1.394E+00    1.388E+00
     1.381E+00    1.375E+00    1.368E+00    1.362E+00    1.356E+00    1.349E+00    1.343E+00    1.337E+00    1.330E+00    1.324E+00
     1.318E+00    1.312E+00    1.306E+00    1.299E+00    1.293E+00    1.287E+00    1.281E+00    1.275E+00    1.269E+00    1.263E+00
     1.257E+00    1.251E+00    1.245E+00    1.239E+00    1.234E+00    1.228E+00    1.222E+00    1.216E+00    1.211E+00    1.205E+00
     1.199E+00    1.194E+00    1.188E+00    1.183E+00    1.177E+00    1.172E+00    1.166E+00    1.161E+00    1.155E+00    1.150E+00
     1.145E+00    1.140E+00    1.134E+00    1.129E+00    1.124E+00    1.119E+00    1.114E+00    1.109E+00    1.104E+00    1.099E+00
     1.094E+00    1.089E+00    1.084E+00    1.080E+00    1.075E+00    1.070E+00    1.066E+00    1.061E+00    1.057E+00    1.052E+00
     1.048E+00    1.043E+00    1.039E+00    1.035E+00    1.030E+00    1.026E+00    1.022E+00    1.018E+00    1.014E+00    1.010E+00
     1.006E+00    1.002E+00    9.981E-01    9.943E-01    9.905E-01    9.869E-01    9.832E-01    9.797E-01    9.762E-01    9.727E-01
     9.693E-01    9.660E-01    9.627E-01    9.595E-01    9.563E-01    9.532E-01    9.502E-01    9.472E-01    9.443E-01    9.415E-01
     9.387E-01    9.360E-01    9.333E-01    9.307E-01    9.282E-01    9.258E-01    9.234E-01    9.211E-01    9.188E-01    9.166E-01
     9.145E-01    9.125E-01    9.105E-01    9.086E-01    9.068E-01    9.051E-01    9.034E-01    9.018E-01    9.003E-01    8.989E-01
     8.975E-01    8.963E-01    8.951E-01    8.940E-01    8.930E-01    8.921E-01    8.913E-01    8.906E-01    8.899E-01    8.894E-01
     8.890E-01    8.886E-01    8.884E-01    8.883E-01    8.882E-01    8.883E-01    8.885E-01    8.888E-01    8.892E-01    8.897E-01
     8.903E-01    8.911E-01    8.919E-01    8.929E-01    8.940E-01    8.952E-01    8.965E-01    8.980E-01    8.996E-01    9.013E-01
     9.031E-01    9.051E-01    9.072E-01    9.094E-01    9.118E-01    9.143E-01    9.169E-01    9.197E-01    9.226E-01    9.256E-01
     9.288E-01    9.321E-01    9.355E-01    9.390E-01    9.427E-01    9.465E-01    9.504E-01    9.544E-01    9.586E-01    9.628E-01
     9.672E-01    9.717E-01    9.762E-01    9.809E-01    9.857E-01    9.906E-01    9.956E-01    1.001E+00    1.006E+00    1.011E+00
     1.016E+00    1.022E+00    1.027E+00    1.033E+00    1.039E+00    1.044E+00    1.050E+00    1.056E+00    1.062E+00    1.068E+00
     1.074E+00    1.080E+00    1.087E+00    1.093E+00    1.099E+00    1.106E+00    1.112E+00    1.119E+00    1.125E+00    1.132E+00
     1.139E+00    1.145E+00    1.152E+00    1.159E+00    1.166E+00    1.173E+00    1.180E+00    1.187E+00    1.194E+00    1.201E+00
     1.208E+00    1.215E+00    1.222E+00    1.229E+00    1.236E+00    1.244E+00    1.251E+00    1.258E+00    1.265E+00    1.273E+00
     1.280E+00    1.287E+00    1.295E+00    1.302E+00    1.309E+00    1.317E+00    1.324E+00    1.332E+00    1.339E+00    1.347E+00
     1.354E+00    1.361E+00    1.369E+00    1.376E+00    1.384E+00    1.391E+00    1.399E+00    1.406E+00    1.414E+00    1.421E+00
     1.429E+00    1.436E+00    1.444E+00    1.451E+00    1.459E+00    1.466E+00    1.473E+00    1.481E+00    1.488E+00    1.496E+00
     1.503E+00    1.510E+00    1.518E+00    1.525E+00    1.532E+00    1.540E+00    1.547E+00    1.554E+00    1.562E+00    1.569E+00
     1.576E+00    1.583E+00    1.590E+00    1.598E+00    1.605E+00    1.612E+00    1.619E+00    1.626E+00    1.633E+00    1.640E+00
     1.647E+00    1.654E+00    1.661E+00    1.668E+00    1.675E+00    1.682E+00    1.689E+00    1.696E+00    1.703E+00    1.709E+00
     1.716E+00    1.723E+00    1.730E+00    1.736E+00    1.743E+00    1.750E+00    1.756E+00    1.763E+00    1.769E+00    1.776E+00
     1.782E+00    1.789E+00    1.795E+00    1.802E+00    1.808E+00    1.815E+00    1.821E+00    1.827E+00    1.833E+00    1.840E+00
     1.846E+00    1.852E+00    1.858E+00    1.864E+00    1.870E+00    1.876E+00    1.882E+00    1.888E+00    1.894E+00    1.900E+00
     1.906E+00    1.912E+00    1.917E+00    1.923E+00    1.929E+00    1.935E+00    1.940E+00    1.946E+00    1.951E+00    1.957E+00
     1.962E+00    1.968E+00    1.973E+00    1.978E+00    1.984E+00    1.989E+00    1.994E+00    2.000E+00    2.005E+00    2.010E+00
     2.015E+00    2.020E+00    2.025E+00    2.030E+00    2.035E+00    2.040E+00    2.044E+00    2.049E+00    2.054E+00    2.059E+00
     2.063E+00    2.068E+00    2.073E+00    2.077E+00    2.082E+00    2.086E+00    2.090E+00    2.095E+00    2.099E+00    2.103E+00
     2.107E+00    2.112E+00    2.116E+00    2.120E+00    2.124E+00    2.128E+00    2.132E+00    2.136E+00    2.139E+00    2.143E+00
     2.147E+00    2.151E+00    2.154E+00    2.158E+00    2.161E+00    2.165E+00    2.168E+00    2.172E+00    2.175E+00    2.178E+00
     2.181E+00    2.185E+00    2.188E+00    2.191E+00    2.194E+00    2.197E+00    2.200E+00    2.203E+00    2.205E+00    2.208E+00
     2.211E+00    2.214E+00    2.216E+00    2.219E+00    2.221E+00    2.224E+00    2.226E+00    2.228E+00    2.231E+00    2.233E+00
     2.235E+00    2.237E+00    2.240E+00    2.242E+00    2.244E+00    2.246E+00    2.248E+00    2.250E+00    2.251E+00    2.253E+00
     2.255E+00    2.257E+00    2.259E+00    2.261E+00    2.262E+00    2.264E+00    2.266E+00    2.267E+00    2.269E+00    2.271E+00
     2.272E+00    2.274E+00    2.275E+00    2.277E+00    2.279E+00    2.280E+00    2.282E+00    2.283E+00    2.285E+00    2.286E+00
     2.288E+00    2.289E+00    2.291E+00    2.292E+00    2.294E+00    2.295E+00    2.297E+00    2.298E+00
 Ala      Conc. = 5.61E+01
