 LCModel (Version 6.3-1L) Copyright: S.W. Provencher.          Ref.: Magn. Reson. Med. 30:672-679 (1993).                
 Slice#2 Row#1 Col#4  PD_05_press_1_raw_act
 36 lines in following concentration table = NCONC+1
    Conc.  %SD /Cr+PCr  Metabolite                                         
   17.324 128%   0.261 Ala                                                 
    9.837 105%   0.148 Asp                                                 
   29.095 123%   0.439 Cr                                                  
   37.220  99%   0.561 PCr                                                 
    5.745 107% 8.7E-02 GABA                                                
    6.100 101% 9.2E-02 Glc                                                 
    8.571 499%   0.129 Gln                                                 
  123.559  42%   1.863 Glu                                                 
   14.734  35%   0.222 GPC                                                 
    0.000 999%   0.000 PCh                                                 
   26.082  65%   0.393 GSH                                                 
   99.075  53%   1.494 Ins                                                 
   13.384 175%   0.202 Lac                                                 
   87.643  19%   1.322 NAA                                                 
    0.000 999%   0.000 NAAG                                                
    1.343 149% 2.0E-02 Scyllo                                              
    7.056 144%   0.106 Tau                                                 
    0.000 999%   0.000 -CrCH2                                              
   14.734  35%   0.222 GPC+PCh                                             
   87.643  19%   1.322 NAA+NAAG                                            
   66.315  21%   1.000 Cr+PCr                                              
  132.130  48%   1.992 Glu+Gln                                             
  521.839  16%   7.869 Lip13a                                              
    0.000 999%   0.000 Lip13b                                              
    0.000 999%   0.000 Lip09                                               
    0.000 999%   0.000 MM09                                                
   34.014 107%   0.513 Lip20                                               
    0.000 999%   0.000 MM20                                                
 1.70E-04 999% 2.6E-06 MM12                                                
 1.19E-02 999% 1.8E-04 MM14                                                
 1.14E-02 999% 1.7E-04 MM17                                                
  521.839  16%   7.869 Lip13a+Lip13b                                       
  521.851  16%   7.869 MM14+Lip13a+Lip13b+MM12                             
    0.000 999%   0.000 MM09+Lip09                                          
   34.014 107%   0.513 MM20+Lip20                                          
   6 lines in following misc. output table
  FWHM = 0.046 ppm    S/N =   2                                            
  Data shift =-0.008 ppm                                                   
  Ph: -28 deg     -29.8 deg/ppm                                            
  alphaB,S = 8.5E+01,   1.3E+01                                            
   14 spline knots.   Ns = 5(1)                                            
   1 inflections.     2 extrema                                            
  498 points on ppm-axis = NY
      4.000000     3.992357     3.984714     3.977070     3.969427     3.961784     3.954141     3.946497     3.938854     3.931211
      3.923568     3.915925     3.908281     3.900638     3.892995     3.885352     3.877708     3.870065     3.862422     3.854779
      3.847136     3.839492     3.831849     3.824206     3.816563     3.808919     3.801276     3.793633     3.785990     3.778347
      3.770703     3.763060     3.755417     3.747774     3.740130     3.732487     3.724844     3.717201     3.709558     3.701914
      3.694271     3.686628     3.678985     3.671341     3.663698     3.656055     3.648412     3.640769     3.633125     3.625482
      3.617839     3.610196     3.602552     3.594909     3.587266     3.579623     3.571980     3.564336     3.556693     3.549050
      3.541407     3.533763     3.526120     3.518477     3.510834     3.503191     3.495547     3.487904     3.480261     3.472618
      3.464974     3.457331     3.449688     3.442045     3.434402     3.426758     3.419115     3.411472     3.403829     3.396185
      3.388542     3.380899     3.373256     3.365613     3.357969     3.350326     3.342683     3.335040     3.327396     3.319753
      3.312110     3.304467     3.296824     3.289180     3.281537     3.273894     3.266251     3.258607     3.250964     3.243321
      3.235678     3.228034     3.220391     3.212748     3.205105     3.197462     3.189818     3.182175     3.174532     3.166889
      3.159245     3.151602     3.143959     3.136316     3.128673     3.121029     3.113386     3.105743     3.098100     3.090456
      3.082813     3.075170     3.067527     3.059884     3.052240     3.044597     3.036954     3.029311     3.021667     3.014024
      3.006381     2.998738     2.991095     2.983451     2.975808     2.968165     2.960522     2.952878     2.945235     2.937592
      2.929949     2.922306     2.914662     2.907019     2.899376     2.891733     2.884089     2.876446     2.868803     2.861160
      2.853517     2.845873     2.838230     2.830587     2.822944     2.815300     2.807657     2.800014     2.792371     2.784728
      2.777084     2.769441     2.761798     2.754155     2.746511     2.738868     2.731225     2.723582     2.715939     2.708295
      2.700652     2.693009     2.685366     2.677722     2.670079     2.662436     2.654793     2.647150     2.639506     2.631863
      2.624220     2.616577     2.608933     2.601290     2.593647     2.586004     2.578361     2.570717     2.563074     2.555431
      2.547788     2.540144     2.532501     2.524858     2.517215     2.509572     2.501928     2.494285     2.486642     2.478999
      2.471355     2.463712     2.456069     2.448426     2.440783     2.433139     2.425496     2.417853     2.410210     2.402566
      2.394923     2.387280     2.379637     2.371994     2.364350     2.356707     2.349064     2.341421     2.333777     2.326134
      2.318491     2.310848     2.303205     2.295561     2.287918     2.280275     2.272632     2.264988     2.257345     2.249702
      2.242059     2.234416     2.226772     2.219129     2.211486     2.203843     2.196199     2.188556     2.180913     2.173270
      2.165627     2.157983     2.150340     2.142697     2.135054     2.127410     2.119767     2.112124     2.104481     2.096838
      2.089194     2.081551     2.073908     2.066265     2.058621     2.050978     2.043335     2.035692     2.028049     2.020405
      2.012762     2.005119     1.997476     1.989833     1.982190     1.974546     1.966903     1.959260     1.951617     1.943974
      1.936331     1.928688     1.921045     1.913402     1.905759     1.898115     1.890472     1.882829     1.875186     1.867543
      1.859900     1.852257     1.844614     1.836971     1.829327     1.821684     1.814041     1.806398     1.798755     1.791112
      1.783469     1.775826     1.768183     1.760540     1.752896     1.745253     1.737610     1.729967     1.722324     1.714681
      1.707038     1.699395     1.691752     1.684108     1.676465     1.668822     1.661179     1.653536     1.645893     1.638250
      1.630607     1.622964     1.615321     1.607677     1.600034     1.592391     1.584748     1.577105     1.569462     1.561819
      1.554176     1.546533     1.538890     1.531246     1.523603     1.515960     1.508317     1.500674     1.493031     1.485388
      1.477745     1.470102     1.462458     1.454815     1.447172     1.439529     1.431886     1.424243     1.416600     1.408957
      1.401314     1.393671     1.386027     1.378384     1.370741     1.363098     1.355455     1.347812     1.340169     1.332526
      1.324883     1.317240     1.309596     1.301953     1.294310     1.286667     1.279024     1.271381     1.263738     1.256095
      1.248452     1.240808     1.233165     1.225522     1.217879     1.210236     1.202593     1.194950     1.187307     1.179664
      1.172021     1.164377     1.156734     1.149091     1.141448     1.133805     1.126162     1.118519     1.110876     1.103233
      1.095590     1.087946     1.080303     1.072660     1.065017     1.057374     1.049731     1.042088     1.034445     1.026802
      1.019158     1.011515     1.003872     0.996229     0.988586     0.980943     0.973300     0.965657     0.958014     0.950371
      0.942727     0.935084     0.927441     0.919798     0.912155     0.904512     0.896869     0.889226     0.881583     0.873940
      0.866296     0.858653     0.851010     0.843367     0.835724     0.828081     0.820438     0.812795     0.805152     0.797508
      0.789865     0.782222     0.774579     0.766936     0.759293     0.751650     0.744007     0.736364     0.728721     0.721077
      0.713434     0.705791     0.698148     0.690505     0.682862     0.675219     0.667576     0.659933     0.652290     0.644646
      0.637003     0.629360     0.621717     0.614074     0.606431     0.598788     0.591145     0.583502     0.575858     0.568215
      0.560572     0.552929     0.545286     0.537643     0.530000     0.522357     0.514714     0.507071     0.499427     0.491784
      0.484141     0.476498     0.468855     0.461212     0.453569     0.445925     0.438282     0.430639     0.422996     0.415353
      0.407710     0.400067     0.392424     0.384780     0.377137     0.369494     0.361851     0.354208     0.346565     0.338922
      0.331278     0.323635     0.315992     0.308349     0.300706     0.293063     0.285420     0.277777     0.270133     0.262490
      0.254847     0.247204     0.239561     0.231918     0.224275     0.216631     0.208988     0.201345
 NY phased data points follow
  -2.16219E-01 -3.63686E-01  1.12173E+00 -1.31568E+00  1.92734E+00  1.47838E+00  4.55205E-01  5.20965E-01  1.73986E+00  1.39985E+00
   1.45759E+00  3.54766E+00  1.98822E+00  1.64870E+00  1.75742E+00  2.57128E+00  1.09747E+00 -2.74711E+00  8.32975E-01  2.45887E+00
   8.31484E-01 -2.39373E+00  1.24852E+00  9.90025E-01  1.83625E-01 -1.87449E+00  9.87947E-01 -1.15228E+00  1.90786E+00  1.27082E+00
   6.48757E-01  1.72662E+00 -1.56223E-01  8.91949E-01  7.99936E-01  7.79974E-01 -4.23777E-01  1.17678E+00 -1.41937E+00 -1.54403E+00
  -1.24244E+00  1.55186E-01 -7.09122E-01  1.02617E+00  2.04789E+00 -1.70141E-02  1.81074E+00  4.59263E-01  1.17089E+00  2.11441E+00
   3.62217E-01 -3.84771E+00  2.02785E-01  5.34253E-01 -2.94824E-01  2.08781E+00 -4.37416E-01 -1.49473E+00  2.30457E+00 -6.48947E-01
   3.06041E+00 -5.55630E-01  1.50347E+00  4.26521E-01 -6.64762E-02 -9.39473E-02 -6.95519E-01 -6.85703E-01  7.18857E-02  1.99907E+00
  -1.50881E+00 -1.00678E+00  1.33952E-01  1.04060E+00  2.02739E+00 -1.51862E+00 -1.24487E+00  5.33293E-03 -3.37242E-01 -1.20936E+00
  -6.38314E-01  2.87678E-01  7.49663E-01  7.04479E-01  8.84500E-01 -1.72945E+00 -1.73206E+00 -1.48102E-01  3.69351E-01 -1.27103E+00
  -2.03584E+00  2.19819E-01 -9.04264E-01  1.75168E-01  1.23372E+00  8.04189E-01 -7.68534E-01 -1.57077E+00 -6.12252E-01 -3.13134E+00
  -4.02903E-01  1.98920E+00 -8.48827E-01  2.22695E+00  1.34273E-01  2.93696E+00  3.24816E-01  1.74249E+00 -1.14727E+00  1.54163E+00
  -2.69066E-01 -1.36009E+00  8.19813E-01  1.02685E-01 -3.77764E-01 -3.98689E-01 -1.64591E+00  1.00329E+00  1.93712E-01 -1.31182E+00
   1.11994E+00 -7.63463E-01 -2.65922E+00 -3.16148E+00 -2.10903E+00  1.49912E+00 -1.93232E-01  1.04532E+00  3.84175E+00  2.57620E+00
   1.06711E+00  2.73700E+00  9.62098E-01 -2.49501E-01  1.61984E-01 -2.50722E-01  5.59273E-01 -4.52827E-01 -1.24027E+00 -2.18272E+00
  -3.02870E+00 -9.68556E-01  8.25919E-01  6.39407E-01  8.47276E-01  5.92658E-02 -2.38400E-01  1.26986E+00  2.69991E-01 -1.20463E+00
  -1.33689E+00 -8.19073E-01 -1.11434E+00  8.45189E-01  6.04778E-01 -1.27153E+00  8.17322E-01  3.73941E-01 -1.86819E+00  1.71293E+00
  -8.59149E-01 -2.47679E-01 -1.58807E+00 -3.91493E-01 -1.53547E+00 -9.65605E-01 -2.25463E-01  3.03234E-01  3.10838E-01  9.50606E-02
   1.38697E+00 -1.65714E+00 -1.54207E+00 -3.20334E+00  1.13722E+00 -3.40350E-01 -1.65950E-02 -9.38047E-01 -1.72801E+00 -1.05000E+00
  -1.90423E+00 -9.90890E-01 -3.08488E-01 -1.43487E+00 -1.58764E+00 -1.01651E+00 -1.39324E+00 -5.87630E-01  2.30200E+00 -2.48244E+00
  -9.27840E-01  1.11733E+00 -1.02429E+00 -2.25669E-01  3.47731E-01 -8.63900E-01 -1.09501E+00  3.64331E-01  5.22561E-01  7.42285E-01
  -2.07440E+00 -3.40516E+00 -1.32106E+00  3.05219E-01 -4.93281E-01  6.69717E-01 -2.37416E+00 -8.80903E-01 -2.91388E-01  8.84011E-03
   8.91293E-01 -3.02625E+00 -8.90100E-01 -1.08686E+00 -6.36730E-01  1.86612E+00 -1.71019E-01  1.61782E+00 -4.36842E-01 -9.98498E-01
  -1.60169E+00 -2.02097E+00 -1.54833E+00 -4.25604E-01 -2.02039E+00 -1.11340E+00 -1.23443E-01 -2.86677E+00 -2.02249E-01 -2.11414E-01
   9.55596E-01 -9.32912E-02 -2.22823E+00  1.07262E+00 -2.19497E+00 -1.63914E+00 -3.33222E+00 -2.72344E+00 -3.67059E+00 -1.08323E+00
  -1.71583E+00  1.41025E+00 -2.74574E+00  5.87799E-01 -1.53274E+00 -2.20549E+00  1.32369E+00 -1.07595E+00  9.38688E-01  3.73062E-01
  -9.64744E-01 -6.39598E-01  5.55191E-01 -3.60731E-01 -2.09714E+00 -1.24463E+00 -2.21440E+00 -1.13794E+00 -8.93229E-01  3.35554E+00
   2.48480E+00  3.17778E+00  3.36262E+00  4.44513E+00  2.43439E+00  2.17996E+00  3.79134E+00  1.05307E-01  8.47519E-01  1.55946E+00
  -4.68240E-02  4.45035E-01  2.57514E+00  1.88377E+00  1.31297E+00 -7.02580E-01  1.69018E+00  1.39359E+00  1.44923E+00 -7.30466E-02
  -8.01469E-02  6.74568E-01 -1.38489E+00  1.60261E+00 -7.00671E-01  4.34449E-01  2.88491E-01 -1.45834E+00  1.58768E+00  1.11238E+00
   1.14396E+00 -8.93645E-01  1.49028E+00  2.25103E+00  1.46434E+00 -8.92827E-01  6.58751E-01 -4.75690E-01  2.22008E+00 -1.02463E+00
   1.56673E+00  1.65145E+00  1.44972E+00  1.87326E+00  2.39669E-02 -5.94655E-02  2.16549E+00  1.70261E+00 -7.95271E-01 -8.36327E-01
   2.63813E-01  8.75217E-01 -1.48117E+00  1.56926E+00 -1.37696E+00  3.27711E-01  1.60433E+00 -2.66789E-01 -9.66174E-01  2.54106E-01
   4.64564E-01  1.13208E+00  2.18618E-01  1.03083E+00  1.57507E+00  2.14186E+00  2.19909E+00 -2.23274E-01  2.93397E-01 -6.59156E-01
   9.91789E-01  5.92627E-01  1.12975E+00  6.84986E-01 -5.51600E-01 -2.41936E-01  4.06021E-01 -2.91780E-01  1.78477E+00  1.04085E+00
  -1.38405E-02  9.94429E-01  1.43286E+00  2.35195E+00  1.22290E+00  2.72808E+00  2.42692E+00  3.06637E+00  3.04326E+00  2.16108E+00
   2.19618E+00  3.72754E+00  1.70429E+00  2.59144E+00  2.63961E+00  1.14350E+00  4.04119E+00  1.37778E+00  9.53408E-01  1.36482E+00
   2.81450E+00  1.36846E+00  2.75510E+00  1.72071E+00  2.33260E-02  1.33190E+00  2.59056E+00  1.46113E+00  1.91950E+00  7.41197E-01
  -2.29150E-01  1.41362E+00  1.41756E+00 -1.42512E+00  1.45148E+00 -8.70309E-01 -4.32638E-01 -1.36304E+00 -7.15151E-01 -1.62401E+00
  -2.71858E-01  7.07763E-01  2.57185E+00  1.62652E-01 -1.32624E+00  9.44785E-01 -7.13171E-01 -5.32678E-01 -1.13469E-01 -1.50914E+00
   6.86333E-01 -4.92951E-01 -2.11317E+00 -4.18028E-01 -2.92084E+00 -2.92545E-01 -1.22739E+00 -1.20042E+00 -8.06302E-01  6.95457E-01
  -3.62826E+00 -1.77267E+00 -1.31269E+00 -1.45280E+00 -1.20083E+00 -4.39926E-01 -5.32995E-01 -2.01417E+00 -1.11867E+00 -1.84252E-01
  -1.46206E+00 -1.62915E+00  3.90055E-02 -1.78135E+00  6.57950E-02 -6.91692E-01  1.40440E+00 -1.10931E+00 -2.22826E+00 -2.29255E+00
  -1.38164E+00 -2.64500E+00  1.22436E+00 -9.93759E-01 -1.26523E+00 -1.84384E-01  1.29128E+00 -2.76810E+00 -1.92700E+00  6.44642E-01
  -3.11721E+00 -8.31160E-01  5.25743E-02 -2.08463E+00 -4.79922E-01 -2.30281E-01 -6.45649E-01 -6.47366E-01  5.91809E-01  3.87845E-01
   6.42941E-01  1.13369E+00  1.56273E+00  2.39844E+00 -1.04312E+00 -4.22400E-01 -1.46649E+00  8.52296E-01 -1.54115E+00 -1.42953E+00
  -2.17334E+00  1.03505E+00 -2.44565E+00 -5.95926E-02 -1.28953E+00 -1.24210E+00 -9.51215E-01  1.94881E-01  5.77708E-01 -1.13956E+00
  -1.04265E+00 -1.59505E+00  1.73057E-01 -5.26552E-01  4.12197E-01 -1.08076E+00 -1.24356E+00  6.89278E-02 -6.59051E-01 -1.14317E-01
  -4.79499E-01 -8.89084E-01  5.40821E-01 -2.85706E+00  6.74233E-01 -5.10450E-01 -5.18045E-01 -4.91876E-01 -1.10841E+00 -2.26085E-01
   1.01307E+00 -6.46646E-01  4.90550E-01  1.29127E+00 -1.83743E+00  1.34925E+00 -3.93410E-01  1.22640E+00 -7.81226E-01 -1.97096E+00
  -7.83165E-01 -6.20831E-01  3.58206E-01 -6.25088E-02 -9.21810E-01  4.17988E-01 -7.70922E-01 -2.23143E+00
 NY points of the fit to the data follow
   8.33324E-02 -1.38453E-02 -8.38348E-02 -1.33727E-01 -2.68740E-01 -3.59686E-01 -2.54144E-01  6.20507E-02  5.67268E-01  1.12957E+00
   1.58333E+00  1.81558E+00  1.83230E+00  1.68340E+00  1.36425E+00  9.18881E-01  5.20823E-01  2.07934E-01  1.84637E-02 -2.12156E-02
  -2.36599E-02 -2.21124E-02  2.91634E-02  1.45897E-01  1.85440E-01  9.78337E-03 -1.63923E-01 -1.54274E-01 -3.04807E-02  1.11745E-01
   3.37211E-01  6.43919E-01  9.00962E-01  1.05318E+00  1.08143E+00  8.83109E-01  5.41625E-01  2.59481E-01  3.99646E-02 -1.35327E-01
  -2.30844E-01 -2.77407E-01 -3.51585E-01 -3.35140E-01 -6.18153E-02  3.55494E-01  6.98085E-01  9.10027E-01  9.87503E-01  9.34677E-01
   7.61598E-01  4.91177E-01  1.72117E-01 -1.16953E-01 -2.96987E-01 -3.40439E-01 -2.82787E-01 -1.49881E-01  1.99507E-02  1.75771E-01
   2.77635E-01  3.00338E-01  2.46600E-01  1.53784E-01  3.23274E-02 -8.11513E-02 -1.60459E-01 -1.96797E-01 -1.60857E-01 -6.85871E-02
   2.39616E-02  8.31227E-02  1.18375E-01  1.42329E-01  1.51798E-01  1.39456E-01  1.14607E-01  6.72600E-02  1.76855E-02 -1.49825E-02
  -3.86180E-02 -5.46218E-02 -4.61661E-02 -1.48285E-02 -1.47202E-02 -7.53467E-02 -1.76139E-01 -2.83942E-01 -3.77163E-01 -4.35836E-01
  -4.47079E-01 -4.20536E-01 -3.43683E-01 -2.31644E-01 -1.37189E-01 -9.92689E-02 -1.18362E-01 -2.55306E-01 -5.94729E-01 -6.84366E-01
  -2.55341E-01  4.26777E-01  9.95745E-01  1.38224E+00  1.60614E+00  1.61619E+00  1.40515E+00  1.03648E+00  5.33456E-01  3.29265E-02
  -1.79385E-01 -2.22665E-01 -2.32720E-01 -2.34558E-01 -2.33778E-01 -2.27254E-01 -2.24464E-01 -2.31929E-01 -2.44541E-01 -2.61310E-01
  -2.96382E-01 -4.29944E-01 -8.45962E-01 -1.00305E+00 -3.71027E-01  7.39110E-01  1.71881E+00  2.35742E+00  2.71548E+00  2.76439E+00
   2.50942E+00  2.03548E+00  1.33797E+00  5.32831E-01  6.00007E-02 -1.33017E-01 -2.79505E-01 -3.92818E-01 -4.45170E-01 -4.41618E-01
  -3.85246E-01 -2.90655E-01 -1.97431E-01 -1.25357E-01 -8.99709E-02 -9.74868E-02 -1.26836E-01 -1.61304E-01 -1.92858E-01 -2.11228E-01
  -2.25753E-01 -2.43552E-01 -2.64068E-01 -2.77958E-01 -2.82686E-01 -2.78321E-01 -2.57744E-01 -2.40227E-01 -2.54066E-01 -2.96792E-01
  -3.50441E-01 -3.82515E-01 -3.81127E-01 -3.60651E-01 -3.37561E-01 -3.16558E-01 -2.94533E-01 -2.78077E-01 -2.84327E-01 -3.08983E-01
  -3.35666E-01 -3.51582E-01 -3.54733E-01 -3.87352E-01 -4.43425E-01 -4.80471E-01 -4.76590E-01 -4.59336E-01 -4.62639E-01 -4.79358E-01
  -4.80238E-01 -4.57750E-01 -4.26159E-01 -4.28246E-01 -4.87748E-01 -5.52352E-01 -5.75805E-01 -5.39734E-01 -4.57985E-01 -3.51804E-01
  -2.39486E-01 -1.40323E-01 -6.74993E-02 -2.27519E-02 -5.25283E-02 -1.53900E-01 -2.64547E-01 -3.41226E-01 -3.79356E-01 -3.93959E-01
  -3.72906E-01 -3.00285E-01 -1.69723E-01 -3.66672E-02  6.63925E-02  1.30482E-01  1.24846E-01  2.28149E-02 -1.45767E-01 -3.54732E-01
  -5.94033E-01 -8.08774E-01 -7.53514E-01 -4.03254E-01  2.54291E-02  3.81219E-01  6.46189E-01  7.90582E-01  6.75103E-01  1.92980E-01
  -4.95045E-01 -1.09715E+00 -1.44621E+00 -1.47470E+00 -1.29308E+00 -9.60253E-01 -5.33156E-01 -1.14918E-01  1.63234E-01  2.10744E-01
   9.21235E-02 -4.46810E-02 -1.53081E-01 -2.22939E-01 -1.91837E-01 -6.47141E-02  7.30194E-02  1.55732E-01  1.58862E-01  5.23975E-02
  -1.44805E-01 -3.50648E-01 -4.77023E-01 -5.20023E-01 -4.70944E-01 -3.15232E-01 -1.20740E-01  3.22032E-03  2.57813E-02 -1.66829E-02
  -1.02775E-01 -1.85851E-01 -2.25942E-01 -2.13697E-01 -2.49477E-01 -5.96128E-01 -1.09384E+00 -7.40834E-01  5.24745E-01  1.93714E+00
   2.96640E+00  3.62916E+00  3.92175E+00  3.73515E+00  3.13714E+00  2.23180E+00  1.09315E+00  1.87629E-01 -1.20870E-01 -2.42236E-01
  -3.14275E-01 -3.34293E-01 -3.30310E-01 -3.14383E-01 -2.81230E-01 -2.38414E-01 -1.99773E-01 -1.77383E-01 -1.75927E-01 -1.94240E-01
  -2.20783E-01 -2.45271E-01 -2.64760E-01 -2.76051E-01 -2.79230E-01 -2.77509E-01 -2.71990E-01 -2.65537E-01 -2.61352E-01 -2.58663E-01
  -2.56967E-01 -2.56621E-01 -2.57292E-01 -2.57614E-01 -2.57181E-01 -2.56759E-01 -2.56054E-01 -2.54467E-01 -2.52606E-01 -2.50555E-01
  -2.47731E-01 -2.44333E-01 -2.40573E-01 -2.36563E-01 -2.32332E-01 -2.27899E-01 -2.23245E-01 -2.18298E-01 -2.13061E-01 -2.07507E-01
  -2.01391E-01 -1.94622E-01 -1.87171E-01 -1.78973E-01 -1.69983E-01 -1.60148E-01 -1.49382E-01 -1.37591E-01 -1.24747E-01 -1.11076E-01
  -9.76409E-02 -8.86613E-02 -8.54100E-02 -2.37049E-02  1.16865E-01  2.48780E-01  3.03477E-01  2.92858E-01  2.53221E-01  1.90063E-01
   6.73618E-02 -9.73543E-02 -1.92672E-01 -1.47128E-01  3.54043E-02  2.67216E-01  4.93521E-01  7.09816E-01  8.99247E-01  1.05485E+00
   1.17068E+00  1.23061E+00  1.27262E+00  1.38823E+00  1.59028E+00  1.80236E+00  1.95657E+00  2.04979E+00  2.10762E+00  2.12832E+00
   2.07459E+00  1.98318E+00  1.93776E+00  1.97034E+00  2.06883E+00  2.17969E+00  2.25777E+00  2.29525E+00  2.28212E+00  2.21886E+00
   2.10218E+00  1.93119E+00  1.75275E+00  1.59088E+00  1.43495E+00  1.28194E+00  1.13231E+00  9.87390E-01  8.48597E-01  7.17200E-01
   5.94191E-01  4.80248E-01  3.75742E-01  2.80768E-01  1.95180E-01  1.18629E-01  5.06131E-02 -9.47670E-03 -6.23092E-02 -1.08578E-01
  -1.48975E-01 -1.84179E-01 -2.14831E-01 -2.41520E-01 -2.64773E-01 -2.85059E-01 -3.02792E-01 -3.18341E-01 -3.32025E-01 -3.44113E-01
  -3.54828E-01 -3.64360E-01 -3.72874E-01 -3.80517E-01 -3.87409E-01 -3.93648E-01 -3.99310E-01 -4.04464E-01 -4.09176E-01 -4.13503E-01
  -4.17493E-01 -4.21177E-01 -4.24583E-01 -4.27740E-01 -4.30679E-01 -4.33428E-01 -4.36003E-01 -4.38414E-01 -4.40673E-01 -4.42797E-01
  -4.44804E-01 -4.46707E-01 -4.48511E-01 -4.50218E-01 -4.51835E-01 -4.53374E-01 -4.54847E-01 -4.56258E-01 -4.57607E-01 -4.58893E-01
  -4.60123E-01 -4.61308E-01 -4.62455E-01 -4.63562E-01 -4.64628E-01 -4.65650E-01 -4.66638E-01 -4.67599E-01 -4.68536E-01 -4.69447E-01
  -4.70326E-01 -4.71177E-01 -4.72006E-01 -4.72820E-01 -4.73619E-01 -4.74395E-01 -4.75148E-01 -4.75882E-01 -4.76605E-01 -4.77320E-01
  -4.78023E-01 -4.78706E-01 -4.79372E-01 -4.80026E-01 -4.80674E-01 -4.81317E-01 -4.81948E-01 -4.82563E-01 -4.83166E-01 -4.83763E-01
  -4.84360E-01 -4.84951E-01 -4.85531E-01 -4.86099E-01 -4.86659E-01 -4.87217E-01 -4.87773E-01 -4.88322E-01 -4.88860E-01 -4.89388E-01
  -4.89913E-01 -4.90440E-01 -4.90965E-01 -4.91483E-01 -4.91990E-01 -4.92490E-01 -4.92990E-01 -4.93492E-01 -4.93990E-01 -4.94480E-01
  -4.94961E-01 -4.95440E-01 -4.95920E-01 -4.96400E-01 -4.96874E-01 -4.97337E-01 -4.97793E-01 -4.98248E-01 -4.98706E-01 -4.99161E-01
  -4.99609E-01 -5.00046E-01 -5.00479E-01 -5.00913E-01 -5.01348E-01 -5.01777E-01 -5.02195E-01 -5.02603E-01 -5.03008E-01 -5.03414E-01
  -5.03817E-01 -5.04210E-01 -5.04589E-01 -5.04959E-01 -5.05326E-01 -5.05689E-01 -5.06044E-01 -5.06383E-01
 NY background values follow
    -2.273E-01   -2.278E-01   -2.283E-01   -2.289E-01   -2.294E-01   -2.299E-01   -2.304E-01   -2.310E-01   -2.315E-01   -2.320E-01
    -2.326E-01   -2.331E-01   -2.336E-01   -2.342E-01   -2.347E-01   -2.352E-01   -2.357E-01   -2.363E-01   -2.368E-01   -2.373E-01
    -2.379E-01   -2.384E-01   -2.389E-01   -2.394E-01   -2.400E-01   -2.405E-01   -2.410E-01   -2.416E-01   -2.421E-01   -2.426E-01
    -2.431E-01   -2.437E-01   -2.442E-01   -2.447E-01   -2.453E-01   -2.458E-01   -2.463E-01   -2.468E-01   -2.474E-01   -2.479E-01
    -2.484E-01   -2.490E-01   -2.495E-01   -2.500E-01   -2.506E-01   -2.511E-01   -2.516E-01   -2.521E-01   -2.527E-01   -2.532E-01
    -2.537E-01   -2.543E-01   -2.548E-01   -2.553E-01   -2.558E-01   -2.564E-01   -2.569E-01   -2.574E-01   -2.580E-01   -2.585E-01
    -2.590E-01   -2.595E-01   -2.601E-01   -2.606E-01   -2.611E-01   -2.616E-01   -2.622E-01   -2.627E-01   -2.632E-01   -2.638E-01
    -2.643E-01   -2.648E-01   -2.653E-01   -2.659E-01   -2.664E-01   -2.669E-01   -2.675E-01   -2.680E-01   -2.685E-01   -2.690E-01
    -2.696E-01   -2.701E-01   -2.706E-01   -2.711E-01   -2.717E-01   -2.722E-01   -2.727E-01   -2.733E-01   -2.738E-01   -2.743E-01
    -2.748E-01   -2.754E-01   -2.759E-01   -2.764E-01   -2.770E-01   -2.775E-01   -2.780E-01   -2.785E-01   -2.791E-01   -2.796E-01
    -2.801E-01   -2.806E-01   -2.812E-01   -2.817E-01   -2.822E-01   -2.827E-01   -2.833E-01   -2.838E-01   -2.843E-01   -2.849E-01
    -2.854E-01   -2.859E-01   -2.864E-01   -2.870E-01   -2.875E-01   -2.880E-01   -2.885E-01   -2.891E-01   -2.896E-01   -2.901E-01
    -2.907E-01   -2.912E-01   -2.917E-01   -2.922E-01   -2.928E-01   -2.933E-01   -2.938E-01   -2.943E-01   -2.949E-01   -2.954E-01
    -2.959E-01   -2.964E-01   -2.970E-01   -2.975E-01   -2.980E-01   -2.985E-01   -2.991E-01   -2.996E-01   -3.001E-01   -3.006E-01
    -3.012E-01   -3.017E-01   -3.022E-01   -3.027E-01   -3.033E-01   -3.038E-01   -3.043E-01   -3.049E-01   -3.054E-01   -3.059E-01
    -3.064E-01   -3.070E-01   -3.075E-01   -3.080E-01   -3.085E-01   -3.091E-01   -3.096E-01   -3.101E-01   -3.106E-01   -3.112E-01
    -3.117E-01   -3.122E-01   -3.127E-01   -3.133E-01   -3.138E-01   -3.143E-01   -3.148E-01   -3.154E-01   -3.159E-01   -3.164E-01
    -3.169E-01   -3.175E-01   -3.180E-01   -3.185E-01   -3.190E-01   -3.196E-01   -3.201E-01   -3.206E-01   -3.211E-01   -3.216E-01
    -3.222E-01   -3.227E-01   -3.232E-01   -3.237E-01   -3.243E-01   -3.248E-01   -3.253E-01   -3.258E-01   -3.264E-01   -3.269E-01
    -3.274E-01   -3.279E-01   -3.285E-01   -3.290E-01   -3.295E-01   -3.300E-01   -3.306E-01   -3.311E-01   -3.316E-01   -3.321E-01
    -3.326E-01   -3.332E-01   -3.337E-01   -3.342E-01   -3.347E-01   -3.353E-01   -3.358E-01   -3.363E-01   -3.368E-01   -3.374E-01
    -3.379E-01   -3.384E-01   -3.389E-01   -3.394E-01   -3.400E-01   -3.405E-01   -3.410E-01   -3.415E-01   -3.421E-01   -3.426E-01
    -3.431E-01   -3.436E-01   -3.442E-01   -3.447E-01   -3.452E-01   -3.457E-01   -3.462E-01   -3.468E-01   -3.473E-01   -3.478E-01
    -3.483E-01   -3.489E-01   -3.494E-01   -3.499E-01   -3.504E-01   -3.509E-01   -3.515E-01   -3.520E-01   -3.525E-01   -3.530E-01
    -3.535E-01   -3.541E-01   -3.546E-01   -3.551E-01   -3.556E-01   -3.562E-01   -3.567E-01   -3.572E-01   -3.577E-01   -3.582E-01
    -3.588E-01   -3.593E-01   -3.598E-01   -3.603E-01   -3.608E-01   -3.614E-01   -3.619E-01   -3.624E-01   -3.629E-01   -3.635E-01
    -3.640E-01   -3.645E-01   -3.650E-01   -3.655E-01   -3.661E-01   -3.666E-01   -3.671E-01   -3.676E-01   -3.681E-01   -3.687E-01
    -3.692E-01   -3.697E-01   -3.702E-01   -3.707E-01   -3.713E-01   -3.718E-01   -3.723E-01   -3.728E-01   -3.733E-01   -3.739E-01
    -3.744E-01   -3.749E-01   -3.754E-01   -3.759E-01   -3.765E-01   -3.770E-01   -3.775E-01   -3.780E-01   -3.785E-01   -3.791E-01
    -3.796E-01   -3.801E-01   -3.806E-01   -3.811E-01   -3.817E-01   -3.822E-01   -3.827E-01   -3.832E-01   -3.837E-01   -3.842E-01
    -3.848E-01   -3.853E-01   -3.858E-01   -3.863E-01   -3.868E-01   -3.874E-01   -3.879E-01   -3.884E-01   -3.889E-01   -3.894E-01
    -3.900E-01   -3.905E-01   -3.910E-01   -3.915E-01   -3.920E-01   -3.925E-01   -3.931E-01   -3.936E-01   -3.941E-01   -3.946E-01
    -3.951E-01   -3.956E-01   -3.962E-01   -3.967E-01   -3.972E-01   -3.977E-01   -3.982E-01   -3.988E-01   -3.993E-01   -3.998E-01
    -4.003E-01   -4.008E-01   -4.013E-01   -4.019E-01   -4.024E-01   -4.029E-01   -4.034E-01   -4.039E-01   -4.044E-01   -4.050E-01
    -4.055E-01   -4.060E-01   -4.065E-01   -4.070E-01   -4.075E-01   -4.081E-01   -4.086E-01   -4.091E-01   -4.096E-01   -4.101E-01
    -4.106E-01   -4.112E-01   -4.117E-01   -4.122E-01   -4.127E-01   -4.132E-01   -4.137E-01   -4.143E-01   -4.148E-01   -4.153E-01
    -4.158E-01   -4.163E-01   -4.168E-01   -4.174E-01   -4.179E-01   -4.184E-01   -4.189E-01   -4.194E-01   -4.199E-01   -4.204E-01
    -4.210E-01   -4.215E-01   -4.220E-01   -4.225E-01   -4.230E-01   -4.235E-01   -4.241E-01   -4.246E-01   -4.251E-01   -4.256E-01
    -4.261E-01   -4.266E-01   -4.271E-01   -4.277E-01   -4.282E-01   -4.287E-01   -4.292E-01   -4.297E-01   -4.302E-01   -4.307E-01
    -4.313E-01   -4.318E-01   -4.323E-01   -4.328E-01   -4.333E-01   -4.338E-01   -4.343E-01   -4.349E-01   -4.354E-01   -4.359E-01
    -4.364E-01   -4.369E-01   -4.374E-01   -4.379E-01   -4.384E-01   -4.390E-01   -4.395E-01   -4.400E-01   -4.405E-01   -4.410E-01
    -4.415E-01   -4.420E-01   -4.425E-01   -4.431E-01   -4.436E-01   -4.441E-01   -4.446E-01   -4.451E-01   -4.456E-01   -4.461E-01
    -4.466E-01   -4.472E-01   -4.477E-01   -4.482E-01   -4.487E-01   -4.492E-01   -4.497E-01   -4.502E-01   -4.507E-01   -4.513E-01
    -4.518E-01   -4.523E-01   -4.528E-01   -4.533E-01   -4.538E-01   -4.543E-01   -4.548E-01   -4.553E-01   -4.559E-01   -4.564E-01
    -4.569E-01   -4.574E-01   -4.579E-01   -4.584E-01   -4.589E-01   -4.594E-01   -4.599E-01   -4.605E-01   -4.610E-01   -4.615E-01
    -4.620E-01   -4.625E-01   -4.630E-01   -4.635E-01   -4.640E-01   -4.645E-01   -4.650E-01   -4.656E-01   -4.661E-01   -4.666E-01
    -4.671E-01   -4.676E-01   -4.681E-01   -4.686E-01   -4.691E-01   -4.696E-01   -4.701E-01   -4.707E-01   -4.712E-01   -4.717E-01
    -4.722E-01   -4.727E-01   -4.732E-01   -4.737E-01   -4.742E-01   -4.747E-01   -4.752E-01   -4.757E-01   -4.763E-01   -4.768E-01
    -4.773E-01   -4.778E-01   -4.783E-01   -4.788E-01   -4.793E-01   -4.798E-01   -4.803E-01   -4.808E-01   -4.813E-01   -4.818E-01
    -4.824E-01   -4.829E-01   -4.834E-01   -4.839E-01   -4.844E-01   -4.849E-01   -4.854E-01   -4.859E-01
 Ala      Conc. = 1.73E+01
