 LCModel (Version 6.3-1L) Copyright: S.W. Provencher.          Ref.: Magn. Reson. Med. 30:672-679 (1993).                
 Slice#2 Row#2 Col#8  PD_05_press_1_raw_act
 36 lines in following concentration table = NCONC+1
    Conc.  %SD /Cr+PCr  Metabolite                                         
  818.974  40%   1.067 Ala                                                 
    3.941 999% 5.1E-03 Asp                                                 
    0.000 999%   0.000 Cr                                                  
  767.203   8%   1.000 PCr                                                 
   80.886 128%   0.105 GABA                                                
   59.155 169% 7.7E-02 Glc                                                 
 2.44E+03  21%   3.184 Gln                                                 
 2.99E+03  21%   3.892 Glu                                                 
    0.000 999%   0.000 GPC                                                 
  241.263  10%   0.314 PCh                                                 
    0.000 999%   0.000 GSH                                                 
  532.922  46%   0.695 Ins                                                 
    0.000 999%   0.000 Lac                                                 
 1.40E+03   6%   1.820 NAA                                                 
    0.000 999%   0.000 NAAG                                                
   65.218  38% 8.5E-02 Scyllo                                              
  112.975 132%   0.147 Tau                                                 
  384.892  28%   0.502 -CrCH2                                              
  241.263  10%   0.314 GPC+PCh                                             
 1.40E+03   6%   1.820 NAA+NAAG                                            
  767.203   8%   1.000 Cr+PCr                                              
 5.43E+03  17%   7.076 Glu+Gln                                             
    0.000 999%   0.000 Lip13a                                              
  300.309  28%   0.391 Lip13b                                              
   71.977  51% 9.4E-02 Lip09                                               
  458.086  21%   0.597 MM09                                                
   46.283  52% 6.0E-02 Lip20                                               
  750.891  30%   0.979 MM20                                                
   10.472 638% 1.4E-02 MM12                                                
  847.649  20%   1.105 MM14                                                
  534.646  25%   0.697 MM17                                                
  300.309  28%   0.391 Lip13a+Lip13b                                       
 1.16E+03  15%   1.510 MM14+Lip13a+Lip13b+MM12                             
  530.063  17%   0.691 MM09+Lip09                                          
  797.173  28%   1.039 MM20+Lip20                                          
   6 lines in following misc. output table
  FWHM = 0.122 ppm    S/N =   5                                            
  Data shift = 0.046 ppm                                                   
  Ph: -25 deg     -21.5 deg/ppm                                            
  alphaB,S = 8.5E+01,   1.7E+02                                            
   14 spline knots.   Ns = 7(2)                                            
   2 inflections.     1 extrema                                            
  498 points on ppm-axis = NY
      4.000000     3.992357     3.984714     3.977070     3.969427     3.961784     3.954141     3.946497     3.938854     3.931211
      3.923568     3.915925     3.908281     3.900638     3.892995     3.885352     3.877708     3.870065     3.862422     3.854779
      3.847136     3.839492     3.831849     3.824206     3.816563     3.808919     3.801276     3.793633     3.785990     3.778347
      3.770703     3.763060     3.755417     3.747774     3.740130     3.732487     3.724844     3.717201     3.709558     3.701914
      3.694271     3.686628     3.678985     3.671341     3.663698     3.656055     3.648412     3.640769     3.633125     3.625482
      3.617839     3.610196     3.602552     3.594909     3.587266     3.579623     3.571980     3.564336     3.556693     3.549050
      3.541407     3.533763     3.526120     3.518477     3.510834     3.503191     3.495547     3.487904     3.480261     3.472618
      3.464974     3.457331     3.449688     3.442045     3.434402     3.426758     3.419115     3.411472     3.403829     3.396185
      3.388542     3.380899     3.373256     3.365613     3.357969     3.350326     3.342683     3.335040     3.327396     3.319753
      3.312110     3.304467     3.296824     3.289180     3.281537     3.273894     3.266251     3.258607     3.250964     3.243321
      3.235678     3.228034     3.220391     3.212748     3.205105     3.197462     3.189818     3.182175     3.174532     3.166889
      3.159245     3.151602     3.143959     3.136316     3.128673     3.121029     3.113386     3.105743     3.098100     3.090456
      3.082813     3.075170     3.067527     3.059884     3.052240     3.044597     3.036954     3.029311     3.021667     3.014024
      3.006381     2.998738     2.991095     2.983451     2.975808     2.968165     2.960522     2.952878     2.945235     2.937592
      2.929949     2.922306     2.914662     2.907019     2.899376     2.891733     2.884089     2.876446     2.868803     2.861160
      2.853517     2.845873     2.838230     2.830587     2.822944     2.815300     2.807657     2.800014     2.792371     2.784728
      2.777084     2.769441     2.761798     2.754155     2.746511     2.738868     2.731225     2.723582     2.715939     2.708295
      2.700652     2.693009     2.685366     2.677722     2.670079     2.662436     2.654793     2.647150     2.639506     2.631863
      2.624220     2.616577     2.608933     2.601290     2.593647     2.586004     2.578361     2.570717     2.563074     2.555431
      2.547788     2.540144     2.532501     2.524858     2.517215     2.509572     2.501928     2.494285     2.486642     2.478999
      2.471355     2.463712     2.456069     2.448426     2.440783     2.433139     2.425496     2.417853     2.410210     2.402566
      2.394923     2.387280     2.379637     2.371994     2.364350     2.356707     2.349064     2.341421     2.333777     2.326134
      2.318491     2.310848     2.303205     2.295561     2.287918     2.280275     2.272632     2.264988     2.257345     2.249702
      2.242059     2.234416     2.226772     2.219129     2.211486     2.203843     2.196199     2.188556     2.180913     2.173270
      2.165627     2.157983     2.150340     2.142697     2.135054     2.127410     2.119767     2.112124     2.104481     2.096838
      2.089194     2.081551     2.073908     2.066265     2.058621     2.050978     2.043335     2.035692     2.028049     2.020405
      2.012762     2.005119     1.997476     1.989833     1.982190     1.974546     1.966903     1.959260     1.951617     1.943974
      1.936331     1.928688     1.921045     1.913402     1.905759     1.898115     1.890472     1.882829     1.875186     1.867543
      1.859900     1.852257     1.844614     1.836971     1.829327     1.821684     1.814041     1.806398     1.798755     1.791112
      1.783469     1.775826     1.768183     1.760540     1.752896     1.745253     1.737610     1.729967     1.722324     1.714681
      1.707038     1.699395     1.691752     1.684108     1.676465     1.668822     1.661179     1.653536     1.645893     1.638250
      1.630607     1.622964     1.615321     1.607677     1.600034     1.592391     1.584748     1.577105     1.569462     1.561819
      1.554176     1.546533     1.538890     1.531246     1.523603     1.515960     1.508317     1.500674     1.493031     1.485388
      1.477745     1.470102     1.462458     1.454815     1.447172     1.439529     1.431886     1.424243     1.416600     1.408957
      1.401314     1.393671     1.386027     1.378384     1.370741     1.363098     1.355455     1.347812     1.340169     1.332526
      1.324883     1.317240     1.309596     1.301953     1.294310     1.286667     1.279024     1.271381     1.263738     1.256095
      1.248452     1.240808     1.233165     1.225522     1.217879     1.210236     1.202593     1.194950     1.187307     1.179664
      1.172021     1.164377     1.156734     1.149091     1.141448     1.133805     1.126162     1.118519     1.110876     1.103233
      1.095590     1.087946     1.080303     1.072660     1.065017     1.057374     1.049731     1.042088     1.034445     1.026802
      1.019158     1.011515     1.003872     0.996229     0.988586     0.980943     0.973300     0.965657     0.958014     0.950371
      0.942727     0.935084     0.927441     0.919798     0.912155     0.904512     0.896869     0.889226     0.881583     0.873940
      0.866296     0.858653     0.851010     0.843367     0.835724     0.828081     0.820438     0.812795     0.805152     0.797508
      0.789865     0.782222     0.774579     0.766936     0.759293     0.751650     0.744007     0.736364     0.728721     0.721077
      0.713434     0.705791     0.698148     0.690505     0.682862     0.675219     0.667576     0.659933     0.652290     0.644646
      0.637003     0.629360     0.621717     0.614074     0.606431     0.598788     0.591145     0.583502     0.575858     0.568215
      0.560572     0.552929     0.545286     0.537643     0.530000     0.522357     0.514714     0.507071     0.499427     0.491784
      0.484141     0.476498     0.468855     0.461212     0.453569     0.445925     0.438282     0.430639     0.422996     0.415353
      0.407710     0.400067     0.392424     0.384780     0.377137     0.369494     0.361851     0.354208     0.346565     0.338922
      0.331278     0.323635     0.315992     0.308349     0.300706     0.293063     0.285420     0.277777     0.270133     0.262490
      0.254847     0.247204     0.239561     0.231918     0.224275     0.216631     0.208988     0.201345
 NY phased data points follow
   8.85717E-02  3.97372E+00  2.24214E+00 -6.08338E-02  2.23004E+00  3.61452E+00  2.33438E+00  4.82194E+00  3.10828E+00  3.02148E+00
   3.14012E-01 -3.72392E-01  3.17062E+00 -1.36771E+00 -2.38297E+00  2.68045E+00  1.80275E+00  8.85171E-01 -2.89375E+00 -4.52868E+00
   1.58681E+00  5.58512E+00  4.27964E-01 -3.68227E+00  7.01716E-02  4.57005E+00  4.57654E+00 -8.06546E-01 -2.23084E-01 -1.91581E+00
  -1.21811E+00  3.24701E-01 -5.34552E-02  1.31211E+00  3.00534E+00 -9.89030E-01  3.24298E+00  5.54854E+00  1.51099E+00 -2.42135E+00
   4.49530E+00  2.24273E-01  2.66142E+00  5.10341E+00  6.51422E-01  1.86059E+00 -3.06858E+00  1.86841E+00 -2.07417E+00  9.21101E-01
  -1.60039E+00  1.08229E+00  2.41248E+00  4.26673E+00  5.72528E+00 -1.83704E+00 -5.60491E-01  1.38562E+00 -2.04149E+00  1.39128E+00
   2.20763E+00  3.14576E-01 -1.61988E+00 -1.23756E+00 -2.20329E+00 -5.84571E+00  1.53770E+00 -1.48371E-01  1.25824E-01 -4.87460E-01
  -2.05261E+00 -4.92923E-01  2.25952E+00 -4.33533E-01 -6.05285E+00 -3.34426E+00 -3.86717E+00 -2.83118E+00  2.05229E+00  4.28495E-01
   8.66280E-01 -1.25643E-01  1.12911E+00 -2.57923E-01 -3.62153E+00 -1.73240E+00 -4.80515E-02  6.89773E-01  5.84303E+00  4.92509E-01
   6.66175E+00  9.91684E-01  1.22094E+00  4.75259E+00  4.01327E+00  3.79212E+00  5.26785E+00  7.44418E+00  8.31803E+00  7.57002E+00
   9.64648E+00  1.24514E+01  7.83125E+00  7.46791E+00  8.16863E+00  1.10602E+01  6.92625E+00  5.87705E+00  3.92162E+00  2.69828E-01
   2.98092E+00  2.68246E+00 -2.84826E+00  5.20215E+00  6.85938E-01  1.54867E+00  2.60391E+00  2.22578E+00  3.33109E+00  6.01247E+00
   1.72579E+00  9.34592E+00  1.14730E+01  9.86643E+00  1.12512E+01  1.60317E+01  1.10539E+01  8.26027E+00  8.48122E+00  9.68160E+00
   6.74224E+00  5.80537E+00  2.80828E+00  8.90259E+00  1.92405E+00  2.59372E+00  1.41470E+00  4.80575E+00 -2.10609E+00  3.38917E-01
  -1.80788E+00  1.39592E+00 -6.01361E+00 -2.63953E-01  2.89863E+00 -1.56446E+00 -1.75485E+00 -2.45748E+00  1.50767E+00 -1.23609E+00
  -3.07011E+00 -6.22748E-01  2.75072E+00 -2.65457E+00 -2.92589E+00 -4.68928E+00 -3.09112E+00  1.78942E+00 -4.30383E+00 -2.49395E+00
   1.63925E+00 -5.28119E+00 -2.21543E+00 -4.79055E-01 -2.29240E+00 -2.75514E+00 -1.91683E+00 -4.42769E+00 -2.82068E+00 -2.50700E+00
  -6.37082E+00 -5.21995E+00 -3.44182E+00 -2.57281E+00 -7.09557E+00 -8.79835E+00 -1.03828E+01 -4.89005E+00 -5.87060E+00 -2.03181E+00
  -7.65191E+00 -5.10422E+00 -8.63945E+00 -6.03577E+00 -5.73044E+00 -4.21731E+00 -4.09977E+00 -5.75328E+00 -2.69330E+00 -3.83791E+00
  -3.17329E-01 -4.13196E+00 -1.16891E+00 -6.35942E+00 -5.49759E+00 -5.02839E+00 -1.52370E+00 -5.45172E+00 -6.19148E+00 -2.17688E+00
   5.60068E-02 -2.05747E+00 -4.41534E+00 -8.66243E-01 -1.49728E+00 -1.85542E+00 -3.45691E-02 -2.06561E+00 -4.58714E-01 -3.35149E+00
  -1.03867E+00  2.19376E+00  3.29504E+00  1.81986E+00 -2.03166E-01  3.85833E+00 -8.43596E-01  2.01001E+00  3.56481E+00 -1.10734E+00
  -4.03450E+00  2.38682E+00  9.21885E-01  1.18779E+00 -4.05220E+00 -3.50717E+00 -5.30468E+00  2.77613E+00  1.29314E-01 -4.72097E+00
  -6.44244E-01  3.48328E-01  6.36863E-01  1.95049E+00 -2.01964E+00  1.38905E+00  2.55259E+00 -8.03389E-01 -1.81399E+00  4.26686E+00
   5.92459E-01 -7.77655E-01  3.40406E+00  5.53572E-01  3.19057E-01  3.00808E+00  1.78014E+00  6.67851E+00  5.07367E+00  6.80190E+00
   8.05948E+00  1.27653E+01  8.93142E+00  1.19890E+01  9.89313E+00  1.95249E+01  1.76764E+01  2.40144E+01  2.47941E+01  2.56426E+01
   2.77020E+01  2.83297E+01  2.82056E+01  2.43963E+01  1.71248E+01  2.08688E+01  1.70123E+01  1.45777E+01  9.42301E+00  5.09848E+00
   1.08720E+01  8.14133E+00  4.74329E+00  3.27187E+00  4.60712E+00  4.49708E+00  6.48821E+00  3.26155E+00  4.90522E+00  3.55566E+00
   2.21062E+00  6.99222E-01  2.31917E+00 -5.40904E-01  5.08204E+00  3.61188E+00  1.33292E+00  1.31316E+00  2.03196E+00  1.28850E+00
   2.43477E+00  2.56578E+00  8.57244E-01  1.24196E+00  1.43860E+00 -3.64505E-01  1.94168E+00  2.84156E+00 -1.02413E+00  1.90237E+00
   5.97455E+00  4.09820E+00  2.35712E+00  1.62833E+00  7.13363E+00  4.73053E+00  2.12159E+00  5.45690E+00  5.03144E+00  5.52175E+00
   8.45817E+00  6.46594E+00  8.83919E+00  7.68508E+00  1.66249E+00  2.93098E+00  4.79017E+00  7.71377E+00  4.96367E+00  5.19295E+00
   3.53112E+00  5.16702E+00  5.20665E+00  2.01720E+00  4.78595E+00  4.60631E+00  2.19382E+00  6.00163E+00  1.39221E+00  7.81349E+00
   6.63957E+00  3.08832E+00  5.59088E+00  4.51332E+00  5.23352E+00  1.35632E+00  6.97696E+00  5.50060E+00  4.47997E+00  7.73869E+00
   7.75842E+00  8.75435E+00  5.28738E+00  5.86090E+00  5.76868E+00  3.36916E+00  5.91881E+00  5.41511E+00  3.93530E+00  5.54066E+00
   5.68408E+00  3.70036E+00  9.08939E+00  6.99960E+00  4.27879E+00  2.61993E+00  5.44844E+00  4.01259E+00  4.72514E+00  4.14499E+00
  -3.63444E-02  2.97447E+00  2.35172E-01 -1.57524E+00  8.40311E-01 -1.46424E+00  1.06775E+00 -3.52863E+00 -4.15233E+00 -6.14692E+00
  -7.46385E+00 -1.88963E+00 -4.74498E+00 -8.20349E+00 -8.92223E+00 -4.38945E-01 -3.77663E+00 -4.04025E+00 -4.46669E+00 -5.67619E+00
  -2.77794E+00 -1.09779E+00 -1.83876E+00  6.49209E-01 -3.06213E+00 -5.24601E+00 -3.68804E+00 -2.61240E+00 -1.99107E+00 -1.46447E-03
  -2.69342E+00 -5.04776E+00 -1.47030E+00  2.78926E+00 -2.18760E+00 -1.66301E+00  1.56121E+00  1.10508E+00  5.95234E-01  9.58174E-01
   2.81192E+00  3.00174E+00  3.07405E+00  5.70522E+00  4.00711E+00  1.19596E+00  3.04457E+00  2.47326E+00  5.35730E+00  4.29345E+00
   3.49392E+00  4.17865E+00  4.30371E+00  3.35508E+00  1.98569E+00  2.85730E+00  3.62175E+00  1.62517E+00  5.61562E+00  7.90205E+00
   7.44479E+00  4.80457E+00  2.14102E+00 -2.07065E+00  4.09638E+00 -2.43418E-01  1.96079E+00  1.05400E+00  3.17349E+00 -1.78027E+00
   4.85832E-01  6.09349E-01  1.82166E+00  3.34689E+00 -2.88201E+00 -1.47701E+00  7.56445E-01  1.80098E+00 -3.01937E+00  1.18228E-01
   1.48299E+00 -2.69860E+00  2.59164E-02  6.54448E-01  1.81892E+00  1.49366E-01  1.54537E+00  3.35630E+00  1.47176E+00 -3.28067E-01
   3.04577E+00 -1.22101E+00 -1.21041E+00  1.16272E+00 -2.78498E+00  9.79518E-01 -2.92276E+00  8.40746E-01 -2.26410E+00  1.57844E+00
  -2.66609E+00  1.88759E+00 -1.55337E-01  4.36170E-01 -1.09731E+00 -4.90596E+00 -8.33473E-01  2.24953E+00 -1.33055E+00  1.25913E+00
  -7.20493E-01  1.68335E-01 -1.14280E+00 -2.68634E-01  1.84248E+00 -2.12660E+00  1.50308E+00  1.59955E+00  1.53877E+00  2.29625E+00
  -1.27841E+00 -2.96662E+00  2.51716E+00 -1.83834E+00 -6.27939E-01 -8.45354E-01 -5.01839E+00 -2.10338E+00  1.71443E-01  2.11425E+00
   3.60785E+00  5.14450E+00 -2.86530E-02  1.43950E+00  2.67068E+00  2.48012E+00  2.79088E-01  3.44627E+00
 NY points of the fit to the data follow
   4.00843E-01  8.46133E-01  8.47838E-01  1.50628E+00  1.26304E+00  2.12520E+00  1.57449E+00  2.59079E+00  1.72589E+00  2.84132E+00
   1.80806E+00  2.87298E+00  1.60544E+00  2.57761E+00  1.25995E+00  1.91235E+00  7.30329E-01  1.37814E+00  5.03353E-01  1.12323E+00
   5.56768E-01  1.10326E+00  6.74669E-01  9.13201E-01  7.27004E-01  7.11837E-01  8.07545E-01  7.51354E-01  1.09500E+00  9.77633E-01
   1.52538E+00  1.23546E+00  1.88459E+00  1.45125E+00  2.10606E+00  1.52304E+00  1.98328E+00  1.43014E+00  1.72358E+00  1.29926E+00
   1.49526E+00  1.37155E+00  1.47914E+00  1.49938E+00  1.45271E+00  1.52656E+00  1.31326E+00  1.29943E+00  1.03486E+00  1.02825E+00
   7.32928E-01  7.01757E-01  4.49029E-01  3.73348E-01  1.28106E-01 -1.68827E-02 -1.99902E-01 -3.53300E-01 -4.69775E-01 -5.86107E-01
  -6.61572E-01 -7.42771E-01 -7.76087E-01 -8.33783E-01 -8.40067E-01 -8.63447E-01 -8.42937E-01 -8.57357E-01 -8.38139E-01 -8.49755E-01
  -8.18287E-01 -8.10750E-01 -6.71006E-01 -6.95713E-01 -5.33365E-01 -6.13386E-01 -4.24822E-01 -5.42261E-01 -3.05707E-01 -4.63309E-01
  -1.76622E-01 -3.93477E-01 -8.55691E-02 -3.69296E-01 -9.16515E-02 -4.13212E-01 -1.96836E-01 -4.19609E-01  2.73822E-01  4.17085E-01
   1.12743E+00  1.56418E+00  2.24809E+00  3.00030E+00  3.63577E+00  4.71024E+00  5.32508E+00  6.67722E+00  6.99317E+00  8.44684E+00
   8.22629E+00  9.55649E+00  8.66238E+00  9.66946E+00  8.17064E+00  8.72977E+00  6.78254E+00  6.91947E+00  4.93122E+00  4.79745E+00
   3.02917E+00  2.87608E+00  2.12639E+00  2.41872E+00  2.02784E+00  2.63645E+00  2.56528E+00  3.56934E+00  3.73921E+00  5.20449E+00
   5.62174E+00  7.55168E+00  7.61546E+00  9.70813E+00  9.12084E+00  1.10953E+01  9.71904E+00  1.13119E+01  9.23309E+00  1.02854E+01
   7.76660E+00  8.26484E+00  5.76153E+00  5.85543E+00  3.63889E+00  3.48708E+00  1.80507E+00  1.57334E+00  2.67026E-01 -3.63846E-02
  -9.15842E-01 -1.19457E+00 -1.68161E+00 -1.86088E+00 -1.95347E+00 -1.98412E+00 -2.04448E+00 -2.09727E+00 -2.15410E+00 -2.21474E+00
  -2.25205E+00 -2.29494E+00 -2.33776E+00 -2.39627E+00 -2.44901E+00 -2.52951E+00 -2.59522E+00 -2.68373E+00 -2.75900E+00 -2.84039E+00
  -2.93528E+00 -3.01808E+00 -3.16135E+00 -3.25307E+00 -3.38974E+00 -3.48938E+00 -3.62065E+00 -3.77577E+00 -3.88889E+00 -4.07055E+00
  -4.14175E+00 -4.34502E+00 -4.35792E+00 -4.58092E+00 -4.50119E+00 -4.68428E+00 -4.52303E+00 -4.65562E+00 -4.44653E+00 -4.57440E+00
  -4.35009E+00 -4.49817E+00 -4.31094E+00 -4.40314E+00 -4.27957E+00 -4.31904E+00 -4.15030E+00 -4.01787E+00 -3.78043E+00 -3.54429E+00
  -3.14024E+00 -2.82276E+00 -2.33859E+00 -2.00661E+00 -1.66686E+00 -1.66853E+00 -1.29592E+00 -1.42706E+00 -1.00905E+00 -1.41615E+00
  -9.83477E-01 -1.61905E+00 -1.14176E+00 -1.71044E+00 -1.46009E+00 -1.96593E+00 -1.92764E+00 -2.08019E+00 -2.29044E+00 -2.09548E+00
  -2.48418E+00 -1.46483E+00 -1.96953E+00 -4.09647E-01 -1.21296E+00  4.40096E-01 -7.91586E-01  5.17290E-01 -1.01955E+00 -1.60823E-01
  -1.60002E+00 -1.24000E+00 -2.07105E+00 -1.85680E+00 -1.90230E+00 -1.68186E+00 -9.53686E-01 -8.91324E-01  2.98809E-02 -1.43177E-01
   6.67950E-01  4.27453E-01  1.08992E+00  9.80539E-01  1.38590E+00  1.70673E+00  1.64916E+00  2.13929E+00  1.39207E+00  2.08154E+00
   7.73612E-01  1.62031E+00  4.04855E-02  1.24515E+00 -2.03615E-01  1.33962E+00  1.27492E+00  3.71971E+00  4.21643E+00  7.08674E+00
   7.89624E+00  1.10621E+01  1.18535E+01  1.52273E+01  1.60182E+01  1.97182E+01  2.00086E+01  2.37099E+01  2.29098E+01  2.61342E+01
   2.38889E+01  2.62776E+01  2.27478E+01  2.41291E+01  1.98454E+01  2.02402E+01  1.59705E+01  1.56849E+01  1.19301E+01  1.12420E+01
   8.42959E+00  7.69860E+00  5.57267E+00  4.80581E+00  3.41090E+00  2.76892E+00  2.00413E+00  1.57334E+00  1.46313E+00  1.33607E+00
   1.26987E+00  1.20665E+00  1.14486E+00  1.13034E+00  1.07145E+00  1.09138E+00  1.06246E+00  1.10627E+00  1.10709E+00  1.17945E+00
   1.22031E+00  1.32547E+00  1.42025E+00  1.57515E+00  1.72080E+00  1.91365E+00  2.09697E+00  2.31490E+00  2.52040E+00  2.74545E+00
   2.95290E+00  3.17141E+00  3.36337E+00  3.55742E+00  3.71761E+00  3.87361E+00  3.99274E+00  4.10779E+00  4.19110E+00  4.28165E+00
   4.36075E+00  4.48454E+00  4.67985E+00  5.01073E+00  5.04044E+00  5.33405E+00  5.20284E+00  5.47082E+00  5.15703E+00  5.35373E+00
   4.79662E+00  5.21361E+00  4.60393E+00  5.02415E+00  4.30450E+00  4.61525E+00  3.86334E+00  4.04656E+00  3.42992E+00  3.59935E+00
   3.34892E+00  3.54873E+00  3.77819E+00  4.00686E+00  4.60820E+00  4.74904E+00  5.53123E+00  5.50100E+00  6.17715E+00  5.84800E+00
   6.31733E+00  5.83490E+00  6.10234E+00  5.58584E+00  5.71188E+00  5.35857E+00  5.40812E+00  5.14052E+00  5.19970E+00  5.10329E+00
   5.20413E+00  5.22615E+00  5.28755E+00  5.34174E+00  5.28878E+00  5.11892E+00  4.79066E+00  4.34262E+00  3.77593E+00  3.16115E+00
   2.51667E+00  1.91401E+00  1.35873E+00  9.00083E-01  5.18129E-01  2.38315E-01  2.24900E-02 -1.15289E-01 -2.17746E-01 -2.70383E-01
  -3.12097E-01 -3.23300E-01 -3.37564E-01 -3.30844E-01 -3.33128E-01 -3.17963E-01 -3.13605E-01 -2.92626E-01 -2.82562E-01 -2.55663E-01
  -2.39127E-01 -2.05078E-01 -1.80455E-01 -1.37265E-01 -1.02173E-01 -4.70493E-02  1.73026E-03  7.24505E-02  1.39027E-01  2.29872E-01
   3.19115E-01  4.35159E-01  5.52151E-01  6.98234E-01  8.47255E-01  1.02670E+00  1.20967E+00  1.42250E+00  1.63702E+00  1.87799E+00
   2.11561E+00  2.37278E+00  2.61802E+00  2.87253E+00  3.10353E+00  3.33120E+00  3.52239E+00  3.69738E+00  3.82390E+00  3.92366E+00
   3.96655E+00  3.97686E+00  3.92757E+00  3.84611E+00  3.70873E+00  3.54582E+00  3.33633E+00  3.11270E+00  2.85542E+00  2.59763E+00
   2.31995E+00  2.05493E+00  1.78212E+00  1.53248E+00  1.28380E+00  1.06502E+00  8.52003E-01  6.71754E-01  4.98524E-01  3.57823E-01
   2.22806E-01  1.18059E-01  1.62080E-02 -5.85619E-02 -1.33696E-01 -1.85044E-01 -2.39843E-01 -2.73773E-01 -3.13729E-01 -3.35145E-01
  -3.64551E-01 -3.77157E-01 -3.99172E-01 -4.05631E-01 -4.22477E-01 -4.24626E-01 -4.37815E-01 -4.36898E-01 -4.47463E-01 -4.44329E-01
  -4.52964E-01 -4.48179E-01 -4.55355E-01 -4.49315E-01 -4.55368E-01 -4.48357E-01 -4.53523E-01 -4.45735E-01 -4.50182E-01 -4.41769E-01
  -4.45632E-01 -4.36704E-01 -4.40072E-01 -4.30708E-01 -4.33653E-01 -4.23922E-01 -4.26505E-01 -4.16456E-01 -4.18714E-01 -4.08379E-01
  -4.10346E-01 -3.99759E-01 -4.01460E-01 -3.90635E-01 -3.92080E-01 -3.81027E-01 -3.82228E-01 -3.70960E-01 -3.71922E-01 -3.60433E-01
  -3.61149E-01 -3.49434E-01 -3.49898E-01 -3.37947E-01 -3.38142E-01 -3.25927E-01 -3.25822E-01 -3.13315E-01 -3.12878E-01 -3.00035E-01
  -2.99207E-01 -2.85957E-01 -2.84660E-01 -2.70914E-01 -2.69043E-01 -2.54667E-01 -2.52051E-01 -2.36837E-01
 NY background values follow
    -2.898E+00   -2.893E+00   -2.888E+00   -2.882E+00   -2.877E+00   -2.872E+00   -2.866E+00   -2.861E+00   -2.855E+00   -2.850E+00
    -2.845E+00   -2.839E+00   -2.834E+00   -2.829E+00   -2.823E+00   -2.818E+00   -2.812E+00   -2.807E+00   -2.802E+00   -2.796E+00
    -2.791E+00   -2.785E+00   -2.780E+00   -2.775E+00   -2.769E+00   -2.764E+00   -2.758E+00   -2.753E+00   -2.748E+00   -2.742E+00
    -2.737E+00   -2.731E+00   -2.726E+00   -2.721E+00   -2.715E+00   -2.710E+00   -2.704E+00   -2.699E+00   -2.694E+00   -2.688E+00
    -2.683E+00   -2.677E+00   -2.672E+00   -2.666E+00   -2.661E+00   -2.656E+00   -2.650E+00   -2.645E+00   -2.639E+00   -2.634E+00
    -2.628E+00   -2.623E+00   -2.618E+00   -2.612E+00   -2.607E+00   -2.601E+00   -2.596E+00   -2.590E+00   -2.585E+00   -2.580E+00
    -2.574E+00   -2.569E+00   -2.563E+00   -2.558E+00   -2.552E+00   -2.547E+00   -2.541E+00   -2.536E+00   -2.531E+00   -2.525E+00
    -2.520E+00   -2.514E+00   -2.509E+00   -2.503E+00   -2.498E+00   -2.492E+00   -2.487E+00   -2.482E+00   -2.476E+00   -2.471E+00
    -2.465E+00   -2.460E+00   -2.454E+00   -2.449E+00   -2.443E+00   -2.438E+00   -2.432E+00   -2.427E+00   -2.422E+00   -2.416E+00
    -2.411E+00   -2.405E+00   -2.400E+00   -2.394E+00   -2.389E+00   -2.383E+00   -2.378E+00   -2.372E+00   -2.367E+00   -2.361E+00
    -2.356E+00   -2.350E+00   -2.345E+00   -2.340E+00   -2.334E+00   -2.329E+00   -2.323E+00   -2.318E+00   -2.312E+00   -2.307E+00
    -2.301E+00   -2.296E+00   -2.290E+00   -2.285E+00   -2.279E+00   -2.274E+00   -2.268E+00   -2.263E+00   -2.257E+00   -2.252E+00
    -2.246E+00   -2.241E+00   -2.235E+00   -2.230E+00   -2.224E+00   -2.219E+00   -2.213E+00   -2.208E+00   -2.202E+00   -2.197E+00
    -2.191E+00   -2.186E+00   -2.180E+00   -2.175E+00   -2.169E+00   -2.164E+00   -2.158E+00   -2.153E+00   -2.147E+00   -2.142E+00
    -2.136E+00   -2.131E+00   -2.125E+00   -2.120E+00   -2.114E+00   -2.109E+00   -2.103E+00   -2.098E+00   -2.092E+00   -2.087E+00
    -2.081E+00   -2.076E+00   -2.070E+00   -2.065E+00   -2.059E+00   -2.054E+00   -2.048E+00   -2.043E+00   -2.037E+00   -2.032E+00
    -2.026E+00   -2.021E+00   -2.015E+00   -2.010E+00   -2.004E+00   -1.999E+00   -1.993E+00   -1.988E+00   -1.982E+00   -1.977E+00
    -1.971E+00   -1.966E+00   -1.960E+00   -1.955E+00   -1.949E+00   -1.944E+00   -1.938E+00   -1.933E+00   -1.927E+00   -1.921E+00
    -1.916E+00   -1.910E+00   -1.905E+00   -1.899E+00   -1.894E+00   -1.888E+00   -1.883E+00   -1.877E+00   -1.872E+00   -1.866E+00
    -1.861E+00   -1.855E+00   -1.850E+00   -1.844E+00   -1.839E+00   -1.833E+00   -1.828E+00   -1.822E+00   -1.816E+00   -1.811E+00
    -1.805E+00   -1.800E+00   -1.794E+00   -1.789E+00   -1.783E+00   -1.778E+00   -1.772E+00   -1.767E+00   -1.761E+00   -1.756E+00
    -1.750E+00   -1.745E+00   -1.739E+00   -1.733E+00   -1.728E+00   -1.722E+00   -1.717E+00   -1.711E+00   -1.706E+00   -1.700E+00
    -1.695E+00   -1.689E+00   -1.684E+00   -1.678E+00   -1.672E+00   -1.667E+00   -1.661E+00   -1.656E+00   -1.650E+00   -1.645E+00
    -1.639E+00   -1.634E+00   -1.628E+00   -1.623E+00   -1.617E+00   -1.612E+00   -1.606E+00   -1.600E+00   -1.595E+00   -1.589E+00
    -1.584E+00   -1.578E+00   -1.573E+00   -1.567E+00   -1.562E+00   -1.556E+00   -1.551E+00   -1.545E+00   -1.539E+00   -1.534E+00
    -1.528E+00   -1.523E+00   -1.517E+00   -1.512E+00   -1.506E+00   -1.501E+00   -1.495E+00   -1.489E+00   -1.484E+00   -1.478E+00
    -1.473E+00   -1.467E+00   -1.462E+00   -1.456E+00   -1.451E+00   -1.445E+00   -1.440E+00   -1.434E+00   -1.428E+00   -1.423E+00
    -1.417E+00   -1.412E+00   -1.406E+00   -1.401E+00   -1.395E+00   -1.390E+00   -1.384E+00   -1.378E+00   -1.373E+00   -1.367E+00
    -1.362E+00   -1.356E+00   -1.351E+00   -1.345E+00   -1.340E+00   -1.334E+00   -1.328E+00   -1.323E+00   -1.317E+00   -1.312E+00
    -1.306E+00   -1.301E+00   -1.295E+00   -1.290E+00   -1.284E+00   -1.278E+00   -1.273E+00   -1.267E+00   -1.262E+00   -1.256E+00
    -1.251E+00   -1.245E+00   -1.240E+00   -1.234E+00   -1.228E+00   -1.223E+00   -1.217E+00   -1.212E+00   -1.206E+00   -1.201E+00
    -1.195E+00   -1.190E+00   -1.184E+00   -1.178E+00   -1.173E+00   -1.167E+00   -1.162E+00   -1.156E+00   -1.151E+00   -1.145E+00
    -1.140E+00   -1.134E+00   -1.128E+00   -1.123E+00   -1.117E+00   -1.112E+00   -1.106E+00   -1.101E+00   -1.095E+00   -1.090E+00
    -1.084E+00   -1.078E+00   -1.073E+00   -1.067E+00   -1.062E+00   -1.056E+00   -1.051E+00   -1.045E+00   -1.040E+00   -1.034E+00
    -1.028E+00   -1.023E+00   -1.017E+00   -1.012E+00   -1.006E+00   -1.001E+00   -9.952E-01   -9.896E-01   -9.841E-01   -9.785E-01
    -9.730E-01   -9.674E-01   -9.619E-01   -9.563E-01   -9.508E-01   -9.452E-01   -9.396E-01   -9.341E-01   -9.285E-01   -9.230E-01
    -9.174E-01   -9.119E-01   -9.063E-01   -9.008E-01   -8.952E-01   -8.897E-01   -8.841E-01   -8.786E-01   -8.730E-01   -8.675E-01
    -8.619E-01   -8.564E-01   -8.509E-01   -8.453E-01   -8.398E-01   -8.342E-01   -8.287E-01   -8.231E-01   -8.176E-01   -8.120E-01
    -8.065E-01   -8.009E-01   -7.954E-01   -7.898E-01   -7.843E-01   -7.787E-01   -7.732E-01   -7.677E-01   -7.621E-01   -7.566E-01
    -7.510E-01   -7.455E-01   -7.399E-01   -7.344E-01   -7.289E-01   -7.233E-01   -7.178E-01   -7.122E-01   -7.067E-01   -7.012E-01
    -6.956E-01   -6.901E-01   -6.845E-01   -6.790E-01   -6.735E-01   -6.679E-01   -6.624E-01   -6.568E-01   -6.513E-01   -6.458E-01
    -6.402E-01   -6.347E-01   -6.292E-01   -6.236E-01   -6.181E-01   -6.126E-01   -6.070E-01   -6.015E-01   -5.959E-01   -5.904E-01
    -5.849E-01   -5.794E-01   -5.738E-01   -5.683E-01   -5.628E-01   -5.572E-01   -5.517E-01   -5.462E-01   -5.406E-01   -5.351E-01
    -5.296E-01   -5.241E-01   -5.185E-01   -5.130E-01   -5.075E-01   -5.019E-01   -4.964E-01   -4.909E-01   -4.854E-01   -4.798E-01
    -4.743E-01   -4.688E-01   -4.633E-01   -4.578E-01   -4.522E-01   -4.467E-01   -4.412E-01   -4.357E-01   -4.302E-01   -4.246E-01
    -4.191E-01   -4.136E-01   -4.081E-01   -4.026E-01   -3.970E-01   -3.915E-01   -3.860E-01   -3.805E-01   -3.750E-01   -3.695E-01
    -3.640E-01   -3.585E-01   -3.529E-01   -3.474E-01   -3.419E-01   -3.364E-01   -3.309E-01   -3.254E-01   -3.199E-01   -3.144E-01
    -3.089E-01   -3.034E-01   -2.979E-01   -2.924E-01   -2.869E-01   -2.813E-01   -2.758E-01   -2.703E-01   -2.648E-01   -2.593E-01
    -2.538E-01   -2.483E-01   -2.428E-01   -2.373E-01   -2.318E-01   -2.263E-01   -2.209E-01   -2.154E-01   -2.099E-01   -2.044E-01
    -1.989E-01   -1.934E-01   -1.879E-01   -1.824E-01   -1.769E-01   -1.714E-01   -1.659E-01   -1.604E-01
 Ala      Conc. = 8.19E+02
