 LCModel (Version 6.3-1L) Copyright: S.W. Provencher.          Ref.: Magn. Reson. Med. 30:672-679 (1993).                
 Slice#2 Row#4 Col#8  PD_05_press_1_raw_act
 36 lines in following concentration table = NCONC+1
    Conc.  %SD /Cr+PCr  Metabolite                                         
  354.984  37%   0.184 Ala                                                 
    0.000 999%   0.000 Asp                                                 
  552.453  40%   0.287 Cr                                                  
 1.37E+03  16%   0.713 PCr                                                 
   81.952 221% 4.3E-02 GABA                                                
    0.000 999%   0.000 Glc                                                 
 1.00E+03  24%   0.519 Gln                                                 
 2.44E+03  12%   1.267 Glu                                                 
  780.964   3%   0.405 GPC                                                 
    0.000 999%   0.000 PCh                                                 
  643.640  11%   0.334 GSH                                                 
 2.04E+03  12%   1.060 Ins                                                 
  275.536  48%   0.143 Lac                                                 
 2.69E+03   3%   1.395 NAA                                                 
    0.000 999%   0.000 NAAG                                                
  169.253  16% 8.8E-02 Scyllo                                              
    0.000 999%   0.000 Tau                                                 
    0.000 999%   0.000 -CrCH2                                              
  780.964   3%   0.405 GPC+PCh                                             
 2.69E+03   3%   1.395 NAA+NAAG                                            
 1.93E+03   3%   1.000 Cr+PCr                                              
 3.44E+03  12%   1.786 Glu+Gln                                             
 2.40E+03  24%   1.245 Lip13a                                              
    0.000 999%   0.000 Lip13b                                              
    0.000 999%   0.000 Lip09                                               
 2.15E+03  11%   1.113 MM09                                                
  352.636  63%   0.183 Lip20                                               
 3.46E+03  11%   1.797 MM20                                                
  907.684  26%   0.471 MM12                                                
 7.24E+03   3%   3.756+MM14                                                
 1.13E+03  24%   0.588 MM17                                                
 2.40E+03  24%   1.245 Lip13a+Lip13b                                       
 1.05E+04   4%   5.472 MM14+Lip13a+Lip13b+MM12                             
 2.15E+03  11%   1.113 MM09+Lip09                                          
 3.82E+03  10%   1.980 MM20+Lip20                                          
   6 lines in following misc. output table
  FWHM = 0.061 ppm    S/N =  14                                            
  Data shift = 0.000 ppm                                                   
  Ph: -23 deg     -16.5 deg/ppm                                            
  alphaB,S = 8.5E+01,   2.0E+02                                            
   14 spline knots.   Ns = 7(1)                                            
   2 inflections.     1 extrema                                            
  498 points on ppm-axis = NY
      4.000000     3.992357     3.984714     3.977070     3.969427     3.961784     3.954141     3.946497     3.938854     3.931211
      3.923568     3.915925     3.908281     3.900638     3.892995     3.885352     3.877708     3.870065     3.862422     3.854779
      3.847136     3.839492     3.831849     3.824206     3.816563     3.808919     3.801276     3.793633     3.785990     3.778347
      3.770703     3.763060     3.755417     3.747774     3.740130     3.732487     3.724844     3.717201     3.709558     3.701914
      3.694271     3.686628     3.678985     3.671341     3.663698     3.656055     3.648412     3.640769     3.633125     3.625482
      3.617839     3.610196     3.602552     3.594909     3.587266     3.579623     3.571980     3.564336     3.556693     3.549050
      3.541407     3.533763     3.526120     3.518477     3.510834     3.503191     3.495547     3.487904     3.480261     3.472618
      3.464974     3.457331     3.449688     3.442045     3.434402     3.426758     3.419115     3.411472     3.403829     3.396185
      3.388542     3.380899     3.373256     3.365613     3.357969     3.350326     3.342683     3.335040     3.327396     3.319753
      3.312110     3.304467     3.296824     3.289180     3.281537     3.273894     3.266251     3.258607     3.250964     3.243321
      3.235678     3.228034     3.220391     3.212748     3.205105     3.197462     3.189818     3.182175     3.174532     3.166889
      3.159245     3.151602     3.143959     3.136316     3.128673     3.121029     3.113386     3.105743     3.098100     3.090456
      3.082813     3.075170     3.067527     3.059884     3.052240     3.044597     3.036954     3.029311     3.021667     3.014024
      3.006381     2.998738     2.991095     2.983451     2.975808     2.968165     2.960522     2.952878     2.945235     2.937592
      2.929949     2.922306     2.914662     2.907019     2.899376     2.891733     2.884089     2.876446     2.868803     2.861160
      2.853517     2.845873     2.838230     2.830587     2.822944     2.815300     2.807657     2.800014     2.792371     2.784728
      2.777084     2.769441     2.761798     2.754155     2.746511     2.738868     2.731225     2.723582     2.715939     2.708295
      2.700652     2.693009     2.685366     2.677722     2.670079     2.662436     2.654793     2.647150     2.639506     2.631863
      2.624220     2.616577     2.608933     2.601290     2.593647     2.586004     2.578361     2.570717     2.563074     2.555431
      2.547788     2.540144     2.532501     2.524858     2.517215     2.509572     2.501928     2.494285     2.486642     2.478999
      2.471355     2.463712     2.456069     2.448426     2.440783     2.433139     2.425496     2.417853     2.410210     2.402566
      2.394923     2.387280     2.379637     2.371994     2.364350     2.356707     2.349064     2.341421     2.333777     2.326134
      2.318491     2.310848     2.303205     2.295561     2.287918     2.280275     2.272632     2.264988     2.257345     2.249702
      2.242059     2.234416     2.226772     2.219129     2.211486     2.203843     2.196199     2.188556     2.180913     2.173270
      2.165627     2.157983     2.150340     2.142697     2.135054     2.127410     2.119767     2.112124     2.104481     2.096838
      2.089194     2.081551     2.073908     2.066265     2.058621     2.050978     2.043335     2.035692     2.028049     2.020405
      2.012762     2.005119     1.997476     1.989833     1.982190     1.974546     1.966903     1.959260     1.951617     1.943974
      1.936331     1.928688     1.921045     1.913402     1.905759     1.898115     1.890472     1.882829     1.875186     1.867543
      1.859900     1.852257     1.844614     1.836971     1.829327     1.821684     1.814041     1.806398     1.798755     1.791112
      1.783469     1.775826     1.768183     1.760540     1.752896     1.745253     1.737610     1.729967     1.722324     1.714681
      1.707038     1.699395     1.691752     1.684108     1.676465     1.668822     1.661179     1.653536     1.645893     1.638250
      1.630607     1.622964     1.615321     1.607677     1.600034     1.592391     1.584748     1.577105     1.569462     1.561819
      1.554176     1.546533     1.538890     1.531246     1.523603     1.515960     1.508317     1.500674     1.493031     1.485388
      1.477745     1.470102     1.462458     1.454815     1.447172     1.439529     1.431886     1.424243     1.416600     1.408957
      1.401314     1.393671     1.386027     1.378384     1.370741     1.363098     1.355455     1.347812     1.340169     1.332526
      1.324883     1.317240     1.309596     1.301953     1.294310     1.286667     1.279024     1.271381     1.263738     1.256095
      1.248452     1.240808     1.233165     1.225522     1.217879     1.210236     1.202593     1.194950     1.187307     1.179664
      1.172021     1.164377     1.156734     1.149091     1.141448     1.133805     1.126162     1.118519     1.110876     1.103233
      1.095590     1.087946     1.080303     1.072660     1.065017     1.057374     1.049731     1.042088     1.034445     1.026802
      1.019158     1.011515     1.003872     0.996229     0.988586     0.980943     0.973300     0.965657     0.958014     0.950371
      0.942727     0.935084     0.927441     0.919798     0.912155     0.904512     0.896869     0.889226     0.881583     0.873940
      0.866296     0.858653     0.851010     0.843367     0.835724     0.828081     0.820438     0.812795     0.805152     0.797508
      0.789865     0.782222     0.774579     0.766936     0.759293     0.751650     0.744007     0.736364     0.728721     0.721077
      0.713434     0.705791     0.698148     0.690505     0.682862     0.675219     0.667576     0.659933     0.652290     0.644646
      0.637003     0.629360     0.621717     0.614074     0.606431     0.598788     0.591145     0.583502     0.575858     0.568215
      0.560572     0.552929     0.545286     0.537643     0.530000     0.522357     0.514714     0.507071     0.499427     0.491784
      0.484141     0.476498     0.468855     0.461212     0.453569     0.445925     0.438282     0.430639     0.422996     0.415353
      0.407710     0.400067     0.392424     0.384780     0.377137     0.369494     0.361851     0.354208     0.346565     0.338922
      0.331278     0.323635     0.315992     0.308349     0.300706     0.293063     0.285420     0.277777     0.270133     0.262490
      0.254847     0.247204     0.239561     0.231918     0.224275     0.216631     0.208988     0.201345
 NY phased data points follow
   3.15125E+00  6.21144E+00  3.29657E+00  8.49759E+00  1.00118E+01  2.23658E+01  3.37573E+01  3.62086E+01  4.35288E+01  4.56010E+01
   4.61523E+01  4.20264E+01  4.17991E+01  3.31713E+01  2.83221E+01  1.85275E+01  1.79011E+01  1.15952E+01  8.41318E+00  6.23530E+00
   1.37336E+01  9.09787E+00  1.04117E+01  1.17161E+01  7.51686E+00  9.57945E+00  1.21982E+01  1.69524E+01  1.98256E+01  2.64550E+01
   1.81516E+01  2.15335E+01  1.58472E+01  1.46455E+01  1.38350E+01  1.51521E+01  1.24707E+01  1.73329E+01  1.60737E+01  1.30331E+01
   1.11405E+01  1.27629E+01  1.58607E+01  1.80567E+01  2.21994E+01  2.06591E+01  2.60568E+01  2.53562E+01  1.99863E+01  2.02176E+01
   1.83032E+01  1.20340E+01  1.54828E+01  1.37506E+01  1.80722E+01  1.06063E+01  1.17827E+01  1.63850E+01  9.87454E+00  1.18130E+01
   9.44822E+00  8.85982E+00  1.79803E+00  8.67846E-01  4.61448E+00 -1.00801E+00  2.59709E+00  4.66293E-01 -1.25194E+00  2.50948E+00
  -1.37140E+00  4.94286E+00  3.56569E+00  3.73886E+00  3.18219E+00  6.01315E+00  4.13372E+00  3.84805E+00  2.32565E+00  1.19545E+00
   6.04250E+00  5.01210E+00  5.55279E+00  8.65647E+00  8.27610E+00  9.08234E+00  7.93314E+00  1.00778E+01  9.41409E+00  7.82928E+00
   8.80630E+00  1.00513E+01  1.12102E+01  1.37621E+01  1.48543E+01  8.18824E+00  5.59708E+00  8.38729E+00  2.15205E+01  4.34837E+01
   5.70455E+01  6.85667E+01  6.96050E+01  6.95702E+01  5.84037E+01  5.24993E+01  4.86581E+01  3.90163E+01  3.11979E+01  2.50147E+01
   1.79915E+01  1.29729E+01  1.21517E+01  5.33964E+00  4.24396E+00  5.21973E+00  9.08962E+00  1.14662E+01  1.37559E+01  4.75764E+00
   2.38720E+00  8.38706E+00  1.68495E+01  3.87766E+01  5.00479E+01  6.44242E+01  7.15723E+01  6.53218E+01  6.03005E+01  5.37043E+01
   4.70478E+01  4.06756E+01  3.29398E+01  2.46388E+01  1.47526E+01  1.54478E+01  4.77857E+00  7.97153E+00  7.30848E+00  5.66236E+00
   3.87465E+00  4.81943E+00  6.70628E+00  6.80237E+00  8.76446E+00  9.70892E+00  6.58651E+00  1.06149E+01  5.81375E+00  8.64763E+00
   5.76903E+00  9.39806E+00  8.31116E+00  6.48441E+00  7.20311E+00  1.05266E+01  1.13575E+01  8.64444E+00  8.21909E+00  7.82684E+00
   8.10513E-01 -5.57490E-01  2.52019E+00  5.68021E+00  5.03582E+00  4.92885E+00  6.42102E+00  4.29425E+00  3.97795E+00  3.21089E+00
   2.03251E+00  3.14038E+00 -7.04737E+00 -5.66068E+00 -6.21879E+00 -2.69706E+00 -8.67558E-01 -1.24770E-01 -6.25414E+00 -1.58208E+00
  -3.02379E+00 -4.18082E-01 -3.25509E-01 -4.22006E+00 -9.89700E+00 -3.13146E+00 -9.52994E-01 -2.13052E+00 -3.38770E+00  1.65116E+00
   3.95496E+00  8.94480E+00  1.00150E+01  9.34298E+00  8.97940E+00  5.46005E+00  8.24883E+00  7.95595E+00  7.05287E+00  7.90697E+00
   6.99748E+00  1.21081E+01  1.04673E+01  1.21158E+01  1.25502E+01  1.32070E+01  1.13167E+01  2.28279E+00  2.32466E+00 -9.68016E-01
   5.90435E-02 -3.93450E-02  9.31235E+00  1.27942E+01  1.91508E+01  2.03463E+01  2.16940E+01  1.97649E+01  1.26840E+01  5.81182E+00
   1.44472E+00 -8.48744E-01  2.79508E+00  4.76843E+00  7.59240E+00  6.60520E+00  1.04460E+01  1.45018E+01  1.34995E+01  1.66825E+01
   1.51539E+01  1.44491E+01  1.32727E+01  1.21783E+01  1.35459E+01  1.48298E+01  1.50811E+01  1.57000E+01  1.28662E+01  1.22579E+01
   1.25058E+01  1.16252E+01  1.29531E+01  1.48337E+01  2.05771E+01  2.04963E+01  1.56730E+01  2.03412E+01  1.58775E+01  2.28656E+01
   3.25059E+01  2.99732E+01  2.77378E+01  2.47727E+01  1.49841E+01  2.74747E+01  4.92343E+01  7.14015E+01  9.53890E+01  1.06649E+02
   1.06964E+02  1.01937E+02  8.97970E+01  7.98043E+01  6.73260E+01  5.87808E+01  3.99907E+01  3.27828E+01  2.96946E+01  1.83839E+01
   1.70990E+01  1.45086E+01  1.69617E+01  1.56665E+01  1.52714E+01  1.73421E+01  1.44607E+01  1.52776E+01  1.15325E+01  1.31100E+01
   1.78955E+01  1.53316E+01  8.45176E+00  1.15606E+01  1.36283E+01  9.69011E+00  1.37685E+01  1.60566E+01  1.36781E+01  8.26595E+00
   9.92323E+00  1.16552E+01  1.00564E+01  1.20678E+01  1.10498E+01  1.26844E+01  9.93495E+00  9.47987E+00  1.12637E+01  1.06979E+01
   1.08919E+01  1.03442E+01  1.14389E+01  1.22849E+01  1.34876E+01  1.22609E+01  1.86048E+01  1.72574E+01  1.70294E+01  1.84302E+01
   1.78920E+01  1.95472E+01  2.12499E+01  2.00665E+01  2.32820E+01  2.07136E+01  2.46126E+01  2.60659E+01  2.57035E+01  2.71269E+01
   2.56809E+01  2.77532E+01  2.94674E+01  3.07861E+01  3.17405E+01  3.39254E+01  3.77486E+01  3.92900E+01  4.09243E+01  4.38199E+01
   4.94285E+01  5.13330E+01  5.67665E+01  5.80269E+01  6.47593E+01  7.26209E+01  7.46608E+01  7.33905E+01  7.85221E+01  7.48990E+01
   7.44654E+01  7.43386E+01  6.33371E+01  6.44817E+01  6.64207E+01  6.10819E+01  5.46976E+01  5.45495E+01  4.27031E+01  4.42755E+01
   4.31612E+01  4.06066E+01  3.82254E+01  3.57002E+01  3.75615E+01  3.24332E+01  3.26803E+01  3.64067E+01  3.01621E+01  3.22822E+01
   2.58249E+01  2.95612E+01  2.77607E+01  2.39060E+01  2.73517E+01  2.39428E+01  2.41435E+01  2.62663E+01  2.33316E+01  2.38716E+01
   2.59210E+01  2.43928E+01  2.64889E+01  2.36580E+01  2.24392E+01  2.38483E+01  2.14180E+01  2.25890E+01  1.97559E+01  2.22172E+01
   2.24548E+01  2.16097E+01  1.81569E+01  1.81994E+01  1.57878E+01  1.74164E+01  2.05921E+01  1.96654E+01  1.78502E+01  1.88117E+01
   1.89606E+01  2.26999E+01  2.13747E+01  2.10520E+01  1.97652E+01  2.42760E+01  2.24516E+01  2.05238E+01  1.99185E+01  2.54564E+01
   2.05245E+01  2.72310E+01  2.10833E+01  2.26638E+01  2.61447E+01  2.00721E+01  2.17165E+01  2.58033E+01  2.57650E+01  2.15397E+01
   2.28101E+01  2.39131E+01  2.41949E+01  2.53525E+01  2.37842E+01  2.40808E+01  2.31115E+01  2.51410E+01  2.23124E+01  2.23961E+01
   2.09116E+01  1.88526E+01  1.84077E+01  1.98662E+01  1.66488E+01  1.77190E+01  1.71534E+01  1.74223E+01  1.38536E+01  1.81059E+01
   1.80474E+01  1.50611E+01  1.53596E+01  1.91249E+01  1.58370E+01  1.49641E+01  1.75587E+01  1.47237E+01  1.94481E+01  1.43404E+01
   1.65600E+01  1.58251E+01  1.17112E+01  1.63814E+01  1.63889E+01  1.46733E+01  1.58704E+01  1.41595E+01  1.33598E+01  1.40631E+01
   1.31753E+01  1.18436E+01  1.50644E+01  1.52880E+01  1.49775E+01  1.18490E+01  1.37460E+01  1.12231E+01  1.18330E+01  1.22517E+01
   9.27511E+00  1.11820E+01  1.47613E+01  1.07481E+01  1.17136E+01  1.23402E+01  1.27381E+01  1.31034E+01  1.13896E+01  1.54876E+01
   1.19591E+01  1.48860E+01  1.35916E+01  1.40905E+01  1.80765E+01  1.05823E+01  1.31967E+01  1.89085E+01  1.40377E+01  1.68403E+01
   1.62978E+01  1.39824E+01  1.17784E+01  1.02737E+01  1.21494E+01  1.46408E+01  1.01091E+01  1.63778E+01  1.39955E+01  9.71300E+00
   1.39887E+01  1.71961E+01  1.46028E+01  1.35936E+01  1.56456E+01  1.17359E+01  1.58881E+01  1.40764E+01
 NY points of the fit to the data follow
   5.89608E+00  5.62797E+00  6.09936E+00  8.17183E+00  1.31667E+01  2.10955E+01  3.04491E+01  3.89227E+01  4.45137E+01  4.63725E+01
   4.49478E+01  4.14331E+01  3.69465E+01  3.21135E+01  2.72000E+01  2.24035E+01  1.79611E+01  1.41895E+01  1.16650E+01  1.03989E+01
   9.72640E+00  9.28631E+00  8.60313E+00  7.67617E+00  7.33782E+00  8.30203E+00  1.06234E+01  1.38344E+01  1.72508E+01  2.01950E+01
   2.20700E+01  2.26097E+01  2.18767E+01  2.00505E+01  1.74960E+01  1.46598E+01  1.20126E+01  9.80831E+00  8.33140E+00  7.76032E+00
   7.89614E+00  9.11061E+00  1.17725E+01  1.54364E+01  1.90153E+01  2.13776E+01  2.20136E+01  2.10154E+01  1.88914E+01  1.63606E+01
   1.38927E+01  1.16571E+01  9.73792E+00  8.26124E+00  7.40256E+00  7.38007E+00  8.18750E+00  9.30255E+00  1.00569E+01  1.01233E+01
   9.52581E+00  8.53552E+00  7.48992E+00  6.64870E+00  6.11521E+00  5.90185E+00  5.99123E+00  6.34361E+00  6.89423E+00  7.47216E+00
   7.91917E+00  8.13897E+00  8.11220E+00  7.90890E+00  7.60584E+00  7.26009E+00  6.91540E+00  6.58627E+00  6.29895E+00  6.06344E+00
   5.94402E+00  6.22767E+00  7.11897E+00  8.37612E+00  9.49052E+00  1.00524E+01  9.94333E+00  9.34796E+00  8.61487E+00  8.02450E+00
   7.68203E+00  7.48088E+00  7.22294E+00  6.79476E+00  6.24557E+00  5.86136E+00  6.77382E+00  1.19944E+01  2.36239E+01  3.98596E+01
   5.60281E+01  6.75486E+01  7.20874E+01  7.00719E+01  6.37662E+01  5.56722E+01  4.71803E+01  3.86339E+01  3.01613E+01  2.21660E+01
   1.51098E+01  9.69143E+00  7.02988E+00  6.25135E+00  5.96861E+00  5.82172E+00  5.73633E+00  5.71950E+00  5.82511E+00  6.18119E+00
   7.30477E+00  1.16629E+01  2.17034E+01  3.62615E+01  5.12708E+01  6.24862E+01  6.75743E+01  6.67811E+01  6.21267E+01  5.57325E+01
   4.86580E+01  4.09816E+01  3.26883E+01  2.43275E+01  1.67294E+01  1.08274E+01  7.96199E+00  7.54947E+00  7.88650E+00  8.35896E+00
   8.72462E+00  8.92110E+00  9.01510E+00  9.04718E+00  8.95599E+00  8.72398E+00  8.35551E+00  7.87033E+00  7.34981E+00  6.85078E+00
   6.43423E+00  6.14786E+00  5.97454E+00  5.90029E+00  5.90064E+00  5.84694E+00  5.55271E+00  4.99364E+00  4.34355E+00  3.90659E+00
   3.90058E+00  4.22773E+00  4.59529E+00  4.73826E+00  4.56502E+00  4.16994E+00  3.71332E+00  3.30798E+00  2.97240E+00  2.63623E+00
   2.12750E+00  1.32089E+00  4.00408E-01 -3.17558E-01 -5.71972E-01 -4.44446E-01 -2.71058E-01 -2.16641E-01 -2.62970E-01 -3.24964E-01
  -3.42646E-01 -3.82511E-01 -5.55677E-01 -7.25635E-01 -5.56835E-01  2.22915E-01  1.65136E+00  3.55376E+00  5.44859E+00  6.88472E+00
   7.59493E+00  7.60890E+00  7.15047E+00  6.43736E+00  5.70458E+00  5.22882E+00  5.18530E+00  5.64500E+00  6.71620E+00  8.35102E+00
   1.03219E+01  1.22198E+01  1.35098E+01  1.37478E+01  1.25857E+01  1.01394E+01  7.10697E+00  4.20767E+00  2.00526E+00  9.72365E-01
   1.65411E+00  4.30821E+00  8.32379E+00  1.25835E+01  1.59067E+01  1.74646E+01  1.68520E+01  1.40578E+01  9.72000E+00  5.03516E+00
   1.42777E+00 -2.95494E-01 -1.09439E-01  1.56291E+00  4.11953E+00  6.98031E+00  9.54917E+00  1.14271E+01  1.27250E+01  1.36146E+01
   1.41633E+01  1.44843E+01  1.48166E+01  1.54416E+01  1.64007E+01  1.73876E+01  1.80600E+01  1.80705E+01  1.73061E+01  1.61020E+01
   1.49966E+01  1.44024E+01  1.45234E+01  1.52666E+01  1.63014E+01  1.72854E+01  1.81009E+01  1.87437E+01  1.93024E+01  1.99251E+01
   2.06632E+01  2.14215E+01  2.19730E+01  2.23329E+01  2.44803E+01  3.35801E+01  5.11334E+01  7.29348E+01  9.23348E+01  1.04127E+02
   1.06517E+02  1.01182E+02  9.15937E+01  8.06667E+01  6.95140E+01  5.82085E+01  4.69630E+01  3.63527E+01  2.69735E+01  2.03373E+01
   1.77329E+01  1.67243E+01  1.61701E+01  1.58278E+01  1.55571E+01  1.52291E+01  1.48415E+01  1.44080E+01  1.39411E+01  1.34608E+01
   1.29938E+01  1.25524E+01  1.21552E+01  1.18231E+01  1.15567E+01  1.13451E+01  1.11797E+01  1.10527E+01  1.09598E+01  1.08970E+01
   1.08569E+01  1.08453E+01  1.08707E+01  1.09386E+01  1.10548E+01  1.12245E+01  1.14497E+01  1.17304E+01  1.20667E+01  1.24591E+01
   1.29044E+01  1.33957E+01  1.39247E+01  1.44810E+01  1.50541E+01  1.56334E+01  1.62084E+01  1.67692E+01  1.73077E+01  1.78193E+01
   1.83041E+01  1.87678E+01  1.92223E+01  1.96864E+01  2.01853E+01  2.07518E+01  2.14254E+01  2.22533E+01  2.32916E+01  2.46146E+01
   2.63538E+01  2.86402E+01  3.12933E+01  3.39189E+01  3.62129E+01  3.81170E+01  3.97819E+01  4.14168E+01  4.31889E+01  4.53837E+01
   4.82669E+01  5.18603E+01  5.59183E+01  6.00390E+01  6.38155E+01  6.70000E+01  6.94788E+01  7.11339E+01  7.20071E+01  7.21726E+01
   7.17264E+01  7.08397E+01  6.95050E+01  6.75463E+01  6.49140E+01  6.15928E+01  5.77029E+01  5.34941E+01  4.92497E+01  4.53615E+01
   4.21565E+01  3.97294E+01  3.79612E+01  3.66269E+01  3.55017E+01  3.44693E+01  3.35208E+01  3.25875E+01  3.16496E+01  3.07211E+01
   2.97946E+01  2.88695E+01  2.79429E+01  2.70505E+01  2.62966E+01  2.56575E+01  2.50799E+01  2.45383E+01  2.40191E+01  2.35149E+01
   2.30224E+01  2.25409E+01  2.20722E+01  2.16189E+01  2.11847E+01  2.07736E+01  2.03899E+01  2.00382E+01  1.97226E+01  1.94468E+01
   1.92142E+01  1.90276E+01  1.88896E+01  1.88022E+01  1.87669E+01  1.87846E+01  1.88558E+01  1.89801E+01  1.91571E+01  1.93853E+01
   1.96625E+01  1.99856E+01  2.03504E+01  2.07519E+01  2.11841E+01  2.16400E+01  2.21112E+01  2.25887E+01  2.30626E+01  2.35226E+01
   2.39583E+01  2.43590E+01  2.47146E+01  2.50158E+01  2.52544E+01  2.54239E+01  2.55193E+01  2.55375E+01  2.54776E+01  2.53405E+01
   2.51293E+01  2.48489E+01  2.45058E+01  2.41077E+01  2.36631E+01  2.31811E+01  2.26713E+01  2.21429E+01  2.16047E+01  2.10648E+01
   2.05303E+01  2.00077E+01  1.95021E+01  1.90177E+01  1.85576E+01  1.81239E+01  1.77177E+01  1.73395E+01  1.69895E+01  1.66668E+01
   1.63704E+01  1.60989E+01  1.58509E+01  1.56248E+01  1.54190E+01  1.52318E+01  1.50616E+01  1.49069E+01  1.47663E+01  1.46385E+01
   1.45223E+01  1.44166E+01  1.43203E+01  1.42325E+01  1.41526E+01  1.40797E+01  1.40133E+01  1.39526E+01  1.38971E+01  1.38465E+01
   1.38003E+01  1.37582E+01  1.37198E+01  1.36847E+01  1.36528E+01  1.36237E+01  1.35974E+01  1.35736E+01  1.35520E+01  1.35325E+01
   1.35149E+01  1.34992E+01  1.34853E+01  1.34730E+01  1.34622E+01  1.34527E+01  1.34445E+01  1.34375E+01  1.34318E+01  1.34272E+01
   1.34235E+01  1.34207E+01  1.34189E+01  1.34180E+01  1.34179E+01  1.34185E+01  1.34198E+01  1.34218E+01  1.34245E+01  1.34278E+01
   1.34317E+01  1.34361E+01  1.34409E+01  1.34463E+01  1.34522E+01  1.34585E+01  1.34652E+01  1.34723E+01  1.34797E+01  1.34875E+01
   1.34957E+01  1.35041E+01  1.35128E+01  1.35217E+01  1.35309E+01  1.35403E+01  1.35500E+01  1.35598E+01
 NY background values follow
     2.320E-02    4.799E-02    7.278E-02    9.758E-02    1.224E-01    1.472E-01    1.720E-01    1.968E-01    2.216E-01    2.463E-01
     2.711E-01    2.959E-01    3.207E-01    3.455E-01    3.703E-01    3.951E-01    4.199E-01    4.447E-01    4.695E-01    4.943E-01
     5.191E-01    5.439E-01    5.687E-01    5.935E-01    6.183E-01    6.430E-01    6.678E-01    6.926E-01    7.174E-01    7.422E-01
     7.670E-01    7.918E-01    8.166E-01    8.414E-01    8.662E-01    8.910E-01    9.158E-01    9.406E-01    9.653E-01    9.901E-01
     1.015E+00    1.040E+00    1.065E+00    1.089E+00    1.114E+00    1.139E+00    1.164E+00    1.188E+00    1.213E+00    1.238E+00
     1.263E+00    1.288E+00    1.312E+00    1.337E+00    1.362E+00    1.387E+00    1.412E+00    1.436E+00    1.461E+00    1.486E+00
     1.511E+00    1.536E+00    1.560E+00    1.585E+00    1.610E+00    1.635E+00    1.659E+00    1.684E+00    1.709E+00    1.734E+00
     1.759E+00    1.783E+00    1.808E+00    1.833E+00    1.858E+00    1.883E+00    1.907E+00    1.932E+00    1.957E+00    1.982E+00
     2.006E+00    2.031E+00    2.056E+00    2.081E+00    2.106E+00    2.130E+00    2.155E+00    2.180E+00    2.205E+00    2.230E+00
     2.254E+00    2.279E+00    2.304E+00    2.329E+00    2.353E+00    2.378E+00    2.403E+00    2.428E+00    2.453E+00    2.477E+00
     2.502E+00    2.527E+00    2.552E+00    2.577E+00    2.601E+00    2.626E+00    2.651E+00    2.676E+00    2.700E+00    2.725E+00
     2.750E+00    2.775E+00    2.800E+00    2.824E+00    2.849E+00    2.874E+00    2.899E+00    2.923E+00    2.948E+00    2.973E+00
     2.998E+00    3.023E+00    3.047E+00    3.072E+00    3.097E+00    3.122E+00    3.146E+00    3.171E+00    3.196E+00    3.221E+00
     3.246E+00    3.270E+00    3.295E+00    3.320E+00    3.345E+00    3.369E+00    3.394E+00    3.419E+00    3.444E+00    3.469E+00
     3.493E+00    3.518E+00    3.543E+00    3.568E+00    3.592E+00    3.617E+00    3.642E+00    3.667E+00    3.691E+00    3.716E+00
     3.741E+00    3.766E+00    3.791E+00    3.815E+00    3.840E+00    3.865E+00    3.890E+00    3.914E+00    3.939E+00    3.964E+00
     3.989E+00    4.014E+00    4.038E+00    4.063E+00    4.088E+00    4.113E+00    4.137E+00    4.162E+00    4.187E+00    4.212E+00
     4.236E+00    4.261E+00    4.286E+00    4.311E+00    4.335E+00    4.360E+00    4.385E+00    4.410E+00    4.435E+00    4.459E+00
     4.484E+00    4.509E+00    4.534E+00    4.558E+00    4.583E+00    4.608E+00    4.633E+00    4.657E+00    4.682E+00    4.707E+00
     4.732E+00    4.756E+00    4.781E+00    4.806E+00    4.831E+00    4.855E+00    4.880E+00    4.905E+00    4.930E+00    4.955E+00
     4.979E+00    5.004E+00    5.029E+00    5.054E+00    5.078E+00    5.103E+00    5.128E+00    5.153E+00    5.177E+00    5.202E+00
     5.227E+00    5.252E+00    5.276E+00    5.301E+00    5.326E+00    5.351E+00    5.375E+00    5.400E+00    5.425E+00    5.450E+00
     5.474E+00    5.499E+00    5.524E+00    5.549E+00    5.573E+00    5.598E+00    5.623E+00    5.648E+00    5.672E+00    5.697E+00
     5.722E+00    5.747E+00    5.771E+00    5.796E+00    5.821E+00    5.845E+00    5.870E+00    5.895E+00    5.920E+00    5.944E+00
     5.969E+00    5.994E+00    6.019E+00    6.043E+00    6.068E+00    6.093E+00    6.118E+00    6.142E+00    6.167E+00    6.192E+00
     6.217E+00    6.241E+00    6.266E+00    6.291E+00    6.315E+00    6.340E+00    6.365E+00    6.390E+00    6.414E+00    6.439E+00
     6.464E+00    6.489E+00    6.513E+00    6.538E+00    6.563E+00    6.587E+00    6.612E+00    6.637E+00    6.662E+00    6.686E+00
     6.711E+00    6.736E+00    6.761E+00    6.785E+00    6.810E+00    6.835E+00    6.859E+00    6.884E+00    6.909E+00    6.934E+00
     6.958E+00    6.983E+00    7.008E+00    7.032E+00    7.057E+00    7.082E+00    7.107E+00    7.131E+00    7.156E+00    7.181E+00
     7.205E+00    7.230E+00    7.255E+00    7.280E+00    7.304E+00    7.329E+00    7.354E+00    7.378E+00    7.403E+00    7.428E+00
     7.452E+00    7.477E+00    7.502E+00    7.527E+00    7.551E+00    7.576E+00    7.601E+00    7.625E+00    7.650E+00    7.675E+00
     7.699E+00    7.724E+00    7.749E+00    7.774E+00    7.798E+00    7.823E+00    7.848E+00    7.872E+00    7.897E+00    7.922E+00
     7.946E+00    7.971E+00    7.996E+00    8.020E+00    8.045E+00    8.070E+00    8.094E+00    8.119E+00    8.144E+00    8.168E+00
     8.193E+00    8.218E+00    8.243E+00    8.267E+00    8.292E+00    8.317E+00    8.341E+00    8.366E+00    8.391E+00    8.415E+00
     8.440E+00    8.465E+00    8.489E+00    8.514E+00    8.539E+00    8.563E+00    8.588E+00    8.613E+00    8.637E+00    8.662E+00
     8.687E+00    8.711E+00    8.736E+00    8.761E+00    8.785E+00    8.810E+00    8.834E+00    8.859E+00    8.884E+00    8.908E+00
     8.933E+00    8.958E+00    8.982E+00    9.007E+00    9.032E+00    9.056E+00    9.081E+00    9.106E+00    9.130E+00    9.155E+00
     9.180E+00    9.204E+00    9.229E+00    9.254E+00    9.278E+00    9.303E+00    9.327E+00    9.352E+00    9.377E+00    9.401E+00
     9.426E+00    9.451E+00    9.475E+00    9.500E+00    9.524E+00    9.549E+00    9.574E+00    9.598E+00    9.623E+00    9.648E+00
     9.672E+00    9.697E+00    9.721E+00    9.746E+00    9.771E+00    9.795E+00    9.820E+00    9.845E+00    9.869E+00    9.894E+00
     9.918E+00    9.943E+00    9.968E+00    9.992E+00    1.002E+01    1.004E+01    1.007E+01    1.009E+01    1.012E+01    1.014E+01
     1.016E+01    1.019E+01    1.021E+01    1.024E+01    1.026E+01    1.029E+01    1.031E+01    1.034E+01    1.036E+01    1.039E+01
     1.041E+01    1.044E+01    1.046E+01    1.048E+01    1.051E+01    1.053E+01    1.056E+01    1.058E+01    1.061E+01    1.063E+01
     1.066E+01    1.068E+01    1.071E+01    1.073E+01    1.075E+01    1.078E+01    1.080E+01    1.083E+01    1.085E+01    1.088E+01
     1.090E+01    1.093E+01    1.095E+01    1.098E+01    1.100E+01    1.102E+01    1.105E+01    1.107E+01    1.110E+01    1.112E+01
     1.115E+01    1.117E+01    1.120E+01    1.122E+01    1.125E+01    1.127E+01    1.129E+01    1.132E+01    1.134E+01    1.137E+01
     1.139E+01    1.142E+01    1.144E+01    1.147E+01    1.149E+01    1.152E+01    1.154E+01    1.156E+01    1.159E+01    1.161E+01
     1.164E+01    1.166E+01    1.169E+01    1.171E+01    1.174E+01    1.176E+01    1.179E+01    1.181E+01    1.183E+01    1.186E+01
     1.188E+01    1.191E+01    1.193E+01    1.196E+01    1.198E+01    1.201E+01    1.203E+01    1.206E+01    1.208E+01    1.210E+01
     1.213E+01    1.215E+01    1.218E+01    1.220E+01    1.223E+01    1.225E+01    1.228E+01    1.230E+01
 Ala      Conc. = 3.55E+02
