 LCModel (Version 6.3-1L) Copyright: S.W. Provencher.          Ref.: Magn. Reson. Med. 30:672-679 (1993).                
 Slice#2 Row#4 Col#12  PD_05_press_1_raw_act
 36 lines in following concentration table = NCONC+1
    Conc.  %SD /Cr+PCr  Metabolite                                         
 3.09E+03  34% 108.734 Ala                                                 
   18.460  98%   0.649 Asp                                                 
    0.000 999%   0.000 Cr                                                  
   28.425 216%   1.000 PCr                                                 
   11.904  92%   0.419 GABA                                                
   12.989  84%   0.457 Glc                                                 
  588.420  96%  20.701 Gln                                                 
 1.47E+03  53%  51.790 Glu                                                 
    0.000 999%   0.000 GPC                                                 
  119.582  20%   4.207 PCh                                                 
    0.000 999%   0.000 GSH                                                 
   92.040 297%   3.238 Ins                                                 
 8.44E+03  15% 296.892 Lac                                                 
    0.000 999%   0.000 NAA                                                 
    0.000 999%   0.000 NAAG                                                
    5.256  70%   0.185 Scyllo                                              
   25.028  72%   0.880 Tau                                                 
    3.920 491%   0.138 -CrCH2                                              
  119.582  20%   4.207 GPC+PCh                                             
    0.000 999%   0.000 NAA+NAAG                                            
   28.425 216%   1.000 Cr+PCr                                              
 2.06E+03  55%  72.490 Glu+Gln                                             
 8.14E+03  24% 286.447 Lip13a                                              
    0.000 999%   0.000 Lip13b                                              
 3.02E+03  23% 106.218 Lip09                                               
 3.85E+03  15% 135.388 MM09                                                
    0.000 999%   0.000 Lip20                                               
 4.60E+03  11% 161.718 MM20                                                
  970.382  45%  34.138 MM12                                                
 1.57E+04  10% 553.051+MM14                                                
 8.90E+03  13% 313.230+MM17                                                
 8.14E+03  24% 286.447 Lip13a+Lip13b                                       
 2.48E+04   9% 873.637 MM14+Lip13a+Lip13b+MM12                             
 6.87E+03  12% 241.606 MM09+Lip09                                          
 4.60E+03  11% 161.718 MM20+Lip20                                          
   6 lines in following misc. output table
  FWHM = 0.168 ppm    S/N =  21                                            
  Data shift = 0.199 ppm                                                   
  Ph:  66 deg      -1.0 deg/ppm                                            
  alphaB,S = 7.5E+00,   4.1E+02                                            
    6 spline knots.   Ns = 9(2)                                            
  (13) 5 infls.   ( 1) 1 extrs.                                            
  498 points on ppm-axis = NY
      4.000000     3.992357     3.984714     3.977070     3.969427     3.961784     3.954141     3.946497     3.938854     3.931211
      3.923568     3.915925     3.908281     3.900638     3.892995     3.885352     3.877708     3.870065     3.862422     3.854779
      3.847136     3.839492     3.831849     3.824206     3.816563     3.808919     3.801276     3.793633     3.785990     3.778347
      3.770703     3.763060     3.755417     3.747774     3.740130     3.732487     3.724844     3.717201     3.709558     3.701914
      3.694271     3.686628     3.678985     3.671341     3.663698     3.656055     3.648412     3.640769     3.633125     3.625482
      3.617839     3.610196     3.602552     3.594909     3.587266     3.579623     3.571980     3.564336     3.556693     3.549050
      3.541407     3.533763     3.526120     3.518477     3.510834     3.503191     3.495547     3.487904     3.480261     3.472618
      3.464974     3.457331     3.449688     3.442045     3.434402     3.426758     3.419115     3.411472     3.403829     3.396185
      3.388542     3.380899     3.373256     3.365613     3.357969     3.350326     3.342683     3.335040     3.327396     3.319753
      3.312110     3.304467     3.296824     3.289180     3.281537     3.273894     3.266251     3.258607     3.250964     3.243321
      3.235678     3.228034     3.220391     3.212748     3.205105     3.197462     3.189818     3.182175     3.174532     3.166889
      3.159245     3.151602     3.143959     3.136316     3.128673     3.121029     3.113386     3.105743     3.098100     3.090456
      3.082813     3.075170     3.067527     3.059884     3.052240     3.044597     3.036954     3.029311     3.021667     3.014024
      3.006381     2.998738     2.991095     2.983451     2.975808     2.968165     2.960522     2.952878     2.945235     2.937592
      2.929949     2.922306     2.914662     2.907019     2.899376     2.891733     2.884089     2.876446     2.868803     2.861160
      2.853517     2.845873     2.838230     2.830587     2.822944     2.815300     2.807657     2.800014     2.792371     2.784728
      2.777084     2.769441     2.761798     2.754155     2.746511     2.738868     2.731225     2.723582     2.715939     2.708295
      2.700652     2.693009     2.685366     2.677722     2.670079     2.662436     2.654793     2.647150     2.639506     2.631863
      2.624220     2.616577     2.608933     2.601290     2.593647     2.586004     2.578361     2.570717     2.563074     2.555431
      2.547788     2.540144     2.532501     2.524858     2.517215     2.509572     2.501928     2.494285     2.486642     2.478999
      2.471355     2.463712     2.456069     2.448426     2.440783     2.433139     2.425496     2.417853     2.410210     2.402566
      2.394923     2.387280     2.379637     2.371994     2.364350     2.356707     2.349064     2.341421     2.333777     2.326134
      2.318491     2.310848     2.303205     2.295561     2.287918     2.280275     2.272632     2.264988     2.257345     2.249702
      2.242059     2.234416     2.226772     2.219129     2.211486     2.203843     2.196199     2.188556     2.180913     2.173270
      2.165627     2.157983     2.150340     2.142697     2.135054     2.127410     2.119767     2.112124     2.104481     2.096838
      2.089194     2.081551     2.073908     2.066265     2.058621     2.050978     2.043335     2.035692     2.028049     2.020405
      2.012762     2.005119     1.997476     1.989833     1.982190     1.974546     1.966903     1.959260     1.951617     1.943974
      1.936331     1.928688     1.921045     1.913402     1.905759     1.898115     1.890472     1.882829     1.875186     1.867543
      1.859900     1.852257     1.844614     1.836971     1.829327     1.821684     1.814041     1.806398     1.798755     1.791112
      1.783469     1.775826     1.768183     1.760540     1.752896     1.745253     1.737610     1.729967     1.722324     1.714681
      1.707038     1.699395     1.691752     1.684108     1.676465     1.668822     1.661179     1.653536     1.645893     1.638250
      1.630607     1.622964     1.615321     1.607677     1.600034     1.592391     1.584748     1.577105     1.569462     1.561819
      1.554176     1.546533     1.538890     1.531246     1.523603     1.515960     1.508317     1.500674     1.493031     1.485388
      1.477745     1.470102     1.462458     1.454815     1.447172     1.439529     1.431886     1.424243     1.416600     1.408957
      1.401314     1.393671     1.386027     1.378384     1.370741     1.363098     1.355455     1.347812     1.340169     1.332526
      1.324883     1.317240     1.309596     1.301953     1.294310     1.286667     1.279024     1.271381     1.263738     1.256095
      1.248452     1.240808     1.233165     1.225522     1.217879     1.210236     1.202593     1.194950     1.187307     1.179664
      1.172021     1.164377     1.156734     1.149091     1.141448     1.133805     1.126162     1.118519     1.110876     1.103233
      1.095590     1.087946     1.080303     1.072660     1.065017     1.057374     1.049731     1.042088     1.034445     1.026802
      1.019158     1.011515     1.003872     0.996229     0.988586     0.980943     0.973300     0.965657     0.958014     0.950371
      0.942727     0.935084     0.927441     0.919798     0.912155     0.904512     0.896869     0.889226     0.881583     0.873940
      0.866296     0.858653     0.851010     0.843367     0.835724     0.828081     0.820438     0.812795     0.805152     0.797508
      0.789865     0.782222     0.774579     0.766936     0.759293     0.751650     0.744007     0.736364     0.728721     0.721077
      0.713434     0.705791     0.698148     0.690505     0.682862     0.675219     0.667576     0.659933     0.652290     0.644646
      0.637003     0.629360     0.621717     0.614074     0.606431     0.598788     0.591145     0.583502     0.575858     0.568215
      0.560572     0.552929     0.545286     0.537643     0.530000     0.522357     0.514714     0.507071     0.499427     0.491784
      0.484141     0.476498     0.468855     0.461212     0.453569     0.445925     0.438282     0.430639     0.422996     0.415353
      0.407710     0.400067     0.392424     0.384780     0.377137     0.369494     0.361851     0.354208     0.346565     0.338922
      0.331278     0.323635     0.315992     0.308349     0.300706     0.293063     0.285420     0.277777     0.270133     0.262490
      0.254847     0.247204     0.239561     0.231918     0.224275     0.216631     0.208988     0.201345
 NY phased data points follow
   2.97834E-01  1.98920E+00 -4.29407E-02  1.86709E+00  1.07961E+00  7.36905E-01  2.13106E+00  3.58428E-01  1.15299E+00 -1.58354E+00
  -1.18634E+00 -3.60438E-01 -1.60796E-01 -1.94662E+00  2.93134E+00  9.81379E-01  1.63913E+00  1.27535E+00 -3.88481E-01  1.59942E+00
   1.69906E+00  2.89430E+00  4.87826E-01  1.99988E+00  6.42086E-01  2.68662E-01 -2.24593E+00 -1.70667E+00 -1.29410E+00  2.19211E+00
  -1.84418E+00  8.27665E-01  1.16574E+00  4.46162E-01  1.38422E+00  1.23582E+00  3.36537E-01 -2.14310E+00  4.03468E-01 -1.03971E+00
   5.51431E-01  4.60012E-01 -1.46980E+00  4.54976E-01 -1.45865E+00 -2.25372E-02 -2.49116E+00 -3.44710E+00  5.38373E-01 -1.69170E+00
  -4.67484E-01  1.76142E-01 -5.74464E+00 -6.57126E-01 -6.77837E-01 -4.22651E-01 -1.60513E+00 -2.50238E+00 -2.95533E+00  4.39123E-01
   2.86800E-01  1.41324E+00  1.44803E+00  2.26424E+00 -1.42185E+00 -8.20489E-01 -2.77790E+00 -6.80434E-01 -2.37038E+00 -1.26186E+00
  -2.99132E+00 -2.61103E+00  1.02435E-01 -8.47927E-01 -1.74639E+00  1.36301E+00  4.16138E-01  1.25272E+00  3.18417E+00  2.68735E+00
   4.61855E-01 -1.05913E+00 -1.16356E+00 -3.01354E-02 -1.81706E-01 -1.39402E+00  1.43741E+00 -6.72427E-01 -1.35655E+00  5.29936E-01
  -2.32939E+00 -1.97478E+00  7.49559E-01 -1.37184E+00 -1.21395E+00  1.31912E+00 -5.18042E-01  2.60705E+00 -2.64131E-01  1.59391E+00
  -1.54885E+00  3.49152E+00  3.32480E+00  1.50478E+00  9.65302E-01  2.68259E+00 -1.52347E+00  7.58558E-01  1.77163E+00  8.66475E-02
   3.87905E-02  1.80565E-02 -5.95266E-01  2.07663E+00 -4.82200E-01  1.12676E+00  3.39728E-01  6.54748E-01  7.32018E-01 -2.47127E+00
   7.48088E-01  4.95472E-01  1.44931E+00 -9.58417E-01 -8.21700E-02 -2.08377E+00 -1.08928E+00 -6.29949E-01 -2.72403E+00 -1.88489E+00
  -7.82611E-01 -2.69917E+00 -2.56600E+00  1.04219E+00 -2.09467E+00 -4.46141E+00  1.02441E+00 -1.57994E+00 -3.70823E-01 -6.39439E-01
  -1.83321E+00 -9.39273E-01 -3.29809E+00 -1.61244E+00 -2.49943E+00 -1.78373E+00 -3.89860E-01 -1.87699E+00 -2.49776E+00 -3.55437E+00
  -3.48800E+00 -7.56691E-01 -2.39151E+00 -3.40823E+00 -3.03184E+00 -1.49929E+00 -4.19503E+00 -1.95661E+00 -3.76248E+00 -6.12463E+00
  -2.70612E+00 -3.73659E+00 -3.55595E+00 -3.38686E+00 -2.53144E+00 -4.52551E+00 -5.14369E+00 -3.53969E+00 -5.18248E+00 -3.61603E+00
  -6.21488E+00 -3.27146E+00 -3.99523E+00 -6.15308E+00 -4.10782E+00 -4.04691E+00 -3.48264E+00 -2.03620E+00 -4.30135E+00 -3.53669E+00
  -3.07454E+00 -5.92549E+00 -2.11855E+00 -4.11531E+00 -2.84917E+00 -2.27355E+00 -2.20071E+00 -3.93519E+00 -3.63695E-01 -3.27652E+00
  -1.07506E+00 -7.95517E-01 -1.89517E+00 -1.00899E+00 -3.36439E+00 -1.66745E+00 -2.00720E+00 -2.00646E+00 -6.94533E-01 -2.38286E+00
  -1.59128E+00 -1.18772E+00 -4.89266E-01 -2.83710E+00  2.51507E+00  8.93328E-01  1.81089E+00 -1.23664E+00  4.32116E-01  1.92815E+00
   2.04565E+00  7.36233E-01  3.16491E+00  2.51848E+00  3.79190E+00  1.78730E+00  1.89263E+00  2.24519E+00  1.99657E+00  3.46371E+00
   3.76409E+00  4.52952E+00  3.65316E+00  3.94733E+00  7.25550E+00  5.55095E+00  5.78800E+00  7.15002E+00  6.15109E+00  8.90889E+00
   9.65273E+00  1.12445E+01  1.26533E+01  1.14462E+01  1.40322E+01  1.50317E+01  1.53952E+01  1.40344E+01  1.35757E+01  1.82102E+01
   1.59706E+01  1.80278E+01  1.65585E+01  1.73654E+01  1.85613E+01  2.03180E+01  2.19801E+01  2.23218E+01  2.47583E+01  2.07646E+01
   2.14267E+01  2.03115E+01  2.01064E+01  2.16873E+01  2.04388E+01  2.11610E+01  2.20372E+01  2.27198E+01  2.39954E+01  2.36230E+01
   2.51327E+01  2.46895E+01  2.38723E+01  2.51361E+01  2.54432E+01  2.74894E+01  2.56114E+01  2.73975E+01  2.92687E+01  2.89243E+01
   2.78693E+01  2.89244E+01  2.89268E+01  3.07680E+01  3.05617E+01  3.10679E+01  3.36405E+01  3.55378E+01  3.55404E+01  3.68865E+01
   3.79201E+01  3.55958E+01  3.79503E+01  4.18841E+01  4.13070E+01  4.41034E+01  4.59469E+01  4.60088E+01  4.76099E+01  4.71978E+01
   4.91152E+01  5.44462E+01  5.30416E+01  5.41193E+01  5.60083E+01  5.79094E+01  6.06319E+01  6.12432E+01  6.21896E+01  6.49788E+01
   6.77284E+01  6.94629E+01  7.23498E+01  7.36525E+01  7.48971E+01  7.64411E+01  8.03255E+01  7.91292E+01  8.45003E+01  8.23156E+01
   8.72570E+01  8.93539E+01  8.78145E+01  8.86642E+01  9.19955E+01  8.94052E+01  9.04535E+01  9.29033E+01  9.02360E+01  9.31950E+01
   9.23609E+01  9.19364E+01  9.15929E+01  8.90670E+01  8.78472E+01  8.98337E+01  8.97012E+01  8.87745E+01  8.83221E+01  8.59549E+01
   8.54361E+01  8.59003E+01  8.54097E+01  8.27367E+01  8.14742E+01  8.01961E+01  8.04604E+01  7.62137E+01  7.74224E+01  7.63718E+01
   7.70792E+01  7.45786E+01  7.20365E+01  6.96654E+01  6.99964E+01  6.60542E+01  6.74156E+01  6.63112E+01  6.47632E+01  6.13474E+01
   6.32552E+01  6.37976E+01  6.22348E+01  6.22399E+01  6.09096E+01  6.35759E+01  6.46047E+01  6.24952E+01  5.93950E+01  5.91622E+01
   6.04903E+01  6.00486E+01  5.88210E+01  5.96618E+01  5.91533E+01  5.80593E+01  5.54925E+01  5.52267E+01  5.60862E+01  5.41468E+01
   5.53015E+01  5.60888E+01  5.37837E+01  5.55975E+01  5.36455E+01  5.26984E+01  5.07170E+01  5.04667E+01  4.75429E+01  4.75841E+01
   4.97851E+01  4.80044E+01  4.83878E+01  4.75679E+01  4.93867E+01  4.65825E+01  4.57020E+01  4.58833E+01  4.35947E+01  4.44129E+01
   4.34391E+01  4.57071E+01  4.25738E+01  4.20281E+01  4.13974E+01  4.02662E+01  3.98957E+01  3.92149E+01  3.73314E+01  3.90384E+01
   3.43374E+01  3.58327E+01  3.47286E+01  3.33096E+01  3.50603E+01  3.43914E+01  3.35427E+01  3.45607E+01  3.11927E+01  3.33981E+01
   3.14309E+01  2.89506E+01  3.12229E+01  2.74544E+01  2.83975E+01  2.94567E+01  2.96497E+01  2.74564E+01  2.45886E+01  2.86594E+01
   2.64834E+01  2.53823E+01  2.49072E+01  2.56909E+01  2.50245E+01  2.51398E+01  2.35274E+01  2.56197E+01  2.51193E+01  2.54743E+01
   2.26167E+01  2.19446E+01  2.10380E+01  1.87042E+01  2.12454E+01  2.02119E+01  2.08711E+01  1.93283E+01  1.98972E+01  1.96567E+01
   1.73517E+01  2.01037E+01  2.19227E+01  1.61133E+01  1.79911E+01  1.99406E+01  1.91494E+01  1.74682E+01  1.75720E+01  1.62573E+01
   1.64271E+01  1.76526E+01  1.67564E+01  1.50978E+01  1.57845E+01  1.45558E+01  1.33925E+01  1.32570E+01  1.17933E+01  1.36232E+01
   1.23433E+01  1.51850E+01  1.47013E+01  1.20190E+01  1.32926E+01  1.37122E+01  1.19266E+01  1.18418E+01  1.31591E+01  1.01703E+01
   1.13070E+01  1.31798E+01  1.17544E+01  1.22949E+01  1.08833E+01  1.23463E+01  1.00802E+01  1.12262E+01  9.55080E+00  1.08579E+01
   8.96373E+00  1.13692E+01  9.05569E+00  1.13605E+01  1.00530E+01  7.51817E+00  1.16434E+01  1.06357E+01  1.08935E+01  1.01039E+01
   8.94285E+00  8.14483E+00  1.02897E+01  8.47376E+00  1.07026E+01  1.01549E+01  9.31690E+00  1.07289E+01
 NY points of the fit to the data follow
  -8.58150E-01  6.77267E-01 -6.69288E-01  6.85022E-01 -1.21998E-01  1.26743E+00  5.63379E-01  1.73489E+00  9.88786E-01  1.66829E+00
   7.76062E-01  1.01272E+00  1.56361E-01  6.87828E-01  2.66731E-02  8.63808E-01  3.96674E-01  1.27195E+00  7.94753E-01  1.43687E+00
   7.40267E-01  1.33482E+00  6.09162E-01  1.15515E+00  5.01757E-01  9.53471E-01  3.88122E-01  7.16841E-01  3.51155E-01  6.28165E-01
   4.65346E-01  6.33643E-01  6.25708E-01  6.34092E-01  7.10952E-01  4.64074E-01  6.16835E-01  2.50631E-01  5.24356E-01  6.74525E-02
   3.81511E-01 -1.03040E-01  2.52364E-01 -2.66915E-01  1.12670E-01 -3.59906E-01  9.09104E-02 -2.37143E-01  9.93094E-02 -2.99809E-01
  -1.12737E-01 -5.50542E-01 -4.95068E-01 -9.04097E-01 -8.76688E-01 -1.04869E+00 -9.44552E-01 -1.05476E+00 -9.90647E-01 -1.08064E+00
  -1.08730E+00 -1.14529E+00 -1.19626E+00 -1.26435E+00 -1.31717E+00 -1.37867E+00 -1.42782E+00 -1.48193E+00 -1.51755E+00 -1.56272E+00
  -1.59266E+00 -1.64029E+00 -1.67217E+00 -1.72271E+00 -1.74808E+00 -1.79986E+00 -1.81977E+00 -1.87446E+00 -1.88802E+00 -1.94224E+00
  -1.94585E+00 -1.99014E+00 -1.97753E+00 -1.99129E+00 -1.87071E+00 -1.63359E+00 -1.52236E+00 -1.16080E+00 -1.13036E+00 -7.05674E-01
  -7.35905E-01 -2.01133E-01 -2.95516E-01  3.58401E-01  1.72573E-01  9.06167E-01  6.04011E-01  1.36892E+00  9.50991E-01  1.70786E+00
   1.18440E+00  1.89736E+00  1.27859E+00  1.89762E+00  1.19246E+00  1.64224E+00  9.42253E-01  1.30162E+00  6.57928E-01  9.47840E-01
   3.70044E-01  6.01896E-01  8.21549E-02  2.25106E-01 -2.11762E-01 -1.24740E-01 -4.59365E-01 -3.85651E-01 -6.35836E-01 -5.88081E-01
  -7.82440E-01 -7.90501E-01 -9.18183E-01 -9.39041E-01 -9.46551E-01 -8.27957E-01 -8.38172E-01 -7.43620E-01 -7.85464E-01 -7.30131E-01
  -7.98939E-01 -7.80698E-01 -8.74684E-01 -8.92695E-01 -1.00785E+00 -1.05855E+00 -1.19235E+00 -1.27426E+00 -1.42028E+00 -1.52615E+00
  -1.67720E+00 -1.79853E+00 -1.95075E+00 -2.08094E+00 -2.22960E+00 -2.36473E+00 -2.50308E+00 -2.63379E+00 -2.75145E+00 -2.86000E+00
  -2.96472E+00 -3.05882E+00 -3.14954E+00 -3.22789E+00 -3.30380E+00 -3.36559E+00 -3.42632E+00 -3.47089E+00 -3.51604E+00 -3.54434E+00
  -3.57461E+00 -3.58759E+00 -3.60388E+00 -3.60326E+00 -3.60694E+00 -3.59363E+00 -3.58423E+00 -3.55874E+00 -3.53811E+00 -3.50272E+00
  -3.47134E+00 -3.42768E+00 -3.38631E+00 -3.33515E+00 -3.28468E+00 -3.22799E+00 -3.17690E+00 -3.12038E+00 -3.07103E+00 -3.02683E+00
  -2.96633E+00 -2.92777E+00 -2.84913E+00 -2.79514E+00 -2.66917E+00 -2.59369E+00 -2.42918E+00 -2.32731E+00 -2.12222E+00 -2.04396E+00
  -1.81313E+00 -1.79263E+00 -1.63597E+00 -1.64631E+00 -1.46170E+00 -1.44575E+00 -1.15413E+00 -1.05582E+00 -5.75087E-01 -5.30655E-01
   2.48136E-02 -5.03882E-02  5.27352E-01  3.01759E-01  8.41765E-01  4.90431E-01  1.15589E+00  7.77886E-01  1.56677E+00  1.19904E+00
   2.05573E+00  1.68649E+00  2.59727E+00  2.21842E+00  3.11848E+00  2.75941E+00  3.61983E+00  3.31881E+00  4.06518E+00  3.89943E+00
   4.63957E+00  4.65166E+00  5.39151E+00  5.60760E+00  6.36216E+00  6.66192E+00  7.37740E+00  7.75010E+00  8.47244E+00  8.87513E+00
   9.61633E+00  9.99821E+00  1.06910E+01  1.10567E+01  1.18033E+01  1.22181E+01  1.30800E+01  1.35808E+01  1.46353E+01  1.51000E+01
   1.61767E+01  1.65870E+01  1.76398E+01  1.79804E+01  1.89121E+01  1.92340E+01  2.01344E+01  2.04644E+01  2.12613E+01  2.16071E+01
   2.22546E+01  2.25886E+01  2.30814E+01  2.33769E+01  2.36931E+01  2.39529E+01  2.41238E+01  2.43550E+01  2.43983E+01  2.46300E+01
   2.46339E+01  2.49092E+01  2.48871E+01  2.52110E+01  2.52130E+01  2.55561E+01  2.56418E+01  2.60740E+01  2.62827E+01  2.68081E+01
   2.71748E+01  2.78006E+01  2.83120E+01  2.90558E+01  2.97522E+01  3.06551E+01  3.15491E+01  3.26086E+01  3.36864E+01  3.48815E+01
   3.61067E+01  3.74378E+01  3.88170E+01  4.02827E+01  4.17830E+01  4.33447E+01  4.49352E+01  4.65403E+01  4.81686E+01  4.97920E+01
   5.14192E+01  5.30236E+01  5.46181E+01  5.61820E+01  5.77304E+01  5.92598E+01  6.07791E+01  6.22882E+01  6.37982E+01  6.53149E+01
   6.68484E+01  6.84087E+01  7.00023E+01  7.16442E+01  7.33413E+01  7.51099E+01  7.69671E+01  7.89585E+01  8.12052E+01  8.37863E+01
   8.55845E+01  8.78294E+01  8.89763E+01  9.06433E+01  9.11874E+01  9.22722E+01  9.19416E+01  9.30889E+01  9.25742E+01  9.33521E+01
   9.25262E+01  9.25265E+01  9.12520E+01  9.06206E+01  8.91952E+01  8.82055E+01  8.70777E+01  8.60734E+01  8.61197E+01  8.63370E+01
   8.64420E+01  8.57134E+01  8.54541E+01  8.33414E+01  8.29991E+01  7.98556E+01  7.91989E+01  7.72065E+01  7.69691E+01  7.54848E+01
   7.52932E+01  7.33369E+01  7.26856E+01  7.06061E+01  6.97649E+01  6.78487E+01  6.70336E+01  6.54136E+01  6.47722E+01  6.35476E+01
   6.31752E+01  6.26405E+01  6.25727E+01  6.24581E+01  6.24837E+01  6.25012E+01  6.21801E+01  6.15572E+01  6.12805E+01  6.05398E+01
   6.03951E+01  5.97306E+01  5.95182E+01  5.88236E+01  5.85294E+01  5.73070E+01  5.70851E+01  5.60693E+01  5.64012E+01  5.67447E+01
   5.65767E+01  5.60125E+01  5.54425E+01  5.39433E+01  5.28861E+01  5.06766E+01  4.93910E+01  4.86676E+01  4.82232E+01  4.79409E+01
   4.77553E+01  4.76225E+01  4.75087E+01  4.73875E+01  4.72365E+01  4.70379E+01  4.67770E+01  4.64435E+01  4.60307E+01  4.55361E+01
   4.49604E+01  4.43078E+01  4.35854E+01  4.28028E+01  4.19716E+01  4.11049E+01  4.02160E+01  3.93186E+01  3.84256E+01  3.75492E+01
   3.66997E+01  3.58863E+01  3.51157E+01  3.43929E+01  3.37205E+01  3.30996E+01  3.25294E+01  3.20077E+01  3.15304E+01  3.10931E+01
   3.06900E+01  3.03153E+01  2.99628E+01  2.96263E+01  2.92995E+01  2.89771E+01  2.86536E+01  2.83249E+01  2.79871E+01  2.76373E+01
   2.72732E+01  2.68936E+01  2.64976E+01  2.60858E+01  2.56584E+01  2.52171E+01  2.47633E+01  2.42993E+01  2.38273E+01  2.33500E+01
   2.28698E+01  2.23895E+01  2.19112E+01  2.14377E+01  2.09709E+01  2.05129E+01  2.00652E+01  1.96294E+01  1.92065E+01  1.87976E+01
   1.84033E+01  1.80242E+01  1.76602E+01  1.73117E+01  1.69783E+01  1.66601E+01  1.63564E+01  1.60672E+01  1.57915E+01  1.55292E+01
   1.52794E+01  1.50417E+01  1.48154E+01  1.45999E+01  1.43945E+01  1.41988E+01  1.40120E+01  1.38338E+01  1.36634E+01  1.35006E+01
   1.33446E+01  1.31952E+01  1.30517E+01  1.29141E+01  1.27817E+01  1.26543E+01  1.25314E+01  1.24129E+01  1.22983E+01  1.21876E+01
   1.20803E+01  1.19764E+01  1.18754E+01  1.17774E+01  1.16819E+01  1.15890E+01  1.14982E+01  1.14098E+01  1.13232E+01  1.12386E+01
   1.11557E+01  1.10745E+01  1.09947E+01  1.09163E+01  1.08392E+01  1.07635E+01  1.06888E+01  1.06152E+01  1.05425E+01  1.04708E+01
   1.03998E+01  1.03298E+01  1.02604E+01  1.01918E+01  1.01238E+01  1.00565E+01  9.98974E+00  9.92377E+00
 NY background values follow
    -2.929E+00   -2.933E+00   -2.939E+00   -2.945E+00   -2.953E+00   -2.962E+00   -2.971E+00   -2.982E+00   -2.994E+00   -3.007E+00
    -3.021E+00   -3.035E+00   -3.051E+00   -3.068E+00   -3.086E+00   -3.104E+00   -3.124E+00   -3.144E+00   -3.165E+00   -3.187E+00
    -3.210E+00   -3.234E+00   -3.258E+00   -3.284E+00   -3.310E+00   -3.337E+00   -3.365E+00   -3.393E+00   -3.422E+00   -3.452E+00
    -3.483E+00   -3.514E+00   -3.546E+00   -3.578E+00   -3.612E+00   -3.645E+00   -3.680E+00   -3.715E+00   -3.750E+00   -3.787E+00
    -3.823E+00   -3.860E+00   -3.898E+00   -3.936E+00   -3.975E+00   -4.014E+00   -4.054E+00   -4.094E+00   -4.135E+00   -4.176E+00
    -4.217E+00   -4.259E+00   -4.301E+00   -4.343E+00   -4.386E+00   -4.429E+00   -4.473E+00   -4.517E+00   -4.561E+00   -4.605E+00
    -4.649E+00   -4.694E+00   -4.739E+00   -4.784E+00   -4.830E+00   -4.875E+00   -4.921E+00   -4.967E+00   -5.013E+00   -5.059E+00
    -5.105E+00   -5.151E+00   -5.198E+00   -5.244E+00   -5.291E+00   -5.337E+00   -5.383E+00   -5.430E+00   -5.476E+00   -5.523E+00
    -5.569E+00   -5.616E+00   -5.662E+00   -5.708E+00   -5.754E+00   -5.800E+00   -5.846E+00   -5.891E+00   -5.937E+00   -5.982E+00
    -6.027E+00   -6.072E+00   -6.116E+00   -6.161E+00   -6.205E+00   -6.249E+00   -6.292E+00   -6.336E+00   -6.378E+00   -6.421E+00
    -6.463E+00   -6.505E+00   -6.547E+00   -6.588E+00   -6.628E+00   -6.669E+00   -6.709E+00   -6.748E+00   -6.787E+00   -6.825E+00
    -6.863E+00   -6.900E+00   -6.937E+00   -6.974E+00   -7.009E+00   -7.045E+00   -7.079E+00   -7.113E+00   -7.147E+00   -7.179E+00
    -7.211E+00   -7.243E+00   -7.273E+00   -7.303E+00   -7.333E+00   -7.361E+00   -7.389E+00   -7.416E+00   -7.443E+00   -7.468E+00
    -7.493E+00   -7.517E+00   -7.540E+00   -7.562E+00   -7.583E+00   -7.604E+00   -7.624E+00   -7.642E+00   -7.660E+00   -7.677E+00
    -7.693E+00   -7.708E+00   -7.722E+00   -7.734E+00   -7.746E+00   -7.757E+00   -7.767E+00   -7.776E+00   -7.784E+00   -7.790E+00
    -7.796E+00   -7.800E+00   -7.803E+00   -7.805E+00   -7.806E+00   -7.806E+00   -7.805E+00   -7.802E+00   -7.798E+00   -7.793E+00
    -7.787E+00   -7.779E+00   -7.770E+00   -7.760E+00   -7.748E+00   -7.735E+00   -7.721E+00   -7.705E+00   -7.689E+00   -7.670E+00
    -7.651E+00   -7.630E+00   -7.608E+00   -7.584E+00   -7.560E+00   -7.534E+00   -7.506E+00   -7.478E+00   -7.448E+00   -7.417E+00
    -7.385E+00   -7.352E+00   -7.317E+00   -7.282E+00   -7.245E+00   -7.207E+00   -7.168E+00   -7.128E+00   -7.087E+00   -7.045E+00
    -7.001E+00   -6.957E+00   -6.911E+00   -6.865E+00   -6.817E+00   -6.768E+00   -6.719E+00   -6.668E+00   -6.617E+00   -6.564E+00
    -6.511E+00   -6.456E+00   -6.401E+00   -6.344E+00   -6.287E+00   -6.229E+00   -6.170E+00   -6.110E+00   -6.050E+00   -5.988E+00
    -5.926E+00   -5.862E+00   -5.798E+00   -5.734E+00   -5.668E+00   -5.602E+00   -5.534E+00   -5.467E+00   -5.398E+00   -5.329E+00
    -5.259E+00   -5.188E+00   -5.116E+00   -5.044E+00   -4.971E+00   -4.898E+00   -4.824E+00   -4.749E+00   -4.674E+00   -4.598E+00
    -4.521E+00   -4.444E+00   -4.366E+00   -4.288E+00   -4.209E+00   -4.130E+00   -4.050E+00   -3.970E+00   -3.889E+00   -3.808E+00
    -3.726E+00   -3.644E+00   -3.561E+00   -3.478E+00   -3.394E+00   -3.310E+00   -3.226E+00   -3.141E+00   -3.056E+00   -2.971E+00
    -2.885E+00   -2.799E+00   -2.712E+00   -2.625E+00   -2.538E+00   -2.451E+00   -2.363E+00   -2.275E+00   -2.187E+00   -2.099E+00
    -2.010E+00   -1.921E+00   -1.832E+00   -1.743E+00   -1.653E+00   -1.564E+00   -1.474E+00   -1.384E+00   -1.294E+00   -1.204E+00
    -1.114E+00   -1.024E+00   -9.331E-01   -8.426E-01   -7.521E-01   -6.615E-01   -5.709E-01   -4.803E-01   -3.897E-01   -2.990E-01
    -2.084E-01   -1.178E-01   -2.730E-02    6.318E-02    1.536E-01    2.439E-01    3.342E-01    4.243E-01    5.144E-01    6.043E-01
     6.940E-01    7.836E-01    8.731E-01    9.624E-01    1.051E+00    1.140E+00    1.229E+00    1.317E+00    1.406E+00    1.494E+00
     1.581E+00    1.669E+00    1.756E+00    1.843E+00    1.929E+00    2.015E+00    2.101E+00    2.187E+00    2.272E+00    2.357E+00
     2.441E+00    2.525E+00    2.609E+00    2.692E+00    2.775E+00    2.857E+00    2.939E+00    3.020E+00    3.101E+00    3.181E+00
     3.261E+00    3.341E+00    3.419E+00    3.498E+00    3.575E+00    3.652E+00    3.729E+00    3.805E+00    3.880E+00    3.955E+00
     4.029E+00    4.103E+00    4.176E+00    4.248E+00    4.319E+00    4.390E+00    4.460E+00    4.530E+00    4.599E+00    4.667E+00
     4.735E+00    4.802E+00    4.868E+00    4.933E+00    4.998E+00    5.063E+00    5.126E+00    5.189E+00    5.252E+00    5.313E+00
     5.374E+00    5.435E+00    5.494E+00    5.553E+00    5.612E+00    5.670E+00    5.727E+00    5.783E+00    5.839E+00    5.894E+00
     5.949E+00    6.003E+00    6.056E+00    6.108E+00    6.160E+00    6.211E+00    6.262E+00    6.312E+00    6.361E+00    6.410E+00
     6.458E+00    6.505E+00    6.552E+00    6.598E+00    6.643E+00    6.688E+00    6.732E+00    6.776E+00    6.819E+00    6.861E+00
     6.902E+00    6.943E+00    6.983E+00    7.023E+00    7.062E+00    7.100E+00    7.138E+00    7.175E+00    7.211E+00    7.247E+00
     7.282E+00    7.317E+00    7.351E+00    7.384E+00    7.416E+00    7.448E+00    7.479E+00    7.510E+00    7.540E+00    7.569E+00
     7.598E+00    7.626E+00    7.653E+00    7.680E+00    7.706E+00    7.732E+00    7.757E+00    7.781E+00    7.804E+00    7.827E+00
     7.850E+00    7.871E+00    7.892E+00    7.913E+00    7.932E+00    7.952E+00    7.970E+00    7.988E+00    8.005E+00    8.022E+00
     8.038E+00    8.053E+00    8.068E+00    8.082E+00    8.095E+00    8.108E+00    8.120E+00    8.131E+00    8.142E+00    8.153E+00
     8.162E+00    8.171E+00    8.180E+00    8.187E+00    8.194E+00    8.201E+00    8.207E+00    8.212E+00    8.216E+00    8.220E+00
     8.224E+00    8.226E+00    8.228E+00    8.230E+00    8.231E+00    8.231E+00    8.230E+00    8.229E+00    8.228E+00    8.225E+00
     8.222E+00    8.219E+00    8.215E+00    8.210E+00    8.204E+00    8.198E+00    8.192E+00    8.184E+00    8.176E+00    8.168E+00
     8.159E+00    8.149E+00    8.139E+00    8.128E+00    8.116E+00    8.104E+00    8.091E+00    8.077E+00    8.063E+00    8.048E+00
     8.033E+00    8.017E+00    8.000E+00    7.983E+00    7.965E+00    7.947E+00    7.928E+00    7.908E+00    7.888E+00    7.867E+00
     7.845E+00    7.823E+00    7.800E+00    7.777E+00    7.753E+00    7.728E+00    7.703E+00    7.677E+00    7.651E+00    7.624E+00
     7.596E+00    7.568E+00    7.539E+00    7.509E+00    7.479E+00    7.449E+00    7.417E+00    7.385E+00
 Ala      Conc. = 3.09E+03
