 LCModel (Version 6.3-1L) Copyright: S.W. Provencher.          Ref.: Magn. Reson. Med. 30:672-679 (1993).                
 Slice#3 Row#12 Col#2  PD_05_press_1_raw_act
 36 lines in following concentration table = NCONC+1
    Conc.  %SD /Cr+PCr  Metabolite                                         
    0.000 999%   0.000 Ala                                                 
  370.073  36%   2.647 Asp                                                 
  139.813  78%   1.000 Cr                                                  
    0.000 999%   0.000 PCr                                                 
   80.050 103%   0.573 GABA                                                
  109.130  76%   0.781 Glc                                                 
    0.000 999%   0.000 Gln                                                 
 2.03E+04   8% 144.876 Glu                                                 
    0.000 999%   0.000 GPC                                                 
  132.152  40%   0.945 PCh                                                 
    0.000 999%   0.000 GSH                                                 
 3.47E+03  18%  24.795 Ins                                                 
 1.83E+03  63%  13.089 Lac                                                 
  689.079  61%   4.929 NAA                                                 
 1.81E+03  20%  12.973 NAAG                                                
   76.007  35%   0.544 Scyllo                                              
  339.233  40%   2.426 Tau                                                 
    0.732 999% 5.2E-03 -CrCH2                                              
  132.152  40%   0.945 GPC+PCh                                             
 2.50E+03   9%  17.902 NAA+NAAG                                            
  139.813  78%   1.000 Cr+PCr                                              
 2.03E+04   8% 144.876 Glu+Gln                                             
 1.41E+04  14% 101.196 Lip13a                                              
    0.000 999%   0.000 Lip13b                                              
    0.000 999%   0.000 Lip09                                               
    0.000 999%   0.000 MM09                                                
    0.000 999%   0.000 Lip20                                               
    0.000 999%   0.000 MM20                                                
    0.000 999%   0.000 MM12                                                
 1.48E+04  12% 105.715+MM14                                                
 1.41E+04   9% 100.522+MM17                                                
 1.41E+04  14% 101.196 Lip13a+Lip13b                                       
 2.89E+04  10% 206.911 MM14+Lip13a+Lip13b+MM12                             
    0.000 999%   0.000 MM09+Lip09                                          
    0.000 999%   0.000 MM20+Lip20                                          
   6 lines in following misc. output table
  FWHM = 0.183 ppm    S/N =  10                                            
  Data shift =-0.069 ppm                                                   
  Ph: 169 deg     121.4 deg/ppm                                            
  alphaB,S = 2.7E-01,   5.7E+02                                            
   10 spline knots.   Ns = 9(2)                                            
  (13) 2 infls.   ( 1) 1 extrs.                                            
  498 points on ppm-axis = NY
      4.000000     3.992357     3.984714     3.977070     3.969427     3.961784     3.954141     3.946497     3.938854     3.931211
      3.923568     3.915925     3.908281     3.900638     3.892995     3.885352     3.877708     3.870065     3.862422     3.854779
      3.847136     3.839492     3.831849     3.824206     3.816563     3.808919     3.801276     3.793633     3.785990     3.778347
      3.770703     3.763060     3.755417     3.747774     3.740130     3.732487     3.724844     3.717201     3.709558     3.701914
      3.694271     3.686628     3.678985     3.671341     3.663698     3.656055     3.648412     3.640769     3.633125     3.625482
      3.617839     3.610196     3.602552     3.594909     3.587266     3.579623     3.571980     3.564336     3.556693     3.549050
      3.541407     3.533763     3.526120     3.518477     3.510834     3.503191     3.495547     3.487904     3.480261     3.472618
      3.464974     3.457331     3.449688     3.442045     3.434402     3.426758     3.419115     3.411472     3.403829     3.396185
      3.388542     3.380899     3.373256     3.365613     3.357969     3.350326     3.342683     3.335040     3.327396     3.319753
      3.312110     3.304467     3.296824     3.289180     3.281537     3.273894     3.266251     3.258607     3.250964     3.243321
      3.235678     3.228034     3.220391     3.212748     3.205105     3.197462     3.189818     3.182175     3.174532     3.166889
      3.159245     3.151602     3.143959     3.136316     3.128673     3.121029     3.113386     3.105743     3.098100     3.090456
      3.082813     3.075170     3.067527     3.059884     3.052240     3.044597     3.036954     3.029311     3.021667     3.014024
      3.006381     2.998738     2.991095     2.983451     2.975808     2.968165     2.960522     2.952878     2.945235     2.937592
      2.929949     2.922306     2.914662     2.907019     2.899376     2.891733     2.884089     2.876446     2.868803     2.861160
      2.853517     2.845873     2.838230     2.830587     2.822944     2.815300     2.807657     2.800014     2.792371     2.784728
      2.777084     2.769441     2.761798     2.754155     2.746511     2.738868     2.731225     2.723582     2.715939     2.708295
      2.700652     2.693009     2.685366     2.677722     2.670079     2.662436     2.654793     2.647150     2.639506     2.631863
      2.624220     2.616577     2.608933     2.601290     2.593647     2.586004     2.578361     2.570717     2.563074     2.555431
      2.547788     2.540144     2.532501     2.524858     2.517215     2.509572     2.501928     2.494285     2.486642     2.478999
      2.471355     2.463712     2.456069     2.448426     2.440783     2.433139     2.425496     2.417853     2.410210     2.402566
      2.394923     2.387280     2.379637     2.371994     2.364350     2.356707     2.349064     2.341421     2.333777     2.326134
      2.318491     2.310848     2.303205     2.295561     2.287918     2.280275     2.272632     2.264988     2.257345     2.249702
      2.242059     2.234416     2.226772     2.219129     2.211486     2.203843     2.196199     2.188556     2.180913     2.173270
      2.165627     2.157983     2.150340     2.142697     2.135054     2.127410     2.119767     2.112124     2.104481     2.096838
      2.089194     2.081551     2.073908     2.066265     2.058621     2.050978     2.043335     2.035692     2.028049     2.020405
      2.012762     2.005119     1.997476     1.989833     1.982190     1.974546     1.966903     1.959260     1.951617     1.943974
      1.936331     1.928688     1.921045     1.913402     1.905759     1.898115     1.890472     1.882829     1.875186     1.867543
      1.859900     1.852257     1.844614     1.836971     1.829327     1.821684     1.814041     1.806398     1.798755     1.791112
      1.783469     1.775826     1.768183     1.760540     1.752896     1.745253     1.737610     1.729967     1.722324     1.714681
      1.707038     1.699395     1.691752     1.684108     1.676465     1.668822     1.661179     1.653536     1.645893     1.638250
      1.630607     1.622964     1.615321     1.607677     1.600034     1.592391     1.584748     1.577105     1.569462     1.561819
      1.554176     1.546533     1.538890     1.531246     1.523603     1.515960     1.508317     1.500674     1.493031     1.485388
      1.477745     1.470102     1.462458     1.454815     1.447172     1.439529     1.431886     1.424243     1.416600     1.408957
      1.401314     1.393671     1.386027     1.378384     1.370741     1.363098     1.355455     1.347812     1.340169     1.332526
      1.324883     1.317240     1.309596     1.301953     1.294310     1.286667     1.279024     1.271381     1.263738     1.256095
      1.248452     1.240808     1.233165     1.225522     1.217879     1.210236     1.202593     1.194950     1.187307     1.179664
      1.172021     1.164377     1.156734     1.149091     1.141448     1.133805     1.126162     1.118519     1.110876     1.103233
      1.095590     1.087946     1.080303     1.072660     1.065017     1.057374     1.049731     1.042088     1.034445     1.026802
      1.019158     1.011515     1.003872     0.996229     0.988586     0.980943     0.973300     0.965657     0.958014     0.950371
      0.942727     0.935084     0.927441     0.919798     0.912155     0.904512     0.896869     0.889226     0.881583     0.873940
      0.866296     0.858653     0.851010     0.843367     0.835724     0.828081     0.820438     0.812795     0.805152     0.797508
      0.789865     0.782222     0.774579     0.766936     0.759293     0.751650     0.744007     0.736364     0.728721     0.721077
      0.713434     0.705791     0.698148     0.690505     0.682862     0.675219     0.667576     0.659933     0.652290     0.644646
      0.637003     0.629360     0.621717     0.614074     0.606431     0.598788     0.591145     0.583502     0.575858     0.568215
      0.560572     0.552929     0.545286     0.537643     0.530000     0.522357     0.514714     0.507071     0.499427     0.491784
      0.484141     0.476498     0.468855     0.461212     0.453569     0.445925     0.438282     0.430639     0.422996     0.415353
      0.407710     0.400067     0.392424     0.384780     0.377137     0.369494     0.361851     0.354208     0.346565     0.338922
      0.331278     0.323635     0.315992     0.308349     0.300706     0.293063     0.285420     0.277777     0.270133     0.262490
      0.254847     0.247204     0.239561     0.231918     0.224275     0.216631     0.208988     0.201345
 NY phased data points follow
  -9.58176E+00 -9.34389E+00 -1.12416E+01 -1.06450E+01 -1.22280E+01 -1.08382E+01 -1.26027E+01 -1.28685E+01 -1.32833E+01 -1.27882E+01
  -1.18528E+01 -1.24828E+01 -1.45208E+01 -1.41663E+01 -1.33451E+01 -1.36692E+01 -1.29461E+01 -1.25827E+01 -1.38700E+01 -1.51041E+01
  -1.33858E+01 -1.40900E+01 -1.55646E+01 -1.38847E+01 -1.32744E+01 -1.50139E+01 -1.37532E+01 -1.31282E+01 -1.35606E+01 -1.44146E+01
  -1.30222E+01 -1.36565E+01 -1.44680E+01 -1.29020E+01 -1.35629E+01 -1.41927E+01 -1.34420E+01 -1.31390E+01 -1.31494E+01 -1.37471E+01
  -1.43282E+01 -1.24925E+01 -1.28137E+01 -1.28975E+01 -1.24617E+01 -1.29810E+01 -1.18692E+01 -1.23569E+01 -1.25679E+01 -1.09300E+01
  -1.12272E+01 -1.06285E+01 -1.20865E+01 -1.22331E+01 -1.00121E+01 -1.03525E+01 -1.08537E+01 -1.02943E+01 -1.13406E+01 -1.10814E+01
  -8.94842E+00 -9.56613E+00 -9.47372E+00 -9.61679E+00 -1.04277E+01 -7.48040E+00 -8.84855E+00 -8.42317E+00 -8.25387E+00 -9.47164E+00
  -8.00449E+00 -8.09871E+00 -7.37723E+00 -7.60700E+00 -7.26189E+00 -6.65102E+00 -5.68670E+00 -6.06341E+00 -5.16541E+00 -6.57243E+00
  -6.81977E+00 -5.82996E+00 -6.27739E+00 -6.73465E+00 -4.47965E+00 -3.66248E+00 -3.83144E+00 -3.74434E+00 -3.46473E+00 -1.51408E+00
  -4.02797E+00 -3.60949E+00 -3.01882E+00 -1.98221E+00 -3.06973E+00 -1.04822E+00 -3.12687E-02 -2.13903E+00 -7.03733E-01 -5.77259E-01
  -1.27754E+00 -5.87292E-01  1.28926E+00  7.07314E-01  6.68533E-01  7.19523E-01 -1.58936E-01  1.99326E+00  2.12186E+00  2.57547E+00
   2.68780E+00  2.67281E+00  2.34682E+00  2.20991E+00  5.04696E+00  4.04057E+00  3.87813E+00  3.76763E+00  4.72809E+00  3.96214E+00
   5.14688E+00  5.15441E+00  6.28583E+00  5.94105E+00  5.62255E+00  7.05939E+00  5.53278E+00  6.33352E+00  7.20528E+00  6.46610E+00
   8.18890E+00  5.97369E+00  7.52876E+00  6.37907E+00  7.25069E+00  7.11993E+00  9.05670E+00  6.74374E+00  6.92658E+00  6.00886E+00
   5.81234E+00  6.81330E+00  6.04899E+00  4.15174E+00  6.12787E+00  4.67831E+00  5.05979E+00  4.39607E+00  3.39516E+00  3.72224E+00
   2.54350E+00  1.97744E+00  2.83301E+00  1.86536E+00  8.04013E-01  8.82205E-01  2.07673E+00  6.08456E-01  9.33986E-01  5.32034E-01
   1.42290E+00  5.82551E-01  2.55164E+00  2.49006E+00  2.79706E+00  1.32029E+00  2.85083E+00  4.86566E+00  3.65282E+00  3.73866E+00
   4.61196E+00  6.00286E+00  5.72086E+00  5.80221E+00  6.09224E+00  4.72815E+00  6.26278E+00  5.09001E+00  5.24847E+00  6.30217E+00
   6.69753E+00  7.43289E+00  5.96488E+00  4.60504E+00  7.50597E+00  5.63691E+00  5.72292E+00  5.51716E+00  5.10867E+00  3.72836E+00
   2.12057E+00  2.69981E+00  1.93340E+00  5.55069E-01  1.37067E+00 -5.05026E-01 -6.50944E-01 -2.99265E+00 -3.99486E+00 -4.74265E+00
  -7.87357E+00 -8.14751E+00 -9.66213E+00 -1.08595E+01 -1.51091E+01 -1.45437E+01 -1.75543E+01 -1.95532E+01 -2.14941E+01 -2.53162E+01
  -2.76009E+01 -3.09018E+01 -3.29792E+01 -3.62458E+01 -4.09420E+01 -4.15335E+01 -4.34079E+01 -4.77867E+01 -4.92789E+01 -5.11977E+01
  -5.30543E+01 -5.60673E+01 -5.55527E+01 -5.92791E+01 -6.09026E+01 -6.09470E+01 -6.26699E+01 -6.38124E+01 -6.38883E+01 -6.32943E+01
  -6.50606E+01 -6.68670E+01 -6.74694E+01 -6.68622E+01 -6.56480E+01 -6.69360E+01 -6.73101E+01 -6.67117E+01 -6.68774E+01 -6.71961E+01
  -6.71249E+01 -6.84112E+01 -6.67987E+01 -6.81778E+01 -6.84728E+01 -6.84672E+01 -6.68222E+01 -6.65885E+01 -6.71033E+01 -6.60824E+01
  -6.54534E+01 -6.43434E+01 -6.32221E+01 -6.28041E+01 -6.04443E+01 -6.14686E+01 -5.97108E+01 -5.79849E+01 -5.54726E+01 -5.59314E+01
  -5.39904E+01 -5.24375E+01 -5.10293E+01 -4.96359E+01 -4.90090E+01 -4.80631E+01 -4.61071E+01 -4.52624E+01 -4.37729E+01 -4.28563E+01
  -4.01614E+01 -3.83039E+01 -3.79497E+01 -3.77370E+01 -3.71987E+01 -3.57718E+01 -3.45238E+01 -3.38167E+01 -3.32919E+01 -3.26279E+01
  -3.25639E+01 -3.17211E+01 -3.02034E+01 -3.04116E+01 -2.97015E+01 -2.96653E+01 -2.92214E+01 -2.69194E+01 -2.86236E+01 -2.63694E+01
  -2.56887E+01 -2.49676E+01 -2.66038E+01 -2.62901E+01 -2.35593E+01 -2.27193E+01 -2.31420E+01 -2.44276E+01 -2.32674E+01 -2.32918E+01
  -2.31359E+01 -2.37917E+01 -2.19260E+01 -2.14998E+01 -2.08121E+01 -2.21539E+01 -2.26362E+01 -2.13954E+01 -2.10656E+01 -2.23016E+01
  -2.09100E+01 -2.08924E+01 -2.18047E+01 -2.13307E+01 -2.09459E+01 -2.09550E+01 -1.99329E+01 -2.04796E+01 -1.98808E+01 -1.95229E+01
  -1.93374E+01 -2.07886E+01 -1.95460E+01 -1.87669E+01 -1.74034E+01 -1.64691E+01 -1.81660E+01 -1.50715E+01 -1.66788E+01 -1.51134E+01
  -1.52539E+01 -1.47473E+01 -1.26890E+01 -1.12647E+01 -9.63344E+00 -8.58408E+00 -7.61480E+00 -6.79844E+00 -3.78115E+00 -2.34504E+00
  -1.83728E+00  1.63855E+00  4.38986E+00  7.66843E+00  9.18426E+00  1.17777E+01  1.36914E+01  1.54671E+01  1.62073E+01  1.90686E+01
   2.04012E+01  2.20032E+01  2.25729E+01  2.43507E+01  2.46621E+01  2.57998E+01  2.61431E+01  2.66029E+01  2.68036E+01  2.76895E+01
   2.76462E+01  2.79392E+01  2.93546E+01  2.86550E+01  2.92587E+01  2.74643E+01  2.98145E+01  3.02666E+01  3.00247E+01  2.99125E+01
   2.85001E+01  2.88199E+01  2.92152E+01  2.95497E+01  2.84644E+01  2.75079E+01  2.62400E+01  2.85461E+01  2.78211E+01  2.79968E+01
   2.80041E+01  2.77850E+01  2.70735E+01  2.77640E+01  2.56654E+01  2.61226E+01  2.57358E+01  2.55884E+01  2.52284E+01  2.62793E+01
   2.63262E+01  2.59067E+01  2.65550E+01  2.45466E+01  2.48593E+01  2.51535E+01  2.55064E+01  2.49469E+01  2.44536E+01  2.40778E+01
   2.36261E+01  2.39036E+01  2.38462E+01  2.40841E+01  2.47939E+01  2.39863E+01  2.26779E+01  2.31738E+01  2.26496E+01  2.30085E+01
   2.28455E+01  2.30013E+01  2.33815E+01  2.28790E+01  2.25436E+01  2.21477E+01  2.13804E+01  2.16181E+01  2.24001E+01  2.16822E+01
   2.14905E+01  2.28862E+01  2.12804E+01  2.23167E+01  2.09315E+01  2.07227E+01  2.04471E+01  2.04432E+01  2.04455E+01  2.10252E+01
   2.09500E+01  1.91053E+01  2.06394E+01  2.17780E+01  1.85891E+01  1.89994E+01  1.94006E+01  2.04779E+01  2.02870E+01  2.02572E+01
   1.93052E+01  1.92897E+01  1.89378E+01  2.06967E+01  1.83508E+01  1.86484E+01  1.88767E+01  2.10649E+01  2.00292E+01  1.96998E+01
   1.93314E+01  1.82966E+01  1.96468E+01  1.82902E+01  1.82687E+01  1.87291E+01  1.78387E+01  1.63795E+01  1.69088E+01  1.75628E+01
   1.62602E+01  1.70435E+01  1.74365E+01  1.64501E+01  1.72107E+01  1.65844E+01  1.75114E+01  1.70411E+01  1.71010E+01  1.45906E+01
   1.63390E+01  1.52043E+01  1.42274E+01  1.49269E+01  1.61667E+01  1.61310E+01  1.57655E+01  1.52522E+01  1.43453E+01  1.48357E+01
   1.45378E+01  1.44504E+01  1.51216E+01  1.49923E+01  1.46296E+01  1.51199E+01  1.44197E+01  1.51173E+01  1.36645E+01  1.37034E+01
   1.39625E+01  1.30338E+01  1.22359E+01  1.41604E+01  1.38141E+01  1.23954E+01  1.39991E+01  1.30725E+01
 NY points of the fit to the data follow
  -1.10535E+01 -1.16292E+01 -1.21137E+01 -1.25280E+01 -1.28682E+01 -1.31018E+01 -1.32829E+01 -1.34467E+01 -1.41169E+01 -1.43660E+01
  -1.49184E+01 -1.48382E+01 -1.47131E+01 -1.38690E+01 -1.32920E+01 -1.22979E+01 -1.22921E+01 -1.15821E+01 -1.22178E+01 -1.17215E+01
  -1.22147E+01 -1.12930E+01 -1.19030E+01 -1.08267E+01 -1.18665E+01 -1.07106E+01 -1.21018E+01 -1.07868E+01 -1.23780E+01 -1.08173E+01
  -1.24852E+01 -1.05222E+01 -1.20863E+01 -1.00404E+01 -1.18700E+01 -1.00019E+01 -1.19794E+01 -1.02522E+01 -1.21923E+01 -1.05875E+01
  -1.24170E+01 -1.09702E+01 -1.26868E+01 -1.14200E+01 -1.28896E+01 -1.18509E+01 -1.30459E+01 -1.23375E+01 -1.33555E+01 -1.29855E+01
  -1.35596E+01 -1.32854E+01 -1.34004E+01 -1.31762E+01 -1.30560E+01 -1.31191E+01 -1.29800E+01 -1.32488E+01 -1.30232E+01 -1.32927E+01
  -1.28444E+01 -1.28914E+01 -1.23776E+01 -1.23079E+01 -1.17878E+01 -1.16008E+01 -1.10556E+01 -1.07082E+01 -1.00918E+01 -9.70502E+00
  -9.08263E+00 -8.77494E+00 -8.24166E+00 -8.11945E+00 -7.76950E+00 -7.81604E+00 -7.53579E+00 -7.63433E+00 -7.32901E+00 -7.39787E+00
  -7.01148E+00 -6.99441E+00 -6.61294E+00 -6.50845E+00 -6.03738E+00 -5.65873E+00 -5.28560E+00 -4.80571E+00 -4.59262E+00 -3.99538E+00
  -3.88202E+00 -3.13704E+00 -3.09660E+00 -2.21039E+00 -2.23694E+00 -1.24854E+00 -1.34401E+00 -2.91262E-01 -4.74811E-01  5.77650E-01
   3.32925E-01  1.35205E+00  1.08392E+00  2.03355E+00  1.77923E+00  2.61365E+00  2.40168E+00  3.09683E+00  2.97929E+00  3.57254E+00
   3.49239E+00  3.93398E+00  3.89459E+00  4.23181E+00  4.26881E+00  4.55281E+00  4.67666E+00  4.95497E+00  5.15642E+00  5.44079E+00
   5.68362E+00  5.97984E+00  6.21668E+00  6.50950E+00  6.72748E+00  7.03679E+00  7.21003E+00  7.44880E+00  7.58578E+00  7.75141E+00
   7.85984E+00  7.95983E+00  8.03815E+00  8.08236E+00  8.13556E+00  8.12707E+00  8.12779E+00  8.07256E+00  8.05319E+00  7.97051E+00
   7.95669E+00  7.86551E+00  7.80085E+00  7.69550E+00  7.59129E+00  7.49199E+00  7.35993E+00  7.28535E+00  7.11650E+00  7.07564E+00
   6.84489E+00  6.77831E+00  6.45485E+00  6.40819E+00  6.04050E+00  6.00894E+00  5.59781E+00  5.53505E+00  5.05422E+00  4.99351E+00
   4.47576E+00  4.41667E+00  3.86433E+00  3.77750E+00  3.17990E+00  3.05682E+00  2.51429E+00  2.37138E+00  1.88142E+00  1.69886E+00
   1.27407E+00  1.05782E+00  7.05905E-01  4.64094E-01  2.04011E-01 -9.50214E-02 -3.01708E-01 -6.53631E-01 -7.99262E-01 -1.17103E+00
  -1.27700E+00 -1.65312E+00 -1.70898E+00 -2.09551E+00 -2.08855E+00 -2.41627E+00 -2.26467E+00 -2.48243E+00 -2.50253E+00 -2.74765E+00
  -3.06850E+00 -3.93007E+00 -4.50871E+00 -5.88276E+00 -6.35293E+00 -7.59260E+00 -7.10323E+00 -6.76353E+00 -6.09738E+00 -5.35420E+00
  -5.23292E+00 -4.77022E+00 -6.06213E+00 -7.17370E+00 -1.02649E+01 -1.17072E+01 -1.53186E+01 -1.68525E+01 -2.05845E+01 -2.22138E+01
  -2.59547E+01 -2.76702E+01 -3.14435E+01 -3.32900E+01 -3.68123E+01 -3.86817E+01 -4.17411E+01 -4.35358E+01 -4.59950E+01 -4.77888E+01
  -4.96385E+01 -5.16209E+01 -5.30387E+01 -5.51553E+01 -5.64878E+01 -5.83282E+01 -5.92443E+01 -6.06964E+01 -6.14539E+01 -6.23706E+01
  -6.30980E+01 -6.38232E+01 -6.49446E+01 -6.51731E+01 -6.63849E+01 -6.57718E+01 -6.71647E+01 -6.56183E+01 -6.64788E+01 -6.53574E+01
  -6.66817E+01 -6.62201E+01 -6.75066E+01 -6.72979E+01 -6.83148E+01 -6.76428E+01 -6.78419E+01 -6.69481E+01 -6.63518E+01 -6.53505E+01
  -6.42253E+01 -6.32811E+01 -6.18825E+01 -6.12105E+01 -5.95720E+01 -5.90329E+01 -5.71930E+01 -5.67355E+01 -5.48259E+01 -5.44678E+01
  -5.26986E+01 -5.23870E+01 -5.09061E+01 -5.04589E+01 -4.92374E+01 -4.85007E+01 -4.72929E+01 -4.62666E+01 -4.51445E+01 -4.39404E+01
  -4.28281E+01 -4.16357E+01 -4.05614E+01 -3.94369E+01 -3.81594E+01 -3.70498E+01 -3.55271E+01 -3.44797E+01 -3.26768E+01 -3.17667E+01
  -3.02392E+01 -2.95099E+01 -2.82612E+01 -2.76509E+01 -2.68421E+01 -2.64864E+01 -2.60907E+01 -2.60667E+01 -2.59663E+01 -2.61555E+01
  -2.62375E+01 -2.65157E+01 -2.66340E+01 -2.68664E+01 -2.68748E+01 -2.69087E+01 -2.67165E+01 -2.65221E+01 -2.61336E+01 -2.57353E+01
  -2.51938E+01 -2.46405E+01 -2.40132E+01 -2.33680E+01 -2.27111E+01 -2.20474E+01 -2.14230E+01 -2.08163E+01 -2.02872E+01 -1.97966E+01
  -1.94083E+01 -1.90695E+01 -1.88382E+01 -1.86621E+01 -1.85788E+01 -1.85439E+01 -1.85812E+01 -1.86524E+01 -1.87671E+01 -1.88945E+01
  -1.90317E+01 -1.91564E+01 -1.92553E+01 -1.93090E+01 -1.93017E+01 -1.92137E+01 -1.90250E+01 -1.86990E+01 -1.81154E+01 -1.69747E+01
  -1.60077E+01 -1.45147E+01 -1.32927E+01 -1.16123E+01 -1.02321E+01 -8.59311E+00 -7.37969E+00 -5.38551E+00 -3.99317E+00 -1.71228E+00
  -1.72991E-01  2.24624E+00  3.84865E+00  6.31900E+00  7.93149E+00  1.03778E+01  1.19704E+01  1.42906E+01  1.58157E+01  1.78954E+01
   1.92859E+01  2.10446E+01  2.22601E+01  2.36678E+01  2.46950E+01  2.57527E+01  2.65949E+01  2.73255E+01  2.79924E+01  2.84134E+01
   2.89165E+01  2.91125E+01  2.94814E+01  2.95267E+01  2.97936E+01  2.97733E+01  2.99813E+01  2.99354E+01  3.00839E+01  3.00567E+01
   3.01140E+01  2.98751E+01  2.97428E+01  2.93399E+01  2.90222E+01  2.85305E+01  2.80662E+01  2.76494E+01  2.72706E+01  2.69238E+01
   2.66050E+01  2.63113E+01  2.60405E+01  2.57908E+01  2.55605E+01  2.53481E+01  2.51522E+01  2.49715E+01  2.48049E+01  2.46511E+01
   2.45092E+01  2.43781E+01  2.42567E+01  2.41444E+01  2.40400E+01  2.39430E+01  2.38525E+01  2.37678E+01  2.36883E+01  2.36133E+01
   2.35422E+01  2.34746E+01  2.34100E+01  2.33478E+01  2.32876E+01  2.32291E+01  2.31718E+01  2.31155E+01  2.30598E+01  2.30044E+01
   2.29490E+01  2.28934E+01  2.28374E+01  2.27807E+01  2.27232E+01  2.26647E+01  2.26049E+01  2.25439E+01  2.24815E+01  2.24174E+01
   2.23518E+01  2.22843E+01  2.22150E+01  2.21439E+01  2.20708E+01  2.19956E+01  2.19184E+01  2.18391E+01  2.17578E+01  2.16743E+01
   2.15887E+01  2.15009E+01  2.14110E+01  2.13190E+01  2.12249E+01  2.11286E+01  2.10302E+01  2.09297E+01  2.08271E+01  2.07225E+01
   2.06158E+01  2.05071E+01  2.03964E+01  2.02838E+01  2.01691E+01  2.00526E+01  1.99342E+01  1.98139E+01  1.96918E+01  1.95679E+01
   1.94422E+01  1.93148E+01  1.91856E+01  1.90548E+01  1.89223E+01  1.87882E+01  1.86525E+01  1.85153E+01  1.83764E+01  1.82361E+01
   1.80942E+01  1.79509E+01  1.78060E+01  1.76598E+01  1.75121E+01  1.73630E+01  1.72125E+01  1.70606E+01  1.69073E+01  1.67527E+01
   1.65966E+01  1.64392E+01  1.62803E+01  1.61200E+01  1.59583E+01  1.57951E+01  1.56305E+01  1.54643E+01  1.52965E+01  1.51271E+01
   1.49560E+01  1.47831E+01  1.46084E+01  1.44317E+01  1.42529E+01  1.40718E+01  1.38883E+01  1.37022E+01  1.35133E+01  1.33212E+01
   1.31256E+01  1.29261E+01  1.27222E+01  1.25133E+01  1.22987E+01  1.20773E+01  1.18478E+01  1.16087E+01
 NY background values follow
    -3.422E+01   -3.445E+01   -3.466E+01   -3.486E+01   -3.504E+01   -3.520E+01   -3.535E+01   -3.548E+01   -3.560E+01   -3.571E+01
    -3.580E+01   -3.587E+01   -3.593E+01   -3.598E+01   -3.601E+01   -3.602E+01   -3.602E+01   -3.601E+01   -3.599E+01   -3.595E+01
    -3.589E+01   -3.582E+01   -3.574E+01   -3.565E+01   -3.554E+01   -3.542E+01   -3.528E+01   -3.514E+01   -3.498E+01   -3.481E+01
    -3.462E+01   -3.443E+01   -3.422E+01   -3.400E+01   -3.377E+01   -3.353E+01   -3.328E+01   -3.302E+01   -3.274E+01   -3.246E+01
    -3.216E+01   -3.186E+01   -3.155E+01   -3.122E+01   -3.089E+01   -3.055E+01   -3.020E+01   -2.985E+01   -2.948E+01   -2.911E+01
    -2.873E+01   -2.834E+01   -2.794E+01   -2.754E+01   -2.713E+01   -2.672E+01   -2.630E+01   -2.587E+01   -2.544E+01   -2.501E+01
    -2.457E+01   -2.412E+01   -2.367E+01   -2.322E+01   -2.276E+01   -2.230E+01   -2.184E+01   -2.138E+01   -2.091E+01   -2.044E+01
    -1.997E+01   -1.950E+01   -1.903E+01   -1.856E+01   -1.809E+01   -1.761E+01   -1.714E+01   -1.667E+01   -1.620E+01   -1.573E+01
    -1.526E+01   -1.479E+01   -1.432E+01   -1.385E+01   -1.339E+01   -1.292E+01   -1.246E+01   -1.200E+01   -1.155E+01   -1.109E+01
    -1.064E+01   -1.019E+01   -9.747E+00   -9.305E+00   -8.867E+00   -8.432E+00   -8.001E+00   -7.574E+00   -7.152E+00   -6.733E+00
    -6.320E+00   -5.911E+00   -5.506E+00   -5.107E+00   -4.713E+00   -4.325E+00   -3.942E+00   -3.565E+00   -3.193E+00   -2.828E+00
    -2.468E+00   -2.115E+00   -1.769E+00   -1.429E+00   -1.095E+00   -7.689E-01   -4.495E-01   -1.373E-01    1.677E-01    4.652E-01
     7.551E-01    1.037E+00    1.312E+00    1.578E+00    1.837E+00    2.087E+00    2.329E+00    2.563E+00    2.788E+00    3.004E+00
     3.212E+00    3.410E+00    3.600E+00    3.781E+00    3.952E+00    4.115E+00    4.268E+00    4.411E+00    4.545E+00    4.669E+00
     4.784E+00    4.889E+00    4.983E+00    5.068E+00    5.143E+00    5.207E+00    5.260E+00    5.303E+00    5.334E+00    5.353E+00
     5.361E+00    5.357E+00    5.340E+00    5.311E+00    5.269E+00    5.213E+00    5.145E+00    5.063E+00    4.967E+00    4.857E+00
     4.732E+00    4.593E+00    4.440E+00    4.271E+00    4.087E+00    3.887E+00    3.672E+00    3.441E+00    3.194E+00    2.931E+00
     2.650E+00    2.354E+00    2.040E+00    1.709E+00    1.360E+00    9.944E-01    6.107E-01    2.090E-01   -2.107E-01   -6.488E-01
    -1.105E+00   -1.581E+00   -2.074E+00   -2.587E+00   -3.120E+00   -3.671E+00   -4.242E+00   -4.832E+00   -5.442E+00   -6.072E+00
    -6.722E+00   -7.391E+00   -8.081E+00   -8.792E+00   -9.523E+00   -1.027E+01   -1.105E+01   -1.184E+01   -1.265E+01   -1.349E+01
    -1.434E+01   -1.522E+01   -1.611E+01   -1.703E+01   -1.797E+01   -1.893E+01   -1.991E+01   -2.092E+01   -2.194E+01   -2.299E+01
    -2.406E+01   -2.514E+01   -2.625E+01   -2.738E+01   -2.854E+01   -2.971E+01   -3.090E+01   -3.211E+01   -3.333E+01   -3.457E+01
    -3.583E+01   -3.710E+01   -3.837E+01   -3.966E+01   -4.096E+01   -4.227E+01   -4.358E+01   -4.490E+01   -4.623E+01   -4.755E+01
    -4.888E+01   -5.021E+01   -5.154E+01   -5.287E+01   -5.419E+01   -5.552E+01   -5.683E+01   -5.814E+01   -5.945E+01   -6.074E+01
    -6.203E+01   -6.331E+01   -6.457E+01   -6.582E+01   -6.706E+01   -6.828E+01   -6.949E+01   -7.068E+01   -7.185E+01   -7.300E+01
    -7.414E+01   -7.525E+01   -7.634E+01   -7.741E+01   -7.845E+01   -7.947E+01   -8.046E+01   -8.143E+01   -8.237E+01   -8.328E+01
    -8.416E+01   -8.501E+01   -8.583E+01   -8.662E+01   -8.737E+01   -8.810E+01   -8.878E+01   -8.944E+01   -9.006E+01   -9.064E+01
    -9.118E+01   -9.169E+01   -9.216E+01   -9.259E+01   -9.299E+01   -9.334E+01   -9.365E+01   -9.392E+01   -9.415E+01   -9.433E+01
    -9.448E+01   -9.458E+01   -9.464E+01   -9.465E+01   -9.462E+01   -9.455E+01   -9.443E+01   -9.427E+01   -9.407E+01   -9.383E+01
    -9.355E+01   -9.324E+01   -9.288E+01   -9.249E+01   -9.206E+01   -9.161E+01   -9.111E+01   -9.059E+01   -9.003E+01   -8.945E+01
    -8.884E+01   -8.820E+01   -8.753E+01   -8.683E+01   -8.612E+01   -8.537E+01   -8.461E+01   -8.382E+01   -8.302E+01   -8.219E+01
    -8.134E+01   -8.048E+01   -7.960E+01   -7.870E+01   -7.779E+01   -7.686E+01   -7.592E+01   -7.497E+01   -7.400E+01   -7.303E+01
    -7.204E+01   -7.105E+01   -7.005E+01   -6.904E+01   -6.802E+01   -6.700E+01   -6.597E+01   -6.494E+01   -6.390E+01   -6.286E+01
    -6.182E+01   -6.078E+01   -5.974E+01   -5.869E+01   -5.765E+01   -5.661E+01   -5.557E+01   -5.454E+01   -5.351E+01   -5.248E+01
    -5.145E+01   -5.043E+01   -4.942E+01   -4.841E+01   -4.741E+01   -4.642E+01   -4.543E+01   -4.446E+01   -4.349E+01   -4.253E+01
    -4.158E+01   -4.064E+01   -3.971E+01   -3.879E+01   -3.788E+01   -3.699E+01   -3.610E+01   -3.523E+01   -3.437E+01   -3.352E+01
    -3.268E+01   -3.185E+01   -3.104E+01   -3.024E+01   -2.944E+01   -2.866E+01   -2.790E+01   -2.714E+01   -2.640E+01   -2.566E+01
    -2.494E+01   -2.423E+01   -2.353E+01   -2.284E+01   -2.217E+01   -2.150E+01   -2.085E+01   -2.020E+01   -1.957E+01   -1.895E+01
    -1.834E+01   -1.774E+01   -1.715E+01   -1.658E+01   -1.601E+01   -1.545E+01   -1.491E+01   -1.437E+01   -1.385E+01   -1.334E+01
    -1.283E+01   -1.234E+01   -1.186E+01   -1.139E+01   -1.092E+01   -1.047E+01   -1.003E+01   -9.594E+00   -9.171E+00   -8.757E+00
    -8.353E+00   -7.958E+00   -7.573E+00   -7.197E+00   -6.830E+00   -6.472E+00   -6.123E+00   -5.783E+00   -5.452E+00   -5.130E+00
    -4.815E+00   -4.510E+00   -4.213E+00   -3.924E+00   -3.643E+00   -3.370E+00   -3.105E+00   -2.848E+00   -2.598E+00   -2.356E+00
    -2.122E+00   -1.895E+00   -1.675E+00   -1.462E+00   -1.256E+00   -1.056E+00   -8.639E-01   -6.779E-01   -4.984E-01   -3.252E-01
    -1.581E-01    2.894E-03    1.580E-01    3.073E-01    4.509E-01    5.889E-01    7.215E-01    8.488E-01    9.709E-01    1.088E+00
     1.200E+00    1.307E+00    1.410E+00    1.507E+00    1.601E+00    1.689E+00    1.774E+00    1.854E+00    1.930E+00    2.002E+00
     2.071E+00    2.135E+00    2.196E+00    2.253E+00    2.306E+00    2.356E+00    2.403E+00    2.446E+00    2.486E+00    2.523E+00
     2.557E+00    2.588E+00    2.616E+00    2.641E+00    2.663E+00    2.683E+00    2.700E+00    2.715E+00    2.727E+00    2.737E+00
     2.745E+00    2.750E+00    2.753E+00    2.753E+00    2.752E+00    2.749E+00    2.743E+00    2.736E+00    2.726E+00    2.715E+00
     2.702E+00    2.687E+00    2.671E+00    2.653E+00    2.633E+00    2.611E+00    2.588E+00    2.563E+00    2.537E+00    2.509E+00
     2.480E+00    2.449E+00    2.417E+00    2.383E+00    2.348E+00    2.312E+00    2.274E+00    2.235E+00
 Asp      Conc. = 3.70E+02
