 LCModel (Version 6.3-1L) Copyright: S.W. Provencher.          Ref.: Magn. Reson. Med. 30:672-679 (1993).                
 Slice#3 Row#3 Col#8  PD_05_press_1_raw_act
 36 lines in following concentration table = NCONC+1
    Conc.  %SD /Cr+PCr  Metabolite                                         
  349.026  86%   0.204 Ala                                                 
    0.000 999%   0.000 Asp                                                 
  949.771  32%   0.555 Cr                                                  
  760.086  40%   0.445 PCr                                                 
  237.337  79%   0.139 GABA                                                
    0.000 999%   0.000 Glc                                                 
 2.71E+03  20%   1.584 Gln                                                 
 2.80E+03  22%   1.638 Glu                                                 
  543.718   4%   0.318 GPC                                                 
    0.000 999%   0.000 PCh                                                 
  737.750  13%   0.431 GSH                                                 
 2.26E+03  10%   1.321 Ins                                                 
  721.257  43%   0.422 Lac                                                 
 2.16E+03   4%   1.261 NAA                                                 
    0.000 999%   0.000 NAAG                                                
  127.395  21% 7.5E-02 Scyllo                                              
    0.000 999%   0.000 Tau                                                 
    0.000 999%   0.000 -CrCH2                                              
  543.718   4%   0.318 GPC+PCh                                             
 2.16E+03   4%   1.261 NAA+NAAG                                            
 1.71E+03   3%   1.000 Cr+PCr                                              
 5.51E+03  19%   3.221 Glu+Gln                                             
    0.000 999%   0.000 Lip13a                                              
    0.000 999%   0.000 Lip13b                                              
    0.000 999%   0.000 Lip09                                               
 1.40E+03  10%   0.819 MM09                                                
   25.751 283% 1.5E-02 Lip20                                               
 1.08E+03  29%   0.630 MM20                                                
  574.612  25%   0.336 MM12                                                
 4.20E+03   3%   2.456+MM14                                                
  238.832  70%   0.140 MM17                                                
    0.000 999%   0.000 Lip13a+Lip13b                                       
 4.77E+03   5%   2.793 MM14+Lip13a+Lip13b+MM12                             
 1.40E+03  10%   0.819 MM09+Lip09                                          
 1.10E+03  28%   0.646 MM20+Lip20                                          
   6 lines in following misc. output table
  FWHM = 0.107 ppm    S/N =   9                                            
  Data shift = 0.008 ppm                                                   
  Ph:  11 deg     -10.3 deg/ppm                                            
  alphaB,S = 8.5E+01,   3.1E+02                                            
   14 spline knots.   Ns = 7(2)                                            
   2 inflections.     1 extrema                                            
  498 points on ppm-axis = NY
      4.000000     3.992357     3.984714     3.977070     3.969427     3.961784     3.954141     3.946497     3.938854     3.931211
      3.923568     3.915925     3.908281     3.900638     3.892995     3.885352     3.877708     3.870065     3.862422     3.854779
      3.847136     3.839492     3.831849     3.824206     3.816563     3.808919     3.801276     3.793633     3.785990     3.778347
      3.770703     3.763060     3.755417     3.747774     3.740130     3.732487     3.724844     3.717201     3.709558     3.701914
      3.694271     3.686628     3.678985     3.671341     3.663698     3.656055     3.648412     3.640769     3.633125     3.625482
      3.617839     3.610196     3.602552     3.594909     3.587266     3.579623     3.571980     3.564336     3.556693     3.549050
      3.541407     3.533763     3.526120     3.518477     3.510834     3.503191     3.495547     3.487904     3.480261     3.472618
      3.464974     3.457331     3.449688     3.442045     3.434402     3.426758     3.419115     3.411472     3.403829     3.396185
      3.388542     3.380899     3.373256     3.365613     3.357969     3.350326     3.342683     3.335040     3.327396     3.319753
      3.312110     3.304467     3.296824     3.289180     3.281537     3.273894     3.266251     3.258607     3.250964     3.243321
      3.235678     3.228034     3.220391     3.212748     3.205105     3.197462     3.189818     3.182175     3.174532     3.166889
      3.159245     3.151602     3.143959     3.136316     3.128673     3.121029     3.113386     3.105743     3.098100     3.090456
      3.082813     3.075170     3.067527     3.059884     3.052240     3.044597     3.036954     3.029311     3.021667     3.014024
      3.006381     2.998738     2.991095     2.983451     2.975808     2.968165     2.960522     2.952878     2.945235     2.937592
      2.929949     2.922306     2.914662     2.907019     2.899376     2.891733     2.884089     2.876446     2.868803     2.861160
      2.853517     2.845873     2.838230     2.830587     2.822944     2.815300     2.807657     2.800014     2.792371     2.784728
      2.777084     2.769441     2.761798     2.754155     2.746511     2.738868     2.731225     2.723582     2.715939     2.708295
      2.700652     2.693009     2.685366     2.677722     2.670079     2.662436     2.654793     2.647150     2.639506     2.631863
      2.624220     2.616577     2.608933     2.601290     2.593647     2.586004     2.578361     2.570717     2.563074     2.555431
      2.547788     2.540144     2.532501     2.524858     2.517215     2.509572     2.501928     2.494285     2.486642     2.478999
      2.471355     2.463712     2.456069     2.448426     2.440783     2.433139     2.425496     2.417853     2.410210     2.402566
      2.394923     2.387280     2.379637     2.371994     2.364350     2.356707     2.349064     2.341421     2.333777     2.326134
      2.318491     2.310848     2.303205     2.295561     2.287918     2.280275     2.272632     2.264988     2.257345     2.249702
      2.242059     2.234416     2.226772     2.219129     2.211486     2.203843     2.196199     2.188556     2.180913     2.173270
      2.165627     2.157983     2.150340     2.142697     2.135054     2.127410     2.119767     2.112124     2.104481     2.096838
      2.089194     2.081551     2.073908     2.066265     2.058621     2.050978     2.043335     2.035692     2.028049     2.020405
      2.012762     2.005119     1.997476     1.989833     1.982190     1.974546     1.966903     1.959260     1.951617     1.943974
      1.936331     1.928688     1.921045     1.913402     1.905759     1.898115     1.890472     1.882829     1.875186     1.867543
      1.859900     1.852257     1.844614     1.836971     1.829327     1.821684     1.814041     1.806398     1.798755     1.791112
      1.783469     1.775826     1.768183     1.760540     1.752896     1.745253     1.737610     1.729967     1.722324     1.714681
      1.707038     1.699395     1.691752     1.684108     1.676465     1.668822     1.661179     1.653536     1.645893     1.638250
      1.630607     1.622964     1.615321     1.607677     1.600034     1.592391     1.584748     1.577105     1.569462     1.561819
      1.554176     1.546533     1.538890     1.531246     1.523603     1.515960     1.508317     1.500674     1.493031     1.485388
      1.477745     1.470102     1.462458     1.454815     1.447172     1.439529     1.431886     1.424243     1.416600     1.408957
      1.401314     1.393671     1.386027     1.378384     1.370741     1.363098     1.355455     1.347812     1.340169     1.332526
      1.324883     1.317240     1.309596     1.301953     1.294310     1.286667     1.279024     1.271381     1.263738     1.256095
      1.248452     1.240808     1.233165     1.225522     1.217879     1.210236     1.202593     1.194950     1.187307     1.179664
      1.172021     1.164377     1.156734     1.149091     1.141448     1.133805     1.126162     1.118519     1.110876     1.103233
      1.095590     1.087946     1.080303     1.072660     1.065017     1.057374     1.049731     1.042088     1.034445     1.026802
      1.019158     1.011515     1.003872     0.996229     0.988586     0.980943     0.973300     0.965657     0.958014     0.950371
      0.942727     0.935084     0.927441     0.919798     0.912155     0.904512     0.896869     0.889226     0.881583     0.873940
      0.866296     0.858653     0.851010     0.843367     0.835724     0.828081     0.820438     0.812795     0.805152     0.797508
      0.789865     0.782222     0.774579     0.766936     0.759293     0.751650     0.744007     0.736364     0.728721     0.721077
      0.713434     0.705791     0.698148     0.690505     0.682862     0.675219     0.667576     0.659933     0.652290     0.644646
      0.637003     0.629360     0.621717     0.614074     0.606431     0.598788     0.591145     0.583502     0.575858     0.568215
      0.560572     0.552929     0.545286     0.537643     0.530000     0.522357     0.514714     0.507071     0.499427     0.491784
      0.484141     0.476498     0.468855     0.461212     0.453569     0.445925     0.438282     0.430639     0.422996     0.415353
      0.407710     0.400067     0.392424     0.384780     0.377137     0.369494     0.361851     0.354208     0.346565     0.338922
      0.331278     0.323635     0.315992     0.308349     0.300706     0.293063     0.285420     0.277777     0.270133     0.262490
      0.254847     0.247204     0.239561     0.231918     0.224275     0.216631     0.208988     0.201345
 NY phased data points follow
   1.69487E+01  1.68124E+01  2.06925E+01  1.66455E+01  1.83936E+01  2.53456E+01  2.57988E+01  2.54331E+01  2.87782E+01  3.08705E+01
   3.41182E+01  3.00524E+01  2.89943E+01  2.50536E+01  2.47231E+01  2.31581E+01  2.19013E+01  1.83175E+01  2.03485E+01  1.70845E+01
   1.76938E+01  1.58356E+01  1.50961E+01  1.68519E+01  1.36428E+01  1.69406E+01  1.86653E+01  1.63840E+01  1.86050E+01  2.02450E+01
   2.15024E+01  1.90438E+01  1.62098E+01  1.63829E+01  1.63859E+01  1.35435E+01  1.30060E+01  1.68871E+01  1.81245E+01  1.46854E+01
   1.77944E+01  1.71406E+01  1.51069E+01  1.71853E+01  2.02868E+01  1.96981E+01  1.93900E+01  1.77291E+01  1.91228E+01  1.51220E+01
   1.45052E+01  1.38188E+01  1.45850E+01  1.14700E+01  1.46528E+01  1.39466E+01  1.03178E+01  1.14365E+01  1.22675E+01  1.16667E+01
   1.02963E+01  9.63142E+00  7.26845E+00  9.24451E+00  3.86665E+00  8.84269E+00  8.55143E+00  4.64678E+00  3.29843E+00  4.89070E+00
   3.85310E+00  5.72565E+00  3.71948E+00  4.57506E+00  6.26849E+00  7.85854E+00  6.17216E+00  5.24977E+00  6.62609E+00  4.54867E+00
   6.45209E+00  6.11176E+00  6.70048E+00  4.41968E+00  8.06942E+00  7.27852E+00  9.02260E+00  7.19510E+00  1.00550E+01  7.56833E+00
   9.35987E+00  1.30102E+01  1.20807E+01  1.29745E+01  1.34935E+01  1.75364E+01  1.59571E+01  1.49340E+01  1.79516E+01  1.93103E+01
   2.40253E+01  2.72637E+01  3.25650E+01  3.11541E+01  2.88694E+01  2.95204E+01  2.50672E+01  2.14494E+01  2.08358E+01  1.85754E+01
   1.74861E+01  1.78104E+01  1.25287E+01  1.25216E+01  1.40346E+01  1.19936E+01  1.47481E+01  1.57576E+01  1.74781E+01  1.71101E+01
   1.71864E+01  1.91956E+01  2.46323E+01  2.46779E+01  2.90041E+01  3.35904E+01  3.60590E+01  3.80330E+01  3.30924E+01  2.94485E+01
   2.95024E+01  2.48844E+01  2.14288E+01  2.01443E+01  1.62755E+01  1.17079E+01  7.01961E+00  1.05720E+01  7.37978E+00  4.75414E+00
   7.20161E+00  5.61217E+00  8.47528E+00  4.47322E+00  7.74878E+00  5.12540E+00  9.32994E+00  5.07546E+00  8.05264E+00  7.42449E+00
   6.41305E+00  3.65090E+00  2.50700E+00  3.21782E+00  3.05583E+00  3.79157E+00  3.62804E+00  4.71188E+00  5.84555E+00  2.57481E+00
   7.35011E-01  3.21799E-01  2.92722E+00 -6.20003E-01  2.31096E+00  2.18650E+00  5.05156E+00  8.15406E-01 -3.88190E-01 -6.20306E-01
   9.33249E-01  6.30417E-01 -4.46676E+00 -2.90516E+00 -3.90024E+00 -6.99724E+00 -1.65597E+00 -5.68575E+00 -2.83612E+00 -5.96621E+00
  -3.08922E+00 -4.91375E+00 -5.13652E+00 -3.32895E+00 -5.84346E-01 -3.13163E+00 -1.35494E+00 -3.00083E+00 -9.20765E-01 -1.25121E+00
   3.64014E-01  2.46087E+00  5.94735E+00  5.82869E+00  5.91279E+00  1.34529E+00  5.29756E+00  2.82398E+00  1.40439E+00  3.34218E+00
   3.80666E+00  1.77839E+00  3.36731E+00  4.43847E+00  1.68054E+00  4.71812E+00  2.30655E+00  3.46522E+00  2.06988E+00  4.25594E+00
  -1.26445E+00  6.00754E+00  4.08200E+00  7.04299E+00  6.18714E+00  9.50919E+00  1.01027E+01  8.25498E+00  8.52582E+00  4.92217E+00
   4.03630E+00  2.17923E+00  3.45383E+00  5.26685E+00  2.19132E+00  3.29409E+00  5.05052E+00  6.47937E+00  6.98608E+00  6.91327E+00
   2.13159E+00  3.74282E+00  8.65139E+00  5.84300E+00  5.14539E+00  1.04774E+01  5.31724E+00  5.95113E+00  5.65813E+00  4.83214E+00
   1.04727E+01  6.21456E+00  5.27497E+00  8.38465E+00  8.52944E+00  8.89821E+00  9.34594E+00  8.70589E+00  1.21114E+01  1.04571E+01
   1.27253E+01  1.97463E+01  1.71961E+01  1.77738E+01  2.53599E+01  2.65553E+01  3.53287E+01  3.93235E+01  4.55495E+01  4.88668E+01
   5.12431E+01  4.75172E+01  4.75431E+01  4.03067E+01  3.82492E+01  3.18487E+01  2.95299E+01  2.62368E+01  1.62112E+01  1.65942E+01
   1.34082E+01  1.03849E+01  9.97351E+00  8.61585E+00  1.11121E+01  9.37384E+00  1.04427E+01  5.58850E+00  4.78456E+00  7.02881E+00
   6.45121E+00  5.71273E+00  6.31485E+00  2.53768E+00  4.67893E+00  3.23633E+00  7.26112E+00  3.64820E+00  3.38522E+00  3.58037E+00
   4.30423E+00  3.57661E+00  4.33634E+00  1.58729E+00  3.06826E+00  2.63441E+00  5.29606E+00  1.36131E+00  2.10428E+00  2.03804E+00
   3.64957E+00  4.31443E+00  6.35898E+00  3.28961E+00  1.21999E+00  5.12789E+00  3.25391E+00  5.30651E+00  8.15504E+00  7.24655E+00
   6.72217E+00  7.50623E+00  7.39186E+00  1.11330E+01  9.06545E+00  1.02182E+01  9.79670E+00  8.71435E+00  1.07488E+01  1.11334E+01
   9.72421E+00  1.05689E+01  1.56918E+01  1.20099E+01  1.49237E+01  1.66533E+01  1.75987E+01  2.07066E+01  2.35304E+01  2.03120E+01
   2.64530E+01  2.92146E+01  3.03977E+01  3.29228E+01  3.77224E+01  3.87963E+01  3.95887E+01  3.99588E+01  3.87419E+01  3.95189E+01
   4.23676E+01  4.05591E+01  3.40045E+01  3.52971E+01  3.12809E+01  2.82154E+01  2.86345E+01  2.54334E+01  2.24348E+01  2.08647E+01
   1.64943E+01  1.73669E+01  1.57337E+01  1.59516E+01  1.04689E+01  1.29541E+01  1.46860E+01  1.27587E+01  9.03732E+00  1.00585E+01
   4.44826E+00  8.69098E+00  6.91889E+00  8.90337E+00  8.64644E+00  9.07295E+00  7.98998E+00  9.01064E+00  1.05377E+01  8.94469E+00
   9.17507E+00  7.66837E+00  1.04543E+01  8.20079E+00  8.95952E+00  5.77608E+00  6.24025E+00  8.37994E+00  9.31608E+00  1.20982E+01
   1.22303E+01  9.76953E+00  9.45219E+00  6.72442E+00  9.98339E+00  6.26975E+00  7.71057E+00  1.07514E+01  8.34994E+00  9.15191E+00
   1.02342E+01  9.39212E+00  7.44501E+00  8.39852E+00  1.42367E+01  1.00459E+01  8.90430E+00  1.19061E+01  1.18617E+01  8.95879E+00
   1.24291E+01  9.10227E+00  8.84068E+00  1.28474E+01  5.57760E+00  1.11309E+01  1.13336E+01  8.37090E+00  1.18401E+01  1.16659E+01
   1.15389E+01  1.39524E+01  1.34008E+01  1.05714E+01  1.03001E+01  1.22591E+01  1.42530E+01  1.02962E+01  9.67677E+00  7.38841E+00
   7.06982E+00  8.71847E+00  7.62707E+00  6.25935E+00  1.00136E+01  9.71702E+00  7.91358E+00  3.71663E+00  6.83714E+00  7.12718E+00
   5.60225E+00  5.26324E+00  4.70012E+00  4.63292E+00  3.72303E+00  3.30474E+00  4.70611E+00  6.86273E+00  2.52333E+00  3.68091E+00
   4.03706E+00  4.53505E+00  5.66848E+00  1.58560E+00  4.15610E+00  5.63044E+00  6.69669E+00  2.53533E+00  3.13681E+00  3.11661E+00
   2.52371E+00  5.88839E+00  5.34480E+00  5.68467E+00  4.85534E+00  6.11106E+00  3.69301E+00  2.52240E+00  6.10812E+00  2.33024E+00
   3.73229E+00  3.84385E+00  3.88640E+00  3.64479E+00  3.41240E+00  4.01206E+00  4.88275E+00  2.74984E+00  5.02540E+00  9.67374E-01
   4.83189E+00  4.10928E+00  4.23798E+00  5.10069E+00  3.07409E+00  5.15213E+00  2.46776E+00  1.86503E+00  2.77553E+00 -1.52170E-01
   4.71723E+00  1.37050E+00  2.77343E+00  4.17753E+00  5.23648E-01  2.04355E+00  5.70873E+00  3.38509E+00  2.63367E+00  5.32406E+00
   3.15711E+00  2.60149E+00  5.44433E+00  1.98041E+00  6.32359E+00  6.68816E+00  4.55602E+00  3.70012E+00
 NY points of the fit to the data follow
   1.67151E+01  1.76621E+01  1.87984E+01  2.00502E+01  2.16482E+01  2.31692E+01  2.48027E+01  2.62730E+01  2.73083E+01  2.82244E+01
   2.83172E+01  2.81987E+01  2.72200E+01  2.61589E+01  2.44031E+01  2.29413E+01  2.12334E+01  2.00169E+01  1.87050E+01  1.78840E+01
   1.69902E+01  1.66104E+01  1.59168E+01  1.59525E+01  1.56199E+01  1.60470E+01  1.65489E+01  1.71085E+01  1.81882E+01  1.86296E+01
   1.96887E+01  1.92927E+01  1.98890E+01  1.88674E+01  1.90421E+01  1.75998E+01  1.76233E+01  1.61740E+01  1.63176E+01  1.52445E+01
   1.56836E+01  1.52145E+01  1.58631E+01  1.57873E+01  1.62990E+01  1.63272E+01  1.62830E+01  1.61113E+01  1.56304E+01  1.51670E+01
   1.42736E+01  1.36243E+01  1.26521E+01  1.21081E+01  1.11860E+01  1.08987E+01  1.01522E+01  1.01512E+01  9.55374E+00  9.65790E+00
   9.05591E+00  9.12386E+00  8.48770E+00  8.52074E+00  8.01483E+00  8.28108E+00  7.92551E+00  8.24215E+00  7.96535E+00  8.25731E+00
   8.05231E+00  8.25401E+00  8.19027E+00  8.21332E+00  8.16089E+00  7.99305E+00  7.95034E+00  7.73314E+00  7.75110E+00  7.54499E+00
   7.63457E+00  7.41205E+00  7.54809E+00  7.22999E+00  7.29476E+00  6.87475E+00  6.81664E+00  6.41770E+00  6.55729E+00  7.23719E+00
   7.85985E+00  9.12112E+00  1.00979E+01  1.16649E+01  1.29260E+01  1.48563E+01  1.64507E+01  1.89917E+01  2.08670E+01  2.37874E+01
   2.55904E+01  2.78831E+01  2.90137E+01  2.94456E+01  2.95471E+01  2.77622E+01  2.68228E+01  2.36361E+01  2.21618E+01  1.86388E+01
   1.71301E+01  1.41525E+01  1.36064E+01  1.21722E+01  1.25283E+01  1.22610E+01  1.32894E+01  1.38821E+01  1.55772E+01  1.69818E+01
   1.96066E+01  2.22014E+01  2.54561E+01  2.80110E+01  3.08721E+01  3.24476E+01  3.38927E+01  3.36611E+01  3.33150E+01  3.12040E+01
   2.95035E+01  2.61944E+01  2.38955E+01  2.02082E+01  1.79258E+01  1.45256E+01  1.28184E+01  1.01680E+01  9.18576E+00  7.26209E+00
   6.82626E+00  5.37075E+00  5.20657E+00  4.16473E+00  4.44813E+00  3.94588E+00  4.15015E+00  3.65775E+00  3.71819E+00  3.25255E+00
   3.26312E+00  2.90159E+00  2.88463E+00  2.53776E+00  2.47957E+00  2.12289E+00  2.03868E+00  1.70000E+00  1.63957E+00  1.36202E+00
   1.31548E+00  1.10206E+00  9.47014E-01  8.35285E-01  5.58282E-01  5.08661E-01  1.20707E-01  4.44806E-02 -3.64851E-01 -4.78743E-01
  -8.45873E-01 -1.03271E+00 -1.32656E+00 -1.60849E+00 -1.68786E+00 -2.01221E+00 -1.77640E+00 -2.12035E+00 -1.58395E+00 -2.04716E+00
  -1.29261E+00 -1.85675E+00 -9.72188E-01 -1.52945E+00 -6.59732E-01 -1.04460E+00 -1.51118E-01 -1.88014E-01  6.16560E-01  8.68999E-01
   1.44694E+00  1.89269E+00  2.07583E+00  2.68709E+00  2.39447E+00  3.12308E+00  2.59227E+00  3.72322E+00  3.17068E+00  4.43523E+00
   3.91096E+00  4.97180E+00  4.39224E+00  4.93061E+00  3.83927E+00  3.96031E+00  2.45601E+00  2.70995E+00  1.16583E+00  2.03015E+00
   1.10782E+00  2.79936E+00  2.49642E+00  4.55306E+00  4.29289E+00  6.07146E+00  5.15754E+00  6.25059E+00  4.64993E+00  5.26635E+00
   3.48718E+00  3.97223E+00  2.72138E+00  3.62140E+00  3.11509E+00  4.32005E+00  4.31773E+00  5.29437E+00  5.26785E+00  5.95922E+00
   5.77899E+00  6.22989E+00  6.06737E+00  6.49823E+00  6.56061E+00  7.05920E+00  7.00353E+00  7.35170E+00  6.90739E+00  6.95406E+00
   6.07082E+00  5.83817E+00  5.00800E+00  4.97295E+00  4.54071E+00  5.15481E+00  6.77086E+00  8.04189E+00  1.09326E+01  1.24747E+01
   1.61788E+01  1.78733E+01  2.22830E+01  2.39557E+01  2.93993E+01  3.10227E+01  3.72653E+01  3.82801E+01  4.38980E+01  4.36007E+01
   4.64592E+01  4.45675E+01  4.39013E+01  4.09287E+01  3.76812E+01  3.43805E+01  2.99942E+01  2.69481E+01  2.24563E+01  2.00100E+01
   1.63176E+01  1.46076E+01  1.19246E+01  1.07946E+01  8.88341E+00  8.11922E+00  6.65068E+00  6.28290E+00  6.01058E+00  5.83335E+00
   5.66304E+00  5.47940E+00  5.37688E+00  5.20658E+00  5.12634E+00  5.00022E+00  4.94891E+00  4.85541E+00  4.81593E+00  4.75178E+00
   4.71313E+00  4.67795E+00  4.66000E+00  4.65794E+00  4.66190E+00  4.68949E+00  4.71403E+00  4.76650E+00  4.81207E+00  4.87951E+00
   4.94567E+00  5.02754E+00  5.11033E+00  5.20479E+00  5.30253E+00  5.40681E+00  5.51621E+00  5.63308E+00  5.76169E+00  5.90459E+00
   6.07391E+00  6.27899E+00  6.54839E+00  6.91019E+00  7.26292E+00  7.74638E+00  8.22036E+00  8.86294E+00  9.51629E+00  1.03673E+01
   1.12310E+01  1.24056E+01  1.35851E+01  1.50371E+01  1.64973E+01  1.80953E+01  1.97786E+01  2.14023E+01  2.32971E+01  2.49252E+01
   2.70499E+01  2.86943E+01  3.10462E+01  3.26770E+01  3.48108E+01  3.60604E+01  3.75750E+01  3.82133E+01  3.87746E+01  3.86898E+01
   3.81793E+01  3.76957E+01  3.60824E+01  3.52836E+01  3.25810E+01  3.15408E+01  2.79370E+01  2.67150E+01  2.27490E+01  2.17380E+01
   1.80091E+01  1.76108E+01  1.44689E+01  1.48230E+01  1.23954E+01  1.31550E+01  1.13252E+01  1.21006E+01  1.07068E+01  1.12628E+01
   1.02013E+01  1.04915E+01  9.70797E+00  9.76466E+00  9.26931E+00  9.25680E+00  8.85928E+00  8.73681E+00  8.43467E+00  8.25307E+00
   8.01447E+00  7.76578E+00  7.59757E+00  7.47010E+00  7.36717E+00  7.28296E+00  7.21538E+00  7.16422E+00  7.13023E+00  7.11473E+00
   7.11932E+00  7.14568E+00  7.19547E+00  7.27019E+00  7.37113E+00  7.49923E+00  7.65511E+00  7.83887E+00  8.05009E+00  8.28773E+00
   8.55010E+00  8.83475E+00  9.13847E+00  9.45725E+00  9.78631E+00  1.01202E+01  1.04527E+01  1.07773E+01  1.10871E+01  1.13750E+01
   1.16342E+01  1.18582E+01  1.20412E+01  1.21781E+01  1.22652E+01  1.22998E+01  1.22806E+01  1.22078E+01  1.20829E+01  1.19089E+01
   1.16896E+01  1.14300E+01  1.11360E+01  1.08137E+01  1.04696E+01  1.01101E+01  9.74142E+00  9.36950E+00  8.99956E+00  8.63623E+00
   8.28337E+00  7.94412E+00  7.62084E+00  7.31525E+00  7.02837E+00  6.76073E+00  6.51230E+00  6.28276E+00  6.07141E+00  5.87740E+00
   5.69969E+00  5.53717E+00  5.38867E+00  5.25306E+00  5.12917E+00  5.01598E+00  4.91244E+00  4.81765E+00  4.73071E+00  4.65088E+00
   4.57741E+00  4.50971E+00  4.44719E+00  4.38934E+00  4.33571E+00  4.28589E+00  4.23952E+00  4.19630E+00  4.15592E+00  4.11813E+00
   4.08270E+00  4.04944E+00  4.01816E+00  3.98871E+00  3.96091E+00  3.93467E+00  3.90983E+00  3.88632E+00  3.86400E+00  3.84283E+00
   3.82269E+00  3.80353E+00  3.78525E+00  3.76784E+00  3.75120E+00  3.73530E+00  3.72007E+00  3.70550E+00  3.69151E+00  3.67809E+00
   3.66520E+00  3.65280E+00  3.64086E+00  3.62936E+00  3.61827E+00  3.60757E+00  3.59723E+00  3.58723E+00  3.57755E+00  3.56817E+00
   3.55908E+00  3.55025E+00  3.54167E+00  3.53333E+00  3.52520E+00  3.51728E+00  3.50955E+00  3.50200E+00  3.49462E+00  3.48738E+00
   3.48029E+00  3.47332E+00  3.46648E+00  3.45974E+00  3.45309E+00  3.44653E+00  3.44005E+00  3.43364E+00
 NY background values follow
     2.085E+00    2.086E+00    2.088E+00    2.089E+00    2.091E+00    2.092E+00    2.094E+00    2.095E+00    2.097E+00    2.098E+00
     2.100E+00    2.101E+00    2.103E+00    2.104E+00    2.105E+00    2.107E+00    2.108E+00    2.110E+00    2.111E+00    2.113E+00
     2.114E+00    2.116E+00    2.117E+00    2.119E+00    2.120E+00    2.121E+00    2.123E+00    2.124E+00    2.126E+00    2.127E+00
     2.129E+00    2.130E+00    2.132E+00    2.133E+00    2.135E+00    2.136E+00    2.137E+00    2.139E+00    2.140E+00    2.142E+00
     2.143E+00    2.145E+00    2.146E+00    2.148E+00    2.149E+00    2.151E+00    2.152E+00    2.153E+00    2.155E+00    2.156E+00
     2.158E+00    2.159E+00    2.161E+00    2.162E+00    2.164E+00    2.165E+00    2.166E+00    2.168E+00    2.169E+00    2.171E+00
     2.172E+00    2.174E+00    2.175E+00    2.177E+00    2.178E+00    2.180E+00    2.181E+00    2.182E+00    2.184E+00    2.185E+00
     2.187E+00    2.188E+00    2.190E+00    2.191E+00    2.193E+00    2.194E+00    2.195E+00    2.197E+00    2.198E+00    2.200E+00
     2.201E+00    2.203E+00    2.204E+00    2.206E+00    2.207E+00    2.209E+00    2.210E+00    2.211E+00    2.213E+00    2.214E+00
     2.216E+00    2.217E+00    2.219E+00    2.220E+00    2.222E+00    2.223E+00    2.224E+00    2.226E+00    2.227E+00    2.229E+00
     2.230E+00    2.232E+00    2.233E+00    2.235E+00    2.236E+00    2.237E+00    2.239E+00    2.240E+00    2.242E+00    2.243E+00
     2.245E+00    2.246E+00    2.248E+00    2.249E+00    2.250E+00    2.252E+00    2.253E+00    2.255E+00    2.256E+00    2.258E+00
     2.259E+00    2.261E+00    2.262E+00    2.263E+00    2.265E+00    2.266E+00    2.268E+00    2.269E+00    2.271E+00    2.272E+00
     2.274E+00    2.275E+00    2.276E+00    2.278E+00    2.279E+00    2.281E+00    2.282E+00    2.284E+00    2.285E+00    2.287E+00
     2.288E+00    2.289E+00    2.291E+00    2.292E+00    2.294E+00    2.295E+00    2.297E+00    2.298E+00    2.300E+00    2.301E+00
     2.302E+00    2.304E+00    2.305E+00    2.307E+00    2.308E+00    2.310E+00    2.311E+00    2.312E+00    2.314E+00    2.315E+00
     2.317E+00    2.318E+00    2.320E+00    2.321E+00    2.323E+00    2.324E+00    2.325E+00    2.327E+00    2.328E+00    2.330E+00
     2.331E+00    2.333E+00    2.334E+00    2.335E+00    2.337E+00    2.338E+00    2.340E+00    2.341E+00    2.343E+00    2.344E+00
     2.346E+00    2.347E+00    2.348E+00    2.350E+00    2.351E+00    2.353E+00    2.354E+00    2.356E+00    2.357E+00    2.358E+00
     2.360E+00    2.361E+00    2.363E+00    2.364E+00    2.366E+00    2.367E+00    2.368E+00    2.370E+00    2.371E+00    2.373E+00
     2.374E+00    2.376E+00    2.377E+00    2.378E+00    2.380E+00    2.381E+00    2.383E+00    2.384E+00    2.386E+00    2.387E+00
     2.389E+00    2.390E+00    2.391E+00    2.393E+00    2.394E+00    2.396E+00    2.397E+00    2.399E+00    2.400E+00    2.401E+00
     2.403E+00    2.404E+00    2.406E+00    2.407E+00    2.409E+00    2.410E+00    2.411E+00    2.413E+00    2.414E+00    2.416E+00
     2.417E+00    2.419E+00    2.420E+00    2.421E+00    2.423E+00    2.424E+00    2.426E+00    2.427E+00    2.429E+00    2.430E+00
     2.431E+00    2.433E+00    2.434E+00    2.436E+00    2.437E+00    2.438E+00    2.440E+00    2.441E+00    2.443E+00    2.444E+00
     2.446E+00    2.447E+00    2.448E+00    2.450E+00    2.451E+00    2.453E+00    2.454E+00    2.456E+00    2.457E+00    2.458E+00
     2.460E+00    2.461E+00    2.463E+00    2.464E+00    2.466E+00    2.467E+00    2.468E+00    2.470E+00    2.471E+00    2.473E+00
     2.474E+00    2.475E+00    2.477E+00    2.478E+00    2.480E+00    2.481E+00    2.483E+00    2.484E+00    2.485E+00    2.487E+00
     2.488E+00    2.490E+00    2.491E+00    2.493E+00    2.494E+00    2.495E+00    2.497E+00    2.498E+00    2.500E+00    2.501E+00
     2.502E+00    2.504E+00    2.505E+00    2.507E+00    2.508E+00    2.510E+00    2.511E+00    2.512E+00    2.514E+00    2.515E+00
     2.517E+00    2.518E+00    2.519E+00    2.521E+00    2.522E+00    2.524E+00    2.525E+00    2.527E+00    2.528E+00    2.529E+00
     2.531E+00    2.532E+00    2.534E+00    2.535E+00    2.536E+00    2.538E+00    2.539E+00    2.541E+00    2.542E+00    2.544E+00
     2.545E+00    2.546E+00    2.548E+00    2.549E+00    2.551E+00    2.552E+00    2.553E+00    2.555E+00    2.556E+00    2.558E+00
     2.559E+00    2.560E+00    2.562E+00    2.563E+00    2.565E+00    2.566E+00    2.568E+00    2.569E+00    2.570E+00    2.572E+00
     2.573E+00    2.575E+00    2.576E+00    2.577E+00    2.579E+00    2.580E+00    2.582E+00    2.583E+00    2.584E+00    2.586E+00
     2.587E+00    2.589E+00    2.590E+00    2.591E+00    2.593E+00    2.594E+00    2.596E+00    2.597E+00    2.598E+00    2.600E+00
     2.601E+00    2.603E+00    2.604E+00    2.606E+00    2.607E+00    2.608E+00    2.610E+00    2.611E+00    2.613E+00    2.614E+00
     2.615E+00    2.617E+00    2.618E+00    2.620E+00    2.621E+00    2.622E+00    2.624E+00    2.625E+00    2.627E+00    2.628E+00
     2.629E+00    2.631E+00    2.632E+00    2.634E+00    2.635E+00    2.636E+00    2.638E+00    2.639E+00    2.641E+00    2.642E+00
     2.643E+00    2.645E+00    2.646E+00    2.648E+00    2.649E+00    2.650E+00    2.652E+00    2.653E+00    2.655E+00    2.656E+00
     2.657E+00    2.659E+00    2.660E+00    2.662E+00    2.663E+00    2.664E+00    2.666E+00    2.667E+00    2.668E+00    2.670E+00
     2.671E+00    2.673E+00    2.674E+00    2.675E+00    2.677E+00    2.678E+00    2.680E+00    2.681E+00    2.682E+00    2.684E+00
     2.685E+00    2.687E+00    2.688E+00    2.689E+00    2.691E+00    2.692E+00    2.694E+00    2.695E+00    2.696E+00    2.698E+00
     2.699E+00    2.700E+00    2.702E+00    2.703E+00    2.705E+00    2.706E+00    2.707E+00    2.709E+00    2.710E+00    2.712E+00
     2.713E+00    2.714E+00    2.716E+00    2.717E+00    2.719E+00    2.720E+00    2.721E+00    2.723E+00    2.724E+00    2.725E+00
     2.727E+00    2.728E+00    2.730E+00    2.731E+00    2.732E+00    2.734E+00    2.735E+00    2.737E+00    2.738E+00    2.739E+00
     2.741E+00    2.742E+00    2.743E+00    2.745E+00    2.746E+00    2.748E+00    2.749E+00    2.750E+00    2.752E+00    2.753E+00
     2.754E+00    2.756E+00    2.757E+00    2.759E+00    2.760E+00    2.761E+00    2.763E+00    2.764E+00    2.765E+00    2.767E+00
     2.768E+00    2.770E+00    2.771E+00    2.772E+00    2.774E+00    2.775E+00    2.776E+00    2.778E+00    2.779E+00    2.781E+00
     2.782E+00    2.783E+00    2.785E+00    2.786E+00    2.787E+00    2.789E+00    2.790E+00    2.792E+00
 Ala      Conc. = 3.49E+02
