 LCModel (Version 6.3-1L) Copyright: S.W. Provencher.          Ref.: Magn. Reson. Med. 30:672-679 (1993).                
 Slice#3 Row#8 Col#3  PD_05_press_1_raw_act
 36 lines in following concentration table = NCONC+1
    Conc.  %SD /Cr+PCr  Metabolite                                         
    0.000 999%   0.000 Ala                                                 
   80.505 107%   0.154 Asp                                                 
    0.000 999%   0.000 Cr                                                  
  522.287   6%   1.000 PCr                                                 
    0.000 999%   0.000 GABA                                                
    0.000 999%   0.000 Glc                                                 
    0.000 999%   0.000 Gln                                                 
  247.433  77%   0.474 Glu                                                 
  140.911   9%   0.270 GPC                                                 
    0.000 999%   0.000 PCh                                                 
  243.687  18%   0.467 GSH                                                 
  374.943  43%   0.718 Ins                                                 
    0.000 999%   0.000 Lac                                                 
  819.796   4%   1.570 NAA                                                 
    0.000 999%   0.000 NAAG                                                
   18.484  75% 3.5E-02 Scyllo                                              
    0.000 999%   0.000 Tau                                                 
    0.000 999%   0.000 -CrCH2                                              
  140.911   9%   0.270 GPC+PCh                                             
  819.796   4%   1.570 NAA+NAAG                                            
  522.287   6%   1.000 Cr+PCr                                              
  247.433  77%   0.474 Glu+Gln                                             
    0.000 999%   0.000 Lip13a                                              
   32.611 165% 6.2E-02 Lip13b                                              
    0.000 999%   0.000 Lip09                                               
  270.914  31%   0.519 MM09                                                
   11.637 488% 2.2E-02 Lip20                                               
  188.736  93%   0.361 MM20                                                
  160.508  49%   0.307 MM12                                                
    0.000 999%   0.000 MM14                                                
    0.000 999%   0.000 MM17                                                
   32.611 165% 6.2E-02 Lip13a+Lip13b                                       
  193.119  45%   0.370 MM14+Lip13a+Lip13b+MM12                             
  270.914  31%   0.519 MM09+Lip09                                          
  200.373  87%   0.384 MM20+Lip20                                          
   6 lines in following misc. output table
  FWHM = 0.076 ppm    S/N =   7                                            
  Data shift = 0.015 ppm                                                   
  Ph: -16 deg     -15.9 deg/ppm                                            
  alphaB,S = 2.7E-01,   3.2E+02                                            
   14 spline knots.   Ns =11(1)                                            
  (15) 2 infls.   (15) 1 extrs.                                            
  498 points on ppm-axis = NY
      4.000000     3.992357     3.984714     3.977070     3.969427     3.961784     3.954141     3.946497     3.938854     3.931211
      3.923568     3.915925     3.908281     3.900638     3.892995     3.885352     3.877708     3.870065     3.862422     3.854779
      3.847136     3.839492     3.831849     3.824206     3.816563     3.808919     3.801276     3.793633     3.785990     3.778347
      3.770703     3.763060     3.755417     3.747774     3.740130     3.732487     3.724844     3.717201     3.709558     3.701914
      3.694271     3.686628     3.678985     3.671341     3.663698     3.656055     3.648412     3.640769     3.633125     3.625482
      3.617839     3.610196     3.602552     3.594909     3.587266     3.579623     3.571980     3.564336     3.556693     3.549050
      3.541407     3.533763     3.526120     3.518477     3.510834     3.503191     3.495547     3.487904     3.480261     3.472618
      3.464974     3.457331     3.449688     3.442045     3.434402     3.426758     3.419115     3.411472     3.403829     3.396185
      3.388542     3.380899     3.373256     3.365613     3.357969     3.350326     3.342683     3.335040     3.327396     3.319753
      3.312110     3.304467     3.296824     3.289180     3.281537     3.273894     3.266251     3.258607     3.250964     3.243321
      3.235678     3.228034     3.220391     3.212748     3.205105     3.197462     3.189818     3.182175     3.174532     3.166889
      3.159245     3.151602     3.143959     3.136316     3.128673     3.121029     3.113386     3.105743     3.098100     3.090456
      3.082813     3.075170     3.067527     3.059884     3.052240     3.044597     3.036954     3.029311     3.021667     3.014024
      3.006381     2.998738     2.991095     2.983451     2.975808     2.968165     2.960522     2.952878     2.945235     2.937592
      2.929949     2.922306     2.914662     2.907019     2.899376     2.891733     2.884089     2.876446     2.868803     2.861160
      2.853517     2.845873     2.838230     2.830587     2.822944     2.815300     2.807657     2.800014     2.792371     2.784728
      2.777084     2.769441     2.761798     2.754155     2.746511     2.738868     2.731225     2.723582     2.715939     2.708295
      2.700652     2.693009     2.685366     2.677722     2.670079     2.662436     2.654793     2.647150     2.639506     2.631863
      2.624220     2.616577     2.608933     2.601290     2.593647     2.586004     2.578361     2.570717     2.563074     2.555431
      2.547788     2.540144     2.532501     2.524858     2.517215     2.509572     2.501928     2.494285     2.486642     2.478999
      2.471355     2.463712     2.456069     2.448426     2.440783     2.433139     2.425496     2.417853     2.410210     2.402566
      2.394923     2.387280     2.379637     2.371994     2.364350     2.356707     2.349064     2.341421     2.333777     2.326134
      2.318491     2.310848     2.303205     2.295561     2.287918     2.280275     2.272632     2.264988     2.257345     2.249702
      2.242059     2.234416     2.226772     2.219129     2.211486     2.203843     2.196199     2.188556     2.180913     2.173270
      2.165627     2.157983     2.150340     2.142697     2.135054     2.127410     2.119767     2.112124     2.104481     2.096838
      2.089194     2.081551     2.073908     2.066265     2.058621     2.050978     2.043335     2.035692     2.028049     2.020405
      2.012762     2.005119     1.997476     1.989833     1.982190     1.974546     1.966903     1.959260     1.951617     1.943974
      1.936331     1.928688     1.921045     1.913402     1.905759     1.898115     1.890472     1.882829     1.875186     1.867543
      1.859900     1.852257     1.844614     1.836971     1.829327     1.821684     1.814041     1.806398     1.798755     1.791112
      1.783469     1.775826     1.768183     1.760540     1.752896     1.745253     1.737610     1.729967     1.722324     1.714681
      1.707038     1.699395     1.691752     1.684108     1.676465     1.668822     1.661179     1.653536     1.645893     1.638250
      1.630607     1.622964     1.615321     1.607677     1.600034     1.592391     1.584748     1.577105     1.569462     1.561819
      1.554176     1.546533     1.538890     1.531246     1.523603     1.515960     1.508317     1.500674     1.493031     1.485388
      1.477745     1.470102     1.462458     1.454815     1.447172     1.439529     1.431886     1.424243     1.416600     1.408957
      1.401314     1.393671     1.386027     1.378384     1.370741     1.363098     1.355455     1.347812     1.340169     1.332526
      1.324883     1.317240     1.309596     1.301953     1.294310     1.286667     1.279024     1.271381     1.263738     1.256095
      1.248452     1.240808     1.233165     1.225522     1.217879     1.210236     1.202593     1.194950     1.187307     1.179664
      1.172021     1.164377     1.156734     1.149091     1.141448     1.133805     1.126162     1.118519     1.110876     1.103233
      1.095590     1.087946     1.080303     1.072660     1.065017     1.057374     1.049731     1.042088     1.034445     1.026802
      1.019158     1.011515     1.003872     0.996229     0.988586     0.980943     0.973300     0.965657     0.958014     0.950371
      0.942727     0.935084     0.927441     0.919798     0.912155     0.904512     0.896869     0.889226     0.881583     0.873940
      0.866296     0.858653     0.851010     0.843367     0.835724     0.828081     0.820438     0.812795     0.805152     0.797508
      0.789865     0.782222     0.774579     0.766936     0.759293     0.751650     0.744007     0.736364     0.728721     0.721077
      0.713434     0.705791     0.698148     0.690505     0.682862     0.675219     0.667576     0.659933     0.652290     0.644646
      0.637003     0.629360     0.621717     0.614074     0.606431     0.598788     0.591145     0.583502     0.575858     0.568215
      0.560572     0.552929     0.545286     0.537643     0.530000     0.522357     0.514714     0.507071     0.499427     0.491784
      0.484141     0.476498     0.468855     0.461212     0.453569     0.445925     0.438282     0.430639     0.422996     0.415353
      0.407710     0.400067     0.392424     0.384780     0.377137     0.369494     0.361851     0.354208     0.346565     0.338922
      0.331278     0.323635     0.315992     0.308349     0.300706     0.293063     0.285420     0.277777     0.270133     0.262490
      0.254847     0.247204     0.239561     0.231918     0.224275     0.216631     0.208988     0.201345
 NY phased data points follow
   7.67619E+00  7.69740E+00  6.66743E+00  9.58652E+00  8.56007E+00  1.06569E+01  9.34442E+00  1.18327E+01  1.48992E+01  1.49662E+01
   1.43969E+01  1.74768E+01  1.53741E+01  1.57873E+01  1.41074E+01  1.40135E+01  1.32521E+01  1.21903E+01  1.13339E+01  8.80103E+00
   6.50121E+00  8.27762E+00  9.33294E+00  9.86821E+00  9.27186E+00  1.00612E+01  1.01330E+01  9.76777E+00  9.84687E+00  9.37311E+00
   1.03563E+01  1.10775E+01  9.60570E+00  9.33229E+00  9.01013E+00  1.11353E+01  1.02035E+01  9.74699E+00  9.87441E+00  8.44303E+00
   7.51266E+00  7.00450E+00  8.88614E+00  7.30771E+00  8.48442E+00  9.93029E+00  1.02304E+01  1.14655E+01  1.22308E+01  9.83735E+00
   1.00051E+01  1.06724E+01  9.00171E+00  1.06423E+01  1.20836E+01  6.97002E+00  7.46945E+00  8.25087E+00  8.31296E+00  9.87617E+00
   9.66487E+00  9.63082E+00  7.78750E+00  7.81809E+00  6.50886E+00  6.65132E+00  5.60039E+00  4.57466E+00  6.92931E+00  6.21764E+00
   7.43890E+00  5.95632E+00  8.82099E+00  6.31235E+00  7.32303E+00  7.66991E+00  8.15461E+00  7.59252E+00  6.74293E+00  7.59445E+00
   7.32511E+00  6.40416E+00  9.07799E+00  8.81943E+00  9.48854E+00  8.92608E+00  7.90686E+00  7.78532E+00  7.20218E+00  9.82245E+00
   1.12088E+01  8.00867E+00  9.03520E+00  9.29930E+00  8.59140E+00  9.84093E+00  9.78481E+00  1.25107E+01  1.25913E+01  1.45466E+01
   1.24149E+01  1.58038E+01  1.60090E+01  1.65479E+01  1.83893E+01  2.01140E+01  1.92841E+01  1.84174E+01  1.66580E+01  1.60094E+01
   1.52302E+01  1.16286E+01  1.52118E+01  1.20072E+01  1.35977E+01  1.36561E+01  1.32862E+01  1.43008E+01  1.13453E+01  1.34834E+01
   1.47757E+01  1.21791E+01  1.51905E+01  1.58198E+01  1.95054E+01  2.00795E+01  2.08396E+01  2.34684E+01  2.55733E+01  2.35462E+01
   2.57010E+01  2.46364E+01  2.27774E+01  2.36269E+01  2.10633E+01  1.96495E+01  1.83871E+01  1.87667E+01  1.56409E+01  1.56618E+01
   1.60903E+01  1.64675E+01  1.47533E+01  1.49815E+01  1.63019E+01  1.54632E+01  1.75596E+01  1.50152E+01  1.73913E+01  1.70732E+01
   1.68187E+01  1.79019E+01  1.68424E+01  1.65722E+01  1.55291E+01  1.72031E+01  1.78511E+01  1.73057E+01  1.66038E+01  1.67399E+01
   1.39088E+01  1.70058E+01  1.71114E+01  1.72427E+01  1.69271E+01  1.79787E+01  1.77575E+01  1.92089E+01  1.97605E+01  1.76640E+01
   1.79182E+01  1.58823E+01  1.80775E+01  1.63832E+01  1.68727E+01  1.79923E+01  1.55765E+01  1.72281E+01  1.45557E+01  1.72602E+01
   1.76056E+01  1.85493E+01  1.77652E+01  1.96581E+01  1.90222E+01  2.08681E+01  1.65301E+01  1.99699E+01  2.08287E+01  2.04536E+01
   2.10860E+01  2.10810E+01  2.05102E+01  2.46402E+01  2.34111E+01  2.27366E+01  2.32978E+01  2.31553E+01  2.47421E+01  2.08332E+01
   2.44739E+01  2.12414E+01  2.17105E+01  2.28693E+01  2.33856E+01  2.32910E+01  2.39428E+01  2.51789E+01  2.48576E+01  2.37878E+01
   2.18589E+01  2.20996E+01  2.34558E+01  2.37135E+01  2.27362E+01  2.39420E+01  2.30080E+01  2.32485E+01  2.18160E+01  2.28075E+01
   2.14476E+01  2.13257E+01  1.95791E+01  2.16139E+01  2.11149E+01  1.97795E+01  2.11713E+01  1.91696E+01  2.03938E+01  2.04952E+01
   2.01082E+01  1.92142E+01  2.04434E+01  1.91802E+01  1.80078E+01  1.94510E+01  1.72039E+01  1.77082E+01  1.70859E+01  1.70545E+01
   1.64719E+01  1.58672E+01  1.57964E+01  1.45542E+01  1.39000E+01  1.29259E+01  1.41945E+01  1.49916E+01  1.64492E+01  1.27107E+01
   1.46407E+01  1.54987E+01  1.51254E+01  1.75276E+01  1.92474E+01  1.80883E+01  2.08695E+01  2.25685E+01  2.26637E+01  2.35324E+01
   2.79743E+01  2.78892E+01  3.03389E+01  2.76613E+01  2.78461E+01  2.66866E+01  2.02742E+01  1.83732E+01  1.53011E+01  1.49694E+01
   1.41053E+01  1.16268E+01  1.15955E+01  1.00521E+01  7.36954E+00  8.78953E+00  6.88624E+00  6.85904E+00  8.69901E+00  5.24247E+00
   3.41207E+00  3.95883E+00  4.37127E+00  2.92104E+00  1.93521E+00  2.39089E+00  4.08772E+00  1.19598E+00  3.61740E+00  2.74076E+00
  -4.37548E-01  4.10840E-01  3.18659E-01  9.89953E-01 -9.01794E-01  1.03876E+00 -1.22477E+00 -1.23146E+00 -2.98495E-01 -3.02864E+00
  -1.50814E+00 -3.04286E-02  2.58757E-01 -2.96323E+00 -9.01821E-01 -1.54803E+00 -1.97606E+00 -2.61006E+00 -3.56369E+00 -3.36187E+00
  -1.56533E+00 -3.75763E+00 -4.84909E+00 -6.68639E-01 -4.29595E+00 -3.32459E+00 -3.18782E+00 -2.81285E+00 -4.42337E+00 -4.32939E+00
  -3.34967E+00 -5.72415E+00 -2.45163E+00 -3.54686E+00 -4.24246E+00 -4.04443E+00 -3.83854E+00 -3.31893E+00 -2.86309E+00 -3.59498E+00
  -2.86249E+00 -4.88951E+00 -4.62233E+00 -5.12227E+00 -6.02331E+00 -3.71209E+00 -4.38638E+00 -4.11599E+00 -6.20401E+00 -4.45782E+00
  -5.53823E+00 -4.03574E+00 -4.51878E+00 -2.94681E+00 -3.77760E+00 -4.56480E+00 -1.51348E+00 -3.60249E+00 -4.41442E+00 -3.63599E+00
  -4.68181E+00 -2.95091E+00 -3.60017E+00 -2.91331E+00 -2.95790E+00 -3.93519E+00 -3.38911E+00 -1.14312E+00 -2.53917E+00 -3.00336E+00
  -7.29871E-01 -2.55062E+00 -2.50799E+00 -3.21038E+00 -2.71648E+00 -5.94517E-01 -3.26886E+00 -2.08177E+00 -2.07129E+00 -1.31622E+00
  -3.89689E+00 -1.96136E+00 -8.44782E-01 -2.47055E+00 -3.84825E+00 -8.47741E-01 -1.77873E+00 -1.62016E+00  1.27578E+00  4.03434E-01
  -6.19715E-01 -6.13918E-01 -3.85171E-01 -5.50900E-01 -4.58713E-02 -7.55877E-01  1.07059E+00  1.09445E+00  8.40318E-01 -1.90220E+00
  -9.91639E-01 -6.18297E-01 -3.59387E+00  4.84689E-01 -5.64036E-01  1.04758E+00  3.27040E+00 -1.64976E-01  3.01740E+00  4.07211E-01
  -1.82425E+00  4.86341E-01 -8.94669E-01 -9.94688E-01  2.61945E-01 -1.18269E+00 -4.79069E-01 -6.01957E-01 -2.57317E+00  3.57425E-01
  -2.96342E+00  1.61865E+00  2.78591E-01  1.26402E+00  1.60208E+00  4.06024E-01 -3.05989E-01  1.40223E+00 -8.78981E-02  1.33626E+00
   1.89491E+00  2.10545E+00 -7.14360E-01  1.66278E-01 -1.53878E+00  3.84064E-01 -7.39404E-01  1.31590E+00 -1.26551E+00  1.88998E+00
   4.12553E-02  1.67788E-01  1.38484E+00 -5.01665E-01  6.41629E-01 -5.06057E-01 -1.60575E-01  8.24839E-02  1.75669E-01 -5.64012E-01
   4.93569E-01  1.11659E+00 -3.20441E-01  7.55064E-01  7.61475E-01  1.08057E+00 -5.09489E-01 -8.04177E-01  1.59725E-01 -1.51140E+00
   3.47367E-01  6.87925E-01  6.59177E-01 -1.78159E+00  2.38385E+00  4.59672E-01  1.68266E+00 -1.03116E+00  4.09786E-01 -1.61441E+00
   1.22954E-01 -1.84269E-01 -1.12719E+00  1.38108E+00  8.60012E-01  1.45681E+00  5.30016E-01  1.25487E+00  1.98522E-01  1.16398E-01
   9.02708E-01 -9.34368E-01  7.64560E-01  3.23131E-01 -3.06895E-01  1.19560E-02 -4.17255E-01 -1.08589E+00  1.57515E+00  2.47354E-01
   9.84661E-01 -1.19369E+00  5.32920E-02  1.96092E+00 -4.49659E-01  1.29956E-01  1.13560E+00  3.31640E-01  6.66571E-01  2.27875E+00
   8.18546E-01 -4.67129E-01 -6.55664E-01  2.51806E+00  1.54258E+00  2.34842E+00  1.44016E+00  7.15884E-01
 NY points of the fit to the data follow
   7.93694E+00  8.12041E+00  8.42866E+00  8.85742E+00  9.40829E+00  1.01009E+01  1.09385E+01  1.18860E+01  1.28936E+01  1.38680E+01
   1.46665E+01  1.51564E+01  1.52577E+01  1.49601E+01  1.43202E+01  1.34536E+01  1.24987E+01  1.15623E+01  1.06940E+01  9.90064E+00
   9.18211E+00  8.59854E+00  8.28966E+00  8.28534E+00  8.42519E+00  8.65901E+00  8.97577E+00  9.36636E+00  9.82156E+00  1.03098E+01
   1.07633E+01  1.10986E+01  1.12532E+01  1.12036E+01  1.09666E+01  1.05953E+01  1.01621E+01  9.73338E+00  9.35602E+00  9.03605E+00
   8.75664E+00  8.52346E+00  8.40245E+00  8.45159E+00  8.59062E+00  8.76871E+00  8.96705E+00  9.15265E+00  9.28166E+00  9.32341E+00
   9.27754E+00  9.15152E+00  8.95984E+00  8.73583E+00  8.51215E+00  8.32047E+00  8.17638E+00  8.06817E+00  7.98339E+00  7.93409E+00
   7.93635E+00  7.97442E+00  8.00929E+00  8.01931E+00  8.00246E+00  7.96812E+00  7.93130E+00  7.90811E+00  7.91001E+00  7.93756E+00
   7.98159E+00  8.03269E+00  8.09064E+00  8.15279E+00  8.21229E+00  8.26669E+00  8.31128E+00  8.34521E+00  8.37046E+00  8.39044E+00
   8.41084E+00  8.43504E+00  8.46457E+00  8.49860E+00  8.53859E+00  8.58592E+00  8.62917E+00  8.65722E+00  8.66631E+00  8.66172E+00
   8.65627E+00  8.67630E+00  8.78237E+00  9.01992E+00  9.40407E+00  9.93012E+00  1.05713E+01  1.13113E+01  1.21655E+01  1.31539E+01
   1.42616E+01  1.54475E+01  1.66384E+01  1.77051E+01  1.84908E+01  1.88672E+01  1.87814E+01  1.82651E+01  1.74257E+01  1.64274E+01
   1.54251E+01  1.45084E+01  1.36858E+01  1.29251E+01  1.22384E+01  1.17429E+01  1.16458E+01  1.18968E+01  1.23605E+01  1.30160E+01
   1.38440E+01  1.48257E+01  1.59691E+01  1.72871E+01  1.87669E+01  2.03696E+01  2.20047E+01  2.35057E+01  2.46694E+01  2.53224E+01
   2.53785E+01  2.48568E+01  2.38660E+01  2.25880E+01  2.12228E+01  1.99133E+01  1.87093E+01  1.75975E+01  1.65948E+01  1.58216E+01
   1.54906E+01  1.55510E+01  1.57276E+01  1.59183E+01  1.60895E+01  1.62393E+01  1.63812E+01  1.65134E+01  1.66177E+01  1.66919E+01
   1.67381E+01  1.67600E+01  1.67761E+01  1.68006E+01  1.68468E+01  1.69160E+01  1.69966E+01  1.70832E+01  1.71710E+01  1.72566E+01
   1.73388E+01  1.74217E+01  1.75140E+01  1.76213E+01  1.77443E+01  1.78750E+01  1.79988E+01  1.81031E+01  1.81807E+01  1.82342E+01
   1.82702E+01  1.82966E+01  1.83191E+01  1.83363E+01  1.83393E+01  1.83301E+01  1.83242E+01  1.83364E+01  1.83816E+01  1.84576E+01
   1.85563E+01  1.86786E+01  1.88231E+01  1.89877E+01  1.91742E+01  1.93886E+01  1.96378E+01  1.99220E+01  2.02320E+01  2.05499E+01
   2.08609E+01  2.11604E+01  2.14235E+01  2.16200E+01  2.17312E+01  2.17676E+01  2.17656E+01  2.17559E+01  2.17549E+01  2.17676E+01
   2.17885E+01  2.18204E+01  2.18749E+01  2.19451E+01  2.20152E+01  2.20663E+01  2.20792E+01  2.20485E+01  2.19745E+01  2.18580E+01
   2.17046E+01  2.15276E+01  2.13535E+01  2.11954E+01  2.10552E+01  2.09297E+01  2.08134E+01  2.06991E+01  2.05629E+01  2.03876E+01
   2.01704E+01  1.99289E+01  1.96950E+01  1.94968E+01  1.93540E+01  1.92629E+01  1.92030E+01  1.91627E+01  1.91378E+01  1.91164E+01
   1.90678E+01  1.89826E+01  1.88727E+01  1.87491E+01  1.86100E+01  1.84432E+01  1.82435E+01  1.80110E+01  1.77356E+01  1.74082E+01
   1.70435E+01  1.66714E+01  1.63243E+01  1.60252E+01  1.57798E+01  1.55883E+01  1.54432E+01  1.53213E+01  1.52119E+01  1.51635E+01
   1.52813E+01  1.56085E+01  1.61604E+01  1.69362E+01  1.79127E+01  1.90862E+01  2.04680E+01  2.20522E+01  2.38064E+01  2.56290E+01
   2.72979E+01  2.85107E+01  2.89802E+01  2.85319E+01  2.71618E+01  2.50258E+01  2.24163E+01  1.96770E+01  1.70732E+01  1.47080E+01
   1.25372E+01  1.05092E+01  8.72231E+00  7.45688E+00  6.82713E+00  6.43459E+00  6.09773E+00  5.78298E+00  5.47686E+00  5.17378E+00
   4.87419E+00  4.57791E+00  4.28524E+00  3.99637E+00  3.71095E+00  3.42892E+00  3.15179E+00  2.88073E+00  2.61531E+00  2.35491E+00
   2.09941E+00  1.84881E+00  1.60293E+00  1.36132E+00  1.12379E+00  8.90783E-01  6.62430E-01  4.38752E-01  2.19786E-01  5.61343E-03
  -2.03686E-01 -4.08100E-01 -6.07574E-01 -8.02015E-01 -9.91388E-01 -1.17564E+00 -1.35462E+00 -1.52823E+00 -1.69638E+00 -1.85900E+00
  -2.01599E+00 -2.16720E+00 -2.31253E+00 -2.45189E+00 -2.58522E+00 -2.71239E+00 -2.83327E+00 -2.94774E+00 -3.05585E+00 -3.15772E+00
  -3.25347E+00 -3.34319E+00 -3.42697E+00 -3.50489E+00 -3.57704E+00 -3.64352E+00 -3.70442E+00 -3.75981E+00 -3.80977E+00 -3.85434E+00
  -3.89359E+00 -3.92760E+00 -3.95640E+00 -3.98002E+00 -3.99846E+00 -4.01172E+00 -4.01977E+00 -4.02256E+00 -4.01996E+00 -4.01178E+00
  -3.99773E+00 -3.97742E+00 -3.95030E+00 -3.91569E+00 -3.87279E+00 -3.82070E+00 -3.75863E+00 -3.68606E+00 -3.60295E+00 -3.50999E+00
  -3.40877E+00 -3.30189E+00 -3.19281E+00 -3.08556E+00 -2.98428E+00 -2.89258E+00 -2.81307E+00 -2.74695E+00 -2.69389E+00 -2.65216E+00
  -2.61901E+00 -2.59123E+00 -2.56568E+00 -2.53971E+00 -2.51144E+00 -2.47986E+00 -2.44465E+00 -2.40605E+00 -2.36458E+00 -2.32080E+00
  -2.27513E+00 -2.22778E+00 -2.17869E+00 -2.12754E+00 -2.07382E+00 -2.01688E+00 -1.95602E+00 -1.89046E+00 -1.81949E+00 -1.74245E+00
  -1.65881E+00 -1.56816E+00 -1.47029E+00 -1.36517E+00 -1.25299E+00 -1.13421E+00 -1.00952E+00 -8.79914E-01 -7.46638E-01 -6.11181E-01
  -4.75264E-01 -3.40804E-01 -2.09851E-01 -8.45178E-02  3.31038E-02  1.41023E-01  2.37430E-01  3.20777E-01  3.89853E-01  4.43853E-01
   4.82415E-01  5.05628E-01  5.14023E-01  5.08542E-01  4.90489E-01  4.61469E-01  4.23301E-01  3.77925E-01  3.27336E-01  2.73514E-01
   2.18325E-01  1.63462E-01  1.10390E-01  6.03208E-02  1.41969E-02 -2.72980E-02 -6.37178E-02 -9.48320E-02 -1.20601E-01 -1.41146E-01
  -1.56712E-01 -1.67628E-01 -1.74275E-01 -1.77066E-01 -1.76429E-01 -1.72787E-01 -1.66551E-01 -1.58096E-01 -1.47762E-01 -1.35857E-01
  -1.22657E-01 -1.08409E-01 -9.33253E-02 -7.75832E-02 -6.13324E-02 -4.47016E-02 -2.78045E-02 -1.07386E-02  6.41868E-03  2.36073E-02
   4.07783E-02  5.78879E-02  7.48962E-02  9.17714E-02  1.08492E-01  1.25046E-01  1.41423E-01  1.57609E-01  1.73594E-01  1.89373E-01
   2.04948E-01  2.20323E-01  2.35502E-01  2.50485E-01  2.65272E-01  2.79870E-01  2.94291E-01  3.08545E-01  3.22639E-01  3.36577E-01
   3.50368E-01  3.64024E-01  3.77560E-01  3.90989E-01  4.04320E-01  4.17560E-01  4.30723E-01  4.43824E-01  4.56882E-01  4.69907E-01
   4.82911E-01  4.95904E-01  5.08903E-01  5.21926E-01  5.34990E-01  5.48107E-01  5.61288E-01  5.74547E-01  5.87903E-01  6.01376E-01
   6.14980E-01  6.28728E-01  6.42632E-01  6.56711E-01  6.70986E-01  6.85474E-01  7.00192E-01  7.15151E-01  7.30370E-01  7.45869E-01
   7.61671E-01  7.77794E-01  7.94255E-01  8.11071E-01  8.28265E-01  8.45861E-01  8.63887E-01  8.82366E-01
 NY background values follow
     6.398E+00    6.398E+00    6.399E+00    6.399E+00    6.399E+00    6.398E+00    6.397E+00    6.397E+00    6.396E+00    6.394E+00
     6.393E+00    6.392E+00    6.390E+00    6.389E+00    6.387E+00    6.386E+00    6.384E+00    6.383E+00    6.382E+00    6.381E+00
     6.380E+00    6.379E+00    6.378E+00    6.377E+00    6.377E+00    6.377E+00    6.377E+00    6.378E+00    6.379E+00    6.380E+00
     6.382E+00    6.384E+00    6.386E+00    6.389E+00    6.393E+00    6.397E+00    6.401E+00    6.406E+00    6.412E+00    6.418E+00
     6.425E+00    6.432E+00    6.441E+00    6.449E+00    6.459E+00    6.469E+00    6.481E+00    6.493E+00    6.505E+00    6.519E+00
     6.534E+00    6.549E+00    6.566E+00    6.583E+00    6.602E+00    6.622E+00    6.642E+00    6.664E+00    6.687E+00    6.712E+00
     6.737E+00    6.764E+00    6.792E+00    6.822E+00    6.852E+00    6.885E+00    6.918E+00    6.954E+00    6.990E+00    7.029E+00
     7.068E+00    7.110E+00    7.153E+00    7.198E+00    7.244E+00    7.292E+00    7.342E+00    7.394E+00    7.448E+00    7.503E+00
     7.561E+00    7.620E+00    7.681E+00    7.745E+00    7.810E+00    7.877E+00    7.947E+00    8.019E+00    8.093E+00    8.169E+00
     8.247E+00    8.328E+00    8.410E+00    8.496E+00    8.583E+00    8.672E+00    8.764E+00    8.858E+00    8.954E+00    9.052E+00
     9.152E+00    9.254E+00    9.357E+00    9.463E+00    9.571E+00    9.681E+00    9.792E+00    9.905E+00    1.002E+01    1.014E+01
     1.026E+01    1.038E+01    1.050E+01    1.062E+01    1.075E+01    1.087E+01    1.100E+01    1.113E+01    1.126E+01    1.140E+01
     1.153E+01    1.167E+01    1.180E+01    1.194E+01    1.208E+01    1.222E+01    1.236E+01    1.251E+01    1.265E+01    1.280E+01
     1.294E+01    1.309E+01    1.324E+01    1.339E+01    1.354E+01    1.369E+01    1.385E+01    1.400E+01    1.416E+01    1.431E+01
     1.447E+01    1.462E+01    1.478E+01    1.494E+01    1.510E+01    1.525E+01    1.541E+01    1.557E+01    1.572E+01    1.588E+01
     1.604E+01    1.619E+01    1.635E+01    1.650E+01    1.665E+01    1.681E+01    1.696E+01    1.711E+01    1.726E+01    1.741E+01
     1.755E+01    1.770E+01    1.784E+01    1.798E+01    1.812E+01    1.826E+01    1.839E+01    1.853E+01    1.866E+01    1.878E+01
     1.891E+01    1.903E+01    1.915E+01    1.927E+01    1.939E+01    1.950E+01    1.961E+01    1.971E+01    1.982E+01    1.992E+01
     2.001E+01    2.010E+01    2.019E+01    2.028E+01    2.036E+01    2.043E+01    2.051E+01    2.058E+01    2.064E+01    2.070E+01
     2.076E+01    2.081E+01    2.085E+01    2.090E+01    2.093E+01    2.097E+01    2.099E+01    2.102E+01    2.103E+01    2.105E+01
     2.105E+01    2.106E+01    2.105E+01    2.104E+01    2.103E+01    2.101E+01    2.098E+01    2.095E+01    2.091E+01    2.087E+01
     2.082E+01    2.076E+01    2.070E+01    2.063E+01    2.056E+01    2.047E+01    2.039E+01    2.029E+01    2.019E+01    2.008E+01
     1.996E+01    1.984E+01    1.971E+01    1.957E+01    1.943E+01    1.928E+01    1.912E+01    1.895E+01    1.877E+01    1.859E+01
     1.840E+01    1.821E+01    1.801E+01    1.780E+01    1.759E+01    1.737E+01    1.714E+01    1.691E+01    1.667E+01    1.643E+01
     1.618E+01    1.593E+01    1.568E+01    1.542E+01    1.515E+01    1.488E+01    1.461E+01    1.434E+01    1.406E+01    1.378E+01
     1.349E+01    1.321E+01    1.292E+01    1.262E+01    1.233E+01    1.203E+01    1.174E+01    1.144E+01    1.114E+01    1.084E+01
     1.054E+01    1.023E+01    9.932E+00    9.630E+00    9.327E+00    9.024E+00    8.722E+00    8.421E+00    8.120E+00    7.820E+00
     7.522E+00    7.225E+00    6.930E+00    6.636E+00    6.345E+00    6.055E+00    5.767E+00    5.482E+00    5.199E+00    4.918E+00
     4.639E+00    4.364E+00    4.090E+00    3.820E+00    3.553E+00    3.288E+00    3.027E+00    2.768E+00    2.513E+00    2.262E+00
     2.013E+00    1.769E+00    1.528E+00    1.291E+00    1.057E+00    8.281E-01    6.028E-01    3.818E-01    1.650E-01   -4.739E-02
    -2.553E-01   -4.586E-01   -6.573E-01   -8.512E-01   -1.040E+00   -1.224E+00   -1.403E+00   -1.577E+00   -1.745E+00   -1.908E+00
    -2.066E+00   -2.218E+00   -2.364E+00   -2.505E+00   -2.640E+00   -2.768E+00   -2.891E+00   -3.007E+00   -3.118E+00   -3.222E+00
    -3.320E+00   -3.413E+00   -3.500E+00   -3.581E+00   -3.657E+00   -3.728E+00   -3.793E+00   -3.853E+00   -3.908E+00   -3.959E+00
    -4.004E+00   -4.045E+00   -4.081E+00   -4.113E+00   -4.141E+00   -4.164E+00   -4.183E+00   -4.198E+00   -4.210E+00   -4.217E+00
    -4.221E+00   -4.221E+00   -4.218E+00   -4.212E+00   -4.202E+00   -4.189E+00   -4.174E+00   -4.155E+00   -4.134E+00   -4.110E+00
    -4.083E+00   -4.054E+00   -4.023E+00   -3.989E+00   -3.954E+00   -3.916E+00   -3.877E+00   -3.835E+00   -3.792E+00   -3.748E+00
    -3.702E+00   -3.655E+00   -3.607E+00   -3.557E+00   -3.507E+00   -3.455E+00   -3.403E+00   -3.349E+00   -3.295E+00   -3.240E+00
    -3.184E+00   -3.127E+00   -3.070E+00   -3.012E+00   -2.954E+00   -2.894E+00   -2.835E+00   -2.775E+00   -2.715E+00   -2.654E+00
    -2.593E+00   -2.532E+00   -2.471E+00   -2.409E+00   -2.348E+00   -2.286E+00   -2.225E+00   -2.164E+00   -2.102E+00   -2.041E+00
    -1.980E+00   -1.920E+00   -1.859E+00   -1.799E+00   -1.740E+00   -1.681E+00   -1.622E+00   -1.564E+00   -1.507E+00   -1.450E+00
    -1.395E+00   -1.339E+00   -1.285E+00   -1.232E+00   -1.179E+00   -1.127E+00   -1.077E+00   -1.027E+00   -9.789E-01   -9.316E-01
    -8.853E-01   -8.400E-01   -7.958E-01   -7.526E-01   -7.103E-01   -6.691E-01   -6.288E-01   -5.894E-01   -5.510E-01   -5.134E-01
    -4.768E-01   -4.410E-01   -4.061E-01   -3.720E-01   -3.387E-01   -3.063E-01   -2.746E-01   -2.437E-01   -2.135E-01   -1.841E-01
    -1.554E-01   -1.275E-01   -1.002E-01   -7.353E-02   -4.756E-02   -2.222E-02    2.495E-03    2.661E-02    5.014E-02    7.309E-02
     9.550E-02    1.174E-01    1.387E-01    1.596E-01    1.799E-01    1.998E-01    2.192E-01    2.382E-01    2.568E-01    2.750E-01
     2.928E-01    3.102E-01    3.273E-01    3.440E-01    3.604E-01    3.765E-01    3.923E-01    4.079E-01    4.232E-01    4.382E-01
     4.530E-01    4.676E-01    4.821E-01    4.963E-01    5.104E-01    5.243E-01    5.381E-01    5.518E-01    5.654E-01    5.789E-01
     5.923E-01    6.057E-01    6.191E-01    6.324E-01    6.458E-01    6.591E-01    6.725E-01    6.859E-01    6.994E-01    7.129E-01
     7.266E-01    7.403E-01    7.542E-01    7.682E-01    7.824E-01    7.967E-01    8.112E-01    8.260E-01    8.409E-01    8.561E-01
     8.715E-01    8.872E-01    9.031E-01    9.194E-01    9.360E-01    9.529E-01    9.701E-01    9.877E-01
 Asp      Conc. = 8.05E+01
