 LCModel (Version 6.3-1L) Copyright: S.W. Provencher.          Ref.: Magn. Reson. Med. 30:672-679 (1993).                
 Slice#1 Row#10 Col#9  PD_05_press_1_raw_act
 36 lines in following concentration table = NCONC+1
    Conc.  %SD /Cr+PCr  Metabolite                                         
   99.757  59%   0.135 Ala                                                 
  117.316 112%   0.159 Asp                                                 
  396.960  24%   0.538 Cr                                                  
  340.860  30%   0.462 PCr                                                 
   56.393 150% 7.6E-02 GABA                                                
   62.322 141% 8.4E-02 Glc                                                 
  613.715  20%   0.832 Gln                                                 
  917.378  16%   1.243 Glu                                                 
  281.682   5%   0.382 GPC                                                 
    0.000 999%   0.000 PCh                                                 
  179.589  24%   0.243 GSH                                                 
  713.316  19%   0.967 Ins                                                 
    0.000 999%   0.000 Lac                                                 
 1.51E+03   4%   2.046 NAA                                                 
  125.758  41%   0.170 NAAG                                                
   59.691  27% 8.1E-02 Scyllo                                              
  120.420  94%   0.163 Tau                                                 
   69.864  93% 9.5E-02 -CrCH2                                              
  281.682   5%   0.382 GPC+PCh                                             
 1.64E+03   3%   2.217 NAA+NAAG                                            
  737.820   5%   1.000 Cr+PCr                                              
 1.53E+03  12%   2.075 Glu+Gln                                             
  291.488 110%   0.395 Lip13a                                              
    0.000 999%   0.000 Lip13b                                              
   38.003 324% 5.2E-02 Lip09                                               
 1.17E+03  15%   1.589 MM09                                                
   35.968 215% 4.9E-02 Lip20                                               
 2.52E+03  10%   3.422 MM20                                                
  399.428  37%   0.541 MM12                                                
 1.14E+03  24%   1.548 MM14                                                
  451.809  33%   0.612 MM17                                                
  291.488 110%   0.395 Lip13a+Lip13b                                       
 1.83E+03  11%   2.484 MM14+Lip13a+Lip13b+MM12                             
 1.21E+03  11%   1.640 MM09+Lip09                                          
 2.56E+03   9%   3.471 MM20+Lip20                                          
   6 lines in following misc. output table
  FWHM = 0.038 ppm    S/N =  15                                            
  Data shift = 0.008 ppm                                                   
  Ph: -33 deg      -6.0 deg/ppm                                            
  alphaB,S = 8.5E+01,   8.2E+01                                            
   14 spline knots.   Ns = 5(1)                                            
   4 inflections.     1 extrema                                            
  498 points on ppm-axis = NY
      4.000000     3.992357     3.984714     3.977070     3.969427     3.961784     3.954141     3.946497     3.938854     3.931211
      3.923568     3.915925     3.908281     3.900638     3.892995     3.885352     3.877708     3.870065     3.862422     3.854779
      3.847136     3.839492     3.831849     3.824206     3.816563     3.808919     3.801276     3.793633     3.785990     3.778347
      3.770703     3.763060     3.755417     3.747774     3.740130     3.732487     3.724844     3.717201     3.709558     3.701914
      3.694271     3.686628     3.678985     3.671341     3.663698     3.656055     3.648412     3.640769     3.633125     3.625482
      3.617839     3.610196     3.602552     3.594909     3.587266     3.579623     3.571980     3.564336     3.556693     3.549050
      3.541407     3.533763     3.526120     3.518477     3.510834     3.503191     3.495547     3.487904     3.480261     3.472618
      3.464974     3.457331     3.449688     3.442045     3.434402     3.426758     3.419115     3.411472     3.403829     3.396185
      3.388542     3.380899     3.373256     3.365613     3.357969     3.350326     3.342683     3.335040     3.327396     3.319753
      3.312110     3.304467     3.296824     3.289180     3.281537     3.273894     3.266251     3.258607     3.250964     3.243321
      3.235678     3.228034     3.220391     3.212748     3.205105     3.197462     3.189818     3.182175     3.174532     3.166889
      3.159245     3.151602     3.143959     3.136316     3.128673     3.121029     3.113386     3.105743     3.098100     3.090456
      3.082813     3.075170     3.067527     3.059884     3.052240     3.044597     3.036954     3.029311     3.021667     3.014024
      3.006381     2.998738     2.991095     2.983451     2.975808     2.968165     2.960522     2.952878     2.945235     2.937592
      2.929949     2.922306     2.914662     2.907019     2.899376     2.891733     2.884089     2.876446     2.868803     2.861160
      2.853517     2.845873     2.838230     2.830587     2.822944     2.815300     2.807657     2.800014     2.792371     2.784728
      2.777084     2.769441     2.761798     2.754155     2.746511     2.738868     2.731225     2.723582     2.715939     2.708295
      2.700652     2.693009     2.685366     2.677722     2.670079     2.662436     2.654793     2.647150     2.639506     2.631863
      2.624220     2.616577     2.608933     2.601290     2.593647     2.586004     2.578361     2.570717     2.563074     2.555431
      2.547788     2.540144     2.532501     2.524858     2.517215     2.509572     2.501928     2.494285     2.486642     2.478999
      2.471355     2.463712     2.456069     2.448426     2.440783     2.433139     2.425496     2.417853     2.410210     2.402566
      2.394923     2.387280     2.379637     2.371994     2.364350     2.356707     2.349064     2.341421     2.333777     2.326134
      2.318491     2.310848     2.303205     2.295561     2.287918     2.280275     2.272632     2.264988     2.257345     2.249702
      2.242059     2.234416     2.226772     2.219129     2.211486     2.203843     2.196199     2.188556     2.180913     2.173270
      2.165627     2.157983     2.150340     2.142697     2.135054     2.127410     2.119767     2.112124     2.104481     2.096838
      2.089194     2.081551     2.073908     2.066265     2.058621     2.050978     2.043335     2.035692     2.028049     2.020405
      2.012762     2.005119     1.997476     1.989833     1.982190     1.974546     1.966903     1.959260     1.951617     1.943974
      1.936331     1.928688     1.921045     1.913402     1.905759     1.898115     1.890472     1.882829     1.875186     1.867543
      1.859900     1.852257     1.844614     1.836971     1.829327     1.821684     1.814041     1.806398     1.798755     1.791112
      1.783469     1.775826     1.768183     1.760540     1.752896     1.745253     1.737610     1.729967     1.722324     1.714681
      1.707038     1.699395     1.691752     1.684108     1.676465     1.668822     1.661179     1.653536     1.645893     1.638250
      1.630607     1.622964     1.615321     1.607677     1.600034     1.592391     1.584748     1.577105     1.569462     1.561819
      1.554176     1.546533     1.538890     1.531246     1.523603     1.515960     1.508317     1.500674     1.493031     1.485388
      1.477745     1.470102     1.462458     1.454815     1.447172     1.439529     1.431886     1.424243     1.416600     1.408957
      1.401314     1.393671     1.386027     1.378384     1.370741     1.363098     1.355455     1.347812     1.340169     1.332526
      1.324883     1.317240     1.309596     1.301953     1.294310     1.286667     1.279024     1.271381     1.263738     1.256095
      1.248452     1.240808     1.233165     1.225522     1.217879     1.210236     1.202593     1.194950     1.187307     1.179664
      1.172021     1.164377     1.156734     1.149091     1.141448     1.133805     1.126162     1.118519     1.110876     1.103233
      1.095590     1.087946     1.080303     1.072660     1.065017     1.057374     1.049731     1.042088     1.034445     1.026802
      1.019158     1.011515     1.003872     0.996229     0.988586     0.980943     0.973300     0.965657     0.958014     0.950371
      0.942727     0.935084     0.927441     0.919798     0.912155     0.904512     0.896869     0.889226     0.881583     0.873940
      0.866296     0.858653     0.851010     0.843367     0.835724     0.828081     0.820438     0.812795     0.805152     0.797508
      0.789865     0.782222     0.774579     0.766936     0.759293     0.751650     0.744007     0.736364     0.728721     0.721077
      0.713434     0.705791     0.698148     0.690505     0.682862     0.675219     0.667576     0.659933     0.652290     0.644646
      0.637003     0.629360     0.621717     0.614074     0.606431     0.598788     0.591145     0.583502     0.575858     0.568215
      0.560572     0.552929     0.545286     0.537643     0.530000     0.522357     0.514714     0.507071     0.499427     0.491784
      0.484141     0.476498     0.468855     0.461212     0.453569     0.445925     0.438282     0.430639     0.422996     0.415353
      0.407710     0.400067     0.392424     0.384780     0.377137     0.369494     0.361851     0.354208     0.346565     0.338922
      0.331278     0.323635     0.315992     0.308349     0.300706     0.293063     0.285420     0.277777     0.270133     0.262490
      0.254847     0.247204     0.239561     0.231918     0.224275     0.216631     0.208988     0.201345
 NY phased data points follow
  -2.72031E+00 -3.05281E+00 -1.48221E+00 -3.75076E+00 -6.14207E+00 -4.62696E+00 -1.00592E+00  3.67137E+00  7.45534E+00  9.89398E+00
   6.39051E+00  1.36549E+01  1.32636E+01  1.14049E+01  9.96444E+00  5.81403E-01  6.66704E-01  2.45020E+00  8.75502E-01 -4.30894E+00
  -2.65330E+00 -4.08531E+00 -5.21663E+00 -1.57671E+00 -2.31197E+00 -2.45119E+00 -5.23274E+00  3.14440E-01 -1.82750E+00 -4.33444E-01
   1.84980E+00  2.10586E-01  3.25952E+00  1.02711E+00  2.35514E+00 -6.74243E-01 -3.91953E-01 -6.48045E-03  2.30698E+00 -1.48151E+00
  -1.71611E+00 -3.23629E+00  1.52755E+00  1.12487E+00 -2.67589E-01  2.48273E+00  4.58479E+00  2.67423E+00  5.62356E+00  2.07105E+00
   3.72273E+00  2.43930E+00 -5.72408E-01  8.55776E-01  3.34811E+00 -1.41870E+00 -1.16538E+00  1.39451E+00  1.33941E+00 -5.11305E-03
  -1.56569E+00 -3.38369E+00  5.34621E-01 -2.61707E+00 -6.40205E-02 -5.68449E+00 -3.59448E+00 -5.28592E+00 -6.25219E+00 -6.62349E+00
  -8.02252E+00 -3.10813E+00  1.32638E+00 -4.50024E+00 -2.90893E+00  5.69285E-01 -4.35544E-01 -4.59979E+00 -4.20607E+00 -3.76233E+00
  -3.42236E-01 -5.21542E+00 -1.47804E+00 -1.30921E+00 -2.47597E-01 -1.78050E+00  4.59995E-01 -2.22334E+00 -3.28730E+00 -1.87929E+00
   1.43293E+00  6.71229E-01  1.69126E+00  4.12755E+00 -5.86756E-01  4.15202E+00 -2.03684E+00 -3.10864E+00 -3.72532E+00 -2.24514E-01
   6.14896E+00  1.52828E+01  2.49439E+01  2.88044E+01  2.65334E+01  1.98937E+01  1.98419E+01  1.26152E+01  8.23191E+00  7.56971E+00
   2.96350E+00  1.80448E+00 -3.34081E+00 -3.79832E+00 -9.42441E-01 -4.70645E+00  1.99985E+00  1.28983E+00  1.18230E+00  1.64988E+00
  -1.82882E+00 -4.08409E+00 -1.86027E+00 -2.83482E+00  1.36091E+00  1.41144E+01  2.12712E+01  2.87676E+01  3.13171E+01  2.51189E+01
   1.82481E+01  1.34185E+01  1.26553E+01  6.36974E+00  2.57651E+00  2.98792E+00 -2.30573E+00 -2.35288E+00 -5.56208E-01 -1.97273E+00
  -1.60547E+00 -3.49393E+00 -2.82689E+00  8.69611E-02 -2.57618E+00 -4.75638E+00 -1.29231E+00 -5.30286E-01  1.37263E-04 -1.46282E+00
  -3.78004E+00  1.07010E+00 -2.10009E+00 -3.93436E+00 -2.19733E+00 -2.32859E+00 -2.61476E+00 -5.63623E+00 -4.27050E+00 -5.71413E+00
  -2.88109E+00 -4.25976E+00 -4.46396E+00 -3.95927E+00 -3.69697E+00 -1.54603E+00 -5.78712E+00 -3.26115E+00 -6.40469E+00 -7.18102E+00
  -7.16220E+00 -3.72193E+00 -4.62205E+00 -6.80001E+00 -9.98051E+00 -9.12417E+00 -1.13524E+01 -1.28270E+01 -8.67124E+00 -9.38584E+00
  -8.98276E+00 -8.79229E+00 -8.91724E+00 -7.52008E+00 -8.43854E+00 -6.21720E+00 -3.90035E+00 -6.36855E+00 -3.77967E+00 -5.37055E+00
  -5.00809E+00 -1.94667E+00  9.12818E-03 -4.76212E+00 -1.94409E+00 -4.67618E+00 -5.99271E+00 -5.26676E+00 -6.10483E+00 -6.67470E+00
  -2.05159E+00 -3.41848E+00  1.30266E+00 -3.11138E+00  1.81328E+00  6.53388E+00  1.46539E+00 -1.75070E+00 -5.24565E+00 -1.52281E+00
  -7.52553E+00 -9.87892E-01 -7.90966E+00 -8.78985E-01  3.18797E+00  2.71604E+00  7.13608E+00  8.44231E+00  7.70966E+00  3.35011E+00
  -1.50098E+00  3.64919E-01 -5.12316E+00 -5.00266E+00 -4.46514E+00  2.43098E-01  5.01868E+00  3.81491E+00  3.41353E+00  4.06161E+00
   5.58763E+00  3.92812E+00  5.97680E+00  1.00429E+00  3.65082E+00  4.51477E+00  4.11799E+00  7.59369E+00  7.20293E+00  7.84033E+00
   6.69988E+00  6.96446E+00 -7.77853E-01 -5.28132E-01 -1.40060E+00  2.10122E+00  3.18665E+00  7.85305E+00  6.20219E+00  7.37296E+00
   1.16863E+01  1.02903E+01  1.20491E+01  1.03055E+01  1.52568E+01  1.22684E+01  1.60764E+01  1.86569E+01  3.32811E+01  5.31630E+01
   6.95962E+01  7.98443E+01  6.58279E+01  4.42259E+01  2.96875E+01  2.71847E+01  2.48677E+01  2.13990E+01  1.31273E+01  5.46540E+00
   4.77401E+00  9.12994E-02  1.66246E+00  1.62625E+00  5.78303E+00  2.76368E+00  2.24046E+00  1.25641E+00  4.63737E+00  4.75538E-01
   5.13893E+00  4.08871E+00 -8.05813E-01  2.91432E+00  4.33225E+00  1.80128E+00  9.99479E-01  7.70339E-01  2.69645E+00 -5.76173E-01
   6.73444E-02  3.08844E+00  9.01433E-02  3.89466E-01  2.99259E+00  2.13146E+00  2.16123E+00  3.37652E+00  3.56719E+00 -1.82549E+00
   2.04971E+00  8.45996E-01  1.67093E+00  5.04447E-01  1.18631E+00 -6.82200E-01  5.31834E+00  1.29872E+00 -3.07597E-01  7.50541E-01
   5.52548E+00  3.88192E+00  5.21736E+00  2.66489E+00  5.23965E+00  6.35804E+00  5.66009E+00  3.95673E+00  4.37050E+00  4.45711E+00
   3.34294E+00  3.17807E+00  1.07371E+00  1.25456E+00  3.08416E+00  4.12684E+00  7.79715E+00  4.51579E+00  2.41310E+00  4.66690E+00
   2.41741E+00  4.68770E+00  5.37368E+00  7.18512E-02  5.89087E+00  1.44239E+00  5.94190E+00  6.51069E+00  5.68941E+00  6.54617E+00
   7.26537E+00  9.14199E+00  3.81552E+00  8.31758E+00  7.68428E+00  8.30260E+00  7.17232E+00  4.00820E+00  4.52767E+00  5.78831E+00
   4.17586E+00  8.25631E+00  6.87058E+00  7.23933E+00  5.24371E+00  5.93957E+00  6.94633E+00  3.33560E+00  2.11172E+00  3.87399E+00
   3.06907E+00  1.94006E+00  4.36772E-01  5.82056E+00  7.63666E+00  4.09804E+00  1.05587E+00  3.11902E+00  4.47219E+00  4.29257E+00
   4.03086E+00  4.27240E+00  6.08845E+00  2.41538E+00  9.31097E-01  5.88739E+00  5.57418E+00  3.86517E+00  2.29281E+00  4.21036E+00
   2.02323E+00  4.13755E+00  4.56972E+00  6.19225E+00  3.60950E+00  7.54293E-01  3.16508E+00  1.80750E+00  3.81725E+00  4.14749E+00
   2.29210E+00  6.51736E+00  5.35425E+00  3.72577E+00  5.02689E+00  4.25770E+00  5.30424E+00  3.97105E+00  9.12628E+00  5.25179E+00
   6.01540E+00  8.51841E+00  8.17171E+00  8.40925E+00  5.89847E+00  1.00847E+01  8.67985E+00  7.67821E+00  9.81024E+00  1.03821E+01
   8.02700E+00  6.49112E+00  9.12396E+00  9.60763E+00  7.61137E+00  8.31556E+00  6.15949E+00  8.39409E+00  3.38391E+00  6.32971E+00
   3.65866E+00  6.44544E+00  8.85760E-01  6.65877E+00  5.26015E+00  1.09259E+00  7.07908E+00  5.09741E+00  3.08500E+00  7.34550E-01
   6.04225E+00  3.17177E+00  4.46761E+00  7.52298E-01  2.52937E+00  4.49342E+00  2.01694E+00  6.29077E-01 -2.24662E+00  3.50544E+00
   3.22519E+00  6.84357E-01  1.55886E+00  1.67222E+00  1.37280E+00  1.51090E+00  2.67173E-01  1.45857E+00  2.24237E+00  3.20172E+00
   1.94456E+00  2.34770E+00  9.75698E-01  3.49393E+00 -1.52161E+00  6.75166E-01  3.57602E+00 -1.96548E+00  4.84257E+00  2.44444E+00
   2.94994E+00  1.52064E+00  1.83135E+00  1.21960E+00 -1.23006E+00  1.37753E+00  2.97140E+00  1.88074E+00  1.89378E+00 -1.27722E+00
  -3.82329E-01  4.38415E+00  1.07725E+00  3.08917E-01  1.41260E+00  2.05934E+00  2.74377E+00  4.75936E+00  2.90520E+00 -4.65011E+00
   3.07587E+00  2.33969E+00  3.29203E+00 -2.29850E-01  1.25131E+00  1.70329E+00  1.65616E+00  9.43872E-01  1.25052E+00  3.41929E+00
  -8.51499E-01  3.14449E+00  8.71995E-01  8.31479E-01  1.74568E+00  2.96432E+00 -1.78084E+00 -1.44003E-02
 NY points of the fit to the data follow
  -3.49791E+00 -3.68041E+00 -3.77521E+00 -3.63877E+00 -3.23807E+00 -2.40328E+00 -7.79106E-01  1.73386E+00  5.01680E+00  8.64680E+00
   1.16807E+01  1.32073E+01  1.28655E+01  1.08713E+01  7.92406E+00  4.89618E+00  2.61115E+00  1.15457E+00 -4.77255E-01 -1.64014E+00
  -1.79488E+00 -1.62717E+00 -1.56081E+00 -1.76928E+00 -2.21932E+00 -2.78490E+00 -3.11292E+00 -2.74039E+00 -1.47011E+00  4.14785E-01
   2.27944E+00  3.49409E+00  3.82994E+00  3.35241E+00  2.45910E+00  1.26267E+00 -4.30098E-01 -1.96863E+00 -2.86680E+00 -3.18459E+00
  -3.14654E+00 -2.80566E+00 -2.17206E+00 -1.26171E+00  7.88668E-03  1.76833E+00  3.55893E+00  4.48867E+00  4.07234E+00  2.50513E+00
   7.07679E-01 -5.58845E-01 -1.43568E+00 -2.28756E+00 -2.93225E+00 -3.06189E+00 -2.76965E+00 -2.25360E+00 -1.57572E+00 -9.36494E-01
  -6.36834E-01 -8.75626E-01 -1.52915E+00 -2.22500E+00 -2.70152E+00 -2.95078E+00 -2.99896E+00 -2.89055E+00 -2.69040E+00 -2.37972E+00
  -2.02080E+00 -1.66442E+00 -1.37187E+00 -1.21180E+00 -1.18656E+00 -1.30201E+00 -1.54138E+00 -1.93184E+00 -2.38986E+00 -2.65753E+00
  -2.70010E+00 -2.62371E+00 -2.35318E+00 -1.70975E+00 -8.13441E-01 -5.54696E-02  1.22458E-01 -4.90851E-01 -1.58817E+00 -2.50272E+00
  -2.86381E+00 -2.90787E+00 -3.07565E+00 -3.31241E+00 -3.23604E+00 -3.01623E+00 -2.82751E+00 -2.63664E+00 -2.03491E+00  2.88570E-01
   5.98717E+00  1.48425E+01  2.40480E+01  2.96362E+01  2.89972E+01  2.31834E+01  1.62681E+01  1.13197E+01  7.94095E+00  4.03393E+00
   2.31984E-01 -1.26548E+00 -1.70842E+00 -1.88650E+00 -1.98623E+00 -2.02916E+00 -2.05235E+00 -2.08057E+00 -2.11122E+00 -2.12042E+00
  -2.06621E+00 -1.86713E+00 -1.25148E+00  7.03604E-01  5.45899E+00  1.32840E+01  2.21073E+01  2.83647E+01  2.92370E+01  2.49272E+01
   1.86909E+01  1.37683E+01  1.04583E+01  6.81934E+00  2.61860E+00 -6.85942E-02 -1.24210E+00 -1.70135E+00 -1.67384E+00 -1.41357E+00
  -1.12445E+00 -8.81421E-01 -7.75299E-01 -7.95412E-01 -8.70419E-01 -1.01527E+00 -1.24017E+00 -1.50357E+00 -1.77741E+00 -1.98582E+00
  -2.16822E+00 -2.35901E+00 -2.55198E+00 -2.69155E+00 -2.74402E+00 -2.71991E+00 -2.65750E+00 -2.68476E+00 -2.97842E+00 -3.56416E+00
  -4.24046E+00 -4.66225E+00 -4.53443E+00 -3.91648E+00 -3.25250E+00 -3.00537E+00 -3.27617E+00 -3.75539E+00 -4.10056E+00 -4.32648E+00
  -4.46525E+00 -4.68909E+00 -5.03264E+00 -5.43517E+00 -5.98289E+00 -6.43158E+00 -6.48439E+00 -6.10914E+00 -5.62517E+00 -5.45054E+00
  -5.67145E+00 -5.91589E+00 -5.75828E+00 -5.29289E+00 -5.14001E+00 -5.36975E+00 -5.46280E+00 -4.90523E+00 -3.63088E+00 -2.25337E+00
  -1.32596E+00 -1.07762E+00 -1.36049E+00 -1.79667E+00 -2.17674E+00 -2.59841E+00 -2.85195E+00 -2.80576E+00 -2.38911E+00 -1.56338E+00
  -4.30516E-01  8.30598E-01  2.01716E+00  2.80450E+00  2.97896E+00  2.18459E+00  1.40671E-01 -2.62055E+00 -5.05792E+00 -6.43411E+00
  -6.74479E+00 -6.17853E+00 -4.88130E+00 -2.91852E+00 -1.11139E-01  3.09509E+00  5.41356E+00  5.69523E+00  4.14550E+00  1.73190E+00
  -9.02437E-01 -3.46079E+00 -5.33291E+00 -5.90686E+00 -4.59452E+00 -2.14421E+00  1.71762E-01  1.71424E+00  2.58637E+00  3.11047E+00
   3.22530E+00  2.85913E+00  2.37469E+00  2.17115E+00  2.32734E+00  2.96783E+00  4.15865E+00  5.66493E+00  6.82284E+00  6.99047E+00
   6.20233E+00  5.00977E+00  3.90754E+00  3.25202E+00  3.39829E+00  4.19446E+00  5.11434E+00  5.93517E+00  6.72682E+00  7.35768E+00
   7.80770E+00  8.19361E+00  8.96147E+00  1.04010E+01  1.21618E+01  1.35853E+01  1.55095E+01  2.18805E+01  3.55910E+01  5.39533E+01
   6.93359E+01  7.36253E+01  6.47875E+01  4.97459E+01  3.72790E+01  2.98915E+01  2.29018E+01  1.35336E+01  8.01290E+00  6.28951E+00
   5.28967E+00  4.57042E+00  4.15984E+00  3.97780E+00  3.85820E+00  3.74211E+00  3.55492E+00  3.27997E+00  2.97144E+00  2.66860E+00
   2.35027E+00  2.03772E+00  1.78952E+00  1.62496E+00  1.51682E+00  1.43033E+00  1.35281E+00  1.29344E+00  1.25101E+00  1.22040E+00
   1.21664E+00  1.23737E+00  1.27064E+00  1.31475E+00  1.37025E+00  1.43832E+00  1.51952E+00  1.60943E+00  1.70626E+00  1.81726E+00
   1.94496E+00  2.08190E+00  2.21936E+00  2.35190E+00  2.47822E+00  2.59612E+00  2.69996E+00  2.78858E+00  2.86247E+00  2.92186E+00
   2.96795E+00  3.00299E+00  3.02947E+00  3.04947E+00  3.06611E+00  3.08389E+00  3.10822E+00  3.14413E+00  3.19633E+00  3.27018E+00
   3.37364E+00  3.51996E+00  3.73639E+00  4.06753E+00  4.50782E+00  4.91149E+00  5.06914E+00  4.85573E+00  4.33859E+00  3.76488E+00
   3.37243E+00  3.22534E+00  3.30317E+00  3.63945E+00  4.35406E+00  5.34174E+00  6.16047E+00  6.58872E+00  6.69698E+00  6.70570E+00
   6.73198E+00  6.67577E+00  6.47581E+00  6.30673E+00  6.18210E+00  6.07064E+00  5.96146E+00  5.85090E+00  5.73863E+00  5.62568E+00
   5.51352E+00  5.40303E+00  5.29474E+00  5.18905E+00  5.08667E+00  4.98804E+00  4.89310E+00  4.80092E+00  4.71042E+00  4.62064E+00
   4.53109E+00  4.44115E+00  4.34998E+00  4.25644E+00  4.15984E+00  4.06010E+00  3.95773E+00  3.85319E+00  3.74693E+00  3.63936E+00
   3.53161E+00  3.42529E+00  3.32231E+00  3.22428E+00  3.13266E+00  3.04895E+00  2.97517E+00  2.91353E+00  2.86618E+00  2.83474E+00
   2.82075E+00  2.82585E+00  2.85213E+00  2.90163E+00  2.97611E+00  3.07679E+00  3.20489E+00  3.36161E+00  3.54827E+00  3.76558E+00
   4.01349E+00  4.29100E+00  4.59665E+00  4.92834E+00  5.28325E+00  5.65720E+00  6.04475E+00  6.43929E+00  6.83375E+00  7.22048E+00
   7.59142E+00  7.93787E+00  8.25113E+00  8.52296E+00  8.74637E+00  8.91560E+00  9.02623E+00  9.07507E+00  9.06075E+00  8.98385E+00
   8.84717E+00  8.65503E+00  8.41300E+00  8.12745E+00  7.80569E+00  7.45572E+00  7.08592E+00  6.70425E+00  6.31797E+00  5.93341E+00
   5.55634E+00  5.19174E+00  4.84378E+00  4.51528E+00  4.20798E+00  3.92273E+00  3.66000E+00  3.41978E+00  3.20163E+00  3.00433E+00
   2.82640E+00  2.66625E+00  2.52260E+00  2.39416E+00  2.27956E+00  2.17714E+00  2.08545E+00  2.00324E+00  1.92972E+00  1.86407E+00
   1.80540E+00  1.75264E+00  1.70505E+00  1.66211E+00  1.62361E+00  1.58910E+00  1.55808E+00  1.52992E+00  1.50433E+00  1.48122E+00
   1.46059E+00  1.44214E+00  1.42551E+00  1.41034E+00  1.39663E+00  1.38443E+00  1.37378E+00  1.36439E+00  1.35598E+00  1.34836E+00
   1.34169E+00  1.33606E+00  1.33145E+00  1.32755E+00  1.32418E+00  1.32132E+00  1.31917E+00  1.31778E+00  1.31705E+00  1.31668E+00
   1.31661E+00  1.31691E+00  1.31781E+00  1.31927E+00  1.32114E+00  1.32315E+00  1.32536E+00  1.32792E+00  1.33098E+00  1.33442E+00
   1.33806E+00  1.34173E+00  1.34558E+00  1.34976E+00  1.35437E+00  1.35918E+00  1.36405E+00  1.36890E+00  1.37397E+00  1.37935E+00
   1.38504E+00  1.39079E+00  1.39650E+00  1.40221E+00  1.40817E+00  1.41440E+00  1.42080E+00  1.42713E+00
 NY background values follow
    -5.326E+00   -5.313E+00   -5.300E+00   -5.288E+00   -5.275E+00   -5.263E+00   -5.250E+00   -5.237E+00   -5.225E+00   -5.212E+00
    -5.199E+00   -5.187E+00   -5.174E+00   -5.162E+00   -5.149E+00   -5.136E+00   -5.124E+00   -5.111E+00   -5.098E+00   -5.086E+00
    -5.073E+00   -5.061E+00   -5.048E+00   -5.035E+00   -5.023E+00   -5.010E+00   -4.998E+00   -4.985E+00   -4.972E+00   -4.960E+00
    -4.947E+00   -4.934E+00   -4.922E+00   -4.909E+00   -4.897E+00   -4.884E+00   -4.871E+00   -4.859E+00   -4.846E+00   -4.834E+00
    -4.821E+00   -4.808E+00   -4.796E+00   -4.783E+00   -4.770E+00   -4.758E+00   -4.745E+00   -4.733E+00   -4.720E+00   -4.707E+00
    -4.695E+00   -4.682E+00   -4.670E+00   -4.657E+00   -4.644E+00   -4.632E+00   -4.619E+00   -4.606E+00   -4.594E+00   -4.581E+00
    -4.569E+00   -4.556E+00   -4.543E+00   -4.531E+00   -4.518E+00   -4.506E+00   -4.493E+00   -4.480E+00   -4.468E+00   -4.455E+00
    -4.442E+00   -4.430E+00   -4.417E+00   -4.405E+00   -4.392E+00   -4.379E+00   -4.367E+00   -4.354E+00   -4.342E+00   -4.329E+00
    -4.316E+00   -4.304E+00   -4.291E+00   -4.278E+00   -4.266E+00   -4.253E+00   -4.241E+00   -4.228E+00   -4.215E+00   -4.203E+00
    -4.190E+00   -4.178E+00   -4.165E+00   -4.152E+00   -4.140E+00   -4.127E+00   -4.114E+00   -4.102E+00   -4.089E+00   -4.077E+00
    -4.064E+00   -4.051E+00   -4.039E+00   -4.026E+00   -4.014E+00   -4.001E+00   -3.988E+00   -3.976E+00   -3.963E+00   -3.951E+00
    -3.938E+00   -3.925E+00   -3.913E+00   -3.900E+00   -3.887E+00   -3.875E+00   -3.862E+00   -3.850E+00   -3.837E+00   -3.824E+00
    -3.812E+00   -3.799E+00   -3.787E+00   -3.774E+00   -3.761E+00   -3.749E+00   -3.736E+00   -3.723E+00   -3.711E+00   -3.698E+00
    -3.686E+00   -3.673E+00   -3.660E+00   -3.648E+00   -3.635E+00   -3.623E+00   -3.610E+00   -3.597E+00   -3.585E+00   -3.572E+00
    -3.560E+00   -3.547E+00   -3.534E+00   -3.522E+00   -3.509E+00   -3.496E+00   -3.484E+00   -3.471E+00   -3.459E+00   -3.446E+00
    -3.433E+00   -3.421E+00   -3.408E+00   -3.396E+00   -3.383E+00   -3.370E+00   -3.358E+00   -3.345E+00   -3.333E+00   -3.320E+00
    -3.307E+00   -3.295E+00   -3.282E+00   -3.270E+00   -3.257E+00   -3.244E+00   -3.232E+00   -3.219E+00   -3.206E+00   -3.194E+00
    -3.181E+00   -3.169E+00   -3.156E+00   -3.143E+00   -3.131E+00   -3.118E+00   -3.106E+00   -3.093E+00   -3.080E+00   -3.068E+00
    -3.055E+00   -3.043E+00   -3.030E+00   -3.017E+00   -3.005E+00   -2.992E+00   -2.980E+00   -2.967E+00   -2.954E+00   -2.942E+00
    -2.929E+00   -2.916E+00   -2.904E+00   -2.891E+00   -2.879E+00   -2.866E+00   -2.853E+00   -2.841E+00   -2.828E+00   -2.816E+00
    -2.803E+00   -2.790E+00   -2.778E+00   -2.765E+00   -2.753E+00   -2.740E+00   -2.727E+00   -2.715E+00   -2.702E+00   -2.690E+00
    -2.677E+00   -2.664E+00   -2.652E+00   -2.639E+00   -2.627E+00   -2.614E+00   -2.601E+00   -2.589E+00   -2.576E+00   -2.563E+00
    -2.551E+00   -2.538E+00   -2.526E+00   -2.513E+00   -2.500E+00   -2.488E+00   -2.475E+00   -2.463E+00   -2.450E+00   -2.437E+00
    -2.425E+00   -2.412E+00   -2.400E+00   -2.387E+00   -2.374E+00   -2.362E+00   -2.349E+00   -2.337E+00   -2.324E+00   -2.311E+00
    -2.299E+00   -2.286E+00   -2.274E+00   -2.261E+00   -2.248E+00   -2.236E+00   -2.223E+00   -2.211E+00   -2.198E+00   -2.185E+00
    -2.173E+00   -2.160E+00   -2.148E+00   -2.135E+00   -2.122E+00   -2.110E+00   -2.097E+00   -2.085E+00   -2.072E+00   -2.059E+00
    -2.047E+00   -2.034E+00   -2.022E+00   -2.009E+00   -1.996E+00   -1.984E+00   -1.971E+00   -1.959E+00   -1.946E+00   -1.933E+00
    -1.921E+00   -1.908E+00   -1.896E+00   -1.883E+00   -1.870E+00   -1.858E+00   -1.845E+00   -1.833E+00   -1.820E+00   -1.807E+00
    -1.795E+00   -1.782E+00   -1.770E+00   -1.757E+00   -1.744E+00   -1.732E+00   -1.719E+00   -1.707E+00   -1.694E+00   -1.681E+00
    -1.669E+00   -1.656E+00   -1.644E+00   -1.631E+00   -1.618E+00   -1.606E+00   -1.593E+00   -1.581E+00   -1.568E+00   -1.555E+00
    -1.543E+00   -1.530E+00   -1.518E+00   -1.505E+00   -1.492E+00   -1.480E+00   -1.467E+00   -1.455E+00   -1.442E+00   -1.429E+00
    -1.417E+00   -1.404E+00   -1.392E+00   -1.379E+00   -1.366E+00   -1.354E+00   -1.341E+00   -1.329E+00   -1.316E+00   -1.303E+00
    -1.291E+00   -1.278E+00   -1.266E+00   -1.253E+00   -1.241E+00   -1.228E+00   -1.215E+00   -1.203E+00   -1.190E+00   -1.178E+00
    -1.165E+00   -1.152E+00   -1.140E+00   -1.127E+00   -1.115E+00   -1.102E+00   -1.089E+00   -1.077E+00   -1.064E+00   -1.052E+00
    -1.039E+00   -1.026E+00   -1.014E+00   -1.001E+00   -9.887E-01   -9.761E-01   -9.635E-01   -9.509E-01   -9.384E-01   -9.258E-01
    -9.132E-01   -9.006E-01   -8.880E-01   -8.754E-01   -8.628E-01   -8.502E-01   -8.376E-01   -8.251E-01   -8.125E-01   -7.999E-01
    -7.873E-01   -7.747E-01   -7.621E-01   -7.495E-01   -7.370E-01   -7.244E-01   -7.118E-01   -6.992E-01   -6.866E-01   -6.740E-01
    -6.614E-01   -6.489E-01   -6.363E-01   -6.237E-01   -6.111E-01   -5.985E-01   -5.859E-01   -5.734E-01   -5.608E-01   -5.482E-01
    -5.356E-01   -5.230E-01   -5.104E-01   -4.979E-01   -4.853E-01   -4.727E-01   -4.601E-01   -4.475E-01   -4.350E-01   -4.224E-01
    -4.098E-01   -3.972E-01   -3.846E-01   -3.721E-01   -3.595E-01   -3.469E-01   -3.343E-01   -3.217E-01   -3.092E-01   -2.966E-01
    -2.840E-01   -2.714E-01   -2.588E-01   -2.463E-01   -2.337E-01   -2.211E-01   -2.085E-01   -1.960E-01   -1.834E-01   -1.708E-01
    -1.582E-01   -1.457E-01   -1.331E-01   -1.205E-01   -1.079E-01   -9.535E-02   -8.277E-02   -7.020E-02   -5.762E-02   -4.505E-02
    -3.247E-02   -1.990E-02   -7.324E-03    5.250E-03    1.782E-02    3.040E-02    4.297E-02    5.554E-02    6.812E-02    8.069E-02
     9.326E-02    1.058E-01    1.184E-01    1.310E-01    1.435E-01    1.561E-01    1.687E-01    1.813E-01    1.938E-01    2.064E-01
     2.190E-01    2.315E-01    2.441E-01    2.567E-01    2.693E-01    2.818E-01    2.944E-01    3.070E-01    3.195E-01    3.321E-01
     3.447E-01    3.572E-01    3.698E-01    3.824E-01    3.949E-01    4.075E-01    4.201E-01    4.326E-01    4.452E-01    4.578E-01
     4.703E-01    4.829E-01    4.955E-01    5.080E-01    5.206E-01    5.331E-01    5.457E-01    5.583E-01    5.708E-01    5.834E-01
     5.960E-01    6.085E-01    6.211E-01    6.337E-01    6.462E-01    6.588E-01    6.713E-01    6.839E-01    6.965E-01    7.090E-01
     7.216E-01    7.341E-01    7.467E-01    7.593E-01    7.718E-01    7.844E-01    7.969E-01    8.095E-01    8.221E-01    8.346E-01
     8.472E-01    8.597E-01    8.723E-01    8.849E-01    8.974E-01    9.100E-01    9.225E-01    9.351E-01
 Ala      Conc. = 9.98E+01
