 LCModel (Version 6.3-1L) Copyright: S.W. Provencher.          Ref.: Magn. Reson. Med. 30:672-679 (1993).                
 Slice#2 Row#7 Col#10  PD_05_press_1_raw_act
 36 lines in following concentration table = NCONC+1
    Conc.  %SD /Cr+PCr  Metabolite                                         
   63.846 135% 4.6E-02 Ala                                                 
    0.000 999%   0.000 Asp                                                 
  156.128 122%   0.114 Cr                                                  
 1.22E+03  17%   0.886 PCr                                                 
  152.761  92%   0.111 GABA                                                
   77.664 189% 5.6E-02 Glc                                                 
  580.501  31%   0.422 Gln                                                 
 1.72E+03  13%   1.251 Glu                                                 
  588.249   4%   0.428 GPC                                                 
    0.000 999%   0.000 PCh                                                 
  390.327  16%   0.284 GSH                                                 
 1.20E+03  17%   0.876 Ins                                                 
   91.662 102% 6.7E-02 Lac                                                 
 2.39E+03   4%   1.741 NAA                                                 
  184.624  50%   0.134 NAAG                                                
  138.557  18%   0.101 Scyllo                                              
  201.786  91%   0.147 Tau                                                 
  481.375  20%   0.350 -CrCH2                                              
  588.249   4%   0.428 GPC+PCh                                             
 2.58E+03   3%   1.876 NAA+NAAG                                            
 1.38E+03   4%   1.000 Cr+PCr                                              
 2.30E+03  12%   1.673 Glu+Gln                                             
  789.155  41%   0.574 Lip13a                                              
    0.000 999%   0.000 Lip13b                                              
    0.000 999%   0.000 Lip09                                               
 1.57E+03  11%   1.142 MM09                                                
  170.497  69%   0.124 Lip20                                               
 3.79E+03   9%   2.757 MM20                                                
  487.174  31%   0.354 MM12                                                
 1.97E+03  17%   1.430 MM14                                                
 1.38E+03  18%   1.005 MM17                                                
  789.155  41%   0.574 Lip13a+Lip13b                                       
 3.24E+03   9%   2.359 MM14+Lip13a+Lip13b+MM12                             
 1.57E+03  11%   1.142 MM09+Lip09                                          
 3.96E+03   8%   2.881 MM20+Lip20                                          
   6 lines in following misc. output table
  FWHM = 0.038 ppm    S/N =  16                                            
  Data shift = 0.000 ppm                                                   
  Ph: -58 deg     -17.1 deg/ppm                                            
  alphaB,S = 8.5E+01,   6.0E+01                                            
   14 spline knots.   Ns = 6(1)                                            
   3 inflections.     1 extrema                                            
  498 points on ppm-axis = NY
      4.000000     3.992357     3.984714     3.977070     3.969427     3.961784     3.954141     3.946497     3.938854     3.931211
      3.923568     3.915925     3.908281     3.900638     3.892995     3.885352     3.877708     3.870065     3.862422     3.854779
      3.847136     3.839492     3.831849     3.824206     3.816563     3.808919     3.801276     3.793633     3.785990     3.778347
      3.770703     3.763060     3.755417     3.747774     3.740130     3.732487     3.724844     3.717201     3.709558     3.701914
      3.694271     3.686628     3.678985     3.671341     3.663698     3.656055     3.648412     3.640769     3.633125     3.625482
      3.617839     3.610196     3.602552     3.594909     3.587266     3.579623     3.571980     3.564336     3.556693     3.549050
      3.541407     3.533763     3.526120     3.518477     3.510834     3.503191     3.495547     3.487904     3.480261     3.472618
      3.464974     3.457331     3.449688     3.442045     3.434402     3.426758     3.419115     3.411472     3.403829     3.396185
      3.388542     3.380899     3.373256     3.365613     3.357969     3.350326     3.342683     3.335040     3.327396     3.319753
      3.312110     3.304467     3.296824     3.289180     3.281537     3.273894     3.266251     3.258607     3.250964     3.243321
      3.235678     3.228034     3.220391     3.212748     3.205105     3.197462     3.189818     3.182175     3.174532     3.166889
      3.159245     3.151602     3.143959     3.136316     3.128673     3.121029     3.113386     3.105743     3.098100     3.090456
      3.082813     3.075170     3.067527     3.059884     3.052240     3.044597     3.036954     3.029311     3.021667     3.014024
      3.006381     2.998738     2.991095     2.983451     2.975808     2.968165     2.960522     2.952878     2.945235     2.937592
      2.929949     2.922306     2.914662     2.907019     2.899376     2.891733     2.884089     2.876446     2.868803     2.861160
      2.853517     2.845873     2.838230     2.830587     2.822944     2.815300     2.807657     2.800014     2.792371     2.784728
      2.777084     2.769441     2.761798     2.754155     2.746511     2.738868     2.731225     2.723582     2.715939     2.708295
      2.700652     2.693009     2.685366     2.677722     2.670079     2.662436     2.654793     2.647150     2.639506     2.631863
      2.624220     2.616577     2.608933     2.601290     2.593647     2.586004     2.578361     2.570717     2.563074     2.555431
      2.547788     2.540144     2.532501     2.524858     2.517215     2.509572     2.501928     2.494285     2.486642     2.478999
      2.471355     2.463712     2.456069     2.448426     2.440783     2.433139     2.425496     2.417853     2.410210     2.402566
      2.394923     2.387280     2.379637     2.371994     2.364350     2.356707     2.349064     2.341421     2.333777     2.326134
      2.318491     2.310848     2.303205     2.295561     2.287918     2.280275     2.272632     2.264988     2.257345     2.249702
      2.242059     2.234416     2.226772     2.219129     2.211486     2.203843     2.196199     2.188556     2.180913     2.173270
      2.165627     2.157983     2.150340     2.142697     2.135054     2.127410     2.119767     2.112124     2.104481     2.096838
      2.089194     2.081551     2.073908     2.066265     2.058621     2.050978     2.043335     2.035692     2.028049     2.020405
      2.012762     2.005119     1.997476     1.989833     1.982190     1.974546     1.966903     1.959260     1.951617     1.943974
      1.936331     1.928688     1.921045     1.913402     1.905759     1.898115     1.890472     1.882829     1.875186     1.867543
      1.859900     1.852257     1.844614     1.836971     1.829327     1.821684     1.814041     1.806398     1.798755     1.791112
      1.783469     1.775826     1.768183     1.760540     1.752896     1.745253     1.737610     1.729967     1.722324     1.714681
      1.707038     1.699395     1.691752     1.684108     1.676465     1.668822     1.661179     1.653536     1.645893     1.638250
      1.630607     1.622964     1.615321     1.607677     1.600034     1.592391     1.584748     1.577105     1.569462     1.561819
      1.554176     1.546533     1.538890     1.531246     1.523603     1.515960     1.508317     1.500674     1.493031     1.485388
      1.477745     1.470102     1.462458     1.454815     1.447172     1.439529     1.431886     1.424243     1.416600     1.408957
      1.401314     1.393671     1.386027     1.378384     1.370741     1.363098     1.355455     1.347812     1.340169     1.332526
      1.324883     1.317240     1.309596     1.301953     1.294310     1.286667     1.279024     1.271381     1.263738     1.256095
      1.248452     1.240808     1.233165     1.225522     1.217879     1.210236     1.202593     1.194950     1.187307     1.179664
      1.172021     1.164377     1.156734     1.149091     1.141448     1.133805     1.126162     1.118519     1.110876     1.103233
      1.095590     1.087946     1.080303     1.072660     1.065017     1.057374     1.049731     1.042088     1.034445     1.026802
      1.019158     1.011515     1.003872     0.996229     0.988586     0.980943     0.973300     0.965657     0.958014     0.950371
      0.942727     0.935084     0.927441     0.919798     0.912155     0.904512     0.896869     0.889226     0.881583     0.873940
      0.866296     0.858653     0.851010     0.843367     0.835724     0.828081     0.820438     0.812795     0.805152     0.797508
      0.789865     0.782222     0.774579     0.766936     0.759293     0.751650     0.744007     0.736364     0.728721     0.721077
      0.713434     0.705791     0.698148     0.690505     0.682862     0.675219     0.667576     0.659933     0.652290     0.644646
      0.637003     0.629360     0.621717     0.614074     0.606431     0.598788     0.591145     0.583502     0.575858     0.568215
      0.560572     0.552929     0.545286     0.537643     0.530000     0.522357     0.514714     0.507071     0.499427     0.491784
      0.484141     0.476498     0.468855     0.461212     0.453569     0.445925     0.438282     0.430639     0.422996     0.415353
      0.407710     0.400067     0.392424     0.384780     0.377137     0.369494     0.361851     0.354208     0.346565     0.338922
      0.331278     0.323635     0.315992     0.308349     0.300706     0.293063     0.285420     0.277777     0.270133     0.262490
      0.254847     0.247204     0.239561     0.231918     0.224275     0.216631     0.208988     0.201345
 NY phased data points follow
  -1.42046E+01 -1.17637E+01 -1.31610E+01 -1.02914E+01 -6.67441E+00  5.19150E-01  1.56189E+00  3.84110E+00  1.15934E+01  1.69035E+01
   1.65163E+01  1.21971E+01  1.04787E+01  4.05068E+00  9.06993E-01 -5.21082E+00 -4.86024E+00 -8.84583E+00 -7.57706E+00 -1.08919E+01
  -1.27357E+01 -6.12742E+00 -5.72315E+00 -6.75906E+00 -9.00644E+00 -2.88318E+00 -1.08282E+00 -4.71056E+00 -3.29330E-01 -1.16423E-01
   7.00383E-01  1.63203E+00 -8.86555E-01 -1.85644E+00  2.67194E-01 -2.82133E+00 -3.47132E+00 -3.71756E+00 -5.00426E+00 -3.44924E+00
  -1.72619E+00 -3.02101E+00  3.42119E-02  2.57317E+00  4.36226E+00  6.88046E+00  7.30977E+00  8.05696E+00  7.28663E+00  2.14866E+00
  -1.36128E-01 -2.92258E+00 -3.09526E+00  8.55283E-02 -3.16001E+00 -9.69444E-01  3.04624E+00 -2.80305E-01 -1.00815E+00 -1.47992E-01
  -4.38590E+00 -9.03319E+00 -1.38817E+01 -1.04502E+01 -8.36613E+00 -1.39057E+01 -1.22193E+01 -1.12819E+01 -1.33420E+01 -1.03540E+01
  -7.14794E+00 -1.09883E+01 -5.53951E+00 -5.06056E+00 -4.37282E+00 -2.41440E+00 -4.47700E+00 -8.28853E+00 -6.12020E+00 -6.92384E+00
  -6.53714E+00 -7.17188E+00 -5.99677E+00 -1.84668E+00 -2.84278E+00 -3.29615E+00 -4.56536E+00 -2.81010E+00 -2.84176E+00  1.89898E+00
  -5.17502E-01  9.48136E-01 -9.52810E-01 -2.15073E-02  1.22497E+00 -6.15054E+00 -1.95633E+00  4.42290E+00  8.30082E+00  2.35134E+01
   3.69171E+01  4.71490E+01  5.35593E+01  5.10270E+01  4.01009E+01  3.25298E+01  2.64101E+01  1.24284E+01  8.30594E+00  5.57790E+00
   3.08573E+00 -2.23301E+00 -7.25979E-02 -5.21989E+00 -2.18472E+00 -4.27307E-02 -1.65197E+00 -1.84541E+00 -2.13151E+00 -2.96130E+00
   7.71538E-01 -8.74953E-01  3.09666E+00  1.01131E+01  2.80700E+01  4.07772E+01  4.86222E+01  5.07979E+01  4.65685E+01  3.26061E+01
   2.35063E+01  1.46374E+01  8.76783E+00  4.35062E+00  2.52043E+00 -1.76717E+00 -4.18263E+00 -5.99634E+00 -4.13798E+00 -3.33531E+00
  -2.51233E+00 -2.75449E+00 -4.48476E+00 -3.33366E+00 -2.88158E+00 -8.85177E-01 -2.02146E+00  3.11537E+00  8.21853E-02 -1.15395E+00
   4.30273E-01 -4.85097E+00 -1.35420E+00 -9.87403E-01 -1.82054E+00  5.50756E-01 -5.63387E+00 -1.42262E+00 -2.36846E+00 -3.33154E+00
  -2.45489E+00 -5.47241E+00 -6.82100E+00 -5.07433E+00 -7.42527E+00 -4.61992E+00 -4.33877E+00 -6.11614E+00 -1.04318E+01 -6.41825E+00
  -9.38523E+00 -1.31034E+01 -1.34723E+01 -1.68337E+01 -1.66419E+01 -1.91713E+01 -1.56717E+01 -1.11319E+01 -1.33177E+01 -1.33416E+01
  -1.29675E+01 -1.43671E+01 -1.37746E+01 -1.39238E+01 -1.18140E+01 -1.43193E+01 -1.45235E+01 -1.10582E+01 -6.19082E+00 -1.25578E+00
  -7.86092E-01  6.47905E-01  4.16089E+00  1.68625E+00 -2.73658E+00 -3.14316E+00 -2.86450E+00 -1.00789E+01 -1.20219E+01 -8.43987E+00
  -5.52814E+00 -3.22626E+00 -4.58592E-01  1.13623E+00  4.01970E+00 -5.13268E-01  1.00484E+00 -4.15415E+00 -9.64401E+00 -9.79323E+00
  -9.29803E+00 -3.16599E+00 -2.23448E+00  2.61635E+00  1.08301E+01  1.64806E+01  1.81003E+01  8.57113E+00  1.00041E+01 -3.73183E-01
  -5.10873E+00 -8.29057E+00 -2.59673E+00 -1.30210E+00 -4.28971E-01  2.60636E+00  5.06818E+00  8.47708E+00  3.36757E+00  4.63961E+00
   4.39815E+00  4.08048E+00  5.62147E+00  7.19867E+00  9.53551E+00  8.06726E+00  1.18962E+01  7.49768E+00  8.19329E+00  5.26303E+00
   4.10841E+00  6.25602E-01  1.37756E-01  1.90588E-01  6.14517E+00  8.37762E+00  1.27454E+01  1.54625E+01  1.35724E+01  1.08193E+01
   1.43516E+01  1.27558E+01  1.35904E+01  1.90465E+01  2.90763E+01  2.96956E+01  3.98118E+01  5.06864E+01  7.35809E+01  1.00015E+02
   1.07792E+02  1.09158E+02  8.24731E+01  5.69145E+01  4.26037E+01  3.45391E+01  2.12448E+01  1.80143E+01  1.04876E+01  1.33650E+01
   6.52631E+00  2.30161E+00  8.57243E+00  8.12675E+00  7.01320E+00  7.58897E+00  7.38612E+00  6.22158E+00  8.20543E+00  8.27559E+00
   6.47320E+00  9.12892E+00  7.88894E+00  4.60572E+00  1.12661E+01  3.51476E+00  6.68749E+00  3.37055E+00  5.13284E+00 -1.39270E-01
   1.00083E+01  8.70581E+00  1.87464E+00  7.66822E+00  3.51509E+00  5.57181E+00  5.63610E+00  6.26813E+00  4.91705E+00  3.81815E+00
   3.20649E+00  7.93273E+00  3.86552E+00  8.23659E+00  1.05495E+01  4.09638E+00  5.89420E+00  7.52183E+00  1.21107E+01  8.85126E+00
   7.71395E+00  8.76026E+00  8.70725E+00  1.01888E+01  6.43532E+00  9.36318E+00  7.93254E+00  7.47448E+00  5.99181E+00  4.62874E+00
   9.98931E+00  6.33405E+00  8.86967E+00  7.55506E+00  9.27882E+00  5.16437E+00  3.36732E+00  8.96900E+00  1.14177E+01  9.06742E+00
   5.80475E+00  9.78816E+00  9.56223E+00  1.23827E+01  9.74128E+00  1.13636E+01  1.11884E+01  1.82700E+01  1.17440E+01  1.16183E+01
   1.16368E+01  1.25351E+01  1.09935E+01  9.77685E+00  1.71528E+01  9.15461E+00  1.11678E+01  1.03289E+01  7.73303E+00  5.83414E+00
   1.25050E+01  7.77535E+00  1.06559E+01  7.53737E+00  1.25711E+01  1.09048E+01  8.15530E+00  1.11425E+01  6.89524E+00  9.31017E+00
   4.64297E+00  9.80717E+00  1.05442E+01  9.52521E+00  8.92187E+00  8.39026E+00  4.68446E+00  1.14226E+01  8.03570E+00  5.29583E+00
   9.21003E+00  7.52317E+00  6.79910E+00  6.12029E+00  1.84151E+00  2.19989E+00  1.65502E+00  2.93265E+00  6.66180E+00  6.67585E+00
   2.43905E-01  2.39132E+00  4.83274E+00  1.87496E+00  1.90680E+00  4.54576E+00  6.93543E+00 -9.21665E-03  5.33438E+00  3.97364E+00
   7.12966E+00  4.98022E+00  6.36064E+00  9.95448E+00  7.34925E+00  6.67653E+00  1.10293E+01  7.80337E+00  1.06818E+01  1.46309E+01
   8.68530E+00  8.73545E+00  1.20589E+01  1.34759E+01  1.05234E+01  6.91902E+00  1.27631E+01  9.89168E+00  9.94223E+00  1.54146E+01
   9.92866E+00  8.07689E+00  1.27805E+01  7.25645E+00  1.16924E+01  7.96887E+00  8.18550E+00  8.81331E+00  5.47294E+00  1.08802E+01
   7.96451E+00  5.41917E+00  5.61792E+00  7.34906E+00  4.02722E+00  2.12915E+00  3.96673E+00  3.36134E+00  5.71296E+00  5.21473E+00
   6.70518E+00  5.81959E+00  6.99334E+00  3.23878E+00  3.83285E+00  4.32512E+00  2.19462E+00  3.59028E+00  2.91282E+00  3.15791E+00
   5.66654E+00  2.58394E+00  5.43428E+00  2.38859E+00  6.70278E+00  2.04001E+00  6.11689E+00  2.16399E+00  1.70368E+00  5.15561E-01
   3.75527E+00  3.36109E+00  3.54754E+00  1.95277E+00  4.99953E+00  4.84956E+00  1.08151E+00  2.15707E+00  9.15028E-01  2.61804E+00
   2.85863E+00  1.85653E-01  4.45718E+00  5.48725E+00 -1.49558E+00 -2.64642E+00  1.76286E+00  1.37207E+00  2.54190E+00 -2.68667E+00
   3.43385E+00  2.92460E+00 -6.20981E-01  2.17449E+00  3.78072E+00  2.46216E+00  5.09076E+00  2.78570E+00  1.38937E+00  5.67138E+00
   6.64591E+00  1.04662E+00  1.94668E+00  3.03171E+00  9.28445E-01  5.56416E+00  1.14146E+00  7.92217E+00  4.16220E+00  1.89985E+00
   1.97477E+00  2.46639E+00  2.62291E+00  1.85399E+00  3.22479E+00  4.92075E+00 -1.80172E-01  2.74420E+00
 NY points of the fit to the data follow
  -9.74927E+00 -9.80454E+00 -9.58424E+00 -8.49107E+00 -6.42086E+00 -3.32562E+00  1.42905E+00  7.37735E+00  1.27826E+01  1.57744E+01
   1.52392E+01  1.18130E+01  7.60249E+00  4.08552E+00  1.47494E+00 -4.65416E-01 -2.27318E+00 -3.73414E+00 -4.59792E+00 -5.10873E+00
  -5.37561E+00 -5.57761E+00 -5.88637E+00 -6.19211E+00 -6.16373E+00 -5.98766E+00 -5.27697E+00 -3.54453E+00 -1.00355E+00  1.72616E+00
   3.87591E+00  4.87680E+00  4.77472E+00  3.84712E+00  2.03643E+00 -4.21743E-01 -3.15436E+00 -5.58292E+00 -6.89272E+00 -7.07823E+00
  -6.22849E+00 -4.71245E+00 -2.97610E+00 -8.65062E-01  1.67186E+00  4.14521E+00  5.57310E+00  5.13474E+00  2.98514E+00  2.11517E-01
  -2.18226E+00 -3.86182E+00 -4.95293E+00 -5.61724E+00 -5.88480E+00 -5.62438E+00 -4.93778E+00 -4.07220E+00 -3.29256E+00 -2.97101E+00
  -3.34732E+00 -4.28955E+00 -5.42234E+00 -6.29853E+00 -6.68937E+00 -6.62820E+00 -6.31039E+00 -5.88492E+00 -5.46753E+00 -5.02386E+00
  -4.61889E+00 -4.36985E+00 -4.27169E+00 -4.27596E+00 -4.34987E+00 -4.52190E+00 -4.89544E+00 -5.45010E+00 -6.03976E+00 -6.42701E+00
  -6.54097E+00 -6.23158E+00 -5.65189E+00 -4.88871E+00 -3.61847E+00 -1.99159E+00 -6.79383E-01 -2.90757E-01 -1.06668E+00 -2.54274E+00
  -3.83030E+00 -4.65028E+00 -5.21233E+00 -5.67741E+00 -6.18486E+00 -6.17153E+00 -4.22035E+00  4.88051E-01  7.99539E+00  1.98968E+01
   3.53643E+01  4.94670E+01  5.65361E+01  5.36856E+01  4.28383E+01  3.00372E+01  1.98218E+01  1.25662E+01  7.15114E+00  2.54278E+00
  -1.06160E+00 -2.68933E+00 -3.40150E+00 -3.81168E+00 -4.09407E+00 -4.31354E+00 -4.49608E+00 -4.68136E+00 -4.82923E+00 -4.80245E+00
  -4.00352E+00 -8.60220E-01  4.39010E+00  1.28024E+01  2.55224E+01  3.95964E+01  4.94632E+01  5.11409E+01  4.41496E+01  3.29283E+01
   2.31523E+01  1.62623E+01  1.09253E+01  6.06684E+00  1.14191E+00 -2.03921E+00 -3.31445E+00 -3.48608E+00 -2.92715E+00 -2.03318E+00
  -1.27013E+00 -8.88216E-01 -8.81373E-01 -1.18267E+00 -1.59160E+00 -1.96481E+00 -2.31797E+00 -2.63847E+00 -2.95983E+00 -3.27948E+00
  -3.56690E+00 -3.83392E+00 -4.05359E+00 -4.17940E+00 -4.19372E+00 -4.18028E+00 -4.22240E+00 -4.40837E+00 -4.90618E+00 -5.62309E+00
  -6.27128E+00 -6.52147E+00 -6.12140E+00 -5.34470E+00 -4.83813E+00 -4.98936E+00 -5.71096E+00 -6.61185E+00 -7.24789E+00 -7.58947E+00
  -7.90038E+00 -8.31738E+00 -8.84321E+00 -9.49557E+00 -1.01198E+01 -1.04678E+01 -1.03068E+01 -9.69909E+00 -9.11785E+00 -9.01949E+00
  -9.30977E+00 -9.58466E+00 -9.57178E+00 -9.27368E+00 -9.02890E+00 -8.85028E+00 -8.12784E+00 -6.57766E+00 -4.44006E+00 -2.34689E+00
  -1.10425E+00 -8.85656E-01 -1.41181E+00 -2.28378E+00 -3.10849E+00 -3.68431E+00 -3.97533E+00 -3.80980E+00 -3.08840E+00 -1.90993E+00
  -4.36225E-01  1.14956E+00  2.51624E+00  3.32913E+00  3.07076E+00  1.64094E+00 -8.14935E-01 -3.85301E+00 -6.60517E+00 -8.20284E+00
  -8.26013E+00 -6.73913E+00 -3.92904E+00 -5.20389E-02  4.19341E+00  7.42410E+00  8.13219E+00  5.97693E+00  1.76321E+00 -2.96002E+00
  -7.08023E+00 -9.81464E+00 -1.03080E+01 -8.30299E+00 -4.51718E+00 -3.30324E-01  2.70302E+00  4.29993E+00  4.81469E+00  4.68410E+00
   4.37948E+00  4.30655E+00  4.65241E+00  5.47769E+00  6.58461E+00  7.69365E+00  8.59530E+00  9.00045E+00  8.74961E+00  7.87279E+00
   6.66965E+00  5.66665E+00  5.43723E+00  6.23300E+00  7.75206E+00  9.47058E+00  1.08169E+01  1.15516E+01  1.18515E+01  1.20328E+01
   1.25660E+01  1.36126E+01  1.54492E+01  1.82713E+01  2.30378E+01  3.09705E+01  4.07500E+01  5.57927E+01  7.71685E+01  9.79734E+01
   1.08464E+02  1.03260E+02  8.43617E+01  6.19548E+01  4.47369E+01  3.30137E+01  2.43626E+01  1.69913E+01  1.06363E+01  7.87989E+00
   6.75112E+00  6.18076E+00  5.99074E+00  6.06091E+00  6.14624E+00  6.08391E+00  5.83721E+00  5.45748E+00  5.00607E+00  4.56190E+00
   4.17854E+00  3.87979E+00  3.70360E+00  3.65576E+00  3.69538E+00  3.78505E+00  3.90271E+00  4.03463E+00  4.18820E+00  4.36838E+00
   4.57861E+00  4.81546E+00  5.06565E+00  5.31732E+00  5.57120E+00  5.82800E+00  6.08323E+00  6.33116E+00  6.56917E+00  6.79279E+00
   6.99975E+00  7.18454E+00  7.33657E+00  7.44942E+00  7.52045E+00  7.55014E+00  7.54289E+00  7.50300E+00  7.43682E+00  7.35069E+00
   7.25114E+00  7.14586E+00  7.04384E+00  6.95315E+00  6.88120E+00  6.83470E+00  6.82020E+00  6.84399E+00  6.91207E+00  7.03055E+00
   7.20921E+00  7.46289E+00  7.76959E+00  8.11556E+00  8.48476E+00  8.78457E+00  8.91998E+00  8.88320E+00  8.75354E+00  8.68870E+00
   8.79847E+00  9.05674E+00  9.45488E+00  9.99951E+00  1.06241E+01  1.12248E+01  1.16643E+01  1.18654E+01  1.19098E+01  1.19061E+01
   1.19075E+01  1.19420E+01  1.19621E+01  1.19684E+01  1.19729E+01  1.18331E+01  1.14152E+01  1.07224E+01  9.89731E+00  9.20276E+00
   8.77768E+00  8.62274E+00  8.73466E+00  9.06755E+00  9.47555E+00  9.80938E+00  9.90106E+00  9.72622E+00  9.43399E+00  9.12721E+00
   8.82530E+00  8.51915E+00  8.18333E+00  7.86300E+00  7.57158E+00  7.29177E+00  7.01796E+00  6.74957E+00  6.48784E+00  6.23458E+00
   5.99181E+00  5.76178E+00  5.54706E+00  5.35029E+00  5.17392E+00  5.01996E+00  4.89015E+00  4.78621E+00  4.70994E+00  4.66308E+00
   4.64705E+00  4.66294E+00  4.71179E+00  4.79474E+00  4.91306E+00  5.06777E+00  5.25952E+00  5.48850E+00  5.75467E+00  6.05768E+00
   6.39665E+00  6.76974E+00  7.17402E+00  7.60542E+00  8.05896E+00  8.52866E+00  9.00735E+00  9.48658E+00  9.95684E+00  1.04080E+01
   1.08297E+01  1.12119E+01  1.15446E+01  1.18185E+01  1.20255E+01  1.21594E+01  1.22159E+01  1.21931E+01  1.20910E+01  1.19119E+01
   1.16603E+01  1.13427E+01  1.09674E+01  1.05438E+01  1.00821E+01  9.59250E+00  9.08540E+00  8.57089E+00  8.05826E+00  7.55564E+00
   7.06977E+00  6.60612E+00  6.16896E+00  5.76145E+00  5.38546E+00  5.04172E+00  4.72992E+00  4.44917E+00  4.19814E+00  3.97524E+00
   3.77847E+00  3.60555E+00  3.45414E+00  3.32210E+00  3.20750E+00  3.10852E+00  3.02333E+00  2.95020E+00  2.88758E+00  2.83427E+00
   2.78926E+00  2.75164E+00  2.72042E+00  2.69474E+00  2.67389E+00  2.65744E+00  2.64500E+00  2.63612E+00  2.63030E+00  2.62713E+00
   2.62635E+00  2.62787E+00  2.63153E+00  2.63707E+00  2.64418E+00  2.65270E+00  2.66257E+00  2.67380E+00  2.68626E+00  2.69979E+00
   2.71415E+00  2.72934E+00  2.74538E+00  2.76233E+00  2.78003E+00  2.79835E+00  2.81716E+00  2.83651E+00  2.85646E+00  2.87704E+00
   2.89809E+00  2.91951E+00  2.94124E+00  2.96340E+00  2.98605E+00  3.00915E+00  3.03254E+00  3.05615E+00  3.08002E+00  3.10426E+00
   3.12890E+00  3.15386E+00  3.17900E+00  3.20432E+00  3.22989E+00  3.25585E+00  3.28213E+00  3.30867E+00  3.33535E+00  3.36224E+00
   3.38943E+00  3.41703E+00  3.44495E+00  3.47311E+00  3.50146E+00  3.53015E+00  3.55927E+00  3.58889E+00
 NY background values follow
    -1.052E+01   -1.049E+01   -1.047E+01   -1.044E+01   -1.041E+01   -1.038E+01   -1.035E+01   -1.032E+01   -1.030E+01   -1.027E+01
    -1.024E+01   -1.021E+01   -1.018E+01   -1.016E+01   -1.013E+01   -1.010E+01   -1.007E+01   -1.004E+01   -1.001E+01   -9.987E+00
    -9.958E+00   -9.930E+00   -9.902E+00   -9.874E+00   -9.845E+00   -9.817E+00   -9.789E+00   -9.761E+00   -9.732E+00   -9.704E+00
    -9.676E+00   -9.647E+00   -9.619E+00   -9.591E+00   -9.562E+00   -9.534E+00   -9.506E+00   -9.477E+00   -9.449E+00   -9.420E+00
    -9.392E+00   -9.363E+00   -9.335E+00   -9.307E+00   -9.278E+00   -9.250E+00   -9.221E+00   -9.193E+00   -9.164E+00   -9.136E+00
    -9.107E+00   -9.079E+00   -9.050E+00   -9.022E+00   -8.993E+00   -8.965E+00   -8.936E+00   -8.908E+00   -8.879E+00   -8.850E+00
    -8.822E+00   -8.793E+00   -8.765E+00   -8.736E+00   -8.707E+00   -8.679E+00   -8.650E+00   -8.621E+00   -8.593E+00   -8.564E+00
    -8.535E+00   -8.507E+00   -8.478E+00   -8.449E+00   -8.421E+00   -8.392E+00   -8.363E+00   -8.335E+00   -8.306E+00   -8.277E+00
    -8.248E+00   -8.220E+00   -8.191E+00   -8.162E+00   -8.133E+00   -8.105E+00   -8.076E+00   -8.047E+00   -8.018E+00   -7.989E+00
    -7.961E+00   -7.932E+00   -7.903E+00   -7.874E+00   -7.845E+00   -7.816E+00   -7.787E+00   -7.759E+00   -7.730E+00   -7.701E+00
    -7.672E+00   -7.643E+00   -7.614E+00   -7.585E+00   -7.556E+00   -7.527E+00   -7.498E+00   -7.470E+00   -7.441E+00   -7.412E+00
    -7.383E+00   -7.354E+00   -7.325E+00   -7.296E+00   -7.267E+00   -7.238E+00   -7.209E+00   -7.180E+00   -7.151E+00   -7.122E+00
    -7.093E+00   -7.064E+00   -7.035E+00   -7.006E+00   -6.977E+00   -6.948E+00   -6.919E+00   -6.889E+00   -6.860E+00   -6.831E+00
    -6.802E+00   -6.773E+00   -6.744E+00   -6.715E+00   -6.686E+00   -6.657E+00   -6.628E+00   -6.599E+00   -6.569E+00   -6.540E+00
    -6.511E+00   -6.482E+00   -6.453E+00   -6.424E+00   -6.395E+00   -6.365E+00   -6.336E+00   -6.307E+00   -6.278E+00   -6.249E+00
    -6.220E+00   -6.190E+00   -6.161E+00   -6.132E+00   -6.103E+00   -6.073E+00   -6.044E+00   -6.015E+00   -5.986E+00   -5.957E+00
    -5.927E+00   -5.898E+00   -5.869E+00   -5.840E+00   -5.810E+00   -5.781E+00   -5.752E+00   -5.723E+00   -5.693E+00   -5.664E+00
    -5.635E+00   -5.605E+00   -5.576E+00   -5.547E+00   -5.518E+00   -5.488E+00   -5.459E+00   -5.430E+00   -5.400E+00   -5.371E+00
    -5.342E+00   -5.312E+00   -5.283E+00   -5.254E+00   -5.224E+00   -5.195E+00   -5.166E+00   -5.136E+00   -5.107E+00   -5.078E+00
    -5.048E+00   -5.019E+00   -4.989E+00   -4.960E+00   -4.931E+00   -4.901E+00   -4.872E+00   -4.843E+00   -4.813E+00   -4.784E+00
    -4.754E+00   -4.725E+00   -4.696E+00   -4.666E+00   -4.637E+00   -4.607E+00   -4.578E+00   -4.549E+00   -4.519E+00   -4.490E+00
    -4.460E+00   -4.431E+00   -4.401E+00   -4.372E+00   -4.342E+00   -4.313E+00   -4.284E+00   -4.254E+00   -4.225E+00   -4.195E+00
    -4.166E+00   -4.136E+00   -4.107E+00   -4.077E+00   -4.048E+00   -4.018E+00   -3.989E+00   -3.960E+00   -3.930E+00   -3.901E+00
    -3.871E+00   -3.842E+00   -3.812E+00   -3.783E+00   -3.753E+00   -3.724E+00   -3.694E+00   -3.665E+00   -3.635E+00   -3.606E+00
    -3.576E+00   -3.547E+00   -3.517E+00   -3.488E+00   -3.458E+00   -3.429E+00   -3.399E+00   -3.370E+00   -3.340E+00   -3.311E+00
    -3.281E+00   -3.251E+00   -3.222E+00   -3.192E+00   -3.163E+00   -3.133E+00   -3.104E+00   -3.074E+00   -3.045E+00   -3.015E+00
    -2.986E+00   -2.956E+00   -2.927E+00   -2.897E+00   -2.868E+00   -2.838E+00   -2.809E+00   -2.779E+00   -2.749E+00   -2.720E+00
    -2.690E+00   -2.661E+00   -2.631E+00   -2.602E+00   -2.572E+00   -2.543E+00   -2.513E+00   -2.484E+00   -2.454E+00   -2.424E+00
    -2.395E+00   -2.365E+00   -2.336E+00   -2.306E+00   -2.277E+00   -2.247E+00   -2.218E+00   -2.188E+00   -2.159E+00   -2.129E+00
    -2.099E+00   -2.070E+00   -2.040E+00   -2.011E+00   -1.981E+00   -1.952E+00   -1.922E+00   -1.893E+00   -1.863E+00   -1.833E+00
    -1.804E+00   -1.774E+00   -1.745E+00   -1.715E+00   -1.686E+00   -1.656E+00   -1.627E+00   -1.597E+00   -1.568E+00   -1.538E+00
    -1.508E+00   -1.479E+00   -1.449E+00   -1.420E+00   -1.390E+00   -1.361E+00   -1.331E+00   -1.302E+00   -1.272E+00   -1.243E+00
    -1.213E+00   -1.183E+00   -1.154E+00   -1.124E+00   -1.095E+00   -1.065E+00   -1.036E+00   -1.006E+00   -9.767E-01   -9.472E-01
    -9.177E-01   -8.882E-01   -8.586E-01   -8.291E-01   -7.996E-01   -7.701E-01   -7.405E-01   -7.110E-01   -6.815E-01   -6.520E-01
    -6.225E-01   -5.930E-01   -5.635E-01   -5.340E-01   -5.045E-01   -4.749E-01   -4.454E-01   -4.159E-01   -3.864E-01   -3.570E-01
    -3.275E-01   -2.980E-01   -2.685E-01   -2.390E-01   -2.095E-01   -1.800E-01   -1.505E-01   -1.211E-01   -9.158E-02   -6.210E-02
    -3.263E-02   -3.158E-03    2.631E-02    5.578E-02    8.524E-02    1.147E-01    1.442E-01    1.736E-01    2.031E-01    2.325E-01
     2.620E-01    2.914E-01    3.209E-01    3.503E-01    3.797E-01    4.092E-01    4.386E-01    4.680E-01    4.975E-01    5.269E-01
     5.563E-01    5.857E-01    6.151E-01    6.445E-01    6.739E-01    7.033E-01    7.327E-01    7.621E-01    7.915E-01    8.209E-01
     8.503E-01    8.797E-01    9.091E-01    9.385E-01    9.678E-01    9.972E-01    1.027E+00    1.056E+00    1.085E+00    1.115E+00
     1.144E+00    1.173E+00    1.203E+00    1.232E+00    1.261E+00    1.291E+00    1.320E+00    1.349E+00    1.379E+00    1.408E+00
     1.437E+00    1.467E+00    1.496E+00    1.525E+00    1.555E+00    1.584E+00    1.613E+00    1.642E+00    1.672E+00    1.701E+00
     1.730E+00    1.760E+00    1.789E+00    1.818E+00    1.847E+00    1.877E+00    1.906E+00    1.935E+00    1.964E+00    1.993E+00
     2.023E+00    2.052E+00    2.081E+00    2.110E+00    2.140E+00    2.169E+00    2.198E+00    2.227E+00    2.256E+00    2.286E+00
     2.315E+00    2.344E+00    2.373E+00    2.402E+00    2.431E+00    2.461E+00    2.490E+00    2.519E+00    2.548E+00    2.577E+00
     2.606E+00    2.635E+00    2.664E+00    2.694E+00    2.723E+00    2.752E+00    2.781E+00    2.810E+00    2.839E+00    2.868E+00
     2.897E+00    2.926E+00    2.955E+00    2.984E+00    3.013E+00    3.042E+00    3.071E+00    3.100E+00    3.129E+00    3.159E+00
     3.188E+00    3.217E+00    3.246E+00    3.275E+00    3.303E+00    3.332E+00    3.361E+00    3.390E+00    3.419E+00    3.448E+00
     3.477E+00    3.506E+00    3.535E+00    3.564E+00    3.593E+00    3.622E+00    3.651E+00    3.680E+00    3.709E+00    3.737E+00
     3.766E+00    3.795E+00    3.824E+00    3.853E+00    3.882E+00    3.911E+00    3.940E+00    3.968E+00
 Ala      Conc. = 6.38E+01
