 LCModel (Version 6.3-1L) Copyright: S.W. Provencher.          Ref.: Magn. Reson. Med. 30:672-679 (1993).                
 Slice#1 Row#9 Col#11  PD_05_press_1_raw_act
 36 lines in following concentration table = NCONC+1
    Conc.  %SD /Cr+PCr  Metabolite                                         
   14.376 429% 3.1E-02 Ala                                                 
    0.000 999%   0.000 Asp                                                 
  156.498  76%   0.340 Cr                                                  
  303.908  40%   0.660 PCr                                                 
   22.655 360% 4.9E-02 GABA                                                
   93.838  87%   0.204 Glc                                                 
  416.770  31%   0.905 Gln                                                 
  786.019  20%   1.707 Glu                                                 
  187.070   7%   0.406 GPC                                                 
    0.000 999%   0.000 PCh                                                 
  134.883  32%   0.293 GSH                                                 
  591.547  23%   1.285 Ins                                                 
   74.496  91%   0.162 Lac                                                 
 1.46E+03   7%   3.164 NAA                                                 
  455.869  21%   0.990 NAAG                                                
   47.104  33%   0.102 Scyllo                                              
  204.474  53%   0.444 Tau                                                 
  302.179  19%   0.656 -CrCH2                                              
  187.070   7%   0.406 GPC+PCh                                             
 1.91E+03   3%   4.154 NAA+NAAG                                            
  460.406   7%   1.000 Cr+PCr                                              
 1.20E+03  18%   2.612 Glu+Gln                                             
  544.804  51%   1.183 Lip13a                                              
    0.000 999%   0.000 Lip13b                                              
  115.467 108%   0.251 Lip09                                               
  964.477  15%   2.095 MM09                                                
   86.803  95%   0.189 Lip20                                               
 1.69E+03  13%   3.678 MM20                                                
  291.461  42%   0.633 MM12                                                
  715.903  29%   1.555 MM14                                                
  370.809  32%   0.805 MM17                                                
  544.804  51%   1.183 Lip13a+Lip13b                                       
 1.55E+03  12%   3.371 MM14+Lip13a+Lip13b+MM12                             
 1.08E+03   9%   2.346 MM09+Lip09                                          
 1.78E+03  12%   3.866 MM20+Lip20                                          
   6 lines in following misc. output table
  FWHM = 0.046 ppm    S/N =  13                                            
  Data shift = 0.000 ppm                                                   
  Ph: -28 deg     -10.1 deg/ppm                                            
  alphaB,S = 8.5E+01,   1.1E+02                                            
   14 spline knots.   Ns = 7(1)                                            
   2 inflections.     1 extrema                                            
  498 points on ppm-axis = NY
      4.000000     3.992357     3.984714     3.977070     3.969427     3.961784     3.954141     3.946497     3.938854     3.931211
      3.923568     3.915925     3.908281     3.900638     3.892995     3.885352     3.877708     3.870065     3.862422     3.854779
      3.847136     3.839492     3.831849     3.824206     3.816563     3.808919     3.801276     3.793633     3.785990     3.778347
      3.770703     3.763060     3.755417     3.747774     3.740130     3.732487     3.724844     3.717201     3.709558     3.701914
      3.694271     3.686628     3.678985     3.671341     3.663698     3.656055     3.648412     3.640769     3.633125     3.625482
      3.617839     3.610196     3.602552     3.594909     3.587266     3.579623     3.571980     3.564336     3.556693     3.549050
      3.541407     3.533763     3.526120     3.518477     3.510834     3.503191     3.495547     3.487904     3.480261     3.472618
      3.464974     3.457331     3.449688     3.442045     3.434402     3.426758     3.419115     3.411472     3.403829     3.396185
      3.388542     3.380899     3.373256     3.365613     3.357969     3.350326     3.342683     3.335040     3.327396     3.319753
      3.312110     3.304467     3.296824     3.289180     3.281537     3.273894     3.266251     3.258607     3.250964     3.243321
      3.235678     3.228034     3.220391     3.212748     3.205105     3.197462     3.189818     3.182175     3.174532     3.166889
      3.159245     3.151602     3.143959     3.136316     3.128673     3.121029     3.113386     3.105743     3.098100     3.090456
      3.082813     3.075170     3.067527     3.059884     3.052240     3.044597     3.036954     3.029311     3.021667     3.014024
      3.006381     2.998738     2.991095     2.983451     2.975808     2.968165     2.960522     2.952878     2.945235     2.937592
      2.929949     2.922306     2.914662     2.907019     2.899376     2.891733     2.884089     2.876446     2.868803     2.861160
      2.853517     2.845873     2.838230     2.830587     2.822944     2.815300     2.807657     2.800014     2.792371     2.784728
      2.777084     2.769441     2.761798     2.754155     2.746511     2.738868     2.731225     2.723582     2.715939     2.708295
      2.700652     2.693009     2.685366     2.677722     2.670079     2.662436     2.654793     2.647150     2.639506     2.631863
      2.624220     2.616577     2.608933     2.601290     2.593647     2.586004     2.578361     2.570717     2.563074     2.555431
      2.547788     2.540144     2.532501     2.524858     2.517215     2.509572     2.501928     2.494285     2.486642     2.478999
      2.471355     2.463712     2.456069     2.448426     2.440783     2.433139     2.425496     2.417853     2.410210     2.402566
      2.394923     2.387280     2.379637     2.371994     2.364350     2.356707     2.349064     2.341421     2.333777     2.326134
      2.318491     2.310848     2.303205     2.295561     2.287918     2.280275     2.272632     2.264988     2.257345     2.249702
      2.242059     2.234416     2.226772     2.219129     2.211486     2.203843     2.196199     2.188556     2.180913     2.173270
      2.165627     2.157983     2.150340     2.142697     2.135054     2.127410     2.119767     2.112124     2.104481     2.096838
      2.089194     2.081551     2.073908     2.066265     2.058621     2.050978     2.043335     2.035692     2.028049     2.020405
      2.012762     2.005119     1.997476     1.989833     1.982190     1.974546     1.966903     1.959260     1.951617     1.943974
      1.936331     1.928688     1.921045     1.913402     1.905759     1.898115     1.890472     1.882829     1.875186     1.867543
      1.859900     1.852257     1.844614     1.836971     1.829327     1.821684     1.814041     1.806398     1.798755     1.791112
      1.783469     1.775826     1.768183     1.760540     1.752896     1.745253     1.737610     1.729967     1.722324     1.714681
      1.707038     1.699395     1.691752     1.684108     1.676465     1.668822     1.661179     1.653536     1.645893     1.638250
      1.630607     1.622964     1.615321     1.607677     1.600034     1.592391     1.584748     1.577105     1.569462     1.561819
      1.554176     1.546533     1.538890     1.531246     1.523603     1.515960     1.508317     1.500674     1.493031     1.485388
      1.477745     1.470102     1.462458     1.454815     1.447172     1.439529     1.431886     1.424243     1.416600     1.408957
      1.401314     1.393671     1.386027     1.378384     1.370741     1.363098     1.355455     1.347812     1.340169     1.332526
      1.324883     1.317240     1.309596     1.301953     1.294310     1.286667     1.279024     1.271381     1.263738     1.256095
      1.248452     1.240808     1.233165     1.225522     1.217879     1.210236     1.202593     1.194950     1.187307     1.179664
      1.172021     1.164377     1.156734     1.149091     1.141448     1.133805     1.126162     1.118519     1.110876     1.103233
      1.095590     1.087946     1.080303     1.072660     1.065017     1.057374     1.049731     1.042088     1.034445     1.026802
      1.019158     1.011515     1.003872     0.996229     0.988586     0.980943     0.973300     0.965657     0.958014     0.950371
      0.942727     0.935084     0.927441     0.919798     0.912155     0.904512     0.896869     0.889226     0.881583     0.873940
      0.866296     0.858653     0.851010     0.843367     0.835724     0.828081     0.820438     0.812795     0.805152     0.797508
      0.789865     0.782222     0.774579     0.766936     0.759293     0.751650     0.744007     0.736364     0.728721     0.721077
      0.713434     0.705791     0.698148     0.690505     0.682862     0.675219     0.667576     0.659933     0.652290     0.644646
      0.637003     0.629360     0.621717     0.614074     0.606431     0.598788     0.591145     0.583502     0.575858     0.568215
      0.560572     0.552929     0.545286     0.537643     0.530000     0.522357     0.514714     0.507071     0.499427     0.491784
      0.484141     0.476498     0.468855     0.461212     0.453569     0.445925     0.438282     0.430639     0.422996     0.415353
      0.407710     0.400067     0.392424     0.384780     0.377137     0.369494     0.361851     0.354208     0.346565     0.338922
      0.331278     0.323635     0.315992     0.308349     0.300706     0.293063     0.285420     0.277777     0.270133     0.262490
      0.254847     0.247204     0.239561     0.231918     0.224275     0.216631     0.208988     0.201345
 NY phased data points follow
   4.71310E+00  8.66256E-01  2.20065E+00  3.81395E+00  4.97320E+00  2.51654E+00  1.74066E+00  9.91905E-01  4.64356E+00  3.55393E+00
   3.86303E+00  4.03098E+00  4.32386E+00  1.52604E+00  6.10070E+00  5.57121E+00  3.23840E+00  3.45229E+00 -9.09751E-01  7.48710E-01
   1.84190E+00  2.05728E+00  2.46132E+00  2.10776E+00  1.29377E+00  7.64919E-01  4.31667E+00  2.17598E+00  2.18090E+00  2.01844E+00
   3.44220E+00  3.92142E+00  3.03462E+00  4.35427E+00  3.37003E+00  5.27138E+00  8.03971E-01  3.14890E+00  4.58071E+00  5.29937E+00
   4.92553E+00  5.31989E+00  2.90571E+00  3.83604E+00  1.94824E+00  6.50095E+00  4.06033E+00  5.17063E+00  4.95447E+00  7.47016E+00
   5.72257E+00  5.83938E+00  3.18055E+00  2.60866E+00  2.99204E+00  9.25426E-01  2.98698E+00  4.30260E+00  1.74450E+00  3.44886E+00
   1.40343E+00  4.36842E+00  1.14332E+00  2.62187E+00  3.05450E+00  6.09865E-01  2.42145E+00  2.32372E+00  2.98042E+00 -1.10124E+00
   2.10174E+00  2.52373E+00  3.78118E+00  1.94707E+00  4.70914E-01  3.31387E+00  4.70030E+00  3.41377E+00 -5.39122E-01  3.23617E+00
   4.64624E+00  2.62971E+00  3.77384E+00  4.51022E+00  6.96270E-01  5.24976E+00  4.03834E+00  2.69653E+00  2.00373E-01  1.53417E+00
   2.79660E+00  3.38969E+00  3.80408E+00  6.57545E+00  2.12157E+00  5.35585E+00  3.45262E+00  6.26410E+00  6.74162E+00  6.47651E+00
   7.58952E+00  1.11026E+01  1.39794E+01  1.92078E+01  2.13655E+01  2.04654E+01  1.44829E+01  1.20758E+01  8.83296E+00  3.52702E+00
   2.54541E+00 -2.69558E-01  1.45324E+00  3.02384E+00  2.51883E+00  5.81839E+00  3.47796E+00  6.52211E+00  3.06939E+00  5.39016E+00
   5.69957E+00  4.96061E+00  5.44433E+00  4.47669E+00  6.52437E+00  1.05710E+01  1.19983E+01  1.64461E+01  2.04982E+01  1.81817E+01
   1.81183E+01  1.43005E+01  7.50738E+00  4.68581E+00  3.12938E+00  2.27614E+00  2.84139E+00  3.55556E+00  4.71500E+00  2.57982E+00
   2.51301E+00  3.20945E+00  3.23883E+00  3.78064E+00  3.90025E+00  2.21092E+00  3.15517E+00  3.83135E+00  1.76705E+00  1.29793E+00
   2.85659E+00  3.90298E+00  1.31936E+00  1.08452E+00 -6.58899E-02  5.13145E+00  8.37747E-01  1.48847E+00  5.24176E-01  3.93354E+00
   5.31349E+00  3.09656E+00  1.25734E+00  1.93794E+00  4.38495E-02  5.17565E-01 -1.32879E-01 -2.06821E+00 -4.53644E+00 -9.91783E-01
  -6.10299E+00 -5.63884E+00 -4.21958E+00 -8.07317E+00 -5.69387E+00 -8.29295E+00 -9.74973E+00 -7.76963E+00 -5.17643E+00 -5.05458E+00
  -4.03635E+00 -5.23685E+00 -3.58715E+00 -4.24621E+00 -2.46378E+00 -1.58215E+00  4.38478E-01 -1.52894E+00 -3.54681E+00 -2.39128E-01
  -2.02057E+00 -1.08080E+00 -9.52251E-01 -9.25668E-01 -1.04034E+00 -1.78997E+00 -3.65052E+00 -4.98226E+00 -6.81675E+00 -6.14985E+00
  -3.72299E+00 -2.56266E+00  2.13302E-02  5.61876E-01  5.38044E+00  4.37862E+00  3.45580E+00  5.92185E+00  5.15368E-01 -1.22856E+00
  -1.93622E-01 -1.14506E+00  4.16015E-01  2.39649E+00  4.46938E+00  7.47504E+00  8.14747E+00  9.70130E+00  1.00976E+01  7.33514E+00
   3.92872E+00  7.59250E-01 -5.97729E-02 -1.22003E+00 -8.54135E-01 -1.06924E+00  2.91118E+00  6.65682E+00  4.18979E+00  6.85574E+00
   4.60192E+00  4.29074E+00  4.77236E+00  5.20366E+00  4.38828E+00  7.16242E+00  7.96456E+00  6.92268E+00  7.21955E+00  4.46043E+00
   5.44322E+00  4.91789E+00  4.13504E+00  1.94596E+00  2.44591E+00  3.83657E+00  3.96061E+00  5.84851E+00  9.34358E+00  1.38527E+01
   1.10359E+01  1.28965E+01  1.75651E+01  1.90063E+01  2.21573E+01  3.02652E+01  4.06745E+01  4.97665E+01  5.37799E+01  5.50691E+01
   5.79208E+01  6.23079E+01  6.14071E+01  5.57372E+01  3.57514E+01  1.96725E+01  1.12435E+01  7.33155E-01  4.01413E+00  5.89212E+00
   3.99943E+00  6.92557E+00  4.07546E+00  6.68204E+00  1.79190E+00  3.11888E+00  4.29658E+00  7.13788E-01  1.28202E+00  1.75564E+00
   2.04472E+00  4.63999E+00  2.01392E+00  3.67194E+00  2.81737E+00  3.67021E+00  3.98535E+00  1.31085E+00  1.29477E+00  1.90454E+00
   2.47241E+00  3.95845E+00  4.32663E+00  2.76475E+00  2.15596E+00  5.64729E+00  1.98312E+00  5.32144E+00 -1.35921E-01  2.38717E+00
   1.63526E+00  2.84782E+00  3.97227E+00  5.28620E+00  4.67352E+00  2.90184E+00  3.68257E+00  3.52457E+00  1.60907E+00  5.12193E+00
   3.74504E+00  6.36598E+00  3.72893E+00  4.23472E+00  4.07054E+00  2.17714E+00  1.52563E+00  3.88024E+00  2.62796E+00 -6.02791E-02
   2.41722E+00  2.16504E+00  1.81566E+00  3.77656E+00  6.53623E+00  3.27325E+00  5.13839E+00  6.34942E-01  2.09872E+00  3.92291E+00
   5.31188E+00  3.22989E+00  4.04885E+00  4.15770E+00  4.79687E+00  7.42644E+00  7.33544E+00  5.51859E+00  1.70507E+00  8.23428E+00
   4.35320E+00  5.42642E+00  6.96835E+00  8.23188E+00  8.50362E+00  7.85591E+00  6.58423E+00  6.38098E+00  4.63064E+00  6.99463E+00
   6.03697E+00  4.08766E+00  4.99021E+00  4.14159E+00  6.36743E+00  5.28713E+00  6.06982E+00  4.79157E+00  3.97928E+00  8.71060E+00
   4.88607E+00  3.41831E+00  4.34361E+00  2.86542E+00  3.41378E+00  7.74970E+00  3.51617E+00  5.85256E+00  3.86456E+00  6.14624E+00
   3.75877E+00  3.22477E+00  5.95596E+00  2.55398E+00  1.38182E+00  3.43070E+00  3.49764E+00  4.38060E+00  2.30502E+00  4.57275E+00
   1.50052E+00 -3.28829E-02  2.63239E+00  3.37692E+00  3.33694E+00  3.71679E+00  1.42747E+00  4.73567E+00  1.17987E+00  3.00008E+00
   5.03077E+00  1.95837E+00  5.04902E+00  4.47738E+00  4.09450E+00  5.39525E+00  7.82814E+00  8.37056E+00  9.06515E+00  8.04776E+00
   1.02436E+01  1.02791E+01  1.01424E+01  1.04513E+01  9.03363E+00  7.74084E+00  1.20970E+01  9.88762E+00  9.10419E+00  1.03537E+01
   7.43677E+00  7.49548E+00  1.00679E+01  6.14476E+00  5.00258E+00  4.68166E+00  4.56095E+00  4.33387E+00  6.08892E+00  2.27288E+00
   6.40585E+00  4.92368E+00  1.07878E-01  3.13298E-02 -3.02528E-01  9.00652E-01 -2.68634E-01  2.98380E+00  1.78892E+00 -7.64104E-02
   7.29253E-01  1.71460E+00  1.84480E+00  3.65584E+00 -9.73650E-01  1.06253E-01  3.16166E+00  1.32144E+00  1.04858E+00 -7.35026E-01
   2.03410E+00 -2.76116E+00  3.73573E+00 -5.34884E-01  1.30195E+00 -1.48400E+00  3.60990E+00  1.61272E+00  1.20139E-01  1.29766E+00
   1.33983E+00 -5.57585E-01 -9.50255E-01  2.08429E+00 -4.75424E-01  2.37180E+00  3.60267E+00  1.62173E+00  1.65148E+00  1.11943E+00
   1.36318E+00 -2.62042E+00 -1.06681E+00  9.05320E-02 -1.92299E+00 -1.27340E+00  2.07744E+00  2.31318E+00  1.11623E+00 -6.56298E-01
  -7.62513E-02 -4.09751E-01 -1.62333E+00 -2.74597E-01 -1.73698E+00  2.39847E+00  2.59387E+00  1.73047E+00  1.47797E+00 -1.68336E-01
  -3.02146E+00  4.13784E-01  1.04325E+00  1.72522E+00  3.35847E+00 -1.93099E+00 -1.46784E-01  1.01696E+00 -2.37391E+00  2.02397E+00
   3.99803E+00  9.82909E-01  5.72097E-01 -1.74464E+00  6.95719E-01 -1.01621E+00  5.84400E-01 -1.49577E+00
 NY points of the fit to the data follow
   1.74300E+00  1.46023E+00  1.34026E+00  1.36009E+00  1.55165E+00  1.90047E+00  2.34782E+00  2.87426E+00  3.43385E+00  3.91010E+00
   4.26850E+00  4.56809E+00  4.85844E+00  5.04367E+00  4.94048E+00  4.44311E+00  3.69924E+00  2.95031E+00  2.42870E+00  2.22345E+00
   2.20347E+00  2.17027E+00  2.11824E+00  2.14507E+00  2.21918E+00  2.34479E+00  2.52979E+00  2.77784E+00  3.13276E+00  3.65423E+00
   4.39196E+00  5.26555E+00  6.02917E+00  6.38870E+00  6.17677E+00  5.42405E+00  4.29286E+00  3.07580E+00  2.04689E+00  1.35685E+00
   1.17691E+00  1.52060E+00  2.24058E+00  3.12207E+00  3.94210E+00  4.62145E+00  5.19869E+00  5.73886E+00  6.20131E+00  6.35145E+00
   5.90849E+00  4.83245E+00  3.42760E+00  2.18743E+00  1.47416E+00  1.34883E+00  1.59541E+00  1.94713E+00  2.27480E+00  2.56760E+00
   2.84237E+00  3.05195E+00  3.11478E+00  2.94882E+00  2.56495E+00  2.11575E+00  1.78525E+00  1.69835E+00  1.85731E+00  2.16303E+00
   2.48247E+00  2.74441E+00  2.95126E+00  3.10486E+00  3.21059E+00  3.27139E+00  3.25715E+00  3.12643E+00  2.83993E+00  2.47678E+00
   2.17478E+00  2.01688E+00  2.08754E+00  2.37525E+00  2.74984E+00  3.09807E+00  3.36429E+00  3.43642E+00  3.16807E+00  2.53327E+00
   1.70658E+00  9.92436E-01  6.40338E-01  6.52617E-01  8.75000E-01  1.24030E+00  2.08077E+00  3.45928E+00  5.32879E+00  7.57699E+00
   9.94913E+00  1.24313E+01  1.52147E+01  1.80857E+01  2.00125E+01  1.97030E+01  1.66848E+01  1.18896E+01  7.08944E+00  3.72288E+00
   2.23150E+00  2.00291E+00  1.95326E+00  1.82358E+00  1.71578E+00  1.63854E+00  1.59073E+00  1.56009E+00  1.56429E+00  1.70057E+00
   2.28355E+00  3.38748E+00  4.88629E+00  6.71722E+00  8.74606E+00  1.09498E+01  1.34702E+01  1.61700E+01  1.82276E+01  1.85048E+01
   1.64014E+01  1.24733E+01  8.19195E+00  4.91625E+00  3.18622E+00  2.63797E+00  2.36194E+00  1.99021E+00  1.70864E+00  1.63859E+00
   1.79006E+00  2.07521E+00  2.34230E+00  2.46389E+00  2.41125E+00  2.22202E+00  1.97367E+00  1.73841E+00  1.54830E+00  1.40665E+00
   1.29253E+00  1.18887E+00  1.09930E+00  9.99705E-01  8.47607E-01  6.74264E-01  5.28363E-01  4.56473E-01  4.79732E-01  4.79769E-01
   3.22643E-01 -2.98192E-02 -4.59358E-01 -7.32166E-01 -6.85506E-01 -4.21738E-01 -2.39973E-01 -3.95963E-01 -9.43025E-01 -1.68588E+00
  -2.29144E+00 -2.58668E+00 -2.61070E+00 -2.52551E+00 -2.56804E+00 -2.79712E+00 -3.11958E+00 -3.31679E+00 -3.19657E+00 -2.78583E+00
  -2.38038E+00 -2.21407E+00 -2.27396E+00 -2.32620E+00 -2.09911E+00 -1.52819E+00 -8.35258E-01 -2.30811E-01  3.31702E-01  9.85403E-01
   1.78589E+00  2.51162E+00  2.89861E+00  2.80567E+00  2.31464E+00  1.69383E+00  1.25572E+00  1.12826E+00  1.28900E+00  1.70233E+00
   2.30747E+00  2.99470E+00  3.64565E+00  4.07830E+00  4.15666E+00  3.76123E+00  2.80218E+00  1.43225E+00 -1.34994E-01 -1.57734E+00
  -2.46871E+00 -2.54056E+00 -1.72533E+00 -2.39406E-01  1.57760E+00  3.36471E+00  4.78541E+00  5.53190E+00  5.34217E+00  4.18509E+00
   2.31503E+00  3.00794E-01 -1.23638E+00 -1.94986E+00 -1.68571E+00 -5.03807E-01  1.28447E+00  3.23900E+00  4.79437E+00  5.58598E+00
   5.64188E+00  5.26149E+00  4.83749E+00  4.63029E+00  4.69521E+00  4.97769E+00  5.36446E+00  5.74887E+00  6.05959E+00  6.25202E+00
   6.29070E+00  6.13298E+00  5.77484E+00  5.34191E+00  5.09850E+00  5.29526E+00  5.95060E+00  6.89355E+00  8.02376E+00  9.45102E+00
   1.10144E+01  1.27757E+01  1.50174E+01  1.88972E+01  2.47566E+01  3.20481E+01  4.01397E+01  4.74103E+01  5.27409E+01  5.67178E+01
   6.03277E+01  6.25418E+01  6.03663E+01  5.16978E+01  3.77381E+01  2.27861E+01  1.15384E+01  6.01152E+00  5.03338E+00  5.16488E+00
   4.83876E+00  4.52667E+00  4.30302E+00  4.14351E+00  4.01856E+00  3.91254E+00  3.78143E+00  3.58585E+00  3.33376E+00  3.07514E+00
   2.85821E+00  2.71109E+00  2.63578E+00  2.60614E+00  2.59320E+00  2.58581E+00  2.57503E+00  2.55401E+00  2.52777E+00  2.51102E+00
   2.52392E+00  2.57843E+00  2.67089E+00  2.79314E+00  2.92592E+00  3.04395E+00  3.13418E+00  3.19770E+00  3.24385E+00  3.28702E+00
   3.33760E+00  3.39726E+00  3.46477E+00  3.53181E+00  3.58533E+00  3.61515E+00  3.61743E+00  3.59584E+00  3.55805E+00  3.50768E+00
   3.44862E+00  3.38532E+00  3.32160E+00  3.26058E+00  3.20522E+00  3.15865E+00  3.12441E+00  3.10606E+00  3.10672E+00  3.12932E+00
   3.17689E+00  3.24601E+00  3.33237E+00  3.43394E+00  3.54724E+00  3.67011E+00  3.79976E+00  3.92729E+00  4.04368E+00  4.14679E+00
   4.24535E+00  4.36134E+00  4.51300E+00  4.70252E+00  4.92130E+00  5.15611E+00  5.38927E+00  5.60524E+00  5.78896E+00  5.93491E+00
   6.06318E+00  6.17859E+00  6.27530E+00  6.35595E+00  6.40392E+00  6.40854E+00  6.36786E+00  6.25373E+00  6.03576E+00  5.69702E+00
   5.28877E+00  4.93854E+00  4.76325E+00  4.80414E+00  5.03706E+00  5.39140E+00  5.75119E+00  6.01226E+00  6.09620E+00  5.96750E+00
   5.68454E+00  5.35324E+00  5.06495E+00  4.85302E+00  4.67578E+00  4.50124E+00  4.32870E+00  4.15883E+00  3.99238E+00  3.83029E+00
   3.67376E+00  3.52426E+00  3.38350E+00  3.25326E+00  3.13521E+00  3.03087E+00  2.94180E+00  2.86977E+00  2.81668E+00  2.78446E+00
   2.77497E+00  2.79014E+00  2.83211E+00  2.90331E+00  3.00625E+00  3.14334E+00  3.31672E+00  3.52828E+00  3.77957E+00  4.07157E+00
   4.40428E+00  4.77632E+00  5.18481E+00  5.62524E+00  6.09150E+00  6.57561E+00  7.06775E+00  7.55635E+00  8.02858E+00  8.47097E+00
   8.86993E+00  9.21234E+00  9.48607E+00  9.68072E+00  9.78840E+00  9.80421E+00  9.72655E+00  9.55704E+00  9.30041E+00  8.96429E+00
   8.55891E+00  8.09647E+00  7.59040E+00  7.05449E+00  6.50223E+00  5.94639E+00  5.39853E+00  4.86867E+00  4.36484E+00  3.89302E+00
   3.45719E+00  3.05964E+00  2.70120E+00  2.38143E+00  2.09873E+00  1.85068E+00  1.63435E+00  1.44667E+00  1.28460E+00  1.14507E+00
   1.02509E+00  9.21839E-01  8.32840E-01  7.56011E-01  6.89591E-01  6.31989E-01  5.81753E-01  5.37637E-01  4.98697E-01  4.64230E-01
   4.33656E-01  4.06383E-01  3.81851E-01  3.59619E-01  3.39432E-01  3.21122E-01  3.04501E-01  2.89294E-01  2.75246E-01  2.62208E-01
   2.50157E-01  2.39072E-01  2.28849E-01  2.19306E-01  2.10317E-01  2.01861E-01  1.93991E-01  1.86701E-01  1.79890E-01  1.73418E-01
   1.67235E-01  1.61387E-01  1.55941E-01  1.50866E-01  1.46055E-01  1.41412E-01  1.36952E-01  1.32750E-01  1.28850E-01  1.25185E-01
   1.21650E-01  1.18198E-01  1.14894E-01  1.11817E-01  1.08973E-01  1.06270E-01  1.03626E-01  1.01045E-01  9.86146E-02  9.63905E-02
   9.43371E-02  9.23527E-02  9.03948E-02  8.85132E-02  8.68032E-02  8.52833E-02  8.38858E-02  8.25223E-02  8.11971E-02  7.99916E-02
   7.89852E-02  7.81556E-02  7.74206E-02  7.67255E-02  7.61249E-02  7.57169E-02  7.55537E-02  7.55829E-02
 NY background values follow
     4.765E-01    4.760E-01    4.756E-01    4.751E-01    4.746E-01    4.742E-01    4.737E-01    4.733E-01    4.728E-01    4.724E-01
     4.719E-01    4.714E-01    4.710E-01    4.705E-01    4.701E-01    4.696E-01    4.691E-01    4.687E-01    4.682E-01    4.678E-01
     4.673E-01    4.668E-01    4.664E-01    4.659E-01    4.655E-01    4.650E-01    4.645E-01    4.641E-01    4.636E-01    4.632E-01
     4.627E-01    4.622E-01    4.618E-01    4.613E-01    4.608E-01    4.604E-01    4.599E-01    4.595E-01    4.590E-01    4.585E-01
     4.581E-01    4.576E-01    4.571E-01    4.567E-01    4.562E-01    4.557E-01    4.553E-01    4.548E-01    4.544E-01    4.539E-01
     4.534E-01    4.530E-01    4.525E-01    4.520E-01    4.516E-01    4.511E-01    4.506E-01    4.502E-01    4.497E-01    4.492E-01
     4.488E-01    4.483E-01    4.478E-01    4.474E-01    4.469E-01    4.464E-01    4.459E-01    4.455E-01    4.450E-01    4.445E-01
     4.441E-01    4.436E-01    4.431E-01    4.427E-01    4.422E-01    4.417E-01    4.413E-01    4.408E-01    4.403E-01    4.398E-01
     4.394E-01    4.389E-01    4.384E-01    4.380E-01    4.375E-01    4.370E-01    4.365E-01    4.361E-01    4.356E-01    4.351E-01
     4.347E-01    4.342E-01    4.337E-01    4.332E-01    4.328E-01    4.323E-01    4.318E-01    4.313E-01    4.309E-01    4.304E-01
     4.299E-01    4.294E-01    4.290E-01    4.285E-01    4.280E-01    4.275E-01    4.271E-01    4.266E-01    4.261E-01    4.256E-01
     4.252E-01    4.247E-01    4.242E-01    4.237E-01    4.233E-01    4.228E-01    4.223E-01    4.218E-01    4.214E-01    4.209E-01
     4.204E-01    4.199E-01    4.194E-01    4.190E-01    4.185E-01    4.180E-01    4.175E-01    4.171E-01    4.166E-01    4.161E-01
     4.156E-01    4.151E-01    4.147E-01    4.142E-01    4.137E-01    4.132E-01    4.127E-01    4.123E-01    4.118E-01    4.113E-01
     4.108E-01    4.103E-01    4.099E-01    4.094E-01    4.089E-01    4.084E-01    4.079E-01    4.075E-01    4.070E-01    4.065E-01
     4.060E-01    4.055E-01    4.050E-01    4.046E-01    4.041E-01    4.036E-01    4.031E-01    4.026E-01    4.022E-01    4.017E-01
     4.012E-01    4.007E-01    4.002E-01    3.997E-01    3.993E-01    3.988E-01    3.983E-01    3.978E-01    3.973E-01    3.968E-01
     3.964E-01    3.959E-01    3.954E-01    3.949E-01    3.944E-01    3.939E-01    3.935E-01    3.930E-01    3.925E-01    3.920E-01
     3.915E-01    3.910E-01    3.905E-01    3.901E-01    3.896E-01    3.891E-01    3.886E-01    3.881E-01    3.876E-01    3.872E-01
     3.867E-01    3.862E-01    3.857E-01    3.852E-01    3.847E-01    3.842E-01    3.838E-01    3.833E-01    3.828E-01    3.823E-01
     3.818E-01    3.813E-01    3.808E-01    3.804E-01    3.799E-01    3.794E-01    3.789E-01    3.784E-01    3.779E-01    3.774E-01
     3.769E-01    3.765E-01    3.760E-01    3.755E-01    3.750E-01    3.745E-01    3.740E-01    3.735E-01    3.730E-01    3.726E-01
     3.721E-01    3.716E-01    3.711E-01    3.706E-01    3.701E-01    3.696E-01    3.691E-01    3.687E-01    3.682E-01    3.677E-01
     3.672E-01    3.667E-01    3.662E-01    3.657E-01    3.652E-01    3.648E-01    3.643E-01    3.638E-01    3.633E-01    3.628E-01
     3.623E-01    3.618E-01    3.613E-01    3.608E-01    3.604E-01    3.599E-01    3.594E-01    3.589E-01    3.584E-01    3.579E-01
     3.574E-01    3.569E-01    3.564E-01    3.560E-01    3.555E-01    3.550E-01    3.545E-01    3.540E-01    3.535E-01    3.530E-01
     3.525E-01    3.520E-01    3.515E-01    3.511E-01    3.506E-01    3.501E-01    3.496E-01    3.491E-01    3.486E-01    3.481E-01
     3.476E-01    3.471E-01    3.466E-01    3.462E-01    3.457E-01    3.452E-01    3.447E-01    3.442E-01    3.437E-01    3.432E-01
     3.427E-01    3.422E-01    3.417E-01    3.412E-01    3.408E-01    3.403E-01    3.398E-01    3.393E-01    3.388E-01    3.383E-01
     3.378E-01    3.373E-01    3.368E-01    3.363E-01    3.358E-01    3.354E-01    3.349E-01    3.344E-01    3.339E-01    3.334E-01
     3.329E-01    3.324E-01    3.319E-01    3.314E-01    3.309E-01    3.304E-01    3.299E-01    3.294E-01    3.290E-01    3.285E-01
     3.280E-01    3.275E-01    3.270E-01    3.265E-01    3.260E-01    3.255E-01    3.250E-01    3.245E-01    3.240E-01    3.235E-01
     3.230E-01    3.226E-01    3.221E-01    3.216E-01    3.211E-01    3.206E-01    3.201E-01    3.196E-01    3.191E-01    3.186E-01
     3.181E-01    3.176E-01    3.171E-01    3.166E-01    3.161E-01    3.157E-01    3.152E-01    3.147E-01    3.142E-01    3.137E-01
     3.132E-01    3.127E-01    3.122E-01    3.117E-01    3.112E-01    3.107E-01    3.102E-01    3.097E-01    3.092E-01    3.087E-01
     3.083E-01    3.078E-01    3.073E-01    3.068E-01    3.063E-01    3.058E-01    3.053E-01    3.048E-01    3.043E-01    3.038E-01
     3.033E-01    3.028E-01    3.023E-01    3.018E-01    3.013E-01    3.008E-01    3.004E-01    2.999E-01    2.994E-01    2.989E-01
     2.984E-01    2.979E-01    2.974E-01    2.969E-01    2.964E-01    2.959E-01    2.954E-01    2.949E-01    2.944E-01    2.939E-01
     2.934E-01    2.929E-01    2.924E-01    2.919E-01    2.915E-01    2.910E-01    2.905E-01    2.900E-01    2.895E-01    2.890E-01
     2.885E-01    2.880E-01    2.875E-01    2.870E-01    2.865E-01    2.860E-01    2.855E-01    2.850E-01    2.845E-01    2.840E-01
     2.835E-01    2.830E-01    2.825E-01    2.820E-01    2.816E-01    2.811E-01    2.806E-01    2.801E-01    2.796E-01    2.791E-01
     2.786E-01    2.781E-01    2.776E-01    2.771E-01    2.766E-01    2.761E-01    2.756E-01    2.751E-01    2.746E-01    2.741E-01
     2.736E-01    2.731E-01    2.726E-01    2.721E-01    2.716E-01    2.711E-01    2.707E-01    2.702E-01    2.697E-01    2.692E-01
     2.687E-01    2.682E-01    2.677E-01    2.672E-01    2.667E-01    2.662E-01    2.657E-01    2.652E-01    2.647E-01    2.642E-01
     2.637E-01    2.632E-01    2.627E-01    2.622E-01    2.617E-01    2.612E-01    2.607E-01    2.602E-01    2.597E-01    2.592E-01
     2.587E-01    2.583E-01    2.578E-01    2.573E-01    2.568E-01    2.563E-01    2.558E-01    2.553E-01    2.548E-01    2.543E-01
     2.538E-01    2.533E-01    2.528E-01    2.523E-01    2.518E-01    2.513E-01    2.508E-01    2.503E-01    2.498E-01    2.493E-01
     2.488E-01    2.483E-01    2.478E-01    2.473E-01    2.468E-01    2.463E-01    2.458E-01    2.453E-01    2.449E-01    2.444E-01
     2.439E-01    2.434E-01    2.429E-01    2.424E-01    2.419E-01    2.414E-01    2.409E-01    2.404E-01    2.399E-01    2.394E-01
     2.389E-01    2.384E-01    2.379E-01    2.374E-01    2.369E-01    2.364E-01    2.359E-01    2.354E-01
 Ala      Conc. = 1.44E+01
