 LCModel (Version 6.3-1L) Copyright: S.W. Provencher.          Ref.: Magn. Reson. Med. 30:672-679 (1993).                
 Slice#1 Row#2 Col#1  PD_05_press_1_raw_act
 36 lines in following concentration table = NCONC+1
    Conc.  %SD /Cr+PCr  Metabolite                                         
    0.000 999%   0.000 Ala                                                 
    6.140  70%   0.394 Asp                                                 
    0.000 999%   0.000 Cr                                                  
   15.601 103%   1.000 PCr                                                 
    3.671  71%   0.235 GABA                                                
    3.663  71%   0.235 Glc                                                 
    0.000 999%   0.000 Gln                                                 
    0.000 999%   0.000 Glu                                                 
    0.000 999%   0.000 GPC                                                 
   11.204  54%   0.718 PCh                                                 
   15.677 160%   1.005 GSH                                                 
    0.000 999%   0.000 Ins                                                 
    0.000 999%   0.000 Lac                                                 
   70.771  26%   4.536 NAA                                                 
    0.000 999%   0.000 NAAG                                                
    1.179  73% 7.6E-02 Scyllo                                              
    6.148  70%   0.394 Tau                                                 
    1.562 105%   0.100 -CrCH2                                              
   11.204  54%   0.718 GPC+PCh                                             
   70.771  26%   4.536 NAA+NAAG                                            
   15.601 103%   1.000 Cr+PCr                                              
    0.000 999%   0.000 Glu+Gln                                             
  503.626  17%  32.281 Lip13a                                              
    0.000 999%   0.000 Lip13b                                              
  107.970  28%   6.921 Lip09                                               
    0.000 999%   0.000 MM09                                                
   70.682  33%   4.531 Lip20                                               
    0.000 999%   0.000 MM20                                                
 1.94E-04 999% 1.2E-05 MM12                                                
 3.84E-03 999% 2.5E-04 MM14                                                
    0.000 999%   0.000 MM17                                                
  503.626  17%  32.281 Lip13a+Lip13b                                       
  503.630  17%  32.281 MM14+Lip13a+Lip13b+MM12                             
  107.970  28%   6.921 MM09+Lip09                                          
   70.682  33%   4.531 MM20+Lip20                                          
   6 lines in following misc. output table
  FWHM = 0.069 ppm    S/N =   1                                            
  Data shift = 0.023 ppm                                                   
  Ph:  41 deg     -19.8 deg/ppm                                            
  alphaB,S = 8.5E+01,   5.1E+01                                            
   14 spline knots.   Ns = 8(1)                                            
   2 inflections.     1 extrema                                            
  498 points on ppm-axis = NY
      4.000000     3.992357     3.984714     3.977070     3.969427     3.961784     3.954141     3.946497     3.938854     3.931211
      3.923568     3.915925     3.908281     3.900638     3.892995     3.885352     3.877708     3.870065     3.862422     3.854779
      3.847136     3.839492     3.831849     3.824206     3.816563     3.808919     3.801276     3.793633     3.785990     3.778347
      3.770703     3.763060     3.755417     3.747774     3.740130     3.732487     3.724844     3.717201     3.709558     3.701914
      3.694271     3.686628     3.678985     3.671341     3.663698     3.656055     3.648412     3.640769     3.633125     3.625482
      3.617839     3.610196     3.602552     3.594909     3.587266     3.579623     3.571980     3.564336     3.556693     3.549050
      3.541407     3.533763     3.526120     3.518477     3.510834     3.503191     3.495547     3.487904     3.480261     3.472618
      3.464974     3.457331     3.449688     3.442045     3.434402     3.426758     3.419115     3.411472     3.403829     3.396185
      3.388542     3.380899     3.373256     3.365613     3.357969     3.350326     3.342683     3.335040     3.327396     3.319753
      3.312110     3.304467     3.296824     3.289180     3.281537     3.273894     3.266251     3.258607     3.250964     3.243321
      3.235678     3.228034     3.220391     3.212748     3.205105     3.197462     3.189818     3.182175     3.174532     3.166889
      3.159245     3.151602     3.143959     3.136316     3.128673     3.121029     3.113386     3.105743     3.098100     3.090456
      3.082813     3.075170     3.067527     3.059884     3.052240     3.044597     3.036954     3.029311     3.021667     3.014024
      3.006381     2.998738     2.991095     2.983451     2.975808     2.968165     2.960522     2.952878     2.945235     2.937592
      2.929949     2.922306     2.914662     2.907019     2.899376     2.891733     2.884089     2.876446     2.868803     2.861160
      2.853517     2.845873     2.838230     2.830587     2.822944     2.815300     2.807657     2.800014     2.792371     2.784728
      2.777084     2.769441     2.761798     2.754155     2.746511     2.738868     2.731225     2.723582     2.715939     2.708295
      2.700652     2.693009     2.685366     2.677722     2.670079     2.662436     2.654793     2.647150     2.639506     2.631863
      2.624220     2.616577     2.608933     2.601290     2.593647     2.586004     2.578361     2.570717     2.563074     2.555431
      2.547788     2.540144     2.532501     2.524858     2.517215     2.509572     2.501928     2.494285     2.486642     2.478999
      2.471355     2.463712     2.456069     2.448426     2.440783     2.433139     2.425496     2.417853     2.410210     2.402566
      2.394923     2.387280     2.379637     2.371994     2.364350     2.356707     2.349064     2.341421     2.333777     2.326134
      2.318491     2.310848     2.303205     2.295561     2.287918     2.280275     2.272632     2.264988     2.257345     2.249702
      2.242059     2.234416     2.226772     2.219129     2.211486     2.203843     2.196199     2.188556     2.180913     2.173270
      2.165627     2.157983     2.150340     2.142697     2.135054     2.127410     2.119767     2.112124     2.104481     2.096838
      2.089194     2.081551     2.073908     2.066265     2.058621     2.050978     2.043335     2.035692     2.028049     2.020405
      2.012762     2.005119     1.997476     1.989833     1.982190     1.974546     1.966903     1.959260     1.951617     1.943974
      1.936331     1.928688     1.921045     1.913402     1.905759     1.898115     1.890472     1.882829     1.875186     1.867543
      1.859900     1.852257     1.844614     1.836971     1.829327     1.821684     1.814041     1.806398     1.798755     1.791112
      1.783469     1.775826     1.768183     1.760540     1.752896     1.745253     1.737610     1.729967     1.722324     1.714681
      1.707038     1.699395     1.691752     1.684108     1.676465     1.668822     1.661179     1.653536     1.645893     1.638250
      1.630607     1.622964     1.615321     1.607677     1.600034     1.592391     1.584748     1.577105     1.569462     1.561819
      1.554176     1.546533     1.538890     1.531246     1.523603     1.515960     1.508317     1.500674     1.493031     1.485388
      1.477745     1.470102     1.462458     1.454815     1.447172     1.439529     1.431886     1.424243     1.416600     1.408957
      1.401314     1.393671     1.386027     1.378384     1.370741     1.363098     1.355455     1.347812     1.340169     1.332526
      1.324883     1.317240     1.309596     1.301953     1.294310     1.286667     1.279024     1.271381     1.263738     1.256095
      1.248452     1.240808     1.233165     1.225522     1.217879     1.210236     1.202593     1.194950     1.187307     1.179664
      1.172021     1.164377     1.156734     1.149091     1.141448     1.133805     1.126162     1.118519     1.110876     1.103233
      1.095590     1.087946     1.080303     1.072660     1.065017     1.057374     1.049731     1.042088     1.034445     1.026802
      1.019158     1.011515     1.003872     0.996229     0.988586     0.980943     0.973300     0.965657     0.958014     0.950371
      0.942727     0.935084     0.927441     0.919798     0.912155     0.904512     0.896869     0.889226     0.881583     0.873940
      0.866296     0.858653     0.851010     0.843367     0.835724     0.828081     0.820438     0.812795     0.805152     0.797508
      0.789865     0.782222     0.774579     0.766936     0.759293     0.751650     0.744007     0.736364     0.728721     0.721077
      0.713434     0.705791     0.698148     0.690505     0.682862     0.675219     0.667576     0.659933     0.652290     0.644646
      0.637003     0.629360     0.621717     0.614074     0.606431     0.598788     0.591145     0.583502     0.575858     0.568215
      0.560572     0.552929     0.545286     0.537643     0.530000     0.522357     0.514714     0.507071     0.499427     0.491784
      0.484141     0.476498     0.468855     0.461212     0.453569     0.445925     0.438282     0.430639     0.422996     0.415353
      0.407710     0.400067     0.392424     0.384780     0.377137     0.369494     0.361851     0.354208     0.346565     0.338922
      0.331278     0.323635     0.315992     0.308349     0.300706     0.293063     0.285420     0.277777     0.270133     0.262490
      0.254847     0.247204     0.239561     0.231918     0.224275     0.216631     0.208988     0.201345
 NY phased data points follow
  -3.15463E-01  1.15180E-01  1.43172E+00 -5.74503E-02 -4.38726E-03  1.45508E+00 -7.14165E-01 -2.94454E+00 -5.99036E-01  5.17071E-01
  -2.67640E+00 -1.95758E+00 -2.01489E-01  2.80207E-03 -1.74495E+00 -2.79631E+00  1.24121E+00 -1.54728E+00 -7.51393E-01 -1.78121E+00
  -2.42008E+00 -2.16840E+00 -2.98635E+00 -2.13258E+00  1.91673E-01 -9.30897E-01  9.93839E-01 -3.70994E-01 -1.37133E+00 -1.32869E+00
  -3.28802E-01  5.88968E-01 -7.81721E-01 -2.08867E+00  1.98939E+00 -3.37415E-01 -6.43036E-01 -1.74177E+00  8.68286E-01 -2.08740E+00
  -1.31764E-01 -1.70331E+00 -3.54872E-01  1.16483E+00 -2.63123E+00 -1.20468E+00 -7.19052E-01 -6.06306E-01 -1.50842E+00 -2.09705E+00
  -1.13949E+00 -1.07110E+00  7.44087E-03 -1.14358E+00  4.06519E-01 -5.38638E-01  1.43256E+00 -8.95637E-01 -2.78502E+00 -1.41668E-01
  -1.11342E+00 -2.12067E+00  3.80472E-01 -2.60221E-01 -6.54367E-01 -6.29718E-01 -1.26314E+00 -5.76119E-01  7.50623E-01 -1.63054E+00
   2.42406E-02  8.67183E-01  2.12883E-01 -8.19641E-01  2.02856E+00 -1.18491E+00 -1.31274E+00  5.66994E-01 -7.45803E-01 -3.99843E-01
  -6.69963E-01 -7.59145E-01 -1.57710E+00 -6.36655E-01  2.17785E-02  2.52162E-01 -1.63374E+00  8.22191E-01 -7.01981E-01 -2.05905E+00
  -2.28774E-01 -1.32877E+00 -2.15052E-01  5.72233E-01  2.95312E-03 -5.52807E-01 -2.34900E-01  1.14448E+00 -5.88683E-01  6.92311E-01
   2.29514E+00  2.64066E-01  5.91304E-02  8.34515E-01 -1.98301E+00  8.23217E-01  8.96060E-01 -2.07079E+00 -7.02113E-01  2.51875E-01
  -1.23588E+00 -2.09555E+00  7.36653E-01 -1.06090E+00  7.93347E-01  7.50329E-01 -5.73231E-01 -2.25050E+00 -1.12767E-01  3.81490E-01
  -6.71867E-01  8.94580E-01 -1.55070E+00 -2.97538E+00  2.57935E-01  1.30182E+00 -6.84601E-01  1.31204E+00  2.63231E-01  2.34663E+00
  -2.15335E+00  4.91056E-01  1.90135E+00  1.49040E-01 -7.13927E-01  1.13852E+00 -7.88079E-01  3.90517E-01 -1.54454E+00 -1.62630E+00
   1.25828E-01 -8.11226E-01 -3.62100E-01 -1.54077E+00 -1.09996E+00  9.23691E-01  5.26196E-01  9.48678E-01 -5.43810E-01 -1.48894E+00
   6.80205E-01  1.35368E+00 -6.50482E-01  8.14506E-01 -2.60021E+00 -1.57018E-01 -8.96075E-01  6.77183E-01 -1.99706E+00 -1.33716E+00
  -4.94172E-01  2.50767E+00 -1.22964E+00 -1.74971E+00 -4.83029E-01 -4.96300E-01 -1.31393E+00 -1.00544E+00 -2.94774E-02  8.01490E-01
   1.69128E+00 -4.85341E-02  2.05099E-02 -1.40167E+00 -1.06303E-01  3.16458E+00 -1.28719E+00  2.29663E-01 -1.61443E+00 -2.80287E-01
   5.27558E-02 -3.55106E-02 -7.27950E-01 -3.74567E-01 -6.76323E-01 -1.10302E+00 -8.72563E-01  6.93961E-01  5.55604E-01 -9.17818E-01
  -1.44381E+00 -1.16187E+00  7.38183E-01 -1.88989E-01 -2.79116E-01 -9.38488E-02 -4.50761E-01 -7.36223E-01 -2.58380E+00  2.55211E-01
  -2.30586E-01 -2.47305E-01 -1.57056E+00  2.17943E+00 -1.65210E+00 -6.61340E-01  6.77601E-01 -1.05628E+00 -1.67364E+00  4.21648E-02
   1.42937E+00  1.03609E+00 -6.37008E-01 -4.12352E-01 -8.60357E-01  2.19394E-01 -2.34319E+00 -1.40000E+00  1.07933E-01  5.70477E-01
   9.09914E-01 -1.56049E+00  9.25093E-01  3.70044E-02  2.46046E-02  1.05264E+00  3.50187E-01  6.25862E-02 -1.41023E+00  4.30826E-01
  -1.38996E+00  1.33077E-01 -1.77296E+00 -1.54043E+00  5.02768E-01  1.80416E-02  6.26035E-01 -2.03883E+00  2.01719E-01 -2.10747E+00
  -1.01761E+00  1.25187E+00 -1.27379E+00  2.55543E+00 -1.41585E+00 -3.36178E-01 -7.65334E-01  7.68135E-01 -1.73349E-01  5.21033E-01
  -3.13581E-01  4.84298E-01  1.57476E+00 -3.43416E-01  6.33362E-01 -4.55925E-01  2.03742E+00  2.27807E+00  2.30958E+00  1.40796E+00
   1.07036E+00  2.01896E+00  1.63662E+00  1.90768E+00  2.04901E+00  1.12430E+00 -2.16024E+00 -1.02536E-01 -2.60471E-01 -8.51241E-01
   1.49920E-01 -1.78815E+00  8.64067E-02  2.33361E-01 -6.99580E-01 -8.93310E-01 -1.73152E+00 -6.76098E-01 -1.40880E+00 -2.18301E+00
  -5.34324E-01 -7.77968E-01 -1.15270E+00 -7.15438E-01 -2.92290E-01 -1.15312E+00 -4.33174E-01 -1.17753E+00 -1.59412E+00  1.07407E+00
  -6.43988E-02 -1.61347E+00 -2.53967E-01  8.66807E-01 -8.81227E-02  1.07514E+00 -2.77872E-01 -1.35603E+00 -6.00211E-01  1.28581E+00
   4.01549E-01 -2.18394E+00  1.12288E-01 -9.83496E-01  8.49548E-02  2.63476E+00 -1.53532E+00 -8.94209E-01  6.73281E-01 -5.92201E-01
   2.22562E-01 -1.52428E+00  5.20530E-01 -5.11214E-02 -5.71706E-01 -1.96860E+00  5.55386E-02 -1.16949E+00 -1.31512E+00 -1.97042E+00
  -3.10397E-01  9.62865E-01  2.53496E-01 -1.05778E+00 -2.34661E-01  1.80954E+00  9.38431E-01  1.15434E+00  4.67015E-01  2.06275E+00
   1.66243E+00  6.02264E-01  1.08516E+00  1.36276E+00  4.41298E-02  9.90897E-01  1.68719E-01  1.45806E+00  1.14994E+00  1.14245E+00
   2.37033E+00  1.83561E+00  1.06867E+00  2.96842E+00  9.70447E-01  1.32560E+00  2.85464E+00  2.30963E-01  3.84770E+00  4.66189E+00
   1.28066E-01  3.09795E+00  3.48516E+00  2.28537E+00  3.43608E+00  1.69014E+00  7.62872E-01  2.43987E+00  1.25485E+00  1.12699E+00
  -6.83477E-01 -1.80993E+00  4.01343E-01  2.31267E+00 -4.95040E-01  1.38536E+00  2.10531E+00  2.90621E+00  1.29632E+00  2.32548E+00
   2.47088E+00  1.67749E+00  2.59715E+00  1.56914E+00  2.14971E+00  3.94194E+00  1.70536E+00  2.35230E+00  1.10193E+00 -1.54472E+00
   6.74080E-01  1.73966E+00 -2.70942E-01  8.17308E-01  2.04603E+00  5.42430E-02  1.91458E+00  6.45555E-01 -9.22523E-01 -6.80608E-01
   1.19714E-02 -1.82565E-01  1.69260E+00  1.54792E+00  3.31716E-01  1.60702E+00  7.38647E-01 -1.91517E+00 -2.38104E+00 -5.08466E-01
  -1.04534E-01 -1.31577E+00 -1.74348E-01  7.01337E-01 -7.97397E-01 -9.86693E-02 -1.05728E-01  8.51986E-01  2.63098E-01  4.77668E-01
   4.79078E-01  1.49309E+00 -5.06609E-01  2.34991E+00 -6.23218E-04 -3.61629E-02 -9.93226E-01 -1.65801E-01  9.14732E-02  1.47937E+00
   4.97374E-01  1.20897E+00 -8.40208E-01  1.14765E-01 -1.75632E-01 -1.37839E+00 -2.48263E-01 -2.34699E+00  3.76522E-01 -8.65008E-01
  -6.85818E-01 -1.14944E+00 -6.55656E-01 -2.11799E-01 -5.30537E-01  8.10785E-01  6.38851E-02 -1.31140E+00  2.94226E+00  1.19161E+00
  -3.66839E-01 -1.03359E+00  1.54937E+00  6.60031E-01  1.90230E+00 -1.92869E-01  3.35873E-01  8.49879E-01  6.73713E-01  4.76257E-01
   1.99268E+00 -1.63042E+00 -1.64458E+00  1.76275E+00  1.90869E+00 -9.79012E-01  1.21545E+00 -4.94179E-01  1.92764E+00 -7.34565E-03
   1.45432E+00 -1.45425E-01 -8.84240E-01  1.22377E+00  7.59031E-01 -3.05397E-01  1.78890E+00 -1.78102E+00 -7.67036E-02  5.36910E-01
   1.56098E+00  1.46102E+00  3.42881E-01 -1.40978E+00 -7.16253E-01 -1.26330E+00  3.17509E-01  3.08745E-01 -1.11080E+00 -2.22364E-01
   1.34629E+00 -5.91327E-01 -4.82097E-01 -1.81268E-01  4.05319E-01  2.54474E+00  4.79053E-02 -6.42898E-01 -2.20486E+00 -7.11338E-01
   8.33071E-01  1.44635E+00 -6.94059E-01  6.03855E-01 -9.10477E-01 -1.74568E+00 -8.00348E-01  5.31405E-01
 NY points of the fit to the data follow
  -7.11776E-01 -6.92503E-01 -6.59732E-01 -6.17377E-01 -5.70515E-01 -5.26211E-01 -4.91930E-01 -4.71357E-01 -4.63096E-01 -4.64376E-01
  -4.74415E-01 -4.94498E-01 -5.25981E-01 -5.66795E-01 -6.10249E-01 -6.47164E-01 -6.71403E-01 -6.82352E-01 -6.84553E-01 -6.84889E-01
  -6.85050E-01 -6.80682E-01 -6.59811E-01 -6.17541E-01 -5.59974E-01 -4.95833E-01 -4.35869E-01 -3.90539E-01 -3.64772E-01 -3.55663E-01
  -3.58237E-01 -3.71351E-01 -3.97015E-01 -4.36811E-01 -4.88395E-01 -5.44363E-01 -5.92903E-01 -6.24464E-01 -6.37107E-01 -6.36627E-01
  -6.33144E-01 -6.31444E-01 -6.31639E-01 -6.33889E-01 -6.37144E-01 -6.39469E-01 -6.39428E-01 -6.36749E-01 -6.31902E-01 -6.25878E-01
  -6.20014E-01 -6.15200E-01 -6.11475E-01 -6.08377E-01 -6.05722E-01 -6.03428E-01 -6.01664E-01 -6.00632E-01 -5.99932E-01 -5.98878E-01
  -5.97185E-01 -5.94453E-01 -5.91204E-01 -5.88292E-01 -5.85990E-01 -5.84240E-01 -5.82865E-01 -5.80773E-01 -5.76755E-01 -5.71077E-01
  -5.64632E-01 -5.58413E-01 -5.53504E-01 -5.50488E-01 -5.48839E-01 -5.47655E-01 -5.46474E-01 -5.44978E-01 -5.41691E-01 -5.36035E-01
  -5.28551E-01 -5.19402E-01 -5.09028E-01 -4.98588E-01 -4.89375E-01 -4.82779E-01 -4.79925E-01 -4.81178E-01 -4.86595E-01 -4.95666E-01
  -5.06257E-01 -5.14853E-01 -5.18542E-01 -5.14614E-01 -4.97026E-01 -4.42371E-01 -3.34903E-01 -1.87301E-01 -1.84921E-02  1.46089E-01
   2.77631E-01  3.57908E-01  3.88235E-01  3.79988E-01  3.39931E-01  2.65893E-01  1.53005E-01  4.87226E-03 -1.59485E-01 -3.08902E-01
  -4.14885E-01 -4.68430E-01 -4.82770E-01 -4.83249E-01 -4.83997E-01 -4.84343E-01 -4.83414E-01 -4.79511E-01 -4.66452E-01 -4.30146E-01
  -3.69513E-01 -2.92511E-01 -2.09261E-01 -1.32476E-01 -7.36301E-02 -3.57043E-02 -1.42876E-02 -7.45789E-03 -1.84354E-02 -5.29291E-02
  -1.14517E-01 -1.97744E-01 -2.86438E-01 -3.60520E-01 -4.06139E-01 -4.23322E-01 -4.22748E-01 -4.17084E-01 -4.08914E-01 -3.96697E-01
  -3.79611E-01 -3.58631E-01 -3.37514E-01 -3.21354E-01 -3.13493E-01 -3.13505E-01 -3.18761E-01 -3.26012E-01 -3.32154E-01 -3.35704E-01
  -3.36772E-01 -3.35989E-01 -3.34750E-01 -3.35303E-01 -3.38903E-01 -3.45024E-01 -3.52023E-01 -3.56719E-01 -3.57865E-01 -3.56389E-01
  -3.54111E-01 -3.53201E-01 -3.54735E-01 -3.57824E-01 -3.60602E-01 -3.62264E-01 -3.64240E-01 -3.69617E-01 -3.81684E-01 -4.00598E-01
  -4.21365E-01 -4.38636E-01 -4.49894E-01 -4.56412E-01 -4.60595E-01 -4.64390E-01 -4.67956E-01 -4.70372E-01 -4.70810E-01 -4.69862E-01
  -4.67993E-01 -4.64671E-01 -4.58796E-01 -4.47702E-01 -4.28416E-01 -4.00668E-01 -3.67533E-01 -3.34124E-01 -3.04874E-01 -2.80955E-01
  -2.63560E-01 -2.52291E-01 -2.47749E-01 -2.51768E-01 -2.63860E-01 -2.79125E-01 -2.90208E-01 -2.93080E-01 -2.87574E-01 -2.75705E-01
  -2.60308E-01 -2.44279E-01 -2.29588E-01 -2.17361E-01 -2.09449E-01 -2.09113E-01 -2.17402E-01 -2.32469E-01 -2.50607E-01 -2.68129E-01
  -2.81235E-01 -2.87401E-01 -2.86713E-01 -2.80967E-01 -2.71664E-01 -2.58348E-01 -2.40319E-01 -2.18160E-01 -1.94161E-01 -1.71509E-01
  -1.52801E-01 -1.39083E-01 -1.30075E-01 -1.25426E-01 -1.25492E-01 -1.29248E-01 -1.34709E-01 -1.39504E-01 -1.40846E-01 -1.36011E-01
  -1.23841E-01 -1.07039E-01 -8.95256E-02 -7.43711E-02 -6.36514E-02 -5.83715E-02 -5.84307E-02 -6.24507E-02 -6.83761E-02 -7.46912E-02
  -7.95328E-02 -8.03556E-02 -7.50450E-02 -6.28227E-02 -4.39638E-02 -2.00037E-02  6.07190E-03  3.10054E-02  5.29599E-02  7.29759E-02
   9.49644E-02  1.32063E-01  2.35048E-01  4.48907E-01  7.48970E-01  1.09231E+00  1.42499E+00  1.68696E+00  1.84000E+00  1.88709E+00
   1.85278E+00  1.75146E+00  1.57836E+00  1.32307E+00  9.92951E-01  6.28446E-01  2.95926E-01  5.66865E-02 -6.84319E-02 -1.05501E-01
  -1.08592E-01 -1.12455E-01 -1.16122E-01 -1.18699E-01 -1.20615E-01 -1.22268E-01 -1.23976E-01 -1.25882E-01 -1.27909E-01 -1.29816E-01
  -1.31310E-01 -1.32132E-01 -1.32048E-01 -1.30944E-01 -1.28840E-01 -1.25857E-01 -1.22247E-01 -1.18271E-01 -1.14117E-01 -1.09943E-01
  -1.05863E-01 -1.01865E-01 -9.78501E-02 -9.36953E-02 -8.92988E-02 -8.46199E-02 -7.96470E-02 -7.43565E-02 -6.87356E-02 -6.27974E-02
  -5.65607E-02 -5.00319E-02 -4.32155E-02 -3.61086E-02 -2.86856E-02 -2.09201E-02 -1.27847E-02 -4.25154E-03  4.70932E-03  1.41316E-02
   2.40544E-02  3.45225E-02  4.55848E-02  5.72943E-02  6.97097E-02  8.28994E-02  9.69424E-02  1.11929E-01  1.27959E-01  1.45142E-01
   1.63601E-01  1.83474E-01  2.04916E-01  2.28099E-01  2.53211E-01  2.80457E-01  3.10058E-01  3.42254E-01  3.77295E-01  4.15441E-01
   4.56954E-01  5.02091E-01  5.51094E-01  6.04181E-01  6.61530E-01  7.23259E-01  7.89410E-01  8.59933E-01  9.34663E-01  1.01331E+00
   1.09542E+00  1.18040E+00  1.26747E+00  1.35570E+00  1.44398E+00  1.53108E+00  1.61561E+00  1.69612E+00  1.77111E+00  1.83908E+00
   1.89858E+00  1.94828E+00  1.98701E+00  2.01381E+00  2.02798E+00  2.02911E+00  2.01712E+00  1.99222E+00  1.95495E+00  1.90613E+00
   1.84686E+00  1.77843E+00  1.70231E+00  1.62007E+00  1.53333E+00  1.44371E+00  1.35278E+00  1.26199E+00  1.17267E+00  1.08598E+00
   1.00292E+00  9.24274E-01  8.50671E-01  7.82557E-01  7.20219E-01  6.63803E-01  6.13337E-01  5.68753E-01  5.29905E-01  4.96594E-01
   4.68581E-01  4.45602E-01  4.27384E-01  4.13649E-01  4.04121E-01  3.98529E-01  3.96605E-01  3.98080E-01  4.02686E-01  4.10145E-01
   4.20166E-01  4.32438E-01  4.46624E-01  4.62361E-01  4.79254E-01  4.96880E-01  5.14785E-01  5.32496E-01  5.49524E-01  5.65377E-01
   5.79576E-01  5.91662E-01  6.01219E-01  6.07881E-01  6.11352E-01  6.11415E-01  6.07943E-01  6.00901E-01  5.90346E-01  5.76428E-01
   5.59383E-01  5.39519E-01  5.17205E-01  4.92855E-01  4.66910E-01  4.39821E-01  4.12037E-01  3.83985E-01  3.56062E-01  3.28623E-01
   3.01974E-01  2.76369E-01  2.52011E-01  2.29048E-01  2.07582E-01  1.87667E-01  1.69321E-01  1.52527E-01  1.37243E-01  1.23409E-01
   1.10944E-01  9.97635E-02  8.97729E-02  8.08785E-02  7.29868E-02  6.60073E-02  5.98531E-02  5.44434E-02  4.97033E-02  4.55649E-02
   4.19663E-02  3.88513E-02  3.61691E-02  3.38748E-02  3.19284E-02  3.02946E-02  2.89419E-02  2.78421E-02  2.69697E-02  2.63028E-02
   2.58219E-02  2.55101E-02  2.53517E-02  2.53324E-02  2.54397E-02  2.56628E-02  2.59919E-02  2.64185E-02  2.69343E-02  2.75316E-02
   2.82039E-02  2.89457E-02  2.97518E-02  3.06175E-02  3.15379E-02  3.25089E-02  3.35270E-02  3.45891E-02  3.56925E-02  3.68341E-02
   3.80111E-02  3.92211E-02  4.04621E-02  4.17325E-02  4.30305E-02  4.43543E-02  4.57018E-02  4.70720E-02  4.84637E-02  4.98760E-02
   5.13077E-02  5.27574E-02  5.42241E-02  5.57072E-02  5.72062E-02  5.87205E-02  6.02493E-02  6.17917E-02  6.33472E-02  6.49158E-02
   6.64973E-02  6.80914E-02  6.96976E-02  7.13156E-02  7.29456E-02  7.45880E-02  7.62430E-02  7.79108E-02
 NY background values follow
    -7.291E-01   -7.274E-01   -7.257E-01   -7.241E-01   -7.224E-01   -7.207E-01   -7.190E-01   -7.173E-01   -7.156E-01   -7.139E-01
    -7.123E-01   -7.106E-01   -7.089E-01   -7.072E-01   -7.055E-01   -7.038E-01   -7.021E-01   -7.005E-01   -6.988E-01   -6.971E-01
    -6.954E-01   -6.937E-01   -6.920E-01   -6.903E-01   -6.886E-01   -6.869E-01   -6.853E-01   -6.836E-01   -6.819E-01   -6.802E-01
    -6.785E-01   -6.768E-01   -6.751E-01   -6.734E-01   -6.717E-01   -6.700E-01   -6.684E-01   -6.667E-01   -6.650E-01   -6.633E-01
    -6.616E-01   -6.599E-01   -6.582E-01   -6.565E-01   -6.548E-01   -6.531E-01   -6.514E-01   -6.497E-01   -6.480E-01   -6.464E-01
    -6.447E-01   -6.430E-01   -6.413E-01   -6.396E-01   -6.379E-01   -6.362E-01   -6.345E-01   -6.328E-01   -6.311E-01   -6.294E-01
    -6.277E-01   -6.260E-01   -6.243E-01   -6.226E-01   -6.209E-01   -6.192E-01   -6.175E-01   -6.158E-01   -6.141E-01   -6.125E-01
    -6.108E-01   -6.091E-01   -6.074E-01   -6.057E-01   -6.040E-01   -6.023E-01   -6.006E-01   -5.989E-01   -5.972E-01   -5.955E-01
    -5.938E-01   -5.921E-01   -5.904E-01   -5.887E-01   -5.870E-01   -5.853E-01   -5.836E-01   -5.819E-01   -5.802E-01   -5.785E-01
    -5.768E-01   -5.751E-01   -5.734E-01   -5.717E-01   -5.700E-01   -5.683E-01   -5.666E-01   -5.649E-01   -5.632E-01   -5.615E-01
    -5.598E-01   -5.581E-01   -5.564E-01   -5.547E-01   -5.530E-01   -5.513E-01   -5.496E-01   -5.479E-01   -5.462E-01   -5.445E-01
    -5.428E-01   -5.411E-01   -5.394E-01   -5.377E-01   -5.360E-01   -5.343E-01   -5.326E-01   -5.309E-01   -5.292E-01   -5.275E-01
    -5.258E-01   -5.241E-01   -5.224E-01   -5.207E-01   -5.190E-01   -5.173E-01   -5.156E-01   -5.139E-01   -5.122E-01   -5.105E-01
    -5.088E-01   -5.071E-01   -5.054E-01   -5.037E-01   -5.020E-01   -5.003E-01   -4.986E-01   -4.969E-01   -4.951E-01   -4.934E-01
    -4.917E-01   -4.900E-01   -4.883E-01   -4.866E-01   -4.849E-01   -4.832E-01   -4.815E-01   -4.798E-01   -4.781E-01   -4.764E-01
    -4.747E-01   -4.730E-01   -4.713E-01   -4.696E-01   -4.679E-01   -4.662E-01   -4.645E-01   -4.628E-01   -4.611E-01   -4.594E-01
    -4.577E-01   -4.560E-01   -4.543E-01   -4.526E-01   -4.509E-01   -4.492E-01   -4.474E-01   -4.457E-01   -4.440E-01   -4.423E-01
    -4.406E-01   -4.389E-01   -4.372E-01   -4.355E-01   -4.338E-01   -4.321E-01   -4.304E-01   -4.287E-01   -4.270E-01   -4.253E-01
    -4.236E-01   -4.219E-01   -4.202E-01   -4.185E-01   -4.168E-01   -4.151E-01   -4.134E-01   -4.117E-01   -4.100E-01   -4.083E-01
    -4.065E-01   -4.048E-01   -4.031E-01   -4.014E-01   -3.997E-01   -3.980E-01   -3.963E-01   -3.946E-01   -3.929E-01   -3.912E-01
    -3.895E-01   -3.878E-01   -3.861E-01   -3.844E-01   -3.827E-01   -3.810E-01   -3.793E-01   -3.776E-01   -3.759E-01   -3.742E-01
    -3.725E-01   -3.708E-01   -3.691E-01   -3.674E-01   -3.656E-01   -3.639E-01   -3.622E-01   -3.605E-01   -3.588E-01   -3.571E-01
    -3.554E-01   -3.537E-01   -3.520E-01   -3.503E-01   -3.486E-01   -3.469E-01   -3.452E-01   -3.435E-01   -3.418E-01   -3.401E-01
    -3.384E-01   -3.367E-01   -3.350E-01   -3.333E-01   -3.316E-01   -3.299E-01   -3.282E-01   -3.265E-01   -3.248E-01   -3.231E-01
    -3.214E-01   -3.197E-01   -3.180E-01   -3.163E-01   -3.145E-01   -3.128E-01   -3.111E-01   -3.094E-01   -3.077E-01   -3.060E-01
    -3.043E-01   -3.026E-01   -3.009E-01   -2.992E-01   -2.975E-01   -2.958E-01   -2.941E-01   -2.924E-01   -2.907E-01   -2.890E-01
    -2.873E-01   -2.856E-01   -2.839E-01   -2.822E-01   -2.805E-01   -2.788E-01   -2.771E-01   -2.754E-01   -2.737E-01   -2.720E-01
    -2.703E-01   -2.686E-01   -2.669E-01   -2.652E-01   -2.635E-01   -2.618E-01   -2.601E-01   -2.584E-01   -2.567E-01   -2.550E-01
    -2.533E-01   -2.516E-01   -2.499E-01   -2.482E-01   -2.465E-01   -2.448E-01   -2.431E-01   -2.414E-01   -2.397E-01   -2.380E-01
    -2.363E-01   -2.346E-01   -2.329E-01   -2.312E-01   -2.295E-01   -2.278E-01   -2.261E-01   -2.244E-01   -2.227E-01   -2.210E-01
    -2.193E-01   -2.177E-01   -2.160E-01   -2.143E-01   -2.126E-01   -2.109E-01   -2.092E-01   -2.075E-01   -2.058E-01   -2.041E-01
    -2.024E-01   -2.007E-01   -1.990E-01   -1.973E-01   -1.956E-01   -1.939E-01   -1.922E-01   -1.905E-01   -1.888E-01   -1.871E-01
    -1.854E-01   -1.837E-01   -1.820E-01   -1.804E-01   -1.787E-01   -1.770E-01   -1.753E-01   -1.736E-01   -1.719E-01   -1.702E-01
    -1.685E-01   -1.668E-01   -1.651E-01   -1.634E-01   -1.617E-01   -1.600E-01   -1.583E-01   -1.567E-01   -1.550E-01   -1.533E-01
    -1.516E-01   -1.499E-01   -1.482E-01   -1.465E-01   -1.448E-01   -1.431E-01   -1.414E-01   -1.398E-01   -1.381E-01   -1.364E-01
    -1.347E-01   -1.330E-01   -1.313E-01   -1.296E-01   -1.279E-01   -1.262E-01   -1.246E-01   -1.229E-01   -1.212E-01   -1.195E-01
    -1.178E-01   -1.161E-01   -1.144E-01   -1.127E-01   -1.111E-01   -1.094E-01   -1.077E-01   -1.060E-01   -1.043E-01   -1.026E-01
    -1.009E-01   -9.925E-02   -9.757E-02   -9.589E-02   -9.420E-02   -9.252E-02   -9.083E-02   -8.915E-02   -8.747E-02   -8.578E-02
    -8.410E-02   -8.242E-02   -8.073E-02   -7.905E-02   -7.737E-02   -7.569E-02   -7.401E-02   -7.232E-02   -7.064E-02   -6.896E-02
    -6.728E-02   -6.560E-02   -6.392E-02   -6.224E-02   -6.056E-02   -5.888E-02   -5.720E-02   -5.552E-02   -5.384E-02   -5.216E-02
    -5.049E-02   -4.881E-02   -4.713E-02   -4.545E-02   -4.377E-02   -4.210E-02   -4.042E-02   -3.874E-02   -3.707E-02   -3.539E-02
    -3.372E-02   -3.204E-02   -3.036E-02   -2.869E-02   -2.701E-02   -2.534E-02   -2.366E-02   -2.199E-02   -2.032E-02   -1.864E-02
    -1.697E-02   -1.530E-02   -1.362E-02   -1.195E-02   -1.028E-02   -8.607E-03   -6.936E-03   -5.264E-03   -3.593E-03   -1.922E-03
    -2.516E-04    1.419E-03    3.089E-03    4.758E-03    6.428E-03    8.097E-03    9.766E-03    1.143E-02    1.310E-02    1.477E-02
     1.644E-02    1.811E-02    1.977E-02    2.144E-02    2.311E-02    2.477E-02    2.644E-02    2.811E-02    2.977E-02    3.144E-02
     3.310E-02    3.476E-02    3.643E-02    3.809E-02    3.976E-02    4.142E-02    4.308E-02    4.475E-02    4.641E-02    4.807E-02
     4.973E-02    5.139E-02    5.305E-02    5.472E-02    5.638E-02    5.804E-02    5.970E-02    6.136E-02    6.301E-02    6.467E-02
     6.633E-02    6.799E-02    6.965E-02    7.131E-02    7.296E-02    7.462E-02    7.628E-02    7.793E-02    7.959E-02    8.124E-02
     8.290E-02    8.455E-02    8.621E-02    8.786E-02    8.952E-02    9.117E-02    9.282E-02    9.448E-02    9.613E-02    9.778E-02
     9.943E-02    1.011E-01    1.027E-01    1.044E-01    1.060E-01    1.077E-01    1.093E-01    1.110E-01
 Asp      Conc. = 6.14E+00
