 LCModel (Version 6.3-1L) Copyright: S.W. Provencher.          Ref.: Magn. Reson. Med. 30:672-679 (1993).                
 Slice#3 Row#6 Col#7  PD_05_press_1_raw_act
 36 lines in following concentration table = NCONC+1
    Conc.  %SD /Cr+PCr  Metabolite                                         
   34.168 367% 2.5E-02 Ala                                                 
  257.382  74%   0.185 Asp                                                 
  394.293  60%   0.283 Cr                                                  
  999.455  24%   0.717 PCr                                                 
   82.278 163% 5.9E-02 GABA                                                
    0.000 999%   0.000 Glc                                                 
 1.54E+03  18%   1.104 Gln                                                 
 1.67E+03  19%   1.199 Glu                                                 
  455.830   4%   0.327 GPC                                                 
    0.000 999%   0.000 PCh                                                 
  383.889  18%   0.275 GSH                                                 
  242.822 100%   0.174 Ins                                                 
  175.833  95%   0.126 Lac                                                 
 1.86E+03   3%   1.333 NAA                                                 
    0.000 999%   0.000 NAAG                                                
   58.033  41% 4.2E-02 Scyllo                                              
    0.000 999%   0.000 Tau                                                 
    0.000 999%   0.000 -CrCH2                                              
  455.830   4%   0.327 GPC+PCh                                             
 1.86E+03   3%   1.333 NAA+NAAG                                            
 1.39E+03   4%   1.000 Cr+PCr                                              
 3.21E+03  15%   2.303 Glu+Gln                                             
    0.000 999%   0.000 Lip13a                                              
  652.344  33%   0.468 Lip13b                                              
    0.000 999%   0.000 Lip09                                               
  952.122  18%   0.683 MM09                                                
  138.004  64% 9.9E-02 Lip20                                               
 2.04E+03  14%   1.462 MM20                                                
  283.635  29%   0.204 MM12                                                
 1.33E+03  18%   0.952 MM14                                                
  778.115  21%   0.558 MM17                                                
  652.344  33%   0.468 Lip13a+Lip13b                                       
 2.26E+03  14%   1.623 MM14+Lip13a+Lip13b+MM12                             
  952.122  18%   0.683 MM09+Lip09                                          
 2.18E+03  13%   1.561 MM20+Lip20                                          
   6 lines in following misc. output table
  FWHM = 0.069 ppm    S/N =  10                                            
  Data shift =-0.015 ppm                                                   
  Ph: -32 deg      -8.4 deg/ppm                                            
  alphaB,S = 5.6E-01,   1.7E+02                                            
   14 spline knots.   Ns = 8(1)                                            
  (13) 4 infls.   ( 7) 1 extrs.                                            
  498 points on ppm-axis = NY
      4.000000     3.992357     3.984714     3.977070     3.969427     3.961784     3.954141     3.946497     3.938854     3.931211
      3.923568     3.915925     3.908281     3.900638     3.892995     3.885352     3.877708     3.870065     3.862422     3.854779
      3.847136     3.839492     3.831849     3.824206     3.816563     3.808919     3.801276     3.793633     3.785990     3.778347
      3.770703     3.763060     3.755417     3.747774     3.740130     3.732487     3.724844     3.717201     3.709558     3.701914
      3.694271     3.686628     3.678985     3.671341     3.663698     3.656055     3.648412     3.640769     3.633125     3.625482
      3.617839     3.610196     3.602552     3.594909     3.587266     3.579623     3.571980     3.564336     3.556693     3.549050
      3.541407     3.533763     3.526120     3.518477     3.510834     3.503191     3.495547     3.487904     3.480261     3.472618
      3.464974     3.457331     3.449688     3.442045     3.434402     3.426758     3.419115     3.411472     3.403829     3.396185
      3.388542     3.380899     3.373256     3.365613     3.357969     3.350326     3.342683     3.335040     3.327396     3.319753
      3.312110     3.304467     3.296824     3.289180     3.281537     3.273894     3.266251     3.258607     3.250964     3.243321
      3.235678     3.228034     3.220391     3.212748     3.205105     3.197462     3.189818     3.182175     3.174532     3.166889
      3.159245     3.151602     3.143959     3.136316     3.128673     3.121029     3.113386     3.105743     3.098100     3.090456
      3.082813     3.075170     3.067527     3.059884     3.052240     3.044597     3.036954     3.029311     3.021667     3.014024
      3.006381     2.998738     2.991095     2.983451     2.975808     2.968165     2.960522     2.952878     2.945235     2.937592
      2.929949     2.922306     2.914662     2.907019     2.899376     2.891733     2.884089     2.876446     2.868803     2.861160
      2.853517     2.845873     2.838230     2.830587     2.822944     2.815300     2.807657     2.800014     2.792371     2.784728
      2.777084     2.769441     2.761798     2.754155     2.746511     2.738868     2.731225     2.723582     2.715939     2.708295
      2.700652     2.693009     2.685366     2.677722     2.670079     2.662436     2.654793     2.647150     2.639506     2.631863
      2.624220     2.616577     2.608933     2.601290     2.593647     2.586004     2.578361     2.570717     2.563074     2.555431
      2.547788     2.540144     2.532501     2.524858     2.517215     2.509572     2.501928     2.494285     2.486642     2.478999
      2.471355     2.463712     2.456069     2.448426     2.440783     2.433139     2.425496     2.417853     2.410210     2.402566
      2.394923     2.387280     2.379637     2.371994     2.364350     2.356707     2.349064     2.341421     2.333777     2.326134
      2.318491     2.310848     2.303205     2.295561     2.287918     2.280275     2.272632     2.264988     2.257345     2.249702
      2.242059     2.234416     2.226772     2.219129     2.211486     2.203843     2.196199     2.188556     2.180913     2.173270
      2.165627     2.157983     2.150340     2.142697     2.135054     2.127410     2.119767     2.112124     2.104481     2.096838
      2.089194     2.081551     2.073908     2.066265     2.058621     2.050978     2.043335     2.035692     2.028049     2.020405
      2.012762     2.005119     1.997476     1.989833     1.982190     1.974546     1.966903     1.959260     1.951617     1.943974
      1.936331     1.928688     1.921045     1.913402     1.905759     1.898115     1.890472     1.882829     1.875186     1.867543
      1.859900     1.852257     1.844614     1.836971     1.829327     1.821684     1.814041     1.806398     1.798755     1.791112
      1.783469     1.775826     1.768183     1.760540     1.752896     1.745253     1.737610     1.729967     1.722324     1.714681
      1.707038     1.699395     1.691752     1.684108     1.676465     1.668822     1.661179     1.653536     1.645893     1.638250
      1.630607     1.622964     1.615321     1.607677     1.600034     1.592391     1.584748     1.577105     1.569462     1.561819
      1.554176     1.546533     1.538890     1.531246     1.523603     1.515960     1.508317     1.500674     1.493031     1.485388
      1.477745     1.470102     1.462458     1.454815     1.447172     1.439529     1.431886     1.424243     1.416600     1.408957
      1.401314     1.393671     1.386027     1.378384     1.370741     1.363098     1.355455     1.347812     1.340169     1.332526
      1.324883     1.317240     1.309596     1.301953     1.294310     1.286667     1.279024     1.271381     1.263738     1.256095
      1.248452     1.240808     1.233165     1.225522     1.217879     1.210236     1.202593     1.194950     1.187307     1.179664
      1.172021     1.164377     1.156734     1.149091     1.141448     1.133805     1.126162     1.118519     1.110876     1.103233
      1.095590     1.087946     1.080303     1.072660     1.065017     1.057374     1.049731     1.042088     1.034445     1.026802
      1.019158     1.011515     1.003872     0.996229     0.988586     0.980943     0.973300     0.965657     0.958014     0.950371
      0.942727     0.935084     0.927441     0.919798     0.912155     0.904512     0.896869     0.889226     0.881583     0.873940
      0.866296     0.858653     0.851010     0.843367     0.835724     0.828081     0.820438     0.812795     0.805152     0.797508
      0.789865     0.782222     0.774579     0.766936     0.759293     0.751650     0.744007     0.736364     0.728721     0.721077
      0.713434     0.705791     0.698148     0.690505     0.682862     0.675219     0.667576     0.659933     0.652290     0.644646
      0.637003     0.629360     0.621717     0.614074     0.606431     0.598788     0.591145     0.583502     0.575858     0.568215
      0.560572     0.552929     0.545286     0.537643     0.530000     0.522357     0.514714     0.507071     0.499427     0.491784
      0.484141     0.476498     0.468855     0.461212     0.453569     0.445925     0.438282     0.430639     0.422996     0.415353
      0.407710     0.400067     0.392424     0.384780     0.377137     0.369494     0.361851     0.354208     0.346565     0.338922
      0.331278     0.323635     0.315992     0.308349     0.300706     0.293063     0.285420     0.277777     0.270133     0.262490
      0.254847     0.247204     0.239561     0.231918     0.224275     0.216631     0.208988     0.201345
 NY phased data points follow
   9.85500E+00  1.65504E+01  1.44421E+01  1.19807E+01  1.75671E+01  2.33954E+01  2.76535E+01  3.04795E+01  3.34445E+01  4.28909E+01
   4.29886E+01  4.46476E+01  4.16353E+01  4.29484E+01  3.67348E+01  3.35983E+01  3.45429E+01  2.64179E+01  2.57062E+01  2.37324E+01
   2.05766E+01  1.94452E+01  2.14267E+01  1.89066E+01  1.73914E+01  1.42164E+01  1.80343E+01  1.94840E+01  2.06178E+01  2.21210E+01
   2.10722E+01  2.34363E+01  2.23137E+01  2.04058E+01  2.21913E+01  1.98586E+01  1.77454E+01  1.63221E+01  1.46969E+01  1.75593E+01
   1.61747E+01  1.41010E+01  1.72112E+01  1.53247E+01  1.62916E+01  1.51785E+01  1.68309E+01  1.57074E+01  1.93096E+01  1.45893E+01
   1.53814E+01  1.43364E+01  1.04333E+01  1.36583E+01  8.92797E+00  1.19527E+01  1.11550E+01  1.26949E+01  1.19081E+01  9.78050E+00
   7.74372E+00  1.04737E+01  6.49610E+00  5.43066E+00  3.76858E+00  2.47040E+00  2.76954E+00  2.85749E+00  2.78413E+00  5.54776E+00
   2.90566E+00 -2.47536E-01  7.00176E-01  5.46919E+00  1.12912E+00  1.56156E+00  2.40082E+00  5.16160E+00  7.89203E+00  3.95834E+00
   2.35477E+00  3.91391E+00  4.96680E+00  4.49245E+00  4.77099E+00  8.49178E+00  6.27495E+00  8.20721E+00  4.20583E+00  5.71831E+00
   2.83290E+00  4.11243E+00 -4.44908E-01  3.25426E+00  8.89636E-01  1.53285E+00  4.47629E+00  4.49664E+00  1.25572E+01  1.46774E+01
   1.63196E+01  2.89257E+01  3.15437E+01  3.63129E+01  3.47770E+01  3.63830E+01  3.43966E+01  2.98261E+01  2.35231E+01  2.00602E+01
   1.50982E+01  1.66849E+01  8.42026E+00  1.06301E+01  7.94989E+00  9.41516E+00  5.02371E+00  1.75712E+00 -1.14493E+00  8.75051E-01
   1.92366E+00  3.37103E+00  4.62802E+00  1.18287E+01  1.95520E+01  2.68127E+01  3.28009E+01  4.37103E+01  4.16921E+01  3.93451E+01
   3.38727E+01  3.06547E+01  2.35258E+01  1.80581E+01  1.31404E+01  1.32502E+01  7.45149E+00  7.34974E+00  2.85341E+00  3.21720E+00
   1.17205E+00  3.87116E+00  2.67677E-01 -1.49706E+00 -4.15527E+00 -1.11365E+00  1.12906E+00 -1.44629E+00 -3.41100E+00 -8.79047E-01
   4.61492E-01 -9.80384E-01 -4.88090E-01 -2.69795E+00 -4.01807E+00  1.89691E-01 -3.14417E+00 -7.61487E+00 -4.23200E+00 -3.81792E+00
  -5.37751E+00 -4.99395E+00 -3.29840E+00 -1.72629E+00 -3.78453E+00 -3.58572E+00 -2.52041E+00 -1.90288E+00 -3.10268E+00  6.18296E-02
  -2.90598E+00 -2.52426E+00 -5.84498E+00 -3.47223E+00 -9.54499E+00 -4.55305E+00 -7.70497E+00 -9.07886E+00 -6.96995E+00 -1.27077E+01
  -6.71935E+00 -8.03631E+00 -8.67888E+00 -1.01867E+01 -1.39980E+01 -6.02058E+00 -3.27900E+00 -6.66669E+00 -6.49148E+00 -6.04056E+00
  -4.66667E+00  5.58731E-01 -9.27302E-01  6.05573E+00  7.80607E-01  1.05799E+00 -1.61197E+00  1.65272E+00 -2.08066E+00 -2.65800E+00
   2.57383E+00  6.19367E-01  3.40730E+00  2.11622E+00  1.45674E+00 -1.49144E+00 -1.69189E+00 -4.72292E+00 -3.50665E+00 -4.47121E+00
  -3.71691E+00 -1.82609E+00 -3.37411E-01  1.94923E+00  2.50594E+00  1.05385E+01  7.95493E+00  7.52317E+00  5.96781E+00  2.11572E+00
   5.88600E+00  1.65224E+00 -2.62305E-02 -1.36064E+00  2.23803E+00  7.14985E+00  5.80675E+00  8.23369E+00  5.99830E+00  1.03592E+01
   6.52798E+00  3.88614E+00  7.68539E+00  5.87280E+00  4.29517E+00  9.48357E+00  6.65587E+00  6.70831E+00  8.00475E+00  6.81954E+00
   5.10087E+00  1.06953E+01  8.33334E+00  7.23114E+00  8.14198E+00  7.38771E+00  7.85830E+00  1.04525E+01  5.53271E+00  1.05612E+01
   7.97592E+00  7.86939E+00  5.40167E+00  7.40409E+00  7.41303E+00  1.87946E+01  2.76016E+01  3.88791E+01  3.97676E+01  4.85707E+01
   5.61940E+01  5.78950E+01  5.96990E+01  5.36790E+01  4.29068E+01  3.50616E+01  2.69326E+01  2.49971E+01  1.95158E+01  1.49473E+01
   1.57499E+01  1.44590E+01  1.36376E+01  1.22139E+01  5.16909E+00  4.76840E+00  3.71413E+00  2.19112E+00  1.83366E+00 -1.97368E+00
   7.58029E-01  1.90931E+00  1.33388E+00 -1.77375E+00  2.19939E-01  2.58123E+00  3.31859E+00  4.64599E+00  4.97101E+00  4.03486E+00
  -1.15951E+00  3.18455E+00  2.84243E+00  3.83647E+00  2.11225E-01  6.05353E-01  4.42153E+00  2.74635E+00  3.47331E+00  3.94600E+00
   1.70325E+00  8.88094E-01  1.23382E+00  6.63516E+00  6.02350E+00  3.53286E+00  8.15321E+00  7.76925E+00  6.57534E+00  7.64047E+00
   6.69659E+00  1.16912E+01  8.33225E+00  8.82819E+00  9.20387E+00  1.13411E+01  6.48708E+00  1.06012E+01  1.14239E+01  5.74411E+00
   8.73406E+00  7.90284E+00  8.04986E+00  1.12435E+01  9.61088E+00  1.17903E+01  3.73184E+00  9.41859E+00  7.75927E+00  8.21140E+00
   7.37296E+00  8.27194E+00  1.05775E+01  7.28893E+00  7.85302E+00  9.02170E+00  5.38428E+00  4.60315E+00  5.09957E+00  5.45239E+00
   8.25160E+00  5.21612E+00  8.23039E+00  7.58521E+00  6.80058E+00  4.69140E+00  8.52463E+00  6.83947E+00  6.55329E+00  6.85507E+00
   5.07354E+00  1.16371E+01  4.59160E+00  8.31682E+00  6.03600E+00  6.97296E+00  7.97484E+00  7.92189E+00  9.94250E+00  4.87507E+00
   4.66631E+00  7.06651E+00  6.47642E+00  3.84790E+00  2.60303E+00  2.61007E+00  4.37879E+00 -1.59654E+00  4.78140E-01 -6.10009E-01
   2.73392E-01  6.56900E+00 -4.04206E-01  8.01936E-01 -1.08797E+00 -1.06835E+00 -3.82002E-01  3.71899E+00 -6.18245E-01  1.58743E+00
   8.70879E-01 -2.48252E+00  2.74951E+00 -1.42439E-01 -5.03910E+00 -2.70395E+00 -4.22335E+00 -2.00806E+00 -5.72430E+00 -1.28207E+00
  -1.82210E+00  1.36059E+00 -4.93476E-01 -1.75763E+00 -1.01105E+00  1.81068E+00  8.54313E-01 -6.86740E-01  5.04672E+00  1.96169E+00
   5.81339E-01  1.39633E+00  3.54265E-02  2.99122E+00  1.00763E+00 -8.82148E-02  1.17823E+00  2.41021E-01  3.23677E+00  4.04889E+00
   3.31536E+00  3.93688E+00  5.52194E+00  3.01824E+00  5.71757E-01  1.23722E+00 -2.19360E+00 -7.94983E-01  2.38454E+00  2.64195E+00
   1.26136E+00 -1.06460E+00  2.39775E+00  3.21898E-01 -1.21833E+00 -2.24946E+00  1.80002E+00 -3.17148E-01 -3.50079E+00 -2.24561E+00
   1.78446E+00  4.13955E+00  1.09979E+00 -3.22955E+00  8.58745E-01  1.76157E+00 -2.40155E+00 -4.54909E+00 -7.66621E-01 -3.83743E+00
  -1.37114E+00 -3.00880E+00 -1.82904E+00  4.13895E-01 -2.66633E+00 -1.01224E+00 -1.31905E+00  1.71123E+00 -4.27676E+00 -4.07596E+00
  -2.52625E+00  7.20334E-01  2.67253E-01 -6.79705E+00  9.94298E-01  2.13140E-01  3.94637E+00 -4.32277E+00 -2.79969E+00  1.53469E+00
   1.15559E+00 -1.32034E+00 -4.70054E+00 -5.26279E-01  2.99127E-01  7.57322E-02  4.96138E-01 -5.74176E-01  2.13123E+00 -2.18383E+00
  -3.34630E+00 -5.53758E-01 -9.51100E-01 -5.18330E+00 -6.62127E-01 -1.18188E+00 -2.78868E+00 -1.18878E+00 -2.11262E+00  1.41148E+00
   1.01608E+00 -2.95766E+00 -8.64932E-01 -2.79696E+00 -2.48217E+00 -3.16499E+00 -2.86361E+00  9.39046E-01 -5.50709E+00 -5.36493E-01
   6.47302E-01 -1.13515E+00  3.07167E-01 -1.64169E+00 -1.46440E+00 -1.01838E+00  3.27690E+00 -7.18505E-01
 NY points of the fit to the data follow
   1.54302E+01  1.52752E+01  1.53049E+01  1.60772E+01  1.81090E+01  2.14486E+01  2.56797E+01  3.02421E+01  3.46662E+01  3.84974E+01
   4.11761E+01  4.22250E+01  4.14614E+01  3.91529E+01  3.59837E+01  3.27588E+01  2.99618E+01  2.74714E+01  2.48366E+01  2.20752E+01
   2.00364E+01  1.86516E+01  1.75738E+01  1.66379E+01  1.59722E+01  1.57600E+01  1.61759E+01  1.72772E+01  1.89744E+01  2.09418E+01
   2.26854E+01  2.37121E+01  2.36728E+01  2.25763E+01  2.07746E+01  1.88163E+01  1.71027E+01  1.58015E+01  1.48119E+01  1.40631E+01
   1.36928E+01  1.35812E+01  1.36755E+01  1.38931E+01  1.41646E+01  1.44802E+01  1.47276E+01  1.47306E+01  1.43388E+01  1.37067E+01
   1.31011E+01  1.25350E+01  1.19456E+01  1.13951E+01  1.09383E+01  1.04768E+01  9.97956E+00  9.57640E+00  9.27859E+00  8.96376E+00
   8.58832E+00  8.21568E+00  7.85241E+00  7.49442E+00  7.14399E+00  6.82945E+00  6.58187E+00  6.38642E+00  6.21075E+00  6.04527E+00
   5.89203E+00  5.74526E+00  5.60002E+00  5.44312E+00  5.26994E+00  5.08150E+00  4.88312E+00  4.68778E+00  4.51300E+00  4.43610E+00
   4.53003E+00  4.76832E+00  5.07456E+00  5.37666E+00  5.63419E+00  5.80156E+00  5.81024E+00  5.61540E+00  5.22868E+00  4.72053E+00
   4.19683E+00  3.74638E+00  3.39194E+00  3.07984E+00  2.74230E+00  2.43016E+00  2.66591E+00  4.57875E+00  8.63710E+00  1.42507E+01
   2.04646E+01  2.66002E+01  3.21527E+01  3.63624E+01  3.83186E+01  3.75641E+01  3.43396E+01  2.95572E+01  2.44581E+01  2.00098E+01
   1.63551E+01  1.28013E+01  8.72350E+00  4.94907E+00  3.16864E+00  2.53093E+00  2.18541E+00  1.95379E+00  1.80521E+00  1.76610E+00
   2.26576E+00  4.53622E+00  9.10654E+00  1.52771E+01  2.20078E+01  2.86009E+01  3.45468E+01  3.90597E+01  4.11697E+01  4.03661E+01
   3.68716E+01  3.16695E+01  2.60971E+01  2.11546E+01  1.69481E+01  1.27585E+01  8.04045E+00  3.92742E+00  2.22624E+00  1.83451E+00
   1.80457E+00  1.84175E+00  1.80999E+00  1.72801E+00  1.65807E+00  1.55146E+00  1.37746E+00  1.13186E+00  7.92303E-01  3.91204E-01
   2.45171E-03 -3.35129E-01 -5.88543E-01 -8.03226E-01 -1.01355E+00 -1.26120E+00 -1.55282E+00 -1.88458E+00 -2.22194E+00 -2.49709E+00
  -2.69102E+00 -2.80779E+00 -2.83966E+00 -2.78611E+00 -2.68132E+00 -2.59895E+00 -2.60223E+00 -2.71196E+00 -2.90426E+00 -3.13154E+00
  -3.38505E+00 -3.68537E+00 -4.04770E+00 -4.40680E+00 -4.74212E+00 -5.03221E+00 -5.23534E+00 -5.34521E+00 -5.34433E+00 -5.27123E+00
  -5.20889E+00 -5.22666E+00 -5.27872E+00 -5.23098E+00 -4.96272E+00 -4.45433E+00 -3.82351E+00 -3.22613E+00 -2.63416E+00 -2.03845E+00
  -1.55465E+00 -1.36390E+00 -1.58760E+00 -2.09083E+00 -2.58986E+00 -2.80596E+00 -2.58839E+00 -1.95058E+00 -9.33007E-01  4.85839E-01
   2.12333E+00  3.66991E+00  4.76915E+00  4.94782E+00  3.99861E+00  2.21756E+00 -6.67931E-03 -2.30241E+00 -4.28599E+00 -5.39128E+00
  -5.20280E+00 -3.75092E+00 -1.45931E+00  1.04322E+00  3.19886E+00  4.57341E+00  4.81074E+00  4.03607E+00  2.78810E+00  1.33464E+00
  -3.15038E-01 -1.51801E+00 -1.79163E+00 -1.29161E+00 -3.52442E-01  8.59004E-01  2.31431E+00  3.56519E+00  4.38165E+00  4.79540E+00
   4.99763E+00  5.15334E+00  5.18984E+00  5.15367E+00  5.35002E+00  5.88896E+00  6.51300E+00  7.03387E+00  7.36913E+00  7.49864E+00
   7.34651E+00  6.81638E+00  6.02477E+00  5.32901E+00  4.98858E+00  4.96169E+00  5.05701E+00  5.38126E+00  5.96999E+00  6.69116E+00
   7.52420E+00  8.56119E+00  9.64117E+00  1.08359E+01  1.37185E+01  1.92820E+01  2.68302E+01  3.50892E+01  4.32179E+01  5.05389E+01
   5.60246E+01  5.84210E+01  5.70321E+01  5.21392E+01  4.49701E+01  3.73009E+01  3.05679E+01  2.50782E+01  1.98778E+01  1.40181E+01
   8.46741E+00  5.73245E+00  4.87005E+00  4.48743E+00  4.29763E+00  4.14255E+00  3.94473E+00  3.72170E+00  3.48090E+00  3.23744E+00
   3.00508E+00  2.78329E+00  2.56171E+00  2.36287E+00  2.21064E+00  2.09762E+00  2.01507E+00  1.96041E+00  1.93022E+00  1.92284E+00
   1.93275E+00  1.95624E+00  2.00030E+00  2.06818E+00  2.16129E+00  2.28525E+00  2.44704E+00  2.64867E+00  2.88814E+00  3.16554E+00
   3.48124E+00  3.83118E+00  4.21064E+00  4.61461E+00  5.03456E+00  5.46165E+00  5.88669E+00  6.30035E+00  6.69343E+00  7.05706E+00
   7.38317E+00  7.66521E+00  7.89899E+00  8.08330E+00  8.21875E+00  8.30793E+00  8.35587E+00  8.36944E+00  8.35733E+00  8.33052E+00
   8.30415E+00  8.28354E+00  8.25801E+00  8.21615E+00  8.15420E+00  8.07137E+00  7.96304E+00  7.82192E+00  7.65592E+00  7.49255E+00
   7.35625E+00  7.25609E+00  7.18731E+00  7.13711E+00  7.08853E+00  7.02663E+00  6.94997E+00  6.86830E+00  6.77168E+00  6.66832E+00
   6.62247E+00  6.67250E+00  6.76149E+00  6.80682E+00  6.77113E+00  6.67532E+00  6.53036E+00  6.30490E+00  6.05141E+00  5.90482E+00
   5.96509E+00  6.25329E+00  6.72339E+00  7.28002E+00  7.78840E+00  8.11401E+00  8.20501E+00  8.10155E+00  7.76356E+00  7.14585E+00
   6.36867E+00  5.55522E+00  4.76000E+00  3.96190E+00  3.14683E+00  2.43866E+00  1.90110E+00  1.48403E+00  1.15596E+00  8.96289E-01
   6.88904E-01  5.21039E-01  3.83031E-01  2.67986E-01  1.71252E-01  8.98352E-02  2.19250E-02 -3.34008E-02 -7.63795E-02 -1.06775E-01
  -1.24115E-01 -1.27869E-01 -1.17496E-01 -9.23932E-02 -5.18678E-02  4.80102E-03  7.82409E-02  1.68911E-01  2.77122E-01  4.03073E-01
   5.46822E-01  7.08160E-01  8.86462E-01  1.08062E+00  1.28908E+00  1.50979E+00  1.74026E+00  1.97737E+00  2.21737E+00  2.45598E+00
   2.68853E+00  2.91013E+00  3.11574E+00  3.30032E+00  3.45895E+00  3.58712E+00  3.68099E+00  3.73759E+00  3.75483E+00  3.73160E+00
   3.66783E+00  3.56457E+00  3.42401E+00  3.24930E+00  3.04438E+00  2.81375E+00  2.56231E+00  2.29524E+00  2.01781E+00  1.73510E+00
   1.45183E+00  1.17217E+00  8.99785E-01  6.37767E-01  3.88618E-01  1.54182E-01 -6.43506E-02 -2.66351E-01 -4.51618E-01 -6.20278E-01
  -7.72766E-01 -9.09802E-01 -1.03233E+00 -1.14139E+00 -1.23804E+00 -1.32328E+00 -1.39814E+00 -1.46364E+00 -1.52078E+00 -1.57045E+00
  -1.61344E+00 -1.65041E+00 -1.68200E+00 -1.70885E+00 -1.73151E+00 -1.75043E+00 -1.76599E+00 -1.77849E+00 -1.78828E+00 -1.79567E+00
  -1.80093E+00 -1.80427E+00 -1.80581E+00 -1.80571E+00 -1.80415E+00 -1.80130E+00 -1.79728E+00 -1.79215E+00 -1.78595E+00 -1.77878E+00
  -1.77075E+00 -1.76195E+00 -1.75243E+00 -1.74219E+00 -1.73126E+00 -1.71971E+00 -1.70762E+00 -1.69505E+00 -1.68199E+00 -1.66843E+00
  -1.65439E+00 -1.63995E+00 -1.62515E+00 -1.61002E+00 -1.59451E+00 -1.57863E+00 -1.56242E+00 -1.54593E+00 -1.52918E+00 -1.51217E+00
  -1.49487E+00 -1.47728E+00 -1.45944E+00 -1.44140E+00 -1.42315E+00 -1.40467E+00 -1.38593E+00 -1.36695E+00 -1.34776E+00 -1.32840E+00
  -1.30883E+00 -1.28901E+00 -1.26893E+00 -1.24861E+00 -1.22807E+00 -1.20731E+00 -1.18627E+00 -1.16490E+00
 NY background values follow
     1.571E+01    1.556E+01    1.541E+01    1.526E+01    1.510E+01    1.495E+01    1.480E+01    1.465E+01    1.450E+01    1.435E+01
     1.420E+01    1.405E+01    1.390E+01    1.374E+01    1.359E+01    1.344E+01    1.329E+01    1.314E+01    1.299E+01    1.283E+01
     1.268E+01    1.253E+01    1.238E+01    1.223E+01    1.208E+01    1.193E+01    1.178E+01    1.162E+01    1.147E+01    1.132E+01
     1.117E+01    1.102E+01    1.087E+01    1.072E+01    1.057E+01    1.042E+01    1.027E+01    1.012E+01    9.974E+00    9.825E+00
     9.677E+00    9.528E+00    9.380E+00    9.232E+00    9.085E+00    8.937E+00    8.790E+00    8.644E+00    8.497E+00    8.351E+00
     8.206E+00    8.061E+00    7.916E+00    7.772E+00    7.628E+00    7.484E+00    7.342E+00    7.199E+00    7.057E+00    6.916E+00
     6.775E+00    6.635E+00    6.495E+00    6.356E+00    6.218E+00    6.080E+00    5.943E+00    5.807E+00    5.672E+00    5.537E+00
     5.403E+00    5.269E+00    5.137E+00    5.005E+00    4.874E+00    4.744E+00    4.615E+00    4.486E+00    4.359E+00    4.232E+00
     4.107E+00    3.982E+00    3.858E+00    3.736E+00    3.614E+00    3.493E+00    3.374E+00    3.255E+00    3.138E+00    3.022E+00
     2.906E+00    2.792E+00    2.679E+00    2.567E+00    2.457E+00    2.347E+00    2.239E+00    2.132E+00    2.026E+00    1.922E+00
     1.818E+00    1.716E+00    1.615E+00    1.515E+00    1.417E+00    1.320E+00    1.224E+00    1.129E+00    1.035E+00    9.434E-01
     8.526E-01    7.631E-01    6.750E-01    5.881E-01    5.026E-01    4.185E-01    3.357E-01    2.542E-01    1.741E-01    9.544E-02
     1.813E-02   -5.778E-02   -1.323E-01   -2.054E-01   -2.771E-01   -3.473E-01   -4.162E-01   -4.835E-01   -5.495E-01   -6.139E-01
    -6.769E-01   -7.384E-01   -7.984E-01   -8.570E-01   -9.140E-01   -9.695E-01   -1.024E+00   -1.076E+00   -1.127E+00   -1.176E+00
    -1.224E+00   -1.271E+00   -1.316E+00   -1.359E+00   -1.401E+00   -1.442E+00   -1.481E+00   -1.519E+00   -1.555E+00   -1.590E+00
    -1.623E+00   -1.655E+00   -1.686E+00   -1.715E+00   -1.742E+00   -1.769E+00   -1.794E+00   -1.817E+00   -1.839E+00   -1.860E+00
    -1.880E+00   -1.898E+00   -1.915E+00   -1.930E+00   -1.944E+00   -1.957E+00   -1.969E+00   -1.979E+00   -1.988E+00   -1.995E+00
    -2.002E+00   -2.007E+00   -2.011E+00   -2.013E+00   -2.015E+00   -2.015E+00   -2.013E+00   -2.011E+00   -2.007E+00   -2.002E+00
    -1.996E+00   -1.989E+00   -1.981E+00   -1.971E+00   -1.960E+00   -1.949E+00   -1.936E+00   -1.922E+00   -1.907E+00   -1.891E+00
    -1.875E+00   -1.857E+00   -1.839E+00   -1.820E+00   -1.800E+00   -1.779E+00   -1.758E+00   -1.736E+00   -1.713E+00   -1.690E+00
    -1.666E+00   -1.642E+00   -1.617E+00   -1.592E+00   -1.566E+00   -1.540E+00   -1.514E+00   -1.488E+00   -1.461E+00   -1.433E+00
    -1.406E+00   -1.379E+00   -1.351E+00   -1.323E+00   -1.295E+00   -1.268E+00   -1.240E+00   -1.212E+00   -1.184E+00   -1.157E+00
    -1.130E+00   -1.102E+00   -1.075E+00   -1.049E+00   -1.022E+00   -9.961E-01   -9.704E-01   -9.450E-01   -9.201E-01   -8.956E-01
    -8.714E-01   -8.477E-01   -8.244E-01   -8.015E-01   -7.791E-01   -7.570E-01   -7.354E-01   -7.143E-01   -6.935E-01   -6.732E-01
    -6.534E-01   -6.340E-01   -6.151E-01   -5.966E-01   -5.786E-01   -5.610E-01   -5.439E-01   -5.273E-01   -5.112E-01   -4.955E-01
    -4.803E-01   -4.656E-01   -4.514E-01   -4.377E-01   -4.245E-01   -4.118E-01   -3.996E-01   -3.879E-01   -3.767E-01   -3.661E-01
    -3.559E-01   -3.463E-01   -3.372E-01   -3.287E-01   -3.206E-01   -3.132E-01   -3.062E-01   -2.998E-01   -2.940E-01   -2.887E-01
    -2.840E-01   -2.798E-01   -2.762E-01   -2.731E-01   -2.707E-01   -2.687E-01   -2.673E-01   -2.665E-01   -2.662E-01   -2.665E-01
    -2.673E-01   -2.686E-01   -2.704E-01   -2.728E-01   -2.757E-01   -2.791E-01   -2.831E-01   -2.875E-01   -2.924E-01   -2.979E-01
    -3.038E-01   -3.103E-01   -3.172E-01   -3.247E-01   -3.326E-01   -3.410E-01   -3.498E-01   -3.592E-01   -3.690E-01   -3.793E-01
    -3.900E-01   -4.012E-01   -4.129E-01   -4.250E-01   -4.376E-01   -4.506E-01   -4.640E-01   -4.779E-01   -4.922E-01   -5.070E-01
    -5.221E-01   -5.377E-01   -5.537E-01   -5.702E-01   -5.870E-01   -6.042E-01   -6.219E-01   -6.399E-01   -6.584E-01   -6.772E-01
    -6.964E-01   -7.159E-01   -7.357E-01   -7.559E-01   -7.764E-01   -7.972E-01   -8.183E-01   -8.396E-01   -8.612E-01   -8.830E-01
    -9.051E-01   -9.273E-01   -9.498E-01   -9.724E-01   -9.953E-01   -1.018E+00   -1.041E+00   -1.065E+00   -1.088E+00   -1.111E+00
    -1.135E+00   -1.159E+00   -1.182E+00   -1.206E+00   -1.230E+00   -1.254E+00   -1.278E+00   -1.301E+00   -1.325E+00   -1.349E+00
    -1.373E+00   -1.397E+00   -1.420E+00   -1.444E+00   -1.467E+00   -1.490E+00   -1.514E+00   -1.537E+00   -1.560E+00   -1.582E+00
    -1.605E+00   -1.627E+00   -1.649E+00   -1.671E+00   -1.693E+00   -1.715E+00   -1.736E+00   -1.757E+00   -1.777E+00   -1.798E+00
    -1.818E+00   -1.838E+00   -1.857E+00   -1.876E+00   -1.895E+00   -1.914E+00   -1.932E+00   -1.950E+00   -1.967E+00   -1.984E+00
    -2.000E+00   -2.017E+00   -2.032E+00   -2.048E+00   -2.062E+00   -2.077E+00   -2.091E+00   -2.104E+00   -2.117E+00   -2.130E+00
    -2.141E+00   -2.153E+00   -2.164E+00   -2.174E+00   -2.184E+00   -2.193E+00   -2.202E+00   -2.210E+00   -2.217E+00   -2.224E+00
    -2.230E+00   -2.236E+00   -2.240E+00   -2.245E+00   -2.248E+00   -2.251E+00   -2.253E+00   -2.255E+00   -2.256E+00   -2.256E+00
    -2.255E+00   -2.254E+00   -2.252E+00   -2.250E+00   -2.247E+00   -2.243E+00   -2.239E+00   -2.234E+00   -2.228E+00   -2.222E+00
    -2.216E+00   -2.208E+00   -2.201E+00   -2.193E+00   -2.184E+00   -2.175E+00   -2.165E+00   -2.155E+00   -2.145E+00   -2.134E+00
    -2.122E+00   -2.110E+00   -2.098E+00   -2.086E+00   -2.073E+00   -2.059E+00   -2.046E+00   -2.032E+00   -2.017E+00   -2.003E+00
    -1.988E+00   -1.972E+00   -1.957E+00   -1.941E+00   -1.925E+00   -1.909E+00   -1.893E+00   -1.876E+00   -1.859E+00   -1.842E+00
    -1.825E+00   -1.807E+00   -1.790E+00   -1.772E+00   -1.755E+00   -1.737E+00   -1.719E+00   -1.700E+00   -1.682E+00   -1.664E+00
    -1.645E+00   -1.627E+00   -1.608E+00   -1.589E+00   -1.570E+00   -1.551E+00   -1.532E+00   -1.513E+00   -1.494E+00   -1.474E+00
    -1.455E+00   -1.436E+00   -1.416E+00   -1.396E+00   -1.377E+00   -1.357E+00   -1.337E+00   -1.317E+00   -1.297E+00   -1.278E+00
    -1.258E+00   -1.238E+00   -1.217E+00   -1.197E+00   -1.177E+00   -1.157E+00   -1.137E+00   -1.117E+00   -1.097E+00   -1.076E+00
    -1.056E+00   -1.036E+00   -1.016E+00   -9.956E-01   -9.754E-01   -9.552E-01   -9.350E-01   -9.149E-01
 Ala      Conc. = 3.42E+01
