 LCModel (Version 6.3-1L) Copyright: S.W. Provencher.          Ref.: Magn. Reson. Med. 30:672-679 (1993).                
 Slice#3 Row#11 Col#5  PD_05_press_1_raw_act
 36 lines in following concentration table = NCONC+1
    Conc.  %SD /Cr+PCr  Metabolite                                         
    0.000 999%   0.000 Ala                                                 
    0.000 999%   0.000 Asp                                                 
  392.683  33%   0.442 Cr                                                  
  496.037  27%   0.558 PCr                                                 
   67.455 127% 7.6E-02 GABA                                                
    0.000 999%   0.000 Glc                                                 
  399.692  37%   0.450 Gln                                                 
 1.04E+03  17%   1.166 Glu                                                 
  220.609   5%   0.248 GPC                                                 
    0.000 999%   0.000 PCh                                                 
  442.702   9%   0.498 GSH                                                 
  633.331  20%   0.713 Ins                                                 
   87.886  87% 9.9E-02 Lac                                                 
 1.09E+03   8%   1.229 NAA                                                 
  276.150  32%   0.311 NAAG                                                
   25.030  49% 2.8E-02 Scyllo                                              
    0.000 999%   0.000 Tau                                                 
    0.000 999%   0.000 -CrCH2                                              
  220.609   5%   0.248 GPC+PCh                                             
 1.37E+03   3%   1.539 NAA+NAAG                                            
  888.720   3%   1.000 Cr+PCr                                              
 1.44E+03  19%   1.616 Glu+Gln                                             
 1.94E+03  18%   2.187 Lip13a                                              
    0.000 999%   0.000 Lip13b                                              
  581.369  30%   0.654 Lip09                                               
  213.147  71%   0.240 MM09                                                
  258.088  51%   0.290 Lip20                                               
  523.127  38%   0.589 MM20                                                
   47.302 246% 5.3E-02 MM12                                                
  791.603  28%   0.891 MM14                                                
  402.983  30%   0.453 MM17                                                
 1.94E+03  18%   2.187 Lip13a+Lip13b                                       
 2.78E+03   8%   3.131 MM14+Lip13a+Lip13b+MM12                             
  794.516  13%   0.894 MM09+Lip09                                          
  781.215  23%   0.879 MM20+Lip20                                          
   6 lines in following misc. output table
  FWHM = 0.076 ppm    S/N =  13                                            
  Data shift = 0.000 ppm                                                   
  Ph:  11 deg      -2.3 deg/ppm                                            
  alphaB,S = 1.5E+00,   1.0E+02                                            
   14 spline knots.   Ns = 9(1)                                            
  (16) 3 infls.   (15) 1 extrs.                                            
  498 points on ppm-axis = NY
      4.000000     3.992357     3.984714     3.977070     3.969427     3.961784     3.954141     3.946497     3.938854     3.931211
      3.923568     3.915925     3.908281     3.900638     3.892995     3.885352     3.877708     3.870065     3.862422     3.854779
      3.847136     3.839492     3.831849     3.824206     3.816563     3.808919     3.801276     3.793633     3.785990     3.778347
      3.770703     3.763060     3.755417     3.747774     3.740130     3.732487     3.724844     3.717201     3.709558     3.701914
      3.694271     3.686628     3.678985     3.671341     3.663698     3.656055     3.648412     3.640769     3.633125     3.625482
      3.617839     3.610196     3.602552     3.594909     3.587266     3.579623     3.571980     3.564336     3.556693     3.549050
      3.541407     3.533763     3.526120     3.518477     3.510834     3.503191     3.495547     3.487904     3.480261     3.472618
      3.464974     3.457331     3.449688     3.442045     3.434402     3.426758     3.419115     3.411472     3.403829     3.396185
      3.388542     3.380899     3.373256     3.365613     3.357969     3.350326     3.342683     3.335040     3.327396     3.319753
      3.312110     3.304467     3.296824     3.289180     3.281537     3.273894     3.266251     3.258607     3.250964     3.243321
      3.235678     3.228034     3.220391     3.212748     3.205105     3.197462     3.189818     3.182175     3.174532     3.166889
      3.159245     3.151602     3.143959     3.136316     3.128673     3.121029     3.113386     3.105743     3.098100     3.090456
      3.082813     3.075170     3.067527     3.059884     3.052240     3.044597     3.036954     3.029311     3.021667     3.014024
      3.006381     2.998738     2.991095     2.983451     2.975808     2.968165     2.960522     2.952878     2.945235     2.937592
      2.929949     2.922306     2.914662     2.907019     2.899376     2.891733     2.884089     2.876446     2.868803     2.861160
      2.853517     2.845873     2.838230     2.830587     2.822944     2.815300     2.807657     2.800014     2.792371     2.784728
      2.777084     2.769441     2.761798     2.754155     2.746511     2.738868     2.731225     2.723582     2.715939     2.708295
      2.700652     2.693009     2.685366     2.677722     2.670079     2.662436     2.654793     2.647150     2.639506     2.631863
      2.624220     2.616577     2.608933     2.601290     2.593647     2.586004     2.578361     2.570717     2.563074     2.555431
      2.547788     2.540144     2.532501     2.524858     2.517215     2.509572     2.501928     2.494285     2.486642     2.478999
      2.471355     2.463712     2.456069     2.448426     2.440783     2.433139     2.425496     2.417853     2.410210     2.402566
      2.394923     2.387280     2.379637     2.371994     2.364350     2.356707     2.349064     2.341421     2.333777     2.326134
      2.318491     2.310848     2.303205     2.295561     2.287918     2.280275     2.272632     2.264988     2.257345     2.249702
      2.242059     2.234416     2.226772     2.219129     2.211486     2.203843     2.196199     2.188556     2.180913     2.173270
      2.165627     2.157983     2.150340     2.142697     2.135054     2.127410     2.119767     2.112124     2.104481     2.096838
      2.089194     2.081551     2.073908     2.066265     2.058621     2.050978     2.043335     2.035692     2.028049     2.020405
      2.012762     2.005119     1.997476     1.989833     1.982190     1.974546     1.966903     1.959260     1.951617     1.943974
      1.936331     1.928688     1.921045     1.913402     1.905759     1.898115     1.890472     1.882829     1.875186     1.867543
      1.859900     1.852257     1.844614     1.836971     1.829327     1.821684     1.814041     1.806398     1.798755     1.791112
      1.783469     1.775826     1.768183     1.760540     1.752896     1.745253     1.737610     1.729967     1.722324     1.714681
      1.707038     1.699395     1.691752     1.684108     1.676465     1.668822     1.661179     1.653536     1.645893     1.638250
      1.630607     1.622964     1.615321     1.607677     1.600034     1.592391     1.584748     1.577105     1.569462     1.561819
      1.554176     1.546533     1.538890     1.531246     1.523603     1.515960     1.508317     1.500674     1.493031     1.485388
      1.477745     1.470102     1.462458     1.454815     1.447172     1.439529     1.431886     1.424243     1.416600     1.408957
      1.401314     1.393671     1.386027     1.378384     1.370741     1.363098     1.355455     1.347812     1.340169     1.332526
      1.324883     1.317240     1.309596     1.301953     1.294310     1.286667     1.279024     1.271381     1.263738     1.256095
      1.248452     1.240808     1.233165     1.225522     1.217879     1.210236     1.202593     1.194950     1.187307     1.179664
      1.172021     1.164377     1.156734     1.149091     1.141448     1.133805     1.126162     1.118519     1.110876     1.103233
      1.095590     1.087946     1.080303     1.072660     1.065017     1.057374     1.049731     1.042088     1.034445     1.026802
      1.019158     1.011515     1.003872     0.996229     0.988586     0.980943     0.973300     0.965657     0.958014     0.950371
      0.942727     0.935084     0.927441     0.919798     0.912155     0.904512     0.896869     0.889226     0.881583     0.873940
      0.866296     0.858653     0.851010     0.843367     0.835724     0.828081     0.820438     0.812795     0.805152     0.797508
      0.789865     0.782222     0.774579     0.766936     0.759293     0.751650     0.744007     0.736364     0.728721     0.721077
      0.713434     0.705791     0.698148     0.690505     0.682862     0.675219     0.667576     0.659933     0.652290     0.644646
      0.637003     0.629360     0.621717     0.614074     0.606431     0.598788     0.591145     0.583502     0.575858     0.568215
      0.560572     0.552929     0.545286     0.537643     0.530000     0.522357     0.514714     0.507071     0.499427     0.491784
      0.484141     0.476498     0.468855     0.461212     0.453569     0.445925     0.438282     0.430639     0.422996     0.415353
      0.407710     0.400067     0.392424     0.384780     0.377137     0.369494     0.361851     0.354208     0.346565     0.338922
      0.331278     0.323635     0.315992     0.308349     0.300706     0.293063     0.285420     0.277777     0.270133     0.262490
      0.254847     0.247204     0.239561     0.231918     0.224275     0.216631     0.208988     0.201345
 NY phased data points follow
   9.81125E+00  1.11746E+01  1.12468E+01  1.33646E+01  1.73000E+01  1.73340E+01  1.96130E+01  2.12487E+01  2.30656E+01  2.50882E+01
   2.44150E+01  2.43994E+01  1.95925E+01  1.99535E+01  1.85947E+01  1.58693E+01  1.41049E+01  1.30253E+01  1.07682E+01  1.02438E+01
   1.02978E+01  1.24241E+01  1.28290E+01  1.27528E+01  1.52874E+01  1.22554E+01  1.39528E+01  1.58484E+01  1.38125E+01  1.46620E+01
   1.53555E+01  1.42667E+01  1.36445E+01  1.25548E+01  1.35683E+01  1.04252E+01  1.08861E+01  9.38619E+00  1.04137E+01  1.09447E+01
   1.00502E+01  1.04472E+01  1.05523E+01  1.05942E+01  9.00294E+00  1.00531E+01  9.98804E+00  1.07568E+01  1.08286E+01  1.13559E+01
   9.96934E+00  1.05116E+01  9.88289E+00  1.02182E+01  7.01270E+00  6.18535E+00  1.00075E+01  7.22979E+00  5.66596E+00  7.96013E+00
   6.37722E+00  6.00253E+00  5.04296E+00  4.76186E+00  4.20038E+00  5.58395E+00  4.69210E+00  4.90107E+00  5.08749E+00  4.66629E+00
   4.44470E+00  4.32297E+00  5.27644E+00  5.11489E+00  5.10448E+00  2.35764E+00  3.70263E+00  6.32005E+00  3.83485E+00  4.54484E+00
   4.93667E+00  3.19269E+00  4.40789E+00  2.53245E+00  4.41918E+00  3.91180E+00  3.39292E+00  5.25075E+00  3.39420E+00  5.07807E+00
   5.87459E+00  3.43417E+00  5.58510E+00  3.87591E+00  5.88909E+00  6.94006E+00  7.63341E+00  8.19508E+00  1.03655E+01  1.20218E+01
   1.26865E+01  1.55819E+01  1.84654E+01  1.79150E+01  1.85751E+01  1.80929E+01  1.55611E+01  1.22695E+01  9.81460E+00  7.78159E+00
   6.86531E+00  5.11638E+00  4.55429E+00  4.52725E+00  5.10829E+00  6.62275E+00  3.93976E+00  6.42641E+00  6.58457E+00  1.02492E+01
   9.79380E+00  1.27386E+01  1.46420E+01  1.66864E+01  2.06999E+01  2.18682E+01  2.29179E+01  2.37712E+01  2.33535E+01  2.17408E+01
   2.11321E+01  1.53091E+01  1.43037E+01  8.67642E+00  7.49147E+00  4.58040E+00  6.11552E+00  2.95550E+00  2.50476E+00  3.39068E+00
   3.12881E+00  3.65697E+00  3.60485E+00  2.70135E+00  4.35804E+00  4.09875E+00  3.83309E+00  3.53402E+00  3.99280E+00  2.03925E+00
   3.67603E+00  2.47240E+00  1.51610E+00  2.77446E+00  7.99894E-01 -1.06233E+00  2.16851E+00  1.79839E+00  6.46501E-01 -2.03313E-01
   7.80770E-01  1.84959E+00  2.94438E+00  1.38837E+00  7.19200E-01 -1.09083E+00  1.73472E+00  1.20287E+00  1.78136E-01 -7.29790E-01
  -2.97177E+00 -2.40523E+00 -4.38191E+00 -5.25192E+00 -3.86019E+00 -3.34879E+00 -6.03126E+00 -3.24311E+00 -5.24024E+00 -4.94338E+00
  -2.13151E+00 -3.90213E+00 -3.34211E+00 -3.41675E+00 -1.90309E+00 -4.56911E+00 -1.90232E+00  1.43266E-01 -1.68096E+00  1.36766E+00
   1.31400E-01  7.34352E-01  1.17809E+00  1.57991E+00  1.13034E+00  1.97269E+00  1.11155E+00  1.17165E-01 -7.69348E-01  5.89494E-01
  -6.27475E-01  1.59257E-02 -1.99746E+00 -9.81789E-01  7.40179E-01 -1.92236E+00 -5.84897E-01 -1.90313E+00 -2.84399E+00 -1.62212E+00
  -1.26525E+00 -7.11211E-01  2.38175E+00  1.88540E+00 -2.89763E-01  1.46151E+00  1.51416E+00  8.27050E-01  1.50344E+00  1.86428E+00
  -2.13868E+00 -5.68143E-01 -3.01715E+00 -7.72441E-01 -1.00737E+00 -2.77021E+00 -2.23576E+00 -5.95583E-01  4.45272E-01  3.32399E+00
   5.13771E+00  2.43119E+00  1.11953E+00  2.51544E+00  1.85741E-01 -1.89225E-02  6.11206E-01  1.61344E+00  5.06309E-01  1.61893E-01
   6.53393E-01 -3.06620E-01  8.32858E-01  9.16230E-01  8.99608E-01  1.04398E+00  2.94518E+00  5.18447E+00  3.32270E+00  8.15304E+00
   8.40569E+00  1.01776E+01  1.24511E+01  1.54509E+01  2.03084E+01  2.28220E+01  2.44175E+01  2.78449E+01  3.22322E+01  3.50979E+01
   3.33132E+01  3.25592E+01  2.99868E+01  2.49084E+01  1.89645E+01  1.38585E+01  7.61016E+00  5.80674E+00  9.41669E-01  2.51843E+00
  -2.49435E-02  1.12001E+00  1.69288E+00 -2.63131E-01  2.58783E+00  1.22797E+00  1.45877E+00  2.24997E+00  3.71063E-01 -1.14947E+00
  -8.20639E-01 -6.77507E-01  6.53880E-01 -1.22321E+00  1.73770E+00  3.50198E-01 -1.41754E+00 -1.07496E+00  6.29121E-01 -3.81924E-01
   1.80910E+00  1.24337E+00  1.78677E+00 -1.52267E-01  9.68352E-01  1.10975E+00 -6.31362E-01  4.38471E-01  2.09582E-01  8.76927E-01
   6.39823E-01  1.16669E+00  1.53819E+00  1.01011E+00  1.74317E-01  2.12579E+00  3.52660E+00  3.07829E+00  1.78143E+00  9.10668E-01
   1.85305E+00  2.72461E+00  3.73658E+00  1.44457E+00  2.23859E+00  4.67797E+00  3.95512E+00  4.09305E+00  4.18179E+00  3.01038E+00
   2.48874E+00  1.95305E+00  5.05881E+00  4.42560E+00  4.98923E+00  3.14001E+00  4.46709E+00  6.15542E+00  4.97126E+00  4.86860E+00
   5.37213E+00  4.98974E+00  5.68927E+00  4.75718E+00  5.81817E+00  4.93509E+00  5.75032E+00  5.55453E+00  5.19478E+00  6.63036E+00
   5.32676E+00  5.90453E+00  7.20047E+00  8.50073E+00  8.32160E+00  9.07652E+00  9.05511E+00  6.94203E+00  9.16424E+00  9.14027E+00
   8.28514E+00  7.33688E+00  7.32382E+00  6.47371E+00  9.61904E+00  7.41348E+00  8.57087E+00  7.13153E+00  7.78992E+00  7.66010E+00
   8.61144E+00  9.44921E+00  7.99329E+00  7.88451E+00  7.49684E+00  5.81046E+00  6.02376E+00  4.08860E+00  4.55531E+00  5.07056E+00
   3.60170E+00  3.04142E+00  4.54028E+00  3.72612E+00  3.62063E+00  2.75527E+00  3.19336E+00  2.64820E+00  5.14896E+00  3.10822E+00
   2.99240E+00  1.31511E+00  3.00018E+00  3.73730E+00  3.34845E+00  2.32608E+00  2.09334E+00  2.37167E+00  2.83348E+00  4.03875E+00
   2.22768E+00  2.57849E+00  2.52567E+00  2.67498E+00  4.92468E+00  3.59465E+00  5.17379E+00  4.41962E+00  5.01357E+00  2.62924E+00
   2.72806E+00  4.12969E+00  2.80193E+00  4.99594E+00  4.84061E+00  1.93439E+00  2.46578E+00  4.44932E+00  3.56230E+00  5.65934E+00
   3.70211E+00  5.28144E+00  4.64834E+00  4.17491E+00  5.18575E+00  2.38199E+00  3.19609E+00  2.01896E+00  4.30998E+00  4.43459E+00
   2.92268E+00  1.23746E+00  3.19704E+00  1.53149E+00  1.31080E+00  7.97039E-01  7.53672E-01  1.27722E+00  4.39448E+00  2.84822E+00
   7.29574E-01  2.86256E+00  1.57101E+00  2.30072E+00  2.51747E+00  1.82451E-01  2.89446E+00  1.15505E+00  1.06123E+00  2.41474E+00
  -3.19171E-01  1.73761E+00  2.84075E+00 -7.15796E-01  9.96265E-01 -5.14823E-01  7.54586E-01  7.13348E-01  1.51521E+00  1.65627E+00
   2.81243E-01  6.96503E-01  2.12575E+00 -6.90531E-02  1.17484E-01  1.40870E+00  2.18900E-01  3.36630E-01 -3.19885E-01  1.12140E+00
   9.65051E-01  1.56539E+00  9.47468E-01  1.66181E+00  1.65907E+00  8.68531E-02 -1.00242E+00  1.01326E+00 -1.53047E+00  1.75488E+00
  -6.51408E-01  1.06321E+00  1.46863E+00  8.90878E-01  1.72790E+00  1.71046E-01 -8.51114E-01  3.05586E-01  1.94680E-02  1.22320E+00
  -1.66937E-01  2.47989E+00  1.02470E+00 -6.79174E-01  7.71461E-01  1.36294E+00  7.58022E-01  1.06248E+00  3.35197E-01  1.56997E+00
   3.89036E-01  2.84824E-01  2.14101E+00  1.40821E+00  9.28427E-01 -1.08555E-01  4.40842E-01  4.21531E-01
 NY points of the fit to the data follow
   1.08548E+01  1.18073E+01  1.30399E+01  1.44576E+01  1.58163E+01  1.71985E+01  1.87428E+01  2.03435E+01  2.17730E+01  2.28064E+01
   2.32244E+01  2.28778E+01  2.17764E+01  2.00811E+01  1.79531E+01  1.56761E+01  1.36281E+01  1.20255E+01  1.09370E+01  1.02281E+01
   1.02018E+01  1.06491E+01  1.10781E+01  1.15423E+01  1.20749E+01  1.26966E+01  1.35070E+01  1.44143E+01  1.51879E+01  1.56619E+01
   1.57772E+01  1.55820E+01  1.49734E+01  1.39042E+01  1.25863E+01  1.12135E+01  9.93409E+00  9.01708E+00  8.67515E+00  8.66142E+00
   8.76634E+00  9.01053E+00  9.33311E+00  9.67997E+00  1.00515E+01  1.03906E+01  1.05584E+01  1.04794E+01  1.01971E+01  9.76230E+00
   9.19202E+00  8.54464E+00  7.91647E+00  7.37310E+00  6.96506E+00  6.74635E+00  6.67953E+00  6.67453E+00  6.70424E+00  6.73699E+00
   6.72659E+00  6.62947E+00  6.46498E+00  6.27538E+00  6.06678E+00  5.86292E+00  5.70456E+00  5.62659E+00  5.63594E+00  5.70214E+00
   5.77947E+00  5.81993E+00  5.80425E+00  5.73921E+00  5.62817E+00  5.48392E+00  5.33386E+00  5.21556E+00  5.12845E+00  5.00330E+00
   4.85839E+00  4.72109E+00  4.59581E+00  4.50029E+00  4.42474E+00  4.33246E+00  4.20279E+00  4.07583E+00  3.95119E+00  3.81101E+00
   3.68239E+00  3.61540E+00  3.65082E+00  3.92380E+00  5.04214E+00  6.96743E+00  8.61546E+00  9.91591E+00  1.11014E+01  1.23234E+01
   1.38915E+01  1.57668E+01  1.73323E+01  1.81253E+01  1.81580E+01  1.74593E+01  1.58731E+01  1.35083E+01  1.08119E+01  8.20433E+00
   6.06198E+00  4.67539E+00  3.95725E+00  3.49342E+00  3.14672E+00  3.09410E+00  3.25739E+00  4.01758E+00  6.20687E+00  8.78402E+00
   1.09226E+01  1.28494E+01  1.47670E+01  1.70106E+01  1.98585E+01  2.26499E+01  2.44309E+01  2.49763E+01  2.44452E+01  2.28016E+01
   2.00392E+01  1.64843E+01  1.27172E+01  9.21616E+00  6.49670E+00  4.76865E+00  3.71998E+00  2.92292E+00  2.58556E+00  2.65949E+00
   2.91691E+00  3.21935E+00  3.44040E+00  3.49520E+00  3.38795E+00  3.14668E+00  2.82797E+00  2.52011E+00  2.26131E+00  2.05406E+00
   1.90141E+00  1.71971E+00  1.48479E+00  1.27862E+00  1.13214E+00  1.05846E+00  1.04963E+00  9.92912E-01  8.60977E-01  6.94243E-01
   5.27741E-01  3.69016E-01  2.25774E-01  9.83063E-02 -2.32834E-02 -1.57079E-01 -3.45265E-01 -6.34051E-01 -9.39258E-01 -1.18798E+00
  -1.38689E+00 -1.56508E+00 -1.78324E+00 -1.99927E+00 -2.17273E+00 -2.29123E+00 -2.37496E+00 -2.47969E+00 -2.61268E+00 -2.63218E+00
  -2.49103E+00 -2.23948E+00 -1.93163E+00 -1.61311E+00 -1.32066E+00 -9.95770E-01 -5.88689E-01 -1.65082E-01  1.93122E-01  4.91091E-01
   7.60776E-01  9.47250E-01  9.85684E-01  8.55344E-01  6.04191E-01  3.69501E-01  2.64143E-01  3.60922E-01  6.16245E-01  9.33168E-01
   1.23491E+00  1.45262E+00  1.60164E+00  1.57917E+00  1.27688E+00  7.95884E-01  2.49427E-01 -1.54202E-01 -3.25062E-01 -4.65287E-01
  -5.26284E-01 -3.87589E-01  8.72665E-04  5.23994E-01  9.68589E-01  1.28697E+00  1.48573E+00  1.42843E+00  1.05150E+00  3.38836E-01
  -6.36890E-01 -1.63150E+00 -2.36331E+00 -2.62269E+00 -2.35577E+00 -1.66107E+00 -7.51628E-01  2.19722E-01  1.15597E+00  1.79625E+00
   2.08558E+00  2.13469E+00  2.04686E+00  1.91810E+00  1.80313E+00  1.72842E+00  1.72510E+00  1.72245E+00  1.60027E+00  1.29815E+00
   8.64663E-01  4.53858E-01  1.61899E-01  4.41638E-02  1.82138E-01  6.13727E-01  1.37110E+00  2.61081E+00  3.92857E+00  4.99188E+00
   6.36982E+00  9.63983E+00  1.35834E+01  1.70732E+01  2.02792E+01  2.31313E+01  2.59120E+01  2.91010E+01  3.20676E+01  3.35605E+01
   3.32893E+01  3.17068E+01  2.88689E+01  2.46768E+01  1.96749E+01  1.45909E+01  9.90783E+00  6.36165E+00  4.24999E+00  3.07059E+00
   2.03823E+00  1.40580E+00  1.15643E+00  1.02548E+00  9.39378E-01  8.74592E-01  8.22730E-01  7.53189E-01  6.53933E-01  5.30601E-01
   4.00927E-01  2.80661E-01  1.83390E-01  1.19712E-01  8.52601E-02  7.01372E-02  6.88427E-02  7.85265E-02  9.49372E-02  1.16187E-01
   1.43255E-01  1.82779E-01  2.35283E-01  3.00292E-01  3.79096E-01  4.69521E-01  5.66583E-01  6.70966E-01  7.84868E-01  9.09679E-01
   1.04637E+00  1.19492E+00  1.35230E+00  1.51573E+00  1.68206E+00  1.84706E+00  2.00635E+00  2.15667E+00  2.29686E+00  2.42702E+00
   2.54623E+00  2.65455E+00  2.75292E+00  2.84246E+00  2.92491E+00  3.00251E+00  3.07765E+00  3.15283E+00  3.23060E+00  3.31347E+00
   3.40370E+00  3.50304E+00  3.61264E+00  3.73313E+00  3.86471E+00  4.00710E+00  4.15961E+00  4.32112E+00  4.49023E+00  4.66550E+00
   4.84561E+00  5.02954E+00  5.21654E+00  5.40634E+00  5.59939E+00  5.79735E+00  6.00412E+00  6.22943E+00  6.49637E+00  6.77837E+00
   6.99823E+00  7.17728E+00  7.34048E+00  7.49166E+00  7.63200E+00  7.73542E+00  7.81022E+00  7.88016E+00  7.91767E+00  7.91804E+00
   7.88201E+00  7.83330E+00  7.83294E+00  7.91728E+00  8.06605E+00  8.23527E+00  8.38081E+00  8.46058E+00  8.44698E+00  8.33689E+00
   8.12490E+00  7.82784E+00  7.47690E+00  7.11197E+00  6.75621E+00  6.39955E+00  6.03848E+00  5.68856E+00  5.34909E+00  5.02051E+00
   4.70487E+00  4.40446E+00  4.12130E+00  3.85713E+00  3.61337E+00  3.39116E+00  3.19129E+00  3.01420E+00  2.86006E+00  2.72884E+00
   2.62045E+00  2.53473E+00  2.47139E+00  2.43005E+00  2.41021E+00  2.41139E+00  2.43306E+00  2.47460E+00  2.53518E+00  2.61374E+00
   2.70898E+00  2.81941E+00  2.94325E+00  3.07839E+00  3.22233E+00  3.37224E+00  3.52503E+00  3.67745E+00  3.82611E+00  3.96756E+00
   4.09832E+00  4.21510E+00  4.31494E+00  4.39532E+00  4.45418E+00  4.48997E+00  4.50171E+00  4.48909E+00  4.45243E+00  4.39269E+00
   4.31131E+00  4.21012E+00  4.09131E+00  3.95736E+00  3.81096E+00  3.65483E+00  3.49164E+00  3.32391E+00  3.15398E+00  2.98404E+00
   2.81606E+00  2.65170E+00  2.49229E+00  2.33889E+00  2.19233E+00  2.05324E+00  1.92205E+00  1.79896E+00  1.68397E+00  1.57697E+00
   1.47777E+00  1.38615E+00  1.30179E+00  1.22431E+00  1.15326E+00  1.08822E+00  1.02881E+00  9.74655E-01  9.25372E-01  8.80551E-01
   8.39801E-01  8.02794E-01  7.69260E-01  7.38939E-01  7.11551E-01  6.86815E-01  6.64490E-01  6.44394E-01  6.26382E-01  6.10298E-01
   5.95959E-01  5.83190E-01  5.71865E-01  5.61905E-01  5.53237E-01  5.45760E-01  5.39352E-01  5.33911E-01  5.29382E-01  5.25737E-01
   5.22931E-01  5.20885E-01  5.19514E-01  5.18767E-01  5.18629E-01  5.19095E-01  5.20127E-01  5.21659E-01  5.23633E-01  5.26033E-01
   5.28867E-01  5.32129E-01  5.35781E-01  5.39767E-01  5.44056E-01  5.48655E-01  5.53579E-01  5.58815E-01  5.64318E-01  5.70047E-01
   5.75991E-01  5.82172E-01  5.88599E-01  5.95251E-01  6.02083E-01  6.09069E-01  6.16220E-01  6.23559E-01  6.31087E-01  6.38771E-01
   6.46573E-01  6.54485E-01  6.62530E-01  6.70728E-01  6.79065E-01  6.87505E-01  6.96023E-01  7.04627E-01
 NY background values follow
     7.251E+00    7.204E+00    7.158E+00    7.112E+00    7.066E+00    7.020E+00    6.973E+00    6.927E+00    6.881E+00    6.835E+00
     6.789E+00    6.742E+00    6.696E+00    6.650E+00    6.604E+00    6.557E+00    6.511E+00    6.465E+00    6.419E+00    6.372E+00
     6.326E+00    6.280E+00    6.234E+00    6.188E+00    6.142E+00    6.095E+00    6.049E+00    6.003E+00    5.957E+00    5.911E+00
     5.865E+00    5.819E+00    5.773E+00    5.727E+00    5.680E+00    5.634E+00    5.588E+00    5.543E+00    5.497E+00    5.451E+00
     5.405E+00    5.359E+00    5.313E+00    5.267E+00    5.221E+00    5.176E+00    5.130E+00    5.084E+00    5.038E+00    4.993E+00
     4.947E+00    4.902E+00    4.856E+00    4.811E+00    4.765E+00    4.720E+00    4.674E+00    4.629E+00    4.584E+00    4.539E+00
     4.493E+00    4.448E+00    4.403E+00    4.358E+00    4.313E+00    4.268E+00    4.224E+00    4.179E+00    4.134E+00    4.090E+00
     4.045E+00    4.001E+00    3.956E+00    3.912E+00    3.868E+00    3.824E+00    3.780E+00    3.736E+00    3.692E+00    3.648E+00
     3.604E+00    3.560E+00    3.517E+00    3.473E+00    3.430E+00    3.387E+00    3.344E+00    3.301E+00    3.258E+00    3.215E+00
     3.172E+00    3.129E+00    3.087E+00    3.045E+00    3.002E+00    2.960E+00    2.918E+00    2.876E+00    2.834E+00    2.792E+00
     2.751E+00    2.709E+00    2.668E+00    2.627E+00    2.585E+00    2.544E+00    2.503E+00    2.463E+00    2.422E+00    2.381E+00
     2.341E+00    2.301E+00    2.260E+00    2.220E+00    2.180E+00    2.141E+00    2.101E+00    2.061E+00    2.022E+00    1.983E+00
     1.943E+00    1.904E+00    1.865E+00    1.827E+00    1.788E+00    1.750E+00    1.711E+00    1.673E+00    1.635E+00    1.597E+00
     1.559E+00    1.521E+00    1.484E+00    1.446E+00    1.409E+00    1.372E+00    1.335E+00    1.298E+00    1.262E+00    1.225E+00
     1.189E+00    1.152E+00    1.116E+00    1.080E+00    1.045E+00    1.009E+00    9.736E-01    9.384E-01    9.033E-01    8.684E-01
     8.337E-01    7.992E-01    7.648E-01    7.307E-01    6.967E-01    6.629E-01    6.293E-01    5.959E-01    5.627E-01    5.297E-01
     4.969E-01    4.644E-01    4.320E-01    3.998E-01    3.679E-01    3.362E-01    3.047E-01    2.734E-01    2.423E-01    2.115E-01
     1.809E-01    1.506E-01    1.204E-01    9.055E-02    6.091E-02    3.152E-02    2.367E-03   -2.653E-02   -5.518E-02   -8.357E-02
    -1.117E-01   -1.396E-01   -1.672E-01   -1.945E-01   -2.216E-01   -2.485E-01   -2.750E-01   -3.013E-01   -3.274E-01   -3.531E-01
    -3.787E-01   -4.039E-01   -4.289E-01   -4.537E-01   -4.781E-01   -5.023E-01   -5.263E-01   -5.500E-01   -5.734E-01   -5.966E-01
    -6.195E-01   -6.422E-01   -6.646E-01   -6.867E-01   -7.086E-01   -7.302E-01   -7.516E-01   -7.727E-01   -7.935E-01   -8.141E-01
    -8.344E-01   -8.545E-01   -8.743E-01   -8.939E-01   -9.131E-01   -9.322E-01   -9.510E-01   -9.695E-01   -9.877E-01   -1.006E+00
    -1.023E+00   -1.041E+00   -1.058E+00   -1.075E+00   -1.092E+00   -1.108E+00   -1.125E+00   -1.141E+00   -1.156E+00   -1.172E+00
    -1.187E+00   -1.202E+00   -1.217E+00   -1.231E+00   -1.245E+00   -1.259E+00   -1.273E+00   -1.286E+00   -1.299E+00   -1.312E+00
    -1.325E+00   -1.338E+00   -1.350E+00   -1.362E+00   -1.374E+00   -1.385E+00   -1.396E+00   -1.407E+00   -1.418E+00   -1.429E+00
    -1.439E+00   -1.449E+00   -1.459E+00   -1.469E+00   -1.478E+00   -1.487E+00   -1.496E+00   -1.505E+00   -1.513E+00   -1.521E+00
    -1.530E+00   -1.537E+00   -1.545E+00   -1.552E+00   -1.559E+00   -1.566E+00   -1.573E+00   -1.579E+00   -1.586E+00   -1.592E+00
    -1.598E+00   -1.603E+00   -1.609E+00   -1.614E+00   -1.619E+00   -1.623E+00   -1.628E+00   -1.632E+00   -1.636E+00   -1.640E+00
    -1.644E+00   -1.648E+00   -1.651E+00   -1.654E+00   -1.657E+00   -1.660E+00   -1.662E+00   -1.665E+00   -1.667E+00   -1.669E+00
    -1.670E+00   -1.672E+00   -1.673E+00   -1.674E+00   -1.675E+00   -1.676E+00   -1.677E+00   -1.677E+00   -1.678E+00   -1.678E+00
    -1.678E+00   -1.677E+00   -1.677E+00   -1.676E+00   -1.675E+00   -1.675E+00   -1.673E+00   -1.672E+00   -1.671E+00   -1.669E+00
    -1.667E+00   -1.665E+00   -1.663E+00   -1.661E+00   -1.658E+00   -1.656E+00   -1.653E+00   -1.650E+00   -1.647E+00   -1.644E+00
    -1.640E+00   -1.637E+00   -1.633E+00   -1.629E+00   -1.625E+00   -1.621E+00   -1.617E+00   -1.612E+00   -1.608E+00   -1.603E+00
    -1.598E+00   -1.593E+00   -1.588E+00   -1.583E+00   -1.577E+00   -1.572E+00   -1.566E+00   -1.560E+00   -1.554E+00   -1.548E+00
    -1.542E+00   -1.536E+00   -1.529E+00   -1.523E+00   -1.516E+00   -1.509E+00   -1.502E+00   -1.495E+00   -1.488E+00   -1.481E+00
    -1.473E+00   -1.466E+00   -1.458E+00   -1.450E+00   -1.442E+00   -1.434E+00   -1.426E+00   -1.418E+00   -1.410E+00   -1.401E+00
    -1.393E+00   -1.384E+00   -1.375E+00   -1.366E+00   -1.357E+00   -1.348E+00   -1.339E+00   -1.330E+00   -1.320E+00   -1.311E+00
    -1.301E+00   -1.292E+00   -1.282E+00   -1.272E+00   -1.262E+00   -1.252E+00   -1.242E+00   -1.232E+00   -1.222E+00   -1.211E+00
    -1.201E+00   -1.190E+00   -1.180E+00   -1.169E+00   -1.158E+00   -1.147E+00   -1.137E+00   -1.126E+00   -1.114E+00   -1.103E+00
    -1.092E+00   -1.081E+00   -1.069E+00   -1.058E+00   -1.047E+00   -1.035E+00   -1.023E+00   -1.012E+00   -1.000E+00   -9.882E-01
    -9.763E-01   -9.644E-01   -9.524E-01   -9.403E-01   -9.282E-01   -9.161E-01   -9.039E-01   -8.916E-01   -8.793E-01   -8.669E-01
    -8.545E-01   -8.421E-01   -8.296E-01   -8.170E-01   -8.044E-01   -7.918E-01   -7.791E-01   -7.663E-01   -7.536E-01   -7.408E-01
    -7.279E-01   -7.150E-01   -7.021E-01   -6.891E-01   -6.761E-01   -6.631E-01   -6.500E-01   -6.369E-01   -6.238E-01   -6.106E-01
    -5.974E-01   -5.842E-01   -5.710E-01   -5.577E-01   -5.444E-01   -5.311E-01   -5.177E-01   -5.044E-01   -4.910E-01   -4.776E-01
    -4.642E-01   -4.507E-01   -4.372E-01   -4.238E-01   -4.103E-01   -3.968E-01   -3.832E-01   -3.697E-01   -3.561E-01   -3.426E-01
    -3.290E-01   -3.154E-01   -3.019E-01   -2.883E-01   -2.747E-01   -2.611E-01   -2.475E-01   -2.339E-01   -2.202E-01   -2.066E-01
    -1.930E-01   -1.793E-01   -1.657E-01   -1.521E-01   -1.384E-01   -1.248E-01   -1.111E-01   -9.745E-02   -8.378E-02   -7.011E-02
    -5.644E-02   -4.277E-02   -2.909E-02   -1.540E-02   -1.720E-03    1.197E-02    2.566E-02    3.935E-02    5.304E-02    6.674E-02
     8.044E-02    9.414E-02    1.078E-01    1.215E-01    1.352E-01    1.490E-01    1.627E-01    1.764E-01    1.901E-01    2.038E-01
     2.175E-01    2.312E-01    2.449E-01    2.586E-01    2.723E-01    2.860E-01    2.997E-01    3.134E-01
 Cr       Conc. = 3.93E+02
