 LCModel (Version 6.3-1L) Copyright: S.W. Provencher.          Ref.: Magn. Reson. Med. 30:672-679 (1993).                
 Slice#3 Row#11 Col#9  PD_05_press_1_raw_act
 36 lines in following concentration table = NCONC+1
    Conc.  %SD /Cr+PCr  Metabolite                                         
    0.000 999%   0.000 Ala                                                 
   64.901 236% 5.7E-02 Asp                                                 
    0.000 999%   0.000 Cr                                                  
 1.14E+03   4%   1.000 PCr                                                 
    0.000 999%   0.000 GABA                                                
    0.000 999%   0.000 Glc                                                 
  731.727  32%   0.640 Gln                                                 
 1.02E+03  26%   0.894 Glu                                                 
  317.760   5%   0.278 GPC                                                 
    0.000 999%   0.000 PCh                                                 
  330.858  17%   0.289 GSH                                                 
  181.299 107%   0.158 Ins                                                 
    0.000 999%   0.000 Lac                                                 
 1.59E+03   8%   1.389 NAA                                                 
  127.911 100%   0.112 NAAG                                                
    2.473 807% 2.2E-03 Scyllo                                              
    0.000 999%   0.000 Tau                                                 
    0.000 999%   0.000 -CrCH2                                              
  317.760   5%   0.278 GPC+PCh                                             
 1.72E+03   3%   1.501 NAA+NAAG                                            
 1.14E+03   4%   1.000 Cr+PCr                                              
 1.75E+03  24%   1.533 Glu+Gln                                             
    0.000 999%   0.000 Lip13a                                              
  197.417  59%   0.173 Lip13b                                              
    0.000 999%   0.000 Lip09                                               
  820.436  17%   0.717 MM09                                                
   40.446 128% 3.5E-02 Lip20                                               
 2.03E+03  12%   1.772 MM20                                                
  255.923  32%   0.224 MM12                                                
  769.521  24%   0.673 MM14                                                
  419.525  33%   0.367 MM17                                                
  197.417  59%   0.173 Lip13a+Lip13b                                       
 1.22E+03  19%   1.069 MM14+Lip13a+Lip13b+MM12                             
  820.436  17%   0.717 MM09+Lip09                                          
 2.07E+03  12%   1.807 MM20+Lip20                                          
   6 lines in following misc. output table
  FWHM = 0.069 ppm    S/N =  12                                            
  Data shift = 0.061 ppm                                                   
  Ph: -14 deg      -6.2 deg/ppm                                            
  alphaB,S = 6.4E-01,   1.0E+02                                            
   14 spline knots.   Ns = 9(1)                                            
  (16) 7 infls.   (13) 1 extrs.                                            
  498 points on ppm-axis = NY
      4.000000     3.992357     3.984714     3.977070     3.969427     3.961784     3.954141     3.946497     3.938854     3.931211
      3.923568     3.915925     3.908281     3.900638     3.892995     3.885352     3.877708     3.870065     3.862422     3.854779
      3.847136     3.839492     3.831849     3.824206     3.816563     3.808919     3.801276     3.793633     3.785990     3.778347
      3.770703     3.763060     3.755417     3.747774     3.740130     3.732487     3.724844     3.717201     3.709558     3.701914
      3.694271     3.686628     3.678985     3.671341     3.663698     3.656055     3.648412     3.640769     3.633125     3.625482
      3.617839     3.610196     3.602552     3.594909     3.587266     3.579623     3.571980     3.564336     3.556693     3.549050
      3.541407     3.533763     3.526120     3.518477     3.510834     3.503191     3.495547     3.487904     3.480261     3.472618
      3.464974     3.457331     3.449688     3.442045     3.434402     3.426758     3.419115     3.411472     3.403829     3.396185
      3.388542     3.380899     3.373256     3.365613     3.357969     3.350326     3.342683     3.335040     3.327396     3.319753
      3.312110     3.304467     3.296824     3.289180     3.281537     3.273894     3.266251     3.258607     3.250964     3.243321
      3.235678     3.228034     3.220391     3.212748     3.205105     3.197462     3.189818     3.182175     3.174532     3.166889
      3.159245     3.151602     3.143959     3.136316     3.128673     3.121029     3.113386     3.105743     3.098100     3.090456
      3.082813     3.075170     3.067527     3.059884     3.052240     3.044597     3.036954     3.029311     3.021667     3.014024
      3.006381     2.998738     2.991095     2.983451     2.975808     2.968165     2.960522     2.952878     2.945235     2.937592
      2.929949     2.922306     2.914662     2.907019     2.899376     2.891733     2.884089     2.876446     2.868803     2.861160
      2.853517     2.845873     2.838230     2.830587     2.822944     2.815300     2.807657     2.800014     2.792371     2.784728
      2.777084     2.769441     2.761798     2.754155     2.746511     2.738868     2.731225     2.723582     2.715939     2.708295
      2.700652     2.693009     2.685366     2.677722     2.670079     2.662436     2.654793     2.647150     2.639506     2.631863
      2.624220     2.616577     2.608933     2.601290     2.593647     2.586004     2.578361     2.570717     2.563074     2.555431
      2.547788     2.540144     2.532501     2.524858     2.517215     2.509572     2.501928     2.494285     2.486642     2.478999
      2.471355     2.463712     2.456069     2.448426     2.440783     2.433139     2.425496     2.417853     2.410210     2.402566
      2.394923     2.387280     2.379637     2.371994     2.364350     2.356707     2.349064     2.341421     2.333777     2.326134
      2.318491     2.310848     2.303205     2.295561     2.287918     2.280275     2.272632     2.264988     2.257345     2.249702
      2.242059     2.234416     2.226772     2.219129     2.211486     2.203843     2.196199     2.188556     2.180913     2.173270
      2.165627     2.157983     2.150340     2.142697     2.135054     2.127410     2.119767     2.112124     2.104481     2.096838
      2.089194     2.081551     2.073908     2.066265     2.058621     2.050978     2.043335     2.035692     2.028049     2.020405
      2.012762     2.005119     1.997476     1.989833     1.982190     1.974546     1.966903     1.959260     1.951617     1.943974
      1.936331     1.928688     1.921045     1.913402     1.905759     1.898115     1.890472     1.882829     1.875186     1.867543
      1.859900     1.852257     1.844614     1.836971     1.829327     1.821684     1.814041     1.806398     1.798755     1.791112
      1.783469     1.775826     1.768183     1.760540     1.752896     1.745253     1.737610     1.729967     1.722324     1.714681
      1.707038     1.699395     1.691752     1.684108     1.676465     1.668822     1.661179     1.653536     1.645893     1.638250
      1.630607     1.622964     1.615321     1.607677     1.600034     1.592391     1.584748     1.577105     1.569462     1.561819
      1.554176     1.546533     1.538890     1.531246     1.523603     1.515960     1.508317     1.500674     1.493031     1.485388
      1.477745     1.470102     1.462458     1.454815     1.447172     1.439529     1.431886     1.424243     1.416600     1.408957
      1.401314     1.393671     1.386027     1.378384     1.370741     1.363098     1.355455     1.347812     1.340169     1.332526
      1.324883     1.317240     1.309596     1.301953     1.294310     1.286667     1.279024     1.271381     1.263738     1.256095
      1.248452     1.240808     1.233165     1.225522     1.217879     1.210236     1.202593     1.194950     1.187307     1.179664
      1.172021     1.164377     1.156734     1.149091     1.141448     1.133805     1.126162     1.118519     1.110876     1.103233
      1.095590     1.087946     1.080303     1.072660     1.065017     1.057374     1.049731     1.042088     1.034445     1.026802
      1.019158     1.011515     1.003872     0.996229     0.988586     0.980943     0.973300     0.965657     0.958014     0.950371
      0.942727     0.935084     0.927441     0.919798     0.912155     0.904512     0.896869     0.889226     0.881583     0.873940
      0.866296     0.858653     0.851010     0.843367     0.835724     0.828081     0.820438     0.812795     0.805152     0.797508
      0.789865     0.782222     0.774579     0.766936     0.759293     0.751650     0.744007     0.736364     0.728721     0.721077
      0.713434     0.705791     0.698148     0.690505     0.682862     0.675219     0.667576     0.659933     0.652290     0.644646
      0.637003     0.629360     0.621717     0.614074     0.606431     0.598788     0.591145     0.583502     0.575858     0.568215
      0.560572     0.552929     0.545286     0.537643     0.530000     0.522357     0.514714     0.507071     0.499427     0.491784
      0.484141     0.476498     0.468855     0.461212     0.453569     0.445925     0.438282     0.430639     0.422996     0.415353
      0.407710     0.400067     0.392424     0.384780     0.377137     0.369494     0.361851     0.354208     0.346565     0.338922
      0.331278     0.323635     0.315992     0.308349     0.300706     0.293063     0.285420     0.277777     0.270133     0.262490
      0.254847     0.247204     0.239561     0.231918     0.224275     0.216631     0.208988     0.201345
 NY phased data points follow
   2.19563E+01  2.53099E+01  2.51803E+01  2.54337E+01  2.37098E+01  2.77995E+01  3.17015E+01  3.07352E+01  3.47711E+01  3.80438E+01
   3.75094E+01  3.62891E+01  3.50715E+01  3.34623E+01  3.17918E+01  3.10483E+01  2.80774E+01  2.38168E+01  2.36727E+01  1.85486E+01
   2.12765E+01  1.98933E+01  1.99429E+01  1.81871E+01  2.05892E+01  2.14410E+01  1.91957E+01  1.67995E+01  1.73903E+01  1.77993E+01
   2.06077E+01  2.06506E+01  2.06298E+01  1.94865E+01  1.76656E+01  1.78454E+01  1.99527E+01  1.91199E+01  1.70525E+01  1.66447E+01
   1.72917E+01  1.48671E+01  1.54291E+01  1.83444E+01  1.69246E+01  1.58329E+01  1.68331E+01  1.84756E+01  1.84793E+01  1.54803E+01
   1.68866E+01  1.62698E+01  1.29208E+01  1.33082E+01  1.27981E+01  1.40560E+01  1.20377E+01  1.09103E+01  1.09316E+01  9.07615E+00
   1.06023E+01  9.57467E+00  8.43734E+00  7.35800E+00  6.59343E+00  7.85334E+00  6.73249E+00  5.44706E+00  7.50779E+00  5.48743E+00
   4.27315E+00  4.83862E+00  3.85148E+00  4.65500E+00  6.17801E+00  6.79402E+00  7.63253E+00  4.19455E+00  7.43492E+00  7.05371E+00
   4.28499E+00  5.85008E+00  6.01735E+00  6.54148E+00  7.39377E+00  7.60335E+00  5.47842E+00  6.46993E+00  7.85113E+00  4.94357E+00
   5.92428E+00  8.41191E+00  4.86202E+00  8.31370E+00  9.00608E+00  1.06211E+01  8.96542E+00  1.02816E+01  1.28083E+01  1.66783E+01
   2.09710E+01  2.39945E+01  2.72816E+01  2.78799E+01  2.68548E+01  2.50892E+01  2.30453E+01  2.14959E+01  1.99981E+01  1.84071E+01
   1.50462E+01  1.29317E+01  1.10240E+01  9.05175E+00  9.99183E+00  1.07235E+01  9.49821E+00  1.04001E+01  1.00768E+01  8.38579E+00
   9.19648E+00  9.54170E+00  1.29247E+01  1.66207E+01  2.19557E+01  2.68233E+01  3.05552E+01  3.41325E+01  3.43550E+01  3.12147E+01
   2.80287E+01  2.52846E+01  2.36141E+01  1.97170E+01  1.89450E+01  1.32760E+01  1.34013E+01  1.04628E+01  9.30623E+00  1.04246E+01
   9.05790E+00  8.34607E+00  6.02676E+00  5.87918E+00  6.44830E+00  6.63759E+00  5.15475E+00  2.52312E+00  4.22648E+00  4.89385E+00
   4.49464E+00  3.16566E+00  2.67781E+00  3.57292E+00  2.38497E+00  4.47373E-01  1.68269E+00 -4.45972E-01  2.83590E+00  5.70110E-01
   4.44381E-02 -2.62553E-01  2.31461E+00  1.06165E+00  8.25247E-01  5.72864E-01  2.26232E-02  1.27287E-01  5.61938E-01 -3.43567E-01
   7.08704E-02  1.20791E+00 -4.12569E+00 -1.81172E+00 -9.31494E-01 -2.86321E+00 -4.69091E+00 -4.28097E+00 -6.12342E+00 -3.37717E+00
  -4.89583E+00 -3.95850E+00 -5.22497E+00 -5.69049E+00 -4.93883E+00 -1.52250E+00 -2.86357E+00  1.20093E+00  8.67947E-02  3.46696E+00
   6.41436E+00  5.74574E+00  6.00106E+00  7.15136E+00  5.09683E+00  4.79762E+00  5.30292E+00  9.59350E-01  3.22399E+00  1.38740E+00
   4.11012E+00  4.42936E+00  4.06295E+00  4.81537E+00  3.36960E+00  1.96669E+00  4.77541E+00  7.78343E-02  2.59918E+00  2.15446E+00
   1.41052E+00  4.43756E+00  3.32759E+00  7.05469E-01  5.74519E+00  7.92360E+00  7.64744E+00  8.08369E+00  7.96426E+00  5.61220E+00
   4.54400E+00  4.42597E+00  5.26309E+00  4.28242E+00  6.80746E+00  4.04022E+00  7.80459E+00  8.34800E+00  9.46512E+00  6.70600E+00
   6.32007E+00  7.18460E+00  7.68870E+00  8.38736E+00  1.24523E+01  1.07189E+01  8.87655E+00  8.97768E+00  6.68915E+00  9.43045E+00
   5.20930E+00  5.62703E+00  7.99775E+00  8.46533E+00  7.96677E+00  9.03177E+00  1.08378E+01  1.14287E+01  1.42088E+01  1.12409E+01
   1.31363E+01  1.47876E+01  1.67216E+01  1.83256E+01  2.13233E+01  2.57544E+01  3.06266E+01  3.91752E+01  4.28072E+01  4.96198E+01
   5.57761E+01  4.75169E+01  4.43248E+01  4.10437E+01  3.85147E+01  3.40841E+01  2.81970E+01  2.40534E+01  1.77019E+01  1.56674E+01
   1.15275E+01  1.15936E+01  8.79339E+00  8.34574E+00  7.31491E+00  9.71666E+00  6.83028E+00  5.63073E+00  5.81789E+00  5.75254E+00
   5.02449E+00  4.16569E+00  7.87662E+00  5.42881E+00  5.08613E+00  5.31356E+00  5.36747E+00  4.32000E+00  5.63786E+00  4.39561E+00
   5.44028E+00  4.11000E+00  6.95315E+00  7.37334E+00  5.44950E+00  3.95607E+00  5.36064E+00  5.16558E+00  4.74423E+00  2.10970E+00
   6.94795E+00  3.18027E+00  6.83956E+00  4.97565E+00  5.15350E+00  8.22884E+00  7.10752E+00  5.63817E+00  6.08063E+00  3.17492E+00
   6.69390E+00  6.93442E+00  6.34004E+00  7.67142E+00  6.74834E+00  2.00820E+00  6.67790E+00  7.07465E+00  7.91617E+00  5.39211E+00
   4.19219E+00  4.77382E+00  5.03576E+00  5.46787E+00  2.95946E+00  4.41370E+00  5.69803E+00  6.17234E+00  7.45237E+00  5.46428E+00
   8.23078E+00  4.58987E+00  6.01537E+00  7.83339E+00  7.50719E+00  7.96553E+00  8.87736E+00  7.19592E+00  4.99474E+00  6.91791E+00
   8.06698E+00  6.55919E+00  3.79247E+00  6.64611E+00  5.23337E+00  4.58496E+00  5.76302E+00  5.54674E+00  6.65954E+00  3.39528E+00
   8.40176E+00  6.74157E+00  8.47402E+00  7.29303E+00  7.36487E+00  7.80452E+00  6.29019E+00  5.11469E+00  5.70667E+00  5.68487E+00
   5.47084E+00  7.90081E+00  5.49553E+00  5.06682E+00  6.37995E+00  6.34248E+00  4.52276E+00  5.87084E+00  2.62474E+00  6.40723E+00
   2.97298E+00  5.87249E+00  4.74194E+00  1.23149E+00  5.49275E+00  3.84862E+00  1.65629E+00  1.68590E+00  2.99937E+00  5.31569E+00
   4.45032E+00  4.87908E+00  2.39064E+00  2.67762E+00  6.88934E+00  2.75603E+00  5.91265E+00  4.75335E+00  4.91648E+00  4.96794E+00
   7.06334E+00  6.41322E+00  4.06702E+00  3.59961E+00  6.25838E+00  8.06564E+00  4.27997E+00  5.67828E+00  6.71119E+00  5.81927E+00
   2.31237E+00  5.72988E+00  6.57598E+00  6.15240E+00  5.80570E+00  5.80928E+00  5.76423E+00  8.44130E+00  7.92790E+00  6.51807E+00
   5.26371E+00  5.41987E+00  4.73793E+00  7.25304E+00  7.14134E+00  5.79972E+00  5.74719E+00  4.85049E+00  5.32620E+00  2.77101E+00
   1.76308E+00  4.43886E+00  1.22782E+00  4.52552E+00  3.60221E+00  3.92674E+00  5.83597E-01  2.26692E+00  1.92573E+00  8.57166E-01
   2.68087E+00  6.65297E+00  5.66809E-01  2.34296E+00  2.25872E+00  3.42541E+00  4.79204E+00  2.70690E+00  2.91861E+00  2.45197E+00
   3.33683E+00  3.35546E+00  3.70388E-02  1.43410E+00  3.28799E+00  3.51148E+00  2.58155E+00  2.89529E+00  2.55669E+00  2.94466E+00
   3.51919E+00  1.09609E+00  2.64044E+00  6.53643E-01 -1.13194E+00  3.42986E+00  2.60539E+00  1.84098E+00  2.98996E+00  3.60485E+00
   3.40577E+00  2.42968E+00 -3.42808E-01  1.11231E+00  3.83929E-01 -1.40926E+00  1.45239E+00  2.49550E+00  2.24626E+00 -1.96917E-01
   3.65024E+00  2.39583E+00  2.96880E+00  3.52982E+00  5.85527E-02  1.12103E+00  7.85004E-01  4.08493E+00 -8.97898E-01  2.72074E+00
  -7.83487E-01  1.33703E+00  4.18531E+00  9.07248E-01  6.12633E+00  2.32269E+00  1.02185E+00  1.39532E+00 -2.97038E-01  1.28232E+00
   3.65992E+00  2.15233E+00  1.20343E-01  2.08753E+00  2.93721E+00  4.19871E+00  4.30790E+00  9.10962E-01
 NY points of the fit to the data follow
   2.02327E+01  2.13670E+01  2.20885E+01  2.27127E+01  2.40915E+01  2.64740E+01  2.95282E+01  3.27625E+01  3.56710E+01  3.74528E+01
   3.74215E+01  3.60066E+01  3.42722E+01  3.27082E+01  3.11563E+01  2.93663E+01  2.73659E+01  2.53075E+01  2.32437E+01  2.09963E+01
   1.91854E+01  1.86716E+01  1.84945E+01  1.82115E+01  1.79804E+01  1.79420E+01  1.82037E+01  1.87762E+01  1.97296E+01  2.08724E+01
   2.17257E+01  2.19719E+01  2.15911E+01  2.07890E+01  1.98141E+01  1.87753E+01  1.78091E+01  1.70889E+01  1.66611E+01  1.62050E+01
   1.55438E+01  1.50623E+01  1.47940E+01  1.46770E+01  1.46883E+01  1.47861E+01  1.49349E+01  1.49590E+01  1.48003E+01  1.44729E+01
   1.40625E+01  1.36735E+01  1.32692E+01  1.28400E+01  1.24593E+01  1.21325E+01  1.17897E+01  1.14542E+01  1.11888E+01  1.09653E+01
   1.07187E+01  1.04572E+01  1.01986E+01  9.96273E+00  9.74990E+00  9.55173E+00  9.37648E+00  9.22793E+00  9.09605E+00  8.96405E+00
   8.83455E+00  8.71535E+00  8.59727E+00  8.47688E+00  8.35214E+00  8.22736E+00  8.10348E+00  7.97704E+00  7.83848E+00  7.69011E+00
   7.54510E+00  7.40961E+00  7.27428E+00  7.13819E+00  6.99686E+00  6.84909E+00  6.69521E+00  6.55084E+00  6.43722E+00  6.36117E+00
   6.32447E+00  6.33049E+00  6.41146E+00  6.78818E+00  8.07523E+00  9.42460E+00  1.00843E+01  1.10154E+01  1.31408E+01  1.64735E+01
   2.04174E+01  2.43549E+01  2.75627E+01  2.88992E+01  2.79391E+01  2.57767E+01  2.36342E+01  2.17432E+01  1.97624E+01  1.74952E+01
   1.50829E+01  1.27660E+01  1.04153E+01  7.93473E+00  6.45436E+00  6.09180E+00  6.07897E+00  6.37979E+00  7.60420E+00  9.38413E+00
   1.04427E+01  1.15008E+01  1.37762E+01  1.75598E+01  2.22925E+01  2.71907E+01  3.13949E+01  3.37114E+01  3.33599E+01  3.12040E+01
   2.87682E+01  2.65697E+01  2.42311E+01  2.14024E+01  1.81311E+01  1.48478E+01  1.17452E+01  8.64471E+00  6.42569E+00  5.73132E+00
   5.53783E+00  5.41106E+00  5.24952E+00  5.04704E+00  4.87865E+00  4.79661E+00  4.71518E+00  4.58667E+00  4.41290E+00  4.17213E+00
   3.88563E+00  3.57455E+00  3.23803E+00  3.00022E+00  2.86000E+00  2.76127E+00  2.64701E+00  2.41954E+00  2.11925E+00  1.84156E+00
   1.65595E+00  1.59722E+00  1.63556E+00  1.67478E+00  1.61465E+00  1.40674E+00  1.09907E+00  7.86754E-01  5.69351E-01  4.49023E-01
   3.23429E-01  1.15149E-01 -2.34916E-01 -5.78439E-01 -8.38308E-01 -9.94404E-01 -1.00657E+00 -9.74679E-01 -1.00391E+00 -1.03807E+00
  -1.02361E+00 -9.37304E-01 -7.75035E-01 -5.77304E-01 -3.76982E-01 -1.13862E-01  3.46787E-01  9.69596E-01  1.63219E+00  2.17988E+00
   2.61142E+00  2.91942E+00  3.01370E+00  2.93442E+00  2.80868E+00  2.74288E+00  2.78159E+00  2.94547E+00  3.22866E+00  3.69216E+00
   4.25957E+00  4.67759E+00  5.04239E+00  5.33684E+00  5.24802E+00  4.71519E+00  3.90411E+00  3.09903E+00  2.34637E+00  1.63472E+00
   1.39781E+00  1.80879E+00  2.59591E+00  3.43366E+00  4.23642E+00  5.00570E+00  5.49872E+00  5.41829E+00  4.89094E+00  4.28852E+00
   3.81550E+00  3.32595E+00  3.01861E+00  3.17246E+00  3.68103E+00  4.24410E+00  4.62423E+00  4.97709E+00  5.51254E+00  6.10518E+00
   6.56673E+00  6.93271E+00  7.39737E+00  7.87110E+00  8.06015E+00  8.17069E+00  8.47476E+00  8.82728E+00  8.96278E+00  8.86532E+00
   8.67780E+00  8.51982E+00  8.42720E+00  8.45882E+00  8.70706E+00  9.10355E+00  9.52725E+00  9.93657E+00  1.03344E+01  1.08379E+01
   1.19209E+01  1.48090E+01  1.81191E+01  2.02135E+01  2.23979E+01  2.62667E+01  3.18481E+01  3.81766E+01  4.44427E+01  4.96549E+01
   5.18042E+01  4.98986E+01  4.57236E+01  4.14805E+01  3.76807E+01  3.37214E+01  2.92627E+01  2.47037E+01  2.04475E+01  1.61625E+01
   1.15515E+01  8.58382E+00  7.60110E+00  7.14435E+00  6.82065E+00  6.55751E+00  6.32905E+00  6.10250E+00  5.90392E+00  5.72917E+00
   5.56903E+00  5.42751E+00  5.30806E+00  5.19580E+00  5.08513E+00  4.99074E+00  4.92386E+00  4.88337E+00  4.86357E+00  4.86336E+00
   4.88452E+00  4.92607E+00  4.97841E+00  5.03774E+00  5.10465E+00  5.17994E+00  5.26060E+00  5.34484E+00  5.43080E+00  5.51647E+00
   5.59906E+00  5.67482E+00  5.73933E+00  5.79182E+00  5.83152E+00  5.85743E+00  5.86920E+00  5.86708E+00  5.85235E+00  5.82658E+00
   5.79041E+00  5.74663E+00  5.69880E+00  5.64999E+00  5.60370E+00  5.56325E+00  5.53129E+00  5.51022E+00  5.50196E+00  5.50789E+00
   5.52876E+00  5.56465E+00  5.61503E+00  5.67881E+00  5.75438E+00  5.83956E+00  5.93171E+00  6.02788E+00  6.12493E+00  6.21966E+00
   6.30888E+00  6.38950E+00  6.45866E+00  6.51386E+00  6.55314E+00  6.57510E+00  6.57902E+00  6.56487E+00  6.53349E+00  6.48666E+00
   6.42728E+00  6.35938E+00  6.28817E+00  6.21995E+00  6.16201E+00  6.12214E+00  6.10789E+00  6.12547E+00  6.17841E+00  6.26633E+00
   6.38387E+00  6.52038E+00  6.66037E+00  6.78506E+00  6.87485E+00  6.91228E+00  6.88497E+00  6.78772E+00  6.62331E+00  6.40192E+00
   6.13923E+00  5.85373E+00  5.56389E+00  5.28562E+00  5.03064E+00  4.80590E+00  4.61387E+00  4.45355E+00  4.32164E+00  4.21378E+00
   4.12547E+00  4.05277E+00  3.99260E+00  3.94295E+00  3.90273E+00  3.87158E+00  3.84970E+00  3.83767E+00  3.83636E+00  3.84679E+00
   3.87006E+00  3.90719E+00  3.95914E+00  4.02676E+00  4.11077E+00  4.21167E+00  4.32972E+00  4.46480E+00  4.61645E+00  4.78374E+00
   4.96534E+00  5.15937E+00  5.36340E+00  5.57441E+00  5.78888E+00  6.00285E+00  6.21196E+00  6.41162E+00  6.59707E+00  6.76360E+00
   6.90672E+00  7.02242E+00  7.10724E+00  7.15849E+00  7.17431E+00  7.15383E+00  7.09718E+00  7.00548E+00  6.88082E+00  6.72607E+00
   6.54477E+00  6.34101E+00  6.11922E+00  5.88402E+00  5.63996E+00  5.39140E+00  5.14238E+00  4.89650E+00  4.65688E+00  4.42612E+00
   4.20621E+00  3.99860E+00  3.80425E+00  3.62368E+00  3.45704E+00  3.30414E+00  3.16454E+00  3.03756E+00  2.92246E+00  2.81841E+00
   2.72455E+00  2.63999E+00  2.56386E+00  2.49532E+00  2.43362E+00  2.37805E+00  2.32798E+00  2.28283E+00  2.24204E+00  2.20515E+00
   2.17176E+00  2.14151E+00  2.11408E+00  2.08918E+00  2.06653E+00  2.04591E+00  2.02716E+00  2.01009E+00  1.99456E+00  1.98040E+00
   1.96749E+00  1.95574E+00  1.94505E+00  1.93534E+00  1.92654E+00  1.91855E+00  1.91132E+00  1.90480E+00  1.89896E+00  1.89375E+00
   1.88910E+00  1.88498E+00  1.88136E+00  1.87822E+00  1.87553E+00  1.87328E+00  1.87140E+00  1.86987E+00  1.86870E+00  1.86787E+00
   1.86737E+00  1.86716E+00  1.86722E+00  1.86754E+00  1.86812E+00  1.86896E+00  1.87003E+00  1.87132E+00  1.87281E+00  1.87449E+00
   1.87638E+00  1.87847E+00  1.88073E+00  1.88315E+00  1.88573E+00  1.88846E+00  1.89137E+00  1.89443E+00  1.89763E+00  1.90095E+00
   1.90440E+00  1.90800E+00  1.91174E+00  1.91561E+00  1.91960E+00  1.92371E+00  1.92795E+00  1.93234E+00
 NY background values follow
     1.781E+01    1.766E+01    1.752E+01    1.737E+01    1.722E+01    1.707E+01    1.693E+01    1.678E+01    1.663E+01    1.648E+01
     1.633E+01    1.619E+01    1.604E+01    1.589E+01    1.574E+01    1.559E+01    1.545E+01    1.530E+01    1.515E+01    1.501E+01
     1.486E+01    1.471E+01    1.457E+01    1.442E+01    1.428E+01    1.413E+01    1.399E+01    1.384E+01    1.370E+01    1.355E+01
     1.341E+01    1.327E+01    1.313E+01    1.298E+01    1.284E+01    1.270E+01    1.256E+01    1.242E+01    1.228E+01    1.214E+01
     1.200E+01    1.187E+01    1.173E+01    1.159E+01    1.146E+01    1.132E+01    1.119E+01    1.105E+01    1.092E+01    1.079E+01
     1.065E+01    1.052E+01    1.039E+01    1.026E+01    1.013E+01    1.001E+01    9.879E+00    9.752E+00    9.626E+00    9.502E+00
     9.378E+00    9.255E+00    9.132E+00    9.011E+00    8.890E+00    8.771E+00    8.652E+00    8.534E+00    8.418E+00    8.302E+00
     8.187E+00    8.073E+00    7.960E+00    7.848E+00    7.737E+00    7.627E+00    7.518E+00    7.411E+00    7.304E+00    7.198E+00
     7.094E+00    6.990E+00    6.888E+00    6.786E+00    6.686E+00    6.587E+00    6.489E+00    6.393E+00    6.297E+00    6.203E+00
     6.110E+00    6.018E+00    5.927E+00    5.838E+00    5.749E+00    5.662E+00    5.576E+00    5.491E+00    5.408E+00    5.325E+00
     5.244E+00    5.164E+00    5.085E+00    5.007E+00    4.930E+00    4.854E+00    4.779E+00    4.706E+00    4.633E+00    4.561E+00
     4.491E+00    4.421E+00    4.353E+00    4.286E+00    4.219E+00    4.154E+00    4.089E+00    4.026E+00    3.963E+00    3.902E+00
     3.841E+00    3.781E+00    3.722E+00    3.665E+00    3.608E+00    3.551E+00    3.496E+00    3.442E+00    3.388E+00    3.336E+00
     3.284E+00    3.233E+00    3.183E+00    3.134E+00    3.085E+00    3.038E+00    2.991E+00    2.945E+00    2.899E+00    2.855E+00
     2.811E+00    2.768E+00    2.726E+00    2.685E+00    2.644E+00    2.605E+00    2.566E+00    2.528E+00    2.491E+00    2.455E+00
     2.419E+00    2.385E+00    2.351E+00    2.318E+00    2.286E+00    2.255E+00    2.225E+00    2.196E+00    2.168E+00    2.140E+00
     2.114E+00    2.088E+00    2.063E+00    2.040E+00    2.017E+00    1.995E+00    1.974E+00    1.954E+00    1.935E+00    1.917E+00
     1.900E+00    1.884E+00    1.868E+00    1.854E+00    1.841E+00    1.829E+00    1.818E+00    1.807E+00    1.798E+00    1.790E+00
     1.783E+00    1.777E+00    1.772E+00    1.767E+00    1.764E+00    1.762E+00    1.761E+00    1.760E+00    1.761E+00    1.762E+00
     1.764E+00    1.767E+00    1.770E+00    1.775E+00    1.780E+00    1.785E+00    1.791E+00    1.798E+00    1.806E+00    1.814E+00
     1.822E+00    1.831E+00    1.841E+00    1.850E+00    1.861E+00    1.871E+00    1.882E+00    1.894E+00    1.905E+00    1.917E+00
     1.929E+00    1.942E+00    1.954E+00    1.967E+00    1.980E+00    1.993E+00    2.006E+00    2.019E+00    2.032E+00    2.045E+00
     2.058E+00    2.071E+00    2.083E+00    2.096E+00    2.109E+00    2.121E+00    2.133E+00    2.145E+00    2.157E+00    2.168E+00
     2.179E+00    2.190E+00    2.201E+00    2.212E+00    2.222E+00    2.232E+00    2.242E+00    2.251E+00    2.261E+00    2.270E+00
     2.279E+00    2.287E+00    2.296E+00    2.304E+00    2.312E+00    2.319E+00    2.327E+00    2.334E+00    2.341E+00    2.348E+00
     2.354E+00    2.360E+00    2.366E+00    2.372E+00    2.378E+00    2.383E+00    2.388E+00    2.393E+00    2.397E+00    2.402E+00
     2.406E+00    2.410E+00    2.413E+00    2.417E+00    2.420E+00    2.423E+00    2.425E+00    2.428E+00    2.430E+00    2.432E+00
     2.434E+00    2.435E+00    2.436E+00    2.437E+00    2.438E+00    2.439E+00    2.439E+00    2.439E+00    2.439E+00    2.438E+00
     2.438E+00    2.437E+00    2.436E+00    2.434E+00    2.433E+00    2.431E+00    2.429E+00    2.427E+00    2.425E+00    2.422E+00
     2.419E+00    2.416E+00    2.413E+00    2.410E+00    2.406E+00    2.402E+00    2.398E+00    2.394E+00    2.389E+00    2.385E+00
     2.380E+00    2.375E+00    2.370E+00    2.364E+00    2.359E+00    2.353E+00    2.347E+00    2.341E+00    2.335E+00    2.328E+00
     2.322E+00    2.315E+00    2.308E+00    2.301E+00    2.293E+00    2.286E+00    2.278E+00    2.270E+00    2.262E+00    2.254E+00
     2.246E+00    2.238E+00    2.229E+00    2.220E+00    2.211E+00    2.202E+00    2.193E+00    2.184E+00    2.175E+00    2.165E+00
     2.156E+00    2.146E+00    2.136E+00    2.126E+00    2.116E+00    2.106E+00    2.096E+00    2.086E+00    2.076E+00    2.066E+00
     2.055E+00    2.045E+00    2.034E+00    2.024E+00    2.013E+00    2.002E+00    1.992E+00    1.981E+00    1.970E+00    1.959E+00
     1.949E+00    1.938E+00    1.927E+00    1.916E+00    1.906E+00    1.895E+00    1.884E+00    1.873E+00    1.862E+00    1.852E+00
     1.841E+00    1.830E+00    1.820E+00    1.809E+00    1.798E+00    1.788E+00    1.777E+00    1.767E+00    1.757E+00    1.746E+00
     1.736E+00    1.726E+00    1.716E+00    1.706E+00    1.696E+00    1.687E+00    1.677E+00    1.668E+00    1.658E+00    1.649E+00
     1.640E+00    1.631E+00    1.622E+00    1.613E+00    1.605E+00    1.596E+00    1.588E+00    1.580E+00    1.572E+00    1.564E+00
     1.557E+00    1.550E+00    1.543E+00    1.536E+00    1.529E+00    1.522E+00    1.516E+00    1.510E+00    1.504E+00    1.498E+00
     1.493E+00    1.488E+00    1.483E+00    1.478E+00    1.474E+00    1.470E+00    1.466E+00    1.462E+00    1.459E+00    1.456E+00
     1.453E+00    1.451E+00    1.449E+00    1.447E+00    1.445E+00    1.443E+00    1.442E+00    1.441E+00    1.440E+00    1.440E+00
     1.439E+00    1.439E+00    1.439E+00    1.440E+00    1.440E+00    1.441E+00    1.442E+00    1.443E+00    1.444E+00    1.446E+00
     1.447E+00    1.449E+00    1.451E+00    1.453E+00    1.456E+00    1.458E+00    1.461E+00    1.463E+00    1.466E+00    1.469E+00
     1.473E+00    1.476E+00    1.479E+00    1.483E+00    1.487E+00    1.490E+00    1.494E+00    1.498E+00    1.502E+00    1.507E+00
     1.511E+00    1.515E+00    1.520E+00    1.524E+00    1.529E+00    1.533E+00    1.538E+00    1.543E+00    1.548E+00    1.553E+00
     1.558E+00    1.563E+00    1.568E+00    1.573E+00    1.578E+00    1.584E+00    1.589E+00    1.594E+00    1.600E+00    1.606E+00
     1.611E+00    1.617E+00    1.622E+00    1.628E+00    1.634E+00    1.640E+00    1.646E+00    1.652E+00    1.658E+00    1.664E+00
     1.670E+00    1.676E+00    1.682E+00    1.688E+00    1.694E+00    1.701E+00    1.707E+00    1.713E+00    1.720E+00    1.726E+00
     1.732E+00    1.739E+00    1.745E+00    1.752E+00    1.758E+00    1.765E+00    1.771E+00    1.778E+00
 Asp      Conc. = 6.49E+01
