 LCModel (Version 6.3-1L) Copyright: S.W. Provencher.          Ref.: Magn. Reson. Med. 30:672-679 (1993).                
 Slice#3 Row#6 Col#13  PD_05_press_1_raw_act
 36 lines in following concentration table = NCONC+1
    Conc.  %SD /Cr+PCr  Metabolite                                         
 5.02E+03  23%   0.000 Ala                                                 
    7.846 108%   0.000 Asp                                                 
    0.000 999%   0.000 Cr                                                  
    0.000 999%   0.000 PCr                                                 
    4.669 109%   0.000 GABA                                                
    4.892 104%   0.000 Glc                                                 
 1.52E+03  29%   0.000 Gln                                                 
 1.27E+03  45%   0.000 Glu                                                 
    0.000 999%   0.000 GPC                                                 
   51.416  30%   0.000 PCh                                                 
    0.000 999%   0.000 GSH                                                 
  586.688  31%   0.000 Ins                                                 
 7.36E+03  17%   0.000 Lac                                                 
    0.000 999%   0.000 NAA                                                 
    0.000 999%   0.000 NAAG                                                
    1.919  88%   0.000 Scyllo                                              
    8.880  94%   0.000 Tau                                                 
    0.000 999%   0.000 -CrCH2                                              
   51.416  30%   0.000 GPC+PCh                                             
    0.000 999%   0.000 NAA+NAAG                                            
    0.000 999%   0.000 Cr+PCr                                              
 2.79E+03  31%   0.000 Glu+Gln                                             
 1.80E+04  17%   0.000 Lip13a                                              
    0.000 999%   0.000 Lip13b                                              
 5.25E+03  19%   0.000 Lip09                                               
 3.15E+03  20%   0.000 MM09                                                
    0.000 999%   0.000 Lip20                                               
 1.75E+03  16%   0.000 MM20                                                
  431.316 145%   0.000 MM12                                                
 2.75E+04   8%   0.000+MM14                                                
 1.20E+04  14%   0.000+MM17                                                
 1.80E+04  17%   0.000 Lip13a+Lip13b                                       
 4.60E+04   7%   0.000 MM14+Lip13a+Lip13b+MM12                             
 8.40E+03  13%   0.000 MM09+Lip09                                          
 1.75E+03  16%   0.000 MM20+Lip20                                          
   6 lines in following misc. output table
  FWHM = 0.168 ppm    S/N =  60                                            
  Data shift = 0.176 ppm                                                   
  Ph: -48 deg     -37.7 deg/ppm                                            
  alphaB,S = 2.3E+01,   7.0E+02                                            
    6 spline knots.   Ns = 9(2)                                            
  (13) 2 infls.   ( 1) 1 extrs.                                            
  498 points on ppm-axis = NY
      4.000000     3.992357     3.984714     3.977070     3.969427     3.961784     3.954141     3.946497     3.938854     3.931211
      3.923568     3.915925     3.908281     3.900638     3.892995     3.885352     3.877708     3.870065     3.862422     3.854779
      3.847136     3.839492     3.831849     3.824206     3.816563     3.808919     3.801276     3.793633     3.785990     3.778347
      3.770703     3.763060     3.755417     3.747774     3.740130     3.732487     3.724844     3.717201     3.709558     3.701914
      3.694271     3.686628     3.678985     3.671341     3.663698     3.656055     3.648412     3.640769     3.633125     3.625482
      3.617839     3.610196     3.602552     3.594909     3.587266     3.579623     3.571980     3.564336     3.556693     3.549050
      3.541407     3.533763     3.526120     3.518477     3.510834     3.503191     3.495547     3.487904     3.480261     3.472618
      3.464974     3.457331     3.449688     3.442045     3.434402     3.426758     3.419115     3.411472     3.403829     3.396185
      3.388542     3.380899     3.373256     3.365613     3.357969     3.350326     3.342683     3.335040     3.327396     3.319753
      3.312110     3.304467     3.296824     3.289180     3.281537     3.273894     3.266251     3.258607     3.250964     3.243321
      3.235678     3.228034     3.220391     3.212748     3.205105     3.197462     3.189818     3.182175     3.174532     3.166889
      3.159245     3.151602     3.143959     3.136316     3.128673     3.121029     3.113386     3.105743     3.098100     3.090456
      3.082813     3.075170     3.067527     3.059884     3.052240     3.044597     3.036954     3.029311     3.021667     3.014024
      3.006381     2.998738     2.991095     2.983451     2.975808     2.968165     2.960522     2.952878     2.945235     2.937592
      2.929949     2.922306     2.914662     2.907019     2.899376     2.891733     2.884089     2.876446     2.868803     2.861160
      2.853517     2.845873     2.838230     2.830587     2.822944     2.815300     2.807657     2.800014     2.792371     2.784728
      2.777084     2.769441     2.761798     2.754155     2.746511     2.738868     2.731225     2.723582     2.715939     2.708295
      2.700652     2.693009     2.685366     2.677722     2.670079     2.662436     2.654793     2.647150     2.639506     2.631863
      2.624220     2.616577     2.608933     2.601290     2.593647     2.586004     2.578361     2.570717     2.563074     2.555431
      2.547788     2.540144     2.532501     2.524858     2.517215     2.509572     2.501928     2.494285     2.486642     2.478999
      2.471355     2.463712     2.456069     2.448426     2.440783     2.433139     2.425496     2.417853     2.410210     2.402566
      2.394923     2.387280     2.379637     2.371994     2.364350     2.356707     2.349064     2.341421     2.333777     2.326134
      2.318491     2.310848     2.303205     2.295561     2.287918     2.280275     2.272632     2.264988     2.257345     2.249702
      2.242059     2.234416     2.226772     2.219129     2.211486     2.203843     2.196199     2.188556     2.180913     2.173270
      2.165627     2.157983     2.150340     2.142697     2.135054     2.127410     2.119767     2.112124     2.104481     2.096838
      2.089194     2.081551     2.073908     2.066265     2.058621     2.050978     2.043335     2.035692     2.028049     2.020405
      2.012762     2.005119     1.997476     1.989833     1.982190     1.974546     1.966903     1.959260     1.951617     1.943974
      1.936331     1.928688     1.921045     1.913402     1.905759     1.898115     1.890472     1.882829     1.875186     1.867543
      1.859900     1.852257     1.844614     1.836971     1.829327     1.821684     1.814041     1.806398     1.798755     1.791112
      1.783469     1.775826     1.768183     1.760540     1.752896     1.745253     1.737610     1.729967     1.722324     1.714681
      1.707038     1.699395     1.691752     1.684108     1.676465     1.668822     1.661179     1.653536     1.645893     1.638250
      1.630607     1.622964     1.615321     1.607677     1.600034     1.592391     1.584748     1.577105     1.569462     1.561819
      1.554176     1.546533     1.538890     1.531246     1.523603     1.515960     1.508317     1.500674     1.493031     1.485388
      1.477745     1.470102     1.462458     1.454815     1.447172     1.439529     1.431886     1.424243     1.416600     1.408957
      1.401314     1.393671     1.386027     1.378384     1.370741     1.363098     1.355455     1.347812     1.340169     1.332526
      1.324883     1.317240     1.309596     1.301953     1.294310     1.286667     1.279024     1.271381     1.263738     1.256095
      1.248452     1.240808     1.233165     1.225522     1.217879     1.210236     1.202593     1.194950     1.187307     1.179664
      1.172021     1.164377     1.156734     1.149091     1.141448     1.133805     1.126162     1.118519     1.110876     1.103233
      1.095590     1.087946     1.080303     1.072660     1.065017     1.057374     1.049731     1.042088     1.034445     1.026802
      1.019158     1.011515     1.003872     0.996229     0.988586     0.980943     0.973300     0.965657     0.958014     0.950371
      0.942727     0.935084     0.927441     0.919798     0.912155     0.904512     0.896869     0.889226     0.881583     0.873940
      0.866296     0.858653     0.851010     0.843367     0.835724     0.828081     0.820438     0.812795     0.805152     0.797508
      0.789865     0.782222     0.774579     0.766936     0.759293     0.751650     0.744007     0.736364     0.728721     0.721077
      0.713434     0.705791     0.698148     0.690505     0.682862     0.675219     0.667576     0.659933     0.652290     0.644646
      0.637003     0.629360     0.621717     0.614074     0.606431     0.598788     0.591145     0.583502     0.575858     0.568215
      0.560572     0.552929     0.545286     0.537643     0.530000     0.522357     0.514714     0.507071     0.499427     0.491784
      0.484141     0.476498     0.468855     0.461212     0.453569     0.445925     0.438282     0.430639     0.422996     0.415353
      0.407710     0.400067     0.392424     0.384780     0.377137     0.369494     0.361851     0.354208     0.346565     0.338922
      0.331278     0.323635     0.315992     0.308349     0.300706     0.293063     0.285420     0.277777     0.270133     0.262490
      0.254847     0.247204     0.239561     0.231918     0.224275     0.216631     0.208988     0.201345
 NY phased data points follow
   1.78588E+01  1.72084E+01  1.70924E+01  1.79233E+01  1.85601E+01  1.70799E+01  1.76459E+01  1.87228E+01  1.73820E+01  1.75022E+01
   1.64990E+01  1.80205E+01  1.73567E+01  1.63914E+01  1.90349E+01  1.78177E+01  1.79261E+01  1.71212E+01  1.87820E+01  1.85980E+01
   1.79286E+01  1.81524E+01  1.87199E+01  1.81011E+01  1.89115E+01  1.81051E+01  1.64390E+01  1.78121E+01  1.75530E+01  1.73310E+01
   1.79362E+01  1.72828E+01  1.86306E+01  2.03402E+01  1.91361E+01  1.64843E+01  1.78906E+01  1.92255E+01  1.77704E+01  1.80216E+01
   1.65538E+01  1.93521E+01  1.98505E+01  1.73367E+01  1.93128E+01  1.91250E+01  1.92678E+01  1.94688E+01  1.70486E+01  1.74256E+01
   1.79701E+01  1.85063E+01  1.92662E+01  1.84213E+01  1.77355E+01  1.69288E+01  2.06301E+01  1.89816E+01  1.90623E+01  1.87652E+01
   1.78750E+01  1.67592E+01  1.85305E+01  1.92014E+01  1.74687E+01  1.83437E+01  1.99843E+01  1.88292E+01  1.75342E+01  1.90873E+01
   1.97619E+01  1.81605E+01  1.90259E+01  1.83650E+01  2.02053E+01  1.75314E+01  1.72762E+01  2.01753E+01  1.77632E+01  1.78809E+01
   1.81777E+01  1.86264E+01  1.87131E+01  1.69934E+01  1.64492E+01  1.96589E+01  1.93880E+01  1.86002E+01  1.77596E+01  1.80135E+01
   1.92388E+01  1.77287E+01  1.87955E+01  1.94069E+01  1.92535E+01  1.79557E+01  1.95670E+01  1.76377E+01  1.91040E+01  1.74955E+01
   1.76401E+01  1.96230E+01  1.83437E+01  1.99795E+01  1.86248E+01  1.90227E+01  1.71009E+01  1.86526E+01  1.72758E+01  1.82214E+01
   1.95421E+01  2.03810E+01  1.89252E+01  1.96378E+01  1.97262E+01  1.78389E+01  1.69474E+01  1.65500E+01  1.80695E+01  1.88743E+01
   1.99654E+01  1.83157E+01  1.92488E+01  1.95985E+01  1.92509E+01  1.71539E+01  1.81585E+01  1.81932E+01  1.79029E+01  2.04397E+01
   1.80904E+01  1.81593E+01  1.81401E+01  1.82806E+01  1.95350E+01  1.91956E+01  1.82225E+01  2.07149E+01  1.90534E+01  1.82724E+01
   1.77956E+01  1.89451E+01  1.85163E+01  1.80605E+01  1.86311E+01  1.90966E+01  1.95142E+01  1.80950E+01  1.93517E+01  1.90179E+01
   1.95574E+01  2.06991E+01  1.90929E+01  1.93314E+01  2.01542E+01  1.82606E+01  1.85211E+01  1.80784E+01  1.86984E+01  1.88844E+01
   1.82939E+01  1.99643E+01  1.95601E+01  1.83674E+01  1.99020E+01  1.73181E+01  1.90021E+01  2.03246E+01  2.17294E+01  1.76960E+01
   1.96330E+01  1.94337E+01  2.03141E+01  1.87791E+01  2.04694E+01  1.96268E+01  1.94267E+01  2.11751E+01  2.01456E+01  2.08450E+01
   1.97283E+01  1.95848E+01  2.20603E+01  2.06644E+01  2.14626E+01  2.02370E+01  2.03296E+01  2.22507E+01  2.09130E+01  2.22460E+01
   2.24217E+01  2.16753E+01  2.17412E+01  2.05117E+01  2.15615E+01  2.11788E+01  2.21633E+01  2.32565E+01  2.26944E+01  2.20825E+01
   2.13466E+01  2.11731E+01  2.19338E+01  2.34008E+01  2.28027E+01  2.32898E+01  2.13170E+01  2.31351E+01  2.34399E+01  2.40578E+01
   2.49302E+01  2.40448E+01  2.48147E+01  2.46649E+01  2.32635E+01  2.36070E+01  2.38125E+01  2.56521E+01  2.68804E+01  2.53004E+01
   2.61388E+01  2.73633E+01  2.85184E+01  2.74533E+01  2.98387E+01  2.75171E+01  2.73718E+01  2.87427E+01  2.87723E+01  2.95619E+01
   2.92585E+01  3.01525E+01  3.14106E+01  3.23588E+01  3.11184E+01  3.24168E+01  3.35794E+01  3.47118E+01  3.53433E+01  3.57071E+01
   3.48178E+01  3.11173E+01  3.19537E+01  3.45156E+01  3.54669E+01  3.53590E+01  3.66949E+01  3.67333E+01  3.73779E+01  3.50051E+01
   3.72141E+01  3.56348E+01  3.80822E+01  3.70276E+01  3.71438E+01  3.86404E+01  3.95035E+01  4.00643E+01  3.79311E+01  3.85998E+01
   3.89421E+01  4.05578E+01  3.91733E+01  4.09723E+01  4.12719E+01  4.14482E+01  4.20075E+01  4.28517E+01  4.54472E+01  4.35432E+01
   4.52337E+01  4.69148E+01  4.81335E+01  4.79331E+01  4.95335E+01  4.93285E+01  5.14671E+01  5.04350E+01  5.19236E+01  5.33793E+01
   5.41616E+01  5.68535E+01  5.77931E+01  5.96565E+01  5.93553E+01  6.09773E+01  6.39965E+01  6.74780E+01  7.02307E+01  7.14901E+01
   7.29636E+01  7.77088E+01  8.04746E+01  8.36151E+01  8.49715E+01  8.83744E+01  9.34373E+01  9.73359E+01  1.01672E+02  1.05402E+02
   1.09570E+02  1.17077E+02  1.21127E+02  1.26045E+02  1.33006E+02  1.39357E+02  1.47412E+02  1.53931E+02  1.60759E+02  1.68112E+02
   1.73560E+02  1.82134E+02  1.88118E+02  1.96120E+02  2.00453E+02  2.06737E+02  2.11753E+02  2.14295E+02  2.17596E+02  2.18784E+02
   2.21420E+02  2.19226E+02  2.18293E+02  2.15672E+02  2.15142E+02  2.12136E+02  2.06789E+02  2.01366E+02  1.99197E+02  1.93622E+02
   1.89022E+02  1.84435E+02  1.77831E+02  1.72595E+02  1.68680E+02  1.63145E+02  1.57762E+02  1.53304E+02  1.48712E+02  1.43122E+02
   1.39761E+02  1.36071E+02  1.33021E+02  1.28866E+02  1.24806E+02  1.22389E+02  1.20021E+02  1.16307E+02  1.14486E+02  1.11542E+02
   1.09039E+02  1.08137E+02  1.07294E+02  1.05948E+02  1.03474E+02  1.02114E+02  1.02329E+02  1.00726E+02  9.99270E+01  9.95082E+01
   9.79492E+01  9.92086E+01  9.82244E+01  9.85693E+01  9.60923E+01  9.53701E+01  9.50010E+01  9.52719E+01  9.25070E+01  9.30110E+01
   9.19127E+01  9.25751E+01  9.19866E+01  9.13657E+01  9.00261E+01  8.86146E+01  8.75224E+01  8.63732E+01  8.48872E+01  8.44916E+01
   8.45433E+01  8.26244E+01  8.10479E+01  8.16741E+01  8.03917E+01  7.88923E+01  7.84413E+01  7.81865E+01  7.73746E+01  7.53551E+01
   7.38226E+01  7.27060E+01  7.20318E+01  7.23135E+01  7.08147E+01  6.97631E+01  6.83498E+01  6.81512E+01  6.75003E+01  6.70459E+01
   6.56761E+01  6.48379E+01  6.40065E+01  6.30421E+01  6.15611E+01  6.20515E+01  5.91338E+01  5.92448E+01  5.88156E+01  5.90335E+01
   5.97207E+01  5.74325E+01  5.89565E+01  5.50539E+01  5.79424E+01  5.47242E+01  5.51654E+01  5.28062E+01  5.48674E+01  5.30513E+01
   5.12781E+01  5.29279E+01  5.26611E+01  5.00314E+01  5.10802E+01  4.80219E+01  5.11426E+01  4.88647E+01  4.70468E+01  4.89502E+01
   4.81029E+01  4.86438E+01  4.62438E+01  4.58990E+01  4.57493E+01  4.55986E+01  4.54061E+01  4.53390E+01  4.35107E+01  4.46356E+01
   4.29540E+01  4.24072E+01  4.29611E+01  4.21240E+01  4.15408E+01  4.12394E+01  4.04871E+01  4.14064E+01  4.04834E+01  4.02280E+01
   4.01568E+01  3.99750E+01  3.91221E+01  3.82332E+01  3.95815E+01  3.81178E+01  3.78512E+01  3.75117E+01  3.80815E+01  3.74610E+01
   3.96782E+01  3.68538E+01  3.58081E+01  3.57028E+01  3.41785E+01  3.58484E+01  3.60710E+01  3.68543E+01  3.67031E+01  3.46454E+01
   3.61011E+01  3.40424E+01  3.29131E+01  3.48775E+01  3.35737E+01  3.32021E+01  3.23619E+01  3.30398E+01  3.20100E+01  3.29214E+01
   3.16878E+01  3.30494E+01  3.20672E+01  3.34206E+01  3.21345E+01  3.23119E+01  3.07040E+01  2.98203E+01  3.03278E+01  2.93131E+01
   3.17739E+01  2.95829E+01  3.06572E+01  3.08650E+01  2.84797E+01  2.98573E+01  3.14061E+01  2.97616E+01
 NY points of the fit to the data follow
   1.68840E+01  1.80680E+01  1.68054E+01  1.78166E+01  1.69491E+01  1.79780E+01  1.73090E+01  1.82326E+01  1.76167E+01  1.82310E+01
   1.75637E+01  1.79093E+01  1.72118E+01  1.77162E+01  1.71035E+01  1.77827E+01  1.73020E+01  1.80061E+01  1.75830E+01  1.81775E+01
   1.76703E+01  1.82488E+01  1.77449E+01  1.82261E+01  1.77707E+01  1.81102E+01  1.77667E+01  1.79881E+01  1.78300E+01  1.79847E+01
   1.80644E+01  1.81273E+01  1.83735E+01  1.82886E+01  1.86495E+01  1.84281E+01  1.88921E+01  1.85643E+01  1.90964E+01  1.86708E+01
   1.91697E+01  1.86998E+01  1.91893E+01  1.87033E+01  1.92170E+01  1.88075E+01  1.93653E+01  1.90826E+01  1.94641E+01  1.90791E+01
   1.92817E+01  1.88323E+01  1.88993E+01  1.84739E+01  1.85583E+01  1.83385E+01  1.85247E+01  1.83518E+01  1.85266E+01  1.83590E+01
   1.84901E+01  1.83508E+01  1.84377E+01  1.82724E+01  1.83572E+01  1.81930E+01  1.82747E+01  1.81212E+01  1.82115E+01  1.80856E+01
   1.81918E+01  1.80645E+01  1.81365E+01  1.79900E+01  1.80344E+01  1.78771E+01  1.79032E+01  1.77403E+01  1.77537E+01  1.75970E+01
   1.75944E+01  1.74549E+01  1.74540E+01  1.73382E+01  1.73603E+01  1.73294E+01  1.73514E+01  1.73907E+01  1.74026E+01  1.75176E+01
   1.75194E+01  1.77158E+01  1.77007E+01  1.79657E+01  1.79289E+01  1.82431E+01  1.81722E+01  1.85165E+01  1.84102E+01  1.87649E+01
   1.86239E+01  1.89639E+01  1.87891E+01  1.90860E+01  1.88883E+01  1.91311E+01  1.89294E+01  1.91204E+01  1.89279E+01  1.90603E+01
   1.88807E+01  1.89595E+01  1.88085E+01  1.88506E+01  1.87384E+01  1.87588E+01  1.86935E+01  1.87097E+01  1.86856E+01  1.87007E+01
   1.86986E+01  1.86993E+01  1.87204E+01  1.87272E+01  1.87832E+01  1.88426E+01  1.89007E+01  1.89550E+01  1.90051E+01  1.90495E+01
   1.90892E+01  1.91221E+01  1.91506E+01  1.91723E+01  1.91902E+01  1.92016E+01  1.92101E+01  1.92129E+01  1.92133E+01  1.92093E+01
   1.92036E+01  1.91950E+01  1.91856E+01  1.91751E+01  1.91649E+01  1.91551E+01  1.91463E+01  1.91395E+01  1.91341E+01  1.91323E+01
   1.91319E+01  1.91366E+01  1.91422E+01  1.91538E+01  1.91660E+01  1.91851E+01  1.92042E+01  1.92310E+01  1.92570E+01  1.92912E+01
   1.93236E+01  1.93645E+01  1.94031E+01  1.94502E+01  1.94947E+01  1.95476E+01  1.95986E+01  1.96573E+01  1.97141E+01  1.97786E+01
   1.98419E+01  1.99108E+01  1.99803E+01  2.00533E+01  2.01292E+01  2.02022E+01  2.02654E+01  2.03345E+01  2.03649E+01  2.04159E+01
   2.04217E+01  2.04584E+01  2.04500E+01  2.05124E+01  2.05407E+01  2.06448E+01  2.07068E+01  2.08832E+01  2.09810E+01  2.11939E+01
   2.12984E+01  2.14794E+01  2.14452E+01  2.16298E+01  2.15533E+01  2.17712E+01  2.16958E+01  2.19858E+01  2.19830E+01  2.23004E+01
   2.23540E+01  2.26586E+01  2.27692E+01  2.29987E+01  2.31158E+01  2.32371E+01  2.34319E+01  2.34883E+01  2.37825E+01  2.38104E+01
   2.42256E+01  2.42322E+01  2.47608E+01  2.47388E+01  2.53312E+01  2.52956E+01  2.58943E+01  2.58481E+01  2.63590E+01  2.63460E+01
   2.68131E+01  2.69024E+01  2.73519E+01  2.76130E+01  2.80285E+01  2.83651E+01  2.87382E+01  2.91347E+01  2.94955E+01  2.98520E+01
   3.01794E+01  3.04135E+01  3.06431E+01  3.08137E+01  3.11481E+01  3.12990E+01  3.17918E+01  3.19329E+01  3.26246E+01  3.26756E+01
   3.34599E+01  3.34051E+01  3.42382E+01  3.40976E+01  3.49218E+01  3.47558E+01  3.56275E+01  3.55026E+01  3.63681E+01  3.63043E+01
   3.71209E+01  3.71173E+01  3.78531E+01  3.78987E+01  3.85430E+01  3.86432E+01  3.91912E+01  3.93267E+01  3.97469E+01  3.99533E+01
   4.03430E+01  4.06625E+01  4.10395E+01  4.14700E+01  4.18412E+01  4.22849E+01  4.26886E+01  4.31853E+01  4.36337E+01  4.41962E+01
   4.47305E+01  4.53762E+01  4.60094E+01  4.67777E+01  4.75538E+01  4.84725E+01  4.94140E+01  5.04934E+01  5.16045E+01  5.28463E+01
   5.41407E+01  5.55692E+01  5.70917E+01  5.87527E+01  6.05271E+01  6.24403E+01  6.44909E+01  6.66718E+01  6.90103E+01  7.14907E+01
   7.41378E+01  7.69383E+01  7.99171E+01  8.30659E+01  8.64081E+01  8.99472E+01  9.37007E+01  9.76750E+01  1.01887E+02  1.06348E+02
   1.11072E+02  1.16071E+02  1.21355E+02  1.26934E+02  1.32813E+02  1.38999E+02  1.45499E+02  1.52341E+02  1.59622E+02  1.67347E+02
   1.74574E+02  1.82208E+02  1.88817E+02  1.95793E+02  2.01227E+02  2.06903E+02  2.10454E+02  2.14906E+02  2.16864E+02  2.19591E+02
   2.19764E+02  2.20463E+02  2.18819E+02  2.17478E+02  2.14311E+02  2.11095E+02  2.06906E+02  2.02238E+02  1.98023E+02  1.93282E+02
   1.88941E+02  1.83486E+02  1.79228E+02  1.73173E+02  1.69111E+02  1.62331E+02  1.58266E+02  1.52160E+02  1.48602E+02  1.43128E+02
   1.39997E+02  1.35235E+02  1.32313E+02  1.28278E+02  1.25419E+02  1.21979E+02  1.19293E+02  1.16499E+02  1.14190E+02  1.12438E+02
   1.10149E+02  1.08854E+02  1.06808E+02  1.05875E+02  1.03938E+02  1.03066E+02  1.01239E+02  1.00873E+02  9.97990E+01  9.95788E+01
   9.88831E+01  9.86834E+01  9.81036E+01  9.76092E+01  9.69363E+01  9.59881E+01  9.54403E+01  9.45849E+01  9.43825E+01  9.42167E+01
   9.35856E+01  9.26820E+01  9.17834E+01  9.01982E+01  8.90070E+01  8.70654E+01  8.58157E+01  8.49628E+01  8.42931E+01  8.37138E+01
   8.31715E+01  8.26303E+01  8.20644E+01  8.14550E+01  8.07889E+01  8.00576E+01  7.92571E+01  7.83873E+01  7.74518E+01  7.64576E+01
   7.54139E+01  7.43319E+01  7.32240E+01  7.21030E+01  7.09818E+01  6.98726E+01  6.87865E+01  6.77331E+01  6.67199E+01  6.57530E+01
   6.48362E+01  6.39715E+01  6.31594E+01  6.23985E+01  6.16862E+01  6.10191E+01  6.03928E+01  5.98024E+01  5.92427E+01  5.87084E+01
   5.81945E+01  5.76959E+01  5.72082E+01  5.67273E+01  5.62495E+01  5.57717E+01  5.52914E+01  5.48067E+01  5.43161E+01  5.38187E+01
   5.33139E+01  5.28018E+01  5.22825E+01  5.17568E+01  5.12254E+01  5.06895E+01  5.01503E+01  4.96091E+01  4.90674E+01  4.85266E+01
   4.79880E+01  4.74532E+01  4.69234E+01  4.63998E+01  4.58836E+01  4.53759E+01  4.48775E+01  4.43892E+01  4.39116E+01  4.34454E+01
   4.29910E+01  4.25486E+01  4.21185E+01  4.17008E+01  4.12955E+01  4.09027E+01  4.05221E+01  4.01537E+01  3.97973E+01  3.94525E+01
   3.91191E+01  3.87969E+01  3.84854E+01  3.81844E+01  3.78934E+01  3.76121E+01  3.73402E+01  3.70772E+01  3.68229E+01  3.65769E+01
   3.63387E+01  3.61082E+01  3.58849E+01  3.56686E+01  3.54588E+01  3.52554E+01  3.50581E+01  3.48664E+01  3.46803E+01  3.44995E+01
   3.43236E+01  3.41525E+01  3.39860E+01  3.38238E+01  3.36658E+01  3.35117E+01  3.33613E+01  3.32146E+01  3.30713E+01  3.29312E+01
   3.27943E+01  3.26604E+01  3.25294E+01  3.24010E+01  3.22753E+01  3.21521E+01  3.20313E+01  3.19127E+01  3.17964E+01  3.16821E+01
   3.15700E+01  3.14598E+01  3.13514E+01  3.12450E+01  3.11403E+01  3.10374E+01  3.09363E+01  3.08370E+01
 NY background values follow
     1.520E+01    1.521E+01    1.522E+01    1.523E+01    1.524E+01    1.524E+01    1.525E+01    1.526E+01    1.527E+01    1.528E+01
     1.528E+01    1.529E+01    1.530E+01    1.530E+01    1.531E+01    1.532E+01    1.532E+01    1.533E+01    1.534E+01    1.534E+01
     1.535E+01    1.535E+01    1.536E+01    1.537E+01    1.537E+01    1.538E+01    1.538E+01    1.539E+01    1.539E+01    1.540E+01
     1.540E+01    1.541E+01    1.541E+01    1.542E+01    1.542E+01    1.543E+01    1.543E+01    1.544E+01    1.544E+01    1.545E+01
     1.545E+01    1.546E+01    1.546E+01    1.547E+01    1.547E+01    1.548E+01    1.548E+01    1.548E+01    1.549E+01    1.549E+01
     1.550E+01    1.550E+01    1.551E+01    1.551E+01    1.552E+01    1.552E+01    1.553E+01    1.553E+01    1.554E+01    1.554E+01
     1.555E+01    1.555E+01    1.556E+01    1.557E+01    1.557E+01    1.558E+01    1.558E+01    1.559E+01    1.559E+01    1.560E+01
     1.561E+01    1.561E+01    1.562E+01    1.563E+01    1.563E+01    1.564E+01    1.565E+01    1.566E+01    1.566E+01    1.567E+01
     1.568E+01    1.569E+01    1.570E+01    1.570E+01    1.571E+01    1.572E+01    1.573E+01    1.574E+01    1.575E+01    1.576E+01
     1.577E+01    1.578E+01    1.579E+01    1.580E+01    1.581E+01    1.582E+01    1.583E+01    1.585E+01    1.586E+01    1.587E+01
     1.588E+01    1.590E+01    1.591E+01    1.592E+01    1.594E+01    1.595E+01    1.596E+01    1.598E+01    1.599E+01    1.601E+01
     1.603E+01    1.604E+01    1.606E+01    1.607E+01    1.609E+01    1.611E+01    1.613E+01    1.614E+01    1.616E+01    1.618E+01
     1.620E+01    1.622E+01    1.624E+01    1.626E+01    1.628E+01    1.630E+01    1.632E+01    1.635E+01    1.637E+01    1.639E+01
     1.641E+01    1.644E+01    1.646E+01    1.649E+01    1.651E+01    1.654E+01    1.656E+01    1.659E+01    1.661E+01    1.664E+01
     1.667E+01    1.670E+01    1.673E+01    1.676E+01    1.679E+01    1.682E+01    1.685E+01    1.688E+01    1.691E+01    1.694E+01
     1.697E+01    1.701E+01    1.704E+01    1.708E+01    1.711E+01    1.715E+01    1.718E+01    1.722E+01    1.726E+01    1.729E+01
     1.733E+01    1.737E+01    1.741E+01    1.745E+01    1.749E+01    1.753E+01    1.757E+01    1.762E+01    1.766E+01    1.770E+01
     1.775E+01    1.779E+01    1.784E+01    1.788E+01    1.793E+01    1.798E+01    1.802E+01    1.807E+01    1.812E+01    1.817E+01
     1.822E+01    1.827E+01    1.832E+01    1.837E+01    1.842E+01    1.848E+01    1.853E+01    1.858E+01    1.863E+01    1.869E+01
     1.874E+01    1.880E+01    1.885E+01    1.891E+01    1.896E+01    1.902E+01    1.908E+01    1.913E+01    1.919E+01    1.925E+01
     1.931E+01    1.937E+01    1.943E+01    1.949E+01    1.955E+01    1.961E+01    1.967E+01    1.973E+01    1.979E+01    1.985E+01
     1.991E+01    1.997E+01    2.003E+01    2.010E+01    2.016E+01    2.022E+01    2.029E+01    2.035E+01    2.041E+01    2.048E+01
     2.054E+01    2.060E+01    2.067E+01    2.073E+01    2.080E+01    2.086E+01    2.093E+01    2.099E+01    2.106E+01    2.113E+01
     2.119E+01    2.126E+01    2.132E+01    2.139E+01    2.146E+01    2.152E+01    2.159E+01    2.166E+01    2.172E+01    2.179E+01
     2.186E+01    2.192E+01    2.199E+01    2.206E+01    2.212E+01    2.219E+01    2.226E+01    2.233E+01    2.239E+01    2.246E+01
     2.253E+01    2.259E+01    2.266E+01    2.273E+01    2.279E+01    2.286E+01    2.293E+01    2.300E+01    2.306E+01    2.313E+01
     2.320E+01    2.326E+01    2.333E+01    2.340E+01    2.346E+01    2.353E+01    2.359E+01    2.366E+01    2.373E+01    2.379E+01
     2.386E+01    2.392E+01    2.399E+01    2.405E+01    2.412E+01    2.418E+01    2.425E+01    2.431E+01    2.438E+01    2.444E+01
     2.450E+01    2.457E+01    2.463E+01    2.469E+01    2.476E+01    2.482E+01    2.488E+01    2.494E+01    2.500E+01    2.506E+01
     2.513E+01    2.519E+01    2.525E+01    2.531E+01    2.537E+01    2.543E+01    2.548E+01    2.554E+01    2.560E+01    2.566E+01
     2.572E+01    2.577E+01    2.583E+01    2.589E+01    2.594E+01    2.600E+01    2.605E+01    2.611E+01    2.616E+01    2.622E+01
     2.627E+01    2.632E+01    2.638E+01    2.643E+01    2.648E+01    2.653E+01    2.658E+01    2.663E+01    2.668E+01    2.673E+01
     2.678E+01    2.683E+01    2.688E+01    2.692E+01    2.697E+01    2.702E+01    2.706E+01    2.711E+01    2.715E+01    2.719E+01
     2.724E+01    2.728E+01    2.732E+01    2.736E+01    2.740E+01    2.744E+01    2.748E+01    2.752E+01    2.756E+01    2.760E+01
     2.764E+01    2.767E+01    2.771E+01    2.774E+01    2.778E+01    2.781E+01    2.785E+01    2.788E+01    2.791E+01    2.794E+01
     2.797E+01    2.800E+01    2.803E+01    2.806E+01    2.809E+01    2.812E+01    2.815E+01    2.818E+01    2.820E+01    2.823E+01
     2.825E+01    2.828E+01    2.830E+01    2.833E+01    2.835E+01    2.837E+01    2.840E+01    2.842E+01    2.844E+01    2.846E+01
     2.848E+01    2.850E+01    2.852E+01    2.854E+01    2.855E+01    2.857E+01    2.859E+01    2.860E+01    2.862E+01    2.863E+01
     2.865E+01    2.866E+01    2.868E+01    2.869E+01    2.870E+01    2.871E+01    2.872E+01    2.873E+01    2.875E+01    2.876E+01
     2.876E+01    2.877E+01    2.878E+01    2.879E+01    2.880E+01    2.880E+01    2.881E+01    2.881E+01    2.882E+01    2.882E+01
     2.883E+01    2.883E+01    2.884E+01    2.884E+01    2.884E+01    2.884E+01    2.884E+01    2.884E+01    2.884E+01    2.884E+01
     2.884E+01    2.884E+01    2.884E+01    2.884E+01    2.884E+01    2.883E+01    2.883E+01    2.882E+01    2.882E+01    2.881E+01
     2.881E+01    2.880E+01    2.880E+01    2.879E+01    2.878E+01    2.877E+01    2.877E+01    2.876E+01    2.875E+01    2.874E+01
     2.873E+01    2.872E+01    2.871E+01    2.870E+01    2.868E+01    2.867E+01    2.866E+01    2.864E+01    2.863E+01    2.862E+01
     2.860E+01    2.859E+01    2.857E+01    2.856E+01    2.854E+01    2.852E+01    2.850E+01    2.849E+01    2.847E+01    2.845E+01
     2.843E+01    2.841E+01    2.839E+01    2.837E+01    2.835E+01    2.833E+01    2.831E+01    2.829E+01    2.826E+01    2.824E+01
     2.822E+01    2.820E+01    2.817E+01    2.815E+01    2.812E+01    2.810E+01    2.807E+01    2.805E+01    2.802E+01    2.799E+01
     2.797E+01    2.794E+01    2.791E+01    2.788E+01    2.785E+01    2.782E+01    2.779E+01    2.776E+01    2.773E+01    2.770E+01
     2.767E+01    2.764E+01    2.761E+01    2.758E+01    2.754E+01    2.751E+01    2.748E+01    2.745E+01    2.741E+01    2.738E+01
     2.734E+01    2.731E+01    2.727E+01    2.724E+01    2.720E+01    2.716E+01    2.713E+01    2.709E+01
 Ala      Conc. = 5.02E+03
