 LCModel (Version 6.3-1L) Copyright: S.W. Provencher.          Ref.: Magn. Reson. Med. 30:672-679 (1993).                
 Slice#1 Row#2 Col#2  PD_05_press_1_raw_act
 36 lines in following concentration table = NCONC+1
    Conc.  %SD /Cr+PCr  Metabolite                                         
    0.000 999%   0.000 Ala                                                 
    8.060  60%   0.136 Asp                                                 
   59.397  31%   1.000 Cr                                                  
    0.000 999%   0.000 PCr                                                 
    4.843  60% 8.2E-02 GABA                                                
    4.867  60% 8.2E-02 Glc                                                 
   82.608 139%   1.391 Gln                                                 
  114.685 111%   1.931 Glu                                                 
   18.031  39%   0.304 GPC                                                 
    0.000 999%   0.000 PCh                                                 
    6.169 484%   0.104 GSH                                                 
  239.522  36%   4.033 Ins                                                 
   16.305 364%   0.275 Lac                                                 
   49.324  41%   0.830 NAA                                                 
    0.000 999%   0.000 NAAG                                                
    1.668  58% 2.8E-02 Scyllo                                              
    7.822  62%   0.132 Tau                                                 
    4.768  81% 8.0E-02 -CrCH2                                              
   18.031  39%   0.304 GPC+PCh                                             
   49.324  41%   0.830 NAA+NAAG                                            
   59.397  31%   1.000 Cr+PCr                                              
  197.293 100%   3.322 Glu+Gln                                             
  792.189  15%  13.337 Lip13a                                              
    0.000 999%   0.000 Lip13b                                              
  198.570  18%   3.343 Lip09                                               
    0.000 999%   0.000 MM09                                                
  107.753  24%   1.814 Lip20                                               
    0.000 999%   0.000 MM20                                                
    0.479 999% 8.1E-03 MM12                                                
   98.804  53%   1.663 MM14                                                
    0.000 999%   0.000 MM17                                                
  792.189  15%  13.337 Lip13a+Lip13b                                       
  891.472  13%  15.009 MM14+Lip13a+Lip13b+MM12                             
  198.570  18%   3.343 MM09+Lip09                                          
  107.753  24%   1.814 MM20+Lip20                                          
   6 lines in following misc. output table
  FWHM = 0.069 ppm    S/N =   1                                            
  Data shift = 0.008 ppm                                                   
  Ph: 150 deg      24.7 deg/ppm                                            
  alphaB,S = 8.5E+01,   2.0E+02                                            
   14 spline knots.   Ns = 7(1)                                            
   2 inflections.     1 extrema                                            
  498 points on ppm-axis = NY
      4.000000     3.992357     3.984714     3.977070     3.969427     3.961784     3.954141     3.946497     3.938854     3.931211
      3.923568     3.915925     3.908281     3.900638     3.892995     3.885352     3.877708     3.870065     3.862422     3.854779
      3.847136     3.839492     3.831849     3.824206     3.816563     3.808919     3.801276     3.793633     3.785990     3.778347
      3.770703     3.763060     3.755417     3.747774     3.740130     3.732487     3.724844     3.717201     3.709558     3.701914
      3.694271     3.686628     3.678985     3.671341     3.663698     3.656055     3.648412     3.640769     3.633125     3.625482
      3.617839     3.610196     3.602552     3.594909     3.587266     3.579623     3.571980     3.564336     3.556693     3.549050
      3.541407     3.533763     3.526120     3.518477     3.510834     3.503191     3.495547     3.487904     3.480261     3.472618
      3.464974     3.457331     3.449688     3.442045     3.434402     3.426758     3.419115     3.411472     3.403829     3.396185
      3.388542     3.380899     3.373256     3.365613     3.357969     3.350326     3.342683     3.335040     3.327396     3.319753
      3.312110     3.304467     3.296824     3.289180     3.281537     3.273894     3.266251     3.258607     3.250964     3.243321
      3.235678     3.228034     3.220391     3.212748     3.205105     3.197462     3.189818     3.182175     3.174532     3.166889
      3.159245     3.151602     3.143959     3.136316     3.128673     3.121029     3.113386     3.105743     3.098100     3.090456
      3.082813     3.075170     3.067527     3.059884     3.052240     3.044597     3.036954     3.029311     3.021667     3.014024
      3.006381     2.998738     2.991095     2.983451     2.975808     2.968165     2.960522     2.952878     2.945235     2.937592
      2.929949     2.922306     2.914662     2.907019     2.899376     2.891733     2.884089     2.876446     2.868803     2.861160
      2.853517     2.845873     2.838230     2.830587     2.822944     2.815300     2.807657     2.800014     2.792371     2.784728
      2.777084     2.769441     2.761798     2.754155     2.746511     2.738868     2.731225     2.723582     2.715939     2.708295
      2.700652     2.693009     2.685366     2.677722     2.670079     2.662436     2.654793     2.647150     2.639506     2.631863
      2.624220     2.616577     2.608933     2.601290     2.593647     2.586004     2.578361     2.570717     2.563074     2.555431
      2.547788     2.540144     2.532501     2.524858     2.517215     2.509572     2.501928     2.494285     2.486642     2.478999
      2.471355     2.463712     2.456069     2.448426     2.440783     2.433139     2.425496     2.417853     2.410210     2.402566
      2.394923     2.387280     2.379637     2.371994     2.364350     2.356707     2.349064     2.341421     2.333777     2.326134
      2.318491     2.310848     2.303205     2.295561     2.287918     2.280275     2.272632     2.264988     2.257345     2.249702
      2.242059     2.234416     2.226772     2.219129     2.211486     2.203843     2.196199     2.188556     2.180913     2.173270
      2.165627     2.157983     2.150340     2.142697     2.135054     2.127410     2.119767     2.112124     2.104481     2.096838
      2.089194     2.081551     2.073908     2.066265     2.058621     2.050978     2.043335     2.035692     2.028049     2.020405
      2.012762     2.005119     1.997476     1.989833     1.982190     1.974546     1.966903     1.959260     1.951617     1.943974
      1.936331     1.928688     1.921045     1.913402     1.905759     1.898115     1.890472     1.882829     1.875186     1.867543
      1.859900     1.852257     1.844614     1.836971     1.829327     1.821684     1.814041     1.806398     1.798755     1.791112
      1.783469     1.775826     1.768183     1.760540     1.752896     1.745253     1.737610     1.729967     1.722324     1.714681
      1.707038     1.699395     1.691752     1.684108     1.676465     1.668822     1.661179     1.653536     1.645893     1.638250
      1.630607     1.622964     1.615321     1.607677     1.600034     1.592391     1.584748     1.577105     1.569462     1.561819
      1.554176     1.546533     1.538890     1.531246     1.523603     1.515960     1.508317     1.500674     1.493031     1.485388
      1.477745     1.470102     1.462458     1.454815     1.447172     1.439529     1.431886     1.424243     1.416600     1.408957
      1.401314     1.393671     1.386027     1.378384     1.370741     1.363098     1.355455     1.347812     1.340169     1.332526
      1.324883     1.317240     1.309596     1.301953     1.294310     1.286667     1.279024     1.271381     1.263738     1.256095
      1.248452     1.240808     1.233165     1.225522     1.217879     1.210236     1.202593     1.194950     1.187307     1.179664
      1.172021     1.164377     1.156734     1.149091     1.141448     1.133805     1.126162     1.118519     1.110876     1.103233
      1.095590     1.087946     1.080303     1.072660     1.065017     1.057374     1.049731     1.042088     1.034445     1.026802
      1.019158     1.011515     1.003872     0.996229     0.988586     0.980943     0.973300     0.965657     0.958014     0.950371
      0.942727     0.935084     0.927441     0.919798     0.912155     0.904512     0.896869     0.889226     0.881583     0.873940
      0.866296     0.858653     0.851010     0.843367     0.835724     0.828081     0.820438     0.812795     0.805152     0.797508
      0.789865     0.782222     0.774579     0.766936     0.759293     0.751650     0.744007     0.736364     0.728721     0.721077
      0.713434     0.705791     0.698148     0.690505     0.682862     0.675219     0.667576     0.659933     0.652290     0.644646
      0.637003     0.629360     0.621717     0.614074     0.606431     0.598788     0.591145     0.583502     0.575858     0.568215
      0.560572     0.552929     0.545286     0.537643     0.530000     0.522357     0.514714     0.507071     0.499427     0.491784
      0.484141     0.476498     0.468855     0.461212     0.453569     0.445925     0.438282     0.430639     0.422996     0.415353
      0.407710     0.400067     0.392424     0.384780     0.377137     0.369494     0.361851     0.354208     0.346565     0.338922
      0.331278     0.323635     0.315992     0.308349     0.300706     0.293063     0.285420     0.277777     0.270133     0.262490
      0.254847     0.247204     0.239561     0.231918     0.224275     0.216631     0.208988     0.201345
 NY phased data points follow
   3.18433E+00  9.72491E-01  2.91623E+00  3.23867E+00  2.10583E+00  2.58934E+00  1.52982E+00  5.66283E+00  4.75854E+00  2.80791E+00
   2.17810E+00  3.78543E+00  1.33861E+00  1.83427E+00  4.08181E+00  3.30685E+00  4.68957E+00  1.79811E+00  4.59501E+00  2.93981E+00
   4.94889E+00  2.06451E+00  2.43414E+00  2.28324E+00  6.13102E-01  8.67320E-01  1.49394E+00  1.27331E+00  2.17209E+00  2.73903E+00
   1.78519E+00  2.10646E-01  4.60346E-01  1.94863E+00  4.83391E-01  2.82853E+00  2.00511E+00  2.63182E+00  1.72419E+00  3.05816E+00
   2.79102E+00  5.29001E-01  2.57794E+00  7.51221E-01  2.76132E+00  2.85264E+00  1.27464E+00  2.47002E+00  1.13163E+00  1.46058E+00
   2.57343E+00  2.31231E+00  1.19281E+00 -4.33353E-01  2.65505E+00  1.32610E+00  1.29172E+00  8.10656E-01  1.99926E+00  1.48294E+00
   1.89578E+00  1.65496E-01  5.64651E-01  1.39746E+00  1.95400E+00 -1.17454E+00  2.25594E+00 -3.18977E-01  4.39794E-02  3.01871E-01
   9.74505E-01  2.44783E+00  7.82387E-01  1.61002E+00  2.20539E+00  1.24931E+00  5.34167E+00 -2.37029E+00  1.29561E+00  1.12105E+00
  -1.54350E+00  1.69465E+00  1.50979E+00  5.83655E-01  8.49066E-01 -1.14774E+00  2.49953E+00 -5.95242E-02  1.38848E-01  1.52335E+00
   3.03537E+00  8.49129E-01  1.90906E+00 -4.57387E-01  1.87847E+00 -1.79861E+00 -2.33149E-01  8.06288E-01  7.75049E-01  1.82477E+00
   5.57231E-01  2.23865E+00  1.20419E+00  1.37177E+00  1.74441E+00  1.60073E+00  3.17448E-01  3.25678E+00  8.37392E-01  7.81995E-01
   3.55156E-01  4.22030E-01 -1.30922E-01  8.76201E-01  2.07066E+00 -5.16049E-01  1.35352E+00  1.38397E+00  2.58663E+00 -2.33955E-01
   1.22422E+00 -1.61275E+00  1.76188E+00  7.77154E-01 -3.96388E-02  5.54418E-01  1.96764E+00  3.05397E-01  1.13901E+00  1.45058E+00
   1.48214E+00  1.68436E+00  1.93579E+00  1.44226E+00  4.15866E-01  9.41938E-01  2.30019E+00  8.99443E-01  1.83178E-01  9.42050E-01
  -1.24312E+00  6.67901E-01  4.31903E-01  2.26052E+00  1.93116E+00 -9.14999E-02 -3.30243E-01  7.52613E-01 -1.24908E+00  7.87320E-01
  -4.85620E-01  5.77749E-01  7.91044E-01 -3.34710E-01  1.17427E+00  9.69047E-01  6.82245E-01 -1.75980E+00  1.26602E+00  1.67902E+00
   7.07516E-01  8.91746E-01  1.37433E+00  2.16719E-01 -5.89998E-02 -3.47183E-01  7.26406E-01  7.58828E-01 -3.91081E-01 -1.74017E+00
  -1.10417E+00  9.71008E-01  2.16705E-01  1.80169E+00  1.42172E+00  1.78767E-01  1.51074E+00 -4.73596E-01 -5.74269E-02 -5.39543E-02
  -8.61619E-01  1.36642E-01  1.34784E+00  5.83560E-01  1.62211E+00  3.28933E+00 -3.75281E-01 -7.01260E-01 -1.53538E+00 -1.38831E-01
   1.09362E+00  6.45673E-01  3.25407E-01  9.30409E-01  1.29541E-01  2.16335E+00  5.99160E-01  1.58273E+00  1.23408E+00 -1.20838E+00
  -1.70897E+00  8.10984E-01  6.00207E-01 -2.88036E-01  1.27211E+00  1.44186E+00 -2.49753E+00  6.18980E-01 -4.16897E-01  2.86321E+00
  -1.58129E+00  8.49276E-02  2.49403E+00  1.28518E+00  1.09511E-01 -1.11601E+00  4.21837E-01 -7.06089E-01 -6.40548E-01 -1.13480E+00
   8.65549E-01  1.22554E+00  5.49955E-01 -1.41464E+00  2.22756E-01  1.26364E+00  3.55887E+00  1.02668E+00  7.02524E-01  1.73672E-01
   3.38736E-01  1.29111E-02  2.30780E-01  1.60035E+00  3.31104E-01  6.47743E-02 -3.66689E-01  1.57461E+00  1.03923E+00 -1.51017E-01
   1.01429E-01 -1.76676E+00  2.11359E-01 -9.92785E-01  2.35789E+00  1.10387E+00 -2.29920E+00 -7.00739E-01 -5.78673E-01  3.01961E-01
  -6.07529E-01 -1.92354E-01 -1.34338E+00 -1.18816E-01  4.89786E-01  7.47837E-01  1.82802E-01  2.63954E+00  2.77103E+00  7.37197E-01
   1.57559E+00  2.14372E+00  3.72018E+00  1.67169E+00 -3.86206E-01 -5.19363E-01  4.28433E+00 -6.04147E-01 -2.45589E+00  3.34838E-01
  -2.01087E+00 -7.14082E-01  2.17157E+00 -1.01527E+00  7.49310E-03  3.79234E-01 -5.76030E-01 -8.81473E-01 -3.31687E-01 -1.32514E+00
  -2.96001E+00 -1.81407E+00 -7.36661E-01  1.06676E+00 -3.01250E-02 -8.93644E-01 -9.14412E-01 -5.27711E-01 -1.40324E-01  2.28507E-01
   1.80315E+00  3.43938E+00 -4.78194E-01  2.59282E-01 -1.40246E-01 -2.67967E-02  1.36565E+00 -6.75682E-01 -4.11715E-01  1.59273E+00
  -6.06913E-01 -5.72613E-01 -2.75021E-01  1.98200E+00 -1.25802E+00  4.11355E-01  1.56958E+00  7.20446E-01 -8.83744E-01  6.85564E-01
   3.12200E-01 -3.46753E-01 -1.42845E+00 -4.49277E-01  2.98266E-01  1.75032E+00  2.46398E-01  1.76767E+00  1.44770E-02 -6.33687E-01
  -1.18939E+00 -1.65569E-01 -4.70633E-01  1.02287E-01  3.78165E-01 -1.46299E+00  3.57099E+00 -8.52705E-01  1.31709E+00  7.99287E-01
   1.56974E+00  3.51952E+00  3.92548E+00  2.10713E+00  4.08183E+00  3.04137E+00  2.51633E+00  1.87876E+00  2.84405E+00  4.04861E+00
   2.43823E+00  4.63786E+00  2.88692E+00  3.11308E+00  3.02684E+00  4.05486E+00  1.62358E+00  2.50843E+00  1.37240E+00  1.62346E+00
   5.08699E+00  2.17163E+00  5.70039E+00  5.15093E+00  4.30520E+00  3.69086E+00  2.35247E+00  1.68513E+00  2.50190E+00  2.16697E+00
   2.55699E+00  2.60177E+00  2.59932E+00  2.02286E+00  4.10281E+00  3.25985E+00  3.64507E+00  4.47627E+00  2.96137E+00  3.09717E+00
   1.28428E+00  2.24315E+00  6.75413E-01  2.43381E+00  9.20683E-01  2.77128E+00  1.02560E+00  1.05478E+00  6.63553E-01 -7.78676E-01
  -1.65962E+00 -1.02525E-01 -7.58901E-01  1.65555E-01 -6.01021E-03 -4.23887E-01 -2.40338E+00  5.96498E-01 -3.48579E-01 -2.24085E+00
  -1.45633E+00 -1.69959E+00  5.13861E-01 -1.21482E+00  1.01834E+00 -2.32778E+00  1.31876E+00  1.92581E+00 -4.88637E-01 -2.35087E-01
  -1.50987E+00  1.23534E+00  1.98231E+00 -3.86343E-01  7.79667E-01  8.67891E-02  1.88573E+00  1.65771E+00  3.82756E-01  1.71760E+00
   4.50126E-01  2.89452E+00  9.39887E-01  2.03874E+00  3.12123E+00  7.57726E-01 -3.94674E-02  1.57954E+00 -1.09330E+00 -3.35629E-03
   1.20050E-01 -5.29225E-01  2.87229E-01 -2.06740E+00 -3.61017E-01 -1.71251E+00 -1.39543E-01  1.57796E+00  2.65497E-01  6.16491E-01
  -1.97111E-01  4.19923E-01 -8.72313E-01  8.46326E-01  2.03982E-01  1.95504E+00  9.51829E-01 -7.50343E-01 -6.35956E-02  5.38866E+00
  -4.94349E-01 -1.19888E-01 -7.24394E-02  1.62952E+00 -4.14187E-01 -1.97558E-01  3.56627E-02 -5.66590E-01  7.52467E-02 -1.35137E-02
   9.47568E-01  6.97840E-01 -1.35310E+00  4.15997E-02  1.37976E+00 -4.30958E-03  6.60546E-01 -1.85950E+00  3.25793E-01  1.42490E+00
  -1.27551E+00  4.60098E-01 -1.48951E+00 -1.78348E+00  8.32927E-01 -5.28865E-01 -5.40442E-01  8.23457E-01 -1.70777E+00 -1.30612E+00
   1.84635E-01 -8.84358E-01  4.38573E-01 -1.17889E+00 -1.92315E+00  1.20405E+00  6.52656E-01 -1.42904E+00  4.77495E-01 -2.15542E+00
   1.52873E+00 -4.73392E-01 -1.29797E+00  1.98372E+00  1.33591E+00  3.76080E-01  8.46557E-02 -6.59557E-01  7.46595E-01 -9.20331E-01
  -7.17404E-01 -7.75581E-01  3.88363E-01  5.24549E-01 -7.27879E-01 -1.78678E-01 -1.31550E+00 -9.38973E-02
 NY points of the fit to the data follow
   1.64171E+00  1.50768E+00  1.41086E+00  1.34267E+00  1.33360E+00  1.42015E+00  1.57189E+00  1.74664E+00  1.91302E+00  2.05040E+00
   2.14833E+00  2.20257E+00  2.21211E+00  2.17773E+00  2.10231E+00  1.99089E+00  1.85086E+00  1.69416E+00  1.54182E+00  1.42171E+00
   1.35261E+00  1.31756E+00  1.27831E+00  1.23298E+00  1.19440E+00  1.18520E+00  1.21807E+00  1.28613E+00  1.37097E+00  1.45420E+00
   1.52491E+00  1.57893E+00  1.61547E+00  1.63444E+00  1.63126E+00  1.59732E+00  1.52743E+00  1.42899E+00  1.32101E+00  1.23518E+00
   1.22531E+00  1.34089E+00  1.56434E+00  1.82910E+00  2.07084E+00  2.25056E+00  2.35239E+00  2.37512E+00  2.32543E+00  2.21438E+00
   2.05165E+00  1.84816E+00  1.62800E+00  1.42334E+00  1.26583E+00  1.19000E+00  1.21278E+00  1.30832E+00  1.41493E+00  1.48684E+00
   1.51571E+00  1.50952E+00  1.47879E+00  1.43161E+00  1.37583E+00  1.32668E+00  1.29144E+00  1.27396E+00  1.28405E+00  1.32274E+00
   1.37691E+00  1.43068E+00  1.46702E+00  1.47794E+00  1.46273E+00  1.42655E+00  1.37812E+00  1.32386E+00  1.26920E+00  1.21697E+00
   1.16166E+00  1.09684E+00  1.01158E+00  9.07534E-01  7.96489E-01  6.91757E-01  6.03461E-01  5.39622E-01  5.03831E-01  4.98509E-01
   5.22247E-01  5.66009E-01  6.20459E-01  6.77973E-01  7.34426E-01  7.98991E-01  9.13500E-01  1.08198E+00  1.27203E+00  1.45603E+00
   1.61083E+00  1.72356E+00  1.79054E+00  1.81342E+00  1.79306E+00  1.73017E+00  1.62149E+00  1.46540E+00  1.27193E+00  1.06125E+00
   8.65169E-01  7.23861E-01  6.63441E-01  6.44727E-01  6.33602E-01  6.25197E-01  6.17812E-01  6.12542E-01  6.12331E-01  6.29975E-01
   7.17012E-01  9.10019E-01  1.17285E+00  1.45566E+00  1.71589E+00  1.92437E+00  2.06668E+00  2.13830E+00  2.13822E+00  2.06728E+00
   1.92868E+00  1.72912E+00  1.48228E+00  1.21159E+00  9.51281E-01  7.45717E-01  6.35875E-01  6.02907E-01  5.92759E-01  5.90738E-01
   5.93691E-01  5.99750E-01  6.07653E-01  6.15637E-01  6.21473E-01  6.24342E-01  6.24226E-01  6.21747E-01  6.18279E-01  6.14872E-01
   6.11852E-01  6.09187E-01  6.06436E-01  6.03078E-01  5.97609E-01  5.89590E-01  5.79694E-01  5.69261E-01  5.60547E-01  5.53676E-01
   5.47758E-01  5.42119E-01  5.36271E-01  5.30007E-01  5.23330E-01  5.16391E-01  5.09115E-01  5.00931E-01  4.90669E-01  4.76120E-01
   4.56487E-01  4.35485E-01  4.16573E-01  4.01141E-01  3.88172E-01  3.75624E-01  3.63723E-01  3.53725E-01  3.46291E-01  3.40733E-01
   3.35456E-01  3.30756E-01  3.28396E-01  3.29349E-01  3.33734E-01  3.40818E-01  3.49787E-01  3.58491E-01  3.63860E-01  3.62369E-01
   3.51627E-01  3.32942E-01  3.09803E-01  2.86163E-01  2.68472E-01  2.64784E-01  2.80499E-01  3.17289E-01  3.75397E-01  4.49061E-01
   5.23619E-01  5.85297E-01  6.15608E-01  5.90271E-01  5.09159E-01  3.94535E-01  2.69687E-01  1.58492E-01  8.69665E-02  7.88473E-02
   1.29852E-01  2.23588E-01  3.39690E-01  4.58367E-01  5.58891E-01  6.13462E-01  6.07576E-01  5.52450E-01  4.59074E-01  3.39749E-01
   2.26763E-01  1.46427E-01  1.08442E-01  1.20128E-01  1.82418E-01  2.83255E-01  3.94789E-01  5.01438E-01  5.89429E-01  6.38709E-01
   6.39281E-01  6.00719E-01  5.50033E-01  5.11881E-01  4.96712E-01  5.01172E-01  5.11337E-01  5.20069E-01  5.24630E-01  5.20255E-01
   5.04776E-01  4.82896E-01  4.57037E-01  4.24526E-01  3.83971E-01  3.40219E-01  3.09668E-01  3.04370E-01  3.25355E-01  3.67968E-01
   4.24143E-01  4.78519E-01  5.27835E-01  6.18935E-01  7.91357E-01  1.01725E+00  1.25739E+00  1.47830E+00  1.65017E+00  1.75874E+00
   1.80551E+00  1.79577E+00  1.73267E+00  1.61696E+00  1.45028E+00  1.23834E+00  9.96269E-01  7.52440E-01  5.48338E-01  4.25278E-01
   3.74837E-01  3.49758E-01  3.35272E-01  3.26609E-01  3.18900E-01  3.11388E-01  3.03930E-01  2.95143E-01  2.84030E-01  2.70335E-01
   2.54512E-01  2.38004E-01  2.23115E-01  2.11118E-01  2.01816E-01  1.94908E-01  1.90051E-01  1.86520E-01  1.83552E-01  1.80528E-01
   1.77358E-01  1.74246E-01  1.71286E-01  1.68584E-01  1.66343E-01  1.64722E-01  1.63742E-01  1.63375E-01  1.63715E-01  1.64825E-01
   1.66650E-01  1.69186E-01  1.72479E-01  1.76532E-01  1.81403E-01  1.87175E-01  1.93940E-01  2.01803E-01  2.10886E-01  2.21328E-01
   2.33291E-01  2.46957E-01  2.62527E-01  2.80180E-01  3.00104E-01  3.22507E-01  3.47589E-01  3.75546E-01  4.06576E-01  4.40867E-01
   4.78602E-01  5.19949E-01  5.65060E-01  6.14076E-01  6.67127E-01  7.24342E-01  7.85849E-01  8.51777E-01  9.22272E-01  9.97492E-01
   1.07763E+00  1.16289E+00  1.25354E+00  1.34985E+00  1.45212E+00  1.56067E+00  1.67588E+00  1.79820E+00  1.92840E+00  2.06832E+00
   2.22161E+00  2.38375E+00  2.54320E+00  2.69209E+00  2.82609E+00  2.94317E+00  3.04215E+00  3.12306E+00  3.19420E+00  3.26296E+00
   3.32990E+00  3.39251E+00  3.44760E+00  3.49266E+00  3.52638E+00  3.54778E+00  3.55324E+00  3.53235E+00  3.47801E+00  3.39125E+00
   3.27411E+00  3.12964E+00  2.96306E+00  2.78345E+00  2.60300E+00  2.42556E+00  2.25032E+00  2.07825E+00  1.91092E+00  1.74988E+00
   1.59649E+00  1.45184E+00  1.31671E+00  1.19161E+00  1.07681E+00  9.72339E-01  8.78048E-01  7.93660E-01  7.18799E-01  6.53025E-01
   5.95874E-01  5.46884E-01  5.05614E-01  4.71658E-01  4.44661E-01  4.24317E-01  4.10377E-01  4.02639E-01  4.00941E-01  4.05147E-01
   4.15133E-01  4.30766E-01  4.51890E-01  4.78293E-01  5.09693E-01  5.45710E-01  5.85854E-01  6.29504E-01  6.75904E-01  7.24159E-01
   7.73241E-01  8.22006E-01  8.69223E-01  9.13607E-01  9.53863E-01  9.88730E-01  1.01704E+00  1.03775E+00  1.05003E+00  1.05325E+00
   1.04704E+00  1.03130E+00  1.00623E+00  9.72252E-01  9.30062E-01  8.80548E-01  8.24763E-01  7.63867E-01  6.99085E-01  6.31646E-01
   5.62746E-01  4.93497E-01  4.24904E-01  3.57833E-01  2.93007E-01  2.30991E-01  1.72208E-01  1.16933E-01  6.53179E-02  1.74042E-02
  -2.68556E-02 -6.75813E-02 -1.04944E-01 -1.39153E-01 -1.70441E-01 -1.99050E-01 -2.25221E-01 -2.49190E-01 -2.71180E-01 -2.91401E-01
  -3.10045E-01 -3.27287E-01 -3.43282E-01 -3.58170E-01 -3.72073E-01 -3.85104E-01 -3.97356E-01 -4.08916E-01 -4.19854E-01 -4.30238E-01
  -4.40121E-01 -4.49557E-01 -4.58588E-01 -4.67252E-01 -4.75583E-01 -4.83610E-01 -4.91361E-01 -4.98861E-01 -5.06130E-01 -5.13187E-01
  -5.20047E-01 -5.26727E-01 -5.33241E-01 -5.39601E-01 -5.45819E-01 -5.51903E-01 -5.57863E-01 -5.63708E-01 -5.69445E-01 -5.75083E-01
  -5.80627E-01 -5.86082E-01 -5.91453E-01 -5.96747E-01 -6.01968E-01 -6.07121E-01 -6.12207E-01 -6.17232E-01 -6.22197E-01 -6.27109E-01
  -6.31968E-01 -6.36778E-01 -6.41541E-01 -6.46258E-01 -6.50931E-01 -6.55566E-01 -6.60161E-01 -6.64720E-01 -6.69241E-01 -6.73728E-01
  -6.78182E-01 -6.82606E-01 -6.86999E-01 -6.91362E-01 -6.95694E-01 -6.99999E-01 -7.04276E-01 -7.08527E-01
 NY background values follow
     9.855E-01    9.820E-01    9.785E-01    9.750E-01    9.715E-01    9.679E-01    9.644E-01    9.609E-01    9.574E-01    9.539E-01
     9.504E-01    9.469E-01    9.434E-01    9.399E-01    9.364E-01    9.329E-01    9.294E-01    9.259E-01    9.224E-01    9.189E-01
     9.154E-01    9.119E-01    9.084E-01    9.049E-01    9.014E-01    8.979E-01    8.944E-01    8.909E-01    8.874E-01    8.839E-01
     8.804E-01    8.769E-01    8.734E-01    8.699E-01    8.664E-01    8.629E-01    8.594E-01    8.559E-01    8.524E-01    8.489E-01
     8.454E-01    8.419E-01    8.384E-01    8.349E-01    8.314E-01    8.279E-01    8.244E-01    8.209E-01    8.174E-01    8.139E-01
     8.104E-01    8.069E-01    8.034E-01    7.999E-01    7.964E-01    7.929E-01    7.894E-01    7.859E-01    7.824E-01    7.789E-01
     7.754E-01    7.719E-01    7.684E-01    7.649E-01    7.614E-01    7.579E-01    7.544E-01    7.509E-01    7.474E-01    7.439E-01
     7.404E-01    7.369E-01    7.334E-01    7.299E-01    7.264E-01    7.229E-01    7.194E-01    7.159E-01    7.124E-01    7.089E-01
     7.054E-01    7.019E-01    6.984E-01    6.949E-01    6.914E-01    6.879E-01    6.844E-01    6.809E-01    6.774E-01    6.739E-01
     6.704E-01    6.669E-01    6.634E-01    6.599E-01    6.564E-01    6.529E-01    6.494E-01    6.459E-01    6.424E-01    6.389E-01
     6.354E-01    6.319E-01    6.284E-01    6.249E-01    6.214E-01    6.179E-01    6.144E-01    6.109E-01    6.074E-01    6.039E-01
     6.004E-01    5.969E-01    5.934E-01    5.899E-01    5.864E-01    5.829E-01    5.794E-01    5.759E-01    5.724E-01    5.689E-01
     5.654E-01    5.619E-01    5.584E-01    5.549E-01    5.514E-01    5.479E-01    5.444E-01    5.409E-01    5.374E-01    5.339E-01
     5.304E-01    5.269E-01    5.234E-01    5.199E-01    5.164E-01    5.129E-01    5.094E-01    5.059E-01    5.024E-01    4.989E-01
     4.954E-01    4.919E-01    4.884E-01    4.849E-01    4.814E-01    4.779E-01    4.744E-01    4.709E-01    4.674E-01    4.639E-01
     4.604E-01    4.569E-01    4.533E-01    4.498E-01    4.463E-01    4.428E-01    4.393E-01    4.358E-01    4.323E-01    4.288E-01
     4.253E-01    4.218E-01    4.183E-01    4.148E-01    4.113E-01    4.078E-01    4.043E-01    4.008E-01    3.973E-01    3.938E-01
     3.903E-01    3.868E-01    3.833E-01    3.798E-01    3.763E-01    3.728E-01    3.693E-01    3.658E-01    3.623E-01    3.588E-01
     3.553E-01    3.518E-01    3.483E-01    3.448E-01    3.413E-01    3.378E-01    3.343E-01    3.308E-01    3.273E-01    3.238E-01
     3.203E-01    3.168E-01    3.133E-01    3.098E-01    3.063E-01    3.028E-01    2.993E-01    2.958E-01    2.923E-01    2.888E-01
     2.853E-01    2.818E-01    2.783E-01    2.748E-01    2.713E-01    2.678E-01    2.643E-01    2.608E-01    2.573E-01    2.538E-01
     2.503E-01    2.468E-01    2.433E-01    2.398E-01    2.363E-01    2.328E-01    2.293E-01    2.258E-01    2.223E-01    2.188E-01
     2.153E-01    2.118E-01    2.083E-01    2.048E-01    2.013E-01    1.978E-01    1.943E-01    1.908E-01    1.873E-01    1.838E-01
     1.803E-01    1.768E-01    1.733E-01    1.698E-01    1.663E-01    1.628E-01    1.593E-01    1.558E-01    1.523E-01    1.488E-01
     1.453E-01    1.418E-01    1.383E-01    1.348E-01    1.313E-01    1.278E-01    1.243E-01    1.208E-01    1.173E-01    1.138E-01
     1.103E-01    1.068E-01    1.033E-01    9.983E-02    9.633E-02    9.283E-02    8.933E-02    8.583E-02    8.233E-02    7.883E-02
     7.533E-02    7.183E-02    6.833E-02    6.483E-02    6.133E-02    5.783E-02    5.433E-02    5.083E-02    4.733E-02    4.383E-02
     4.033E-02    3.683E-02    3.333E-02    2.983E-02    2.633E-02    2.283E-02    1.933E-02    1.583E-02    1.233E-02    8.828E-03
     5.328E-03    1.828E-03   -1.672E-03   -5.172E-03   -8.671E-03   -1.217E-02   -1.567E-02   -1.917E-02   -2.267E-02   -2.617E-02
    -2.967E-02   -3.317E-02   -3.667E-02   -4.017E-02   -4.367E-02   -4.717E-02   -5.067E-02   -5.417E-02   -5.767E-02   -6.117E-02
    -6.467E-02   -6.817E-02   -7.167E-02   -7.517E-02   -7.867E-02   -8.217E-02   -8.567E-02   -8.917E-02   -9.267E-02   -9.617E-02
    -9.967E-02   -1.032E-01   -1.067E-01   -1.102E-01   -1.137E-01   -1.172E-01   -1.207E-01   -1.242E-01   -1.277E-01   -1.312E-01
    -1.347E-01   -1.382E-01   -1.417E-01   -1.452E-01   -1.487E-01   -1.522E-01   -1.557E-01   -1.592E-01   -1.627E-01   -1.662E-01
    -1.697E-01   -1.732E-01   -1.767E-01   -1.802E-01   -1.837E-01   -1.872E-01   -1.907E-01   -1.942E-01   -1.977E-01   -2.012E-01
    -2.047E-01   -2.082E-01   -2.117E-01   -2.152E-01   -2.187E-01   -2.222E-01   -2.257E-01   -2.292E-01   -2.327E-01   -2.362E-01
    -2.396E-01   -2.431E-01   -2.466E-01   -2.501E-01   -2.536E-01   -2.571E-01   -2.606E-01   -2.641E-01   -2.676E-01   -2.711E-01
    -2.746E-01   -2.781E-01   -2.816E-01   -2.851E-01   -2.886E-01   -2.921E-01   -2.956E-01   -2.991E-01   -3.026E-01   -3.061E-01
    -3.096E-01   -3.131E-01   -3.166E-01   -3.201E-01   -3.236E-01   -3.271E-01   -3.306E-01   -3.341E-01   -3.376E-01   -3.411E-01
    -3.446E-01   -3.481E-01   -3.516E-01   -3.551E-01   -3.586E-01   -3.621E-01   -3.656E-01   -3.691E-01   -3.726E-01   -3.761E-01
    -3.796E-01   -3.831E-01   -3.866E-01   -3.901E-01   -3.936E-01   -3.971E-01   -4.006E-01   -4.041E-01   -4.076E-01   -4.111E-01
    -4.146E-01   -4.181E-01   -4.216E-01   -4.251E-01   -4.286E-01   -4.321E-01   -4.356E-01   -4.391E-01   -4.426E-01   -4.461E-01
    -4.496E-01   -4.531E-01   -4.566E-01   -4.601E-01   -4.636E-01   -4.671E-01   -4.706E-01   -4.741E-01   -4.776E-01   -4.811E-01
    -4.846E-01   -4.881E-01   -4.916E-01   -4.951E-01   -4.986E-01   -5.021E-01   -5.056E-01   -5.091E-01   -5.126E-01   -5.161E-01
    -5.196E-01   -5.231E-01   -5.266E-01   -5.301E-01   -5.336E-01   -5.371E-01   -5.406E-01   -5.441E-01   -5.476E-01   -5.511E-01
    -5.546E-01   -5.581E-01   -5.616E-01   -5.651E-01   -5.686E-01   -5.721E-01   -5.756E-01   -5.791E-01   -5.826E-01   -5.861E-01
    -5.896E-01   -5.931E-01   -5.966E-01   -6.001E-01   -6.036E-01   -6.071E-01   -6.106E-01   -6.141E-01   -6.176E-01   -6.211E-01
    -6.246E-01   -6.281E-01   -6.316E-01   -6.351E-01   -6.386E-01   -6.421E-01   -6.456E-01   -6.491E-01   -6.526E-01   -6.561E-01
    -6.596E-01   -6.631E-01   -6.666E-01   -6.701E-01   -6.736E-01   -6.771E-01   -6.806E-01   -6.841E-01   -6.876E-01   -6.911E-01
    -6.946E-01   -6.981E-01   -7.016E-01   -7.051E-01   -7.086E-01   -7.121E-01   -7.156E-01   -7.191E-01   -7.226E-01   -7.261E-01
    -7.296E-01   -7.331E-01   -7.366E-01   -7.401E-01   -7.436E-01   -7.471E-01   -7.506E-01   -7.541E-01
 Asp      Conc. = 8.06E+00
