 LCModel (Version 6.3-1L) Copyright: S.W. Provencher.          Ref.: Magn. Reson. Med. 30:672-679 (1993).                
 Slice#2 Row#10 Col#4  PD_05_press_1_raw_act
 36 lines in following concentration table = NCONC+1
    Conc.  %SD /Cr+PCr  Metabolite                                         
  123.407  57%   0.140 Ala                                                 
    0.000 999%   0.000 Asp                                                 
  354.470  40%   0.401 Cr                                                  
  528.442  28%   0.599 PCr                                                 
   32.438 294% 3.7E-02 GABA                                                
   29.584 304% 3.4E-02 Glc                                                 
  582.620  26%   0.660 Gln                                                 
 1.09E+03  17%   1.236 Glu                                                 
  270.830   5%   0.307 GPC                                                 
    0.000 999%   0.000 PCh                                                 
  279.467  17%   0.317 GSH                                                 
  654.934  25%   0.742 Ins                                                 
   76.182 103% 8.6E-02 Lac                                                 
 1.48E+03   6%   1.680 NAA                                                 
  249.395  37%   0.282 NAAG                                                
   54.879  30% 6.2E-02 Scyllo                                              
    0.000 999%   0.000 Tau                                                 
  162.156  41%   0.184 -CrCH2                                              
  270.830   5%   0.307 GPC+PCh                                             
 1.73E+03   3%   1.962 NAA+NAAG                                            
  882.912   4%   1.000 Cr+PCr                                              
 1.67E+03  15%   1.896 Glu+Gln                                             
 1.10E+03  24%   1.241 Lip13a                                              
    0.000 999%   0.000 Lip13b                                              
    0.000 999%   0.000 Lip09                                               
  932.896  14%   1.057 MM09                                                
  202.704  61%   0.230 Lip20                                               
 2.23E+03  10%   2.522 MM20                                                
  299.296  26%   0.339 MM12                                                
  930.499  22%   1.054 MM14                                                
  746.913  20%   0.846 MM17                                                
 1.10E+03  24%   1.241 Lip13a+Lip13b                                       
 2.33E+03  12%   2.633 MM14+Lip13a+Lip13b+MM12                             
  932.896  14%   1.057 MM09+Lip09                                          
 2.43E+03  10%   2.752 MM20+Lip20                                          
   6 lines in following misc. output table
  FWHM = 0.061 ppm    S/N =  14                                            
  Data shift =-0.008 ppm                                                   
  Ph: -15 deg      -6.6 deg/ppm                                            
  alphaB,S = 9.6E-01,   2.0E+02                                            
   14 spline knots.   Ns = 8(1)                                            
  (12) 3 infls.   ( 9) 1 extrs.                                            
  498 points on ppm-axis = NY
      4.000000     3.992357     3.984714     3.977070     3.969427     3.961784     3.954141     3.946497     3.938854     3.931211
      3.923568     3.915925     3.908281     3.900638     3.892995     3.885352     3.877708     3.870065     3.862422     3.854779
      3.847136     3.839492     3.831849     3.824206     3.816563     3.808919     3.801276     3.793633     3.785990     3.778347
      3.770703     3.763060     3.755417     3.747774     3.740130     3.732487     3.724844     3.717201     3.709558     3.701914
      3.694271     3.686628     3.678985     3.671341     3.663698     3.656055     3.648412     3.640769     3.633125     3.625482
      3.617839     3.610196     3.602552     3.594909     3.587266     3.579623     3.571980     3.564336     3.556693     3.549050
      3.541407     3.533763     3.526120     3.518477     3.510834     3.503191     3.495547     3.487904     3.480261     3.472618
      3.464974     3.457331     3.449688     3.442045     3.434402     3.426758     3.419115     3.411472     3.403829     3.396185
      3.388542     3.380899     3.373256     3.365613     3.357969     3.350326     3.342683     3.335040     3.327396     3.319753
      3.312110     3.304467     3.296824     3.289180     3.281537     3.273894     3.266251     3.258607     3.250964     3.243321
      3.235678     3.228034     3.220391     3.212748     3.205105     3.197462     3.189818     3.182175     3.174532     3.166889
      3.159245     3.151602     3.143959     3.136316     3.128673     3.121029     3.113386     3.105743     3.098100     3.090456
      3.082813     3.075170     3.067527     3.059884     3.052240     3.044597     3.036954     3.029311     3.021667     3.014024
      3.006381     2.998738     2.991095     2.983451     2.975808     2.968165     2.960522     2.952878     2.945235     2.937592
      2.929949     2.922306     2.914662     2.907019     2.899376     2.891733     2.884089     2.876446     2.868803     2.861160
      2.853517     2.845873     2.838230     2.830587     2.822944     2.815300     2.807657     2.800014     2.792371     2.784728
      2.777084     2.769441     2.761798     2.754155     2.746511     2.738868     2.731225     2.723582     2.715939     2.708295
      2.700652     2.693009     2.685366     2.677722     2.670079     2.662436     2.654793     2.647150     2.639506     2.631863
      2.624220     2.616577     2.608933     2.601290     2.593647     2.586004     2.578361     2.570717     2.563074     2.555431
      2.547788     2.540144     2.532501     2.524858     2.517215     2.509572     2.501928     2.494285     2.486642     2.478999
      2.471355     2.463712     2.456069     2.448426     2.440783     2.433139     2.425496     2.417853     2.410210     2.402566
      2.394923     2.387280     2.379637     2.371994     2.364350     2.356707     2.349064     2.341421     2.333777     2.326134
      2.318491     2.310848     2.303205     2.295561     2.287918     2.280275     2.272632     2.264988     2.257345     2.249702
      2.242059     2.234416     2.226772     2.219129     2.211486     2.203843     2.196199     2.188556     2.180913     2.173270
      2.165627     2.157983     2.150340     2.142697     2.135054     2.127410     2.119767     2.112124     2.104481     2.096838
      2.089194     2.081551     2.073908     2.066265     2.058621     2.050978     2.043335     2.035692     2.028049     2.020405
      2.012762     2.005119     1.997476     1.989833     1.982190     1.974546     1.966903     1.959260     1.951617     1.943974
      1.936331     1.928688     1.921045     1.913402     1.905759     1.898115     1.890472     1.882829     1.875186     1.867543
      1.859900     1.852257     1.844614     1.836971     1.829327     1.821684     1.814041     1.806398     1.798755     1.791112
      1.783469     1.775826     1.768183     1.760540     1.752896     1.745253     1.737610     1.729967     1.722324     1.714681
      1.707038     1.699395     1.691752     1.684108     1.676465     1.668822     1.661179     1.653536     1.645893     1.638250
      1.630607     1.622964     1.615321     1.607677     1.600034     1.592391     1.584748     1.577105     1.569462     1.561819
      1.554176     1.546533     1.538890     1.531246     1.523603     1.515960     1.508317     1.500674     1.493031     1.485388
      1.477745     1.470102     1.462458     1.454815     1.447172     1.439529     1.431886     1.424243     1.416600     1.408957
      1.401314     1.393671     1.386027     1.378384     1.370741     1.363098     1.355455     1.347812     1.340169     1.332526
      1.324883     1.317240     1.309596     1.301953     1.294310     1.286667     1.279024     1.271381     1.263738     1.256095
      1.248452     1.240808     1.233165     1.225522     1.217879     1.210236     1.202593     1.194950     1.187307     1.179664
      1.172021     1.164377     1.156734     1.149091     1.141448     1.133805     1.126162     1.118519     1.110876     1.103233
      1.095590     1.087946     1.080303     1.072660     1.065017     1.057374     1.049731     1.042088     1.034445     1.026802
      1.019158     1.011515     1.003872     0.996229     0.988586     0.980943     0.973300     0.965657     0.958014     0.950371
      0.942727     0.935084     0.927441     0.919798     0.912155     0.904512     0.896869     0.889226     0.881583     0.873940
      0.866296     0.858653     0.851010     0.843367     0.835724     0.828081     0.820438     0.812795     0.805152     0.797508
      0.789865     0.782222     0.774579     0.766936     0.759293     0.751650     0.744007     0.736364     0.728721     0.721077
      0.713434     0.705791     0.698148     0.690505     0.682862     0.675219     0.667576     0.659933     0.652290     0.644646
      0.637003     0.629360     0.621717     0.614074     0.606431     0.598788     0.591145     0.583502     0.575858     0.568215
      0.560572     0.552929     0.545286     0.537643     0.530000     0.522357     0.514714     0.507071     0.499427     0.491784
      0.484141     0.476498     0.468855     0.461212     0.453569     0.445925     0.438282     0.430639     0.422996     0.415353
      0.407710     0.400067     0.392424     0.384780     0.377137     0.369494     0.361851     0.354208     0.346565     0.338922
      0.331278     0.323635     0.315992     0.308349     0.300706     0.293063     0.285420     0.277777     0.270133     0.262490
      0.254847     0.247204     0.239561     0.231918     0.224275     0.216631     0.208988     0.201345
 NY phased data points follow
  -8.74822E+00 -5.29476E+00 -4.51116E+00 -5.28309E+00  9.55096E-01 -2.29556E+00  6.14262E+00  8.62287E+00  4.91077E+00  8.91074E+00
   8.84998E+00  5.63361E+00  8.17309E+00  1.18970E+00  2.45096E+00 -1.06763E+00 -5.33674E+00 -2.95198E-01 -6.78259E+00 -4.25109E+00
  -3.14270E+00 -3.19412E+00  4.56150E-01 -2.26259E+00 -2.55362E+00 -5.85809E-03 -4.24072E+00 -1.95355E+00  6.84543E-01 -1.79903E+00
   1.19171E+00 -1.95081E+00 -2.65925E+00 -1.42147E+00 -3.78199E+00 -3.61812E+00 -3.68894E+00 -4.57900E+00 -1.98735E+00 -1.97088E+00
  -4.61837E+00 -4.04719E+00 -4.49641E+00 -2.71835E+00 -1.53689E+00 -1.09537E+00 -3.16927E-01 -8.86006E-01 -1.84982E-02 -3.80269E-01
  -3.38024E+00 -1.80584E+00 -4.43726E+00 -6.64501E+00 -4.76802E+00 -2.09464E+00 -2.53877E+00 -4.80830E+00 -7.01102E+00 -7.68482E+00
  -6.83704E+00 -4.82851E+00 -6.90173E+00 -8.65381E+00 -9.66759E+00 -9.26173E+00 -8.64196E+00 -7.38451E+00 -6.69852E+00 -9.03530E+00
  -6.15733E+00 -7.39721E+00 -4.52644E+00 -4.31080E+00 -5.70926E+00 -6.79882E+00 -6.16216E+00 -6.64475E+00 -6.85437E+00 -7.90432E+00
  -6.25872E+00 -6.86764E+00 -7.55497E+00 -6.16613E+00 -3.28819E+00 -3.42911E+00 -5.66155E+00 -4.26241E+00 -5.05910E+00 -6.71775E+00
  -4.65809E+00 -4.94475E+00 -4.16359E+00 -2.72927E+00 -3.72043E+00 -2.83633E+00 -7.99356E-02 -1.18560E+00  2.21724E+00  5.07005E+00
   7.62995E+00  1.22605E+01  1.48433E+01  1.57711E+01  1.64968E+01  1.12523E+01  7.54712E+00  1.14070E+00 -1.35746E-01 -1.46109E+00
  -3.26084E+00 -2.81741E+00 -4.72748E+00 -5.25914E+00 -5.02339E+00 -3.86336E+00 -1.49438E+00 -2.33693E+00 -1.21965E+00 -5.17961E-01
  -4.67073E-01  2.61539E+00  4.87675E+00  8.14586E+00  1.47324E+01  1.72459E+01  2.12339E+01  2.08950E+01  2.02293E+01  1.49807E+01
   1.18549E+01  5.08677E+00 -1.01053E-01 -1.68747E+00 -2.41192E+00 -4.21386E+00 -5.80805E+00 -5.23711E+00 -5.82812E+00 -4.65605E+00
  -5.52505E+00 -6.53831E+00 -6.42020E+00 -6.54749E+00 -4.66156E+00 -5.69133E+00 -3.61678E+00 -5.76904E+00 -7.46953E+00 -6.06799E+00
  -4.72492E+00 -5.82316E+00 -8.44388E+00 -8.51960E+00 -5.13402E+00 -5.79148E+00 -5.89409E+00 -6.55530E+00 -7.04034E+00 -9.87379E+00
  -7.25033E+00 -7.96425E+00 -7.42800E+00 -7.80296E+00 -8.41639E+00 -7.63901E+00 -7.38037E+00 -6.97124E+00 -8.24575E+00 -9.09544E+00
  -1.17368E+01 -1.20162E+01 -1.43807E+01 -1.37131E+01 -1.33945E+01 -1.29808E+01 -1.61463E+01 -1.23258E+01 -1.20074E+01 -1.16675E+01
  -1.16326E+01 -1.15872E+01 -1.15756E+01 -9.18546E+00 -8.93250E+00 -9.08551E+00 -8.03472E+00 -6.74881E+00 -6.70312E+00 -6.79605E+00
  -4.60527E+00 -4.42976E+00 -5.04161E+00 -5.37913E+00 -5.55094E+00 -3.89773E+00 -7.25845E+00 -5.31369E+00 -6.39807E+00 -8.82312E+00
  -4.74755E+00 -5.00500E+00 -5.41510E+00 -2.87980E+00 -5.53195E+00 -4.59802E+00 -4.44142E+00 -8.72377E+00 -8.17892E+00 -7.45376E+00
  -4.81253E+00 -2.27113E+00 -3.77092E+00 -8.62395E-01  9.63736E-01 -2.75667E-01  2.80609E+00 -3.39741E-01  2.38784E+00 -3.24153E+00
  -4.82298E+00 -4.48118E+00 -7.33730E+00 -4.03381E+00 -2.44701E+00 -5.07317E+00  2.76214E-01  1.79020E+00  2.37492E-01  2.02086E+00
   3.96682E-01  2.66571E-01  3.13571E+00 -2.05852E+00  1.75072E+00 -3.60172E-01 -2.89434E-01  1.32077E+00  3.71302E-01  2.34435E+00
   2.12957E+00 -4.16567E-01  2.54301E+00 -2.32538E-01  2.63108E+00  5.43905E+00  3.83062E+00  7.45020E+00  5.25707E+00  8.04792E+00
   9.30832E+00  1.46019E+01  1.47497E+01  1.73001E+01  2.32434E+01  2.75399E+01  3.30170E+01  3.96899E+01  4.43758E+01  4.92027E+01
   5.32131E+01  5.13742E+01  4.74008E+01  3.87073E+01  2.46641E+01  1.36156E+01  8.73460E+00  1.04218E+01  8.21695E+00  3.56723E+00
   2.46722E+00  4.64920E+00  4.12356E+00  2.77281E+00  3.82941E+00  4.30456E+00  3.23076E+00  5.51066E-01 -4.55066E-01  1.97537E+00
   2.75734E+00  7.32024E-01  6.90236E-01  9.85831E-01  7.03023E-01 -2.16345E-02  5.85019E-01 -2.37210E-01 -2.18642E+00  1.98600E+00
   1.00986E+00  2.09427E+00  1.45996E+00  2.35585E-01  1.94290E+00  2.70340E-01  5.04013E-01 -1.14768E+00  5.30041E-01 -5.38312E-02
  -7.32779E-01  1.27478E+00  2.88145E+00  1.21972E+00  2.59094E+00  2.13450E+00 -2.83367E-01  3.18169E+00  4.27013E+00  4.52413E+00
   1.64983E+00  3.51506E+00  4.88516E+00  2.63582E+00  1.72241E+00  3.57037E+00  1.44797E+00  6.25195E+00  2.96319E+00  2.25784E+00
   2.72067E+00  5.59596E+00  5.82833E+00  5.17149E+00  3.14775E+00  2.79725E+00  2.02073E+00  3.23527E+00  3.87213E+00  3.24171E+00
   1.85596E+00  3.15519E+00  5.14962E+00  2.71246E+00  2.53311E+00  5.93267E-01  2.73763E+00  3.01624E+00  3.54222E+00  4.33080E+00
   5.08282E+00  5.86738E+00  4.99697E+00  5.50023E+00  5.67874E+00  8.13780E+00  5.26800E+00  3.93521E+00  4.54845E+00  4.23045E+00
   8.23567E+00  5.51204E+00  3.14340E+00  4.70147E+00  3.80383E+00  6.02830E+00  6.87593E+00  6.44454E+00  8.32332E+00  3.38842E+00
   5.94706E+00  3.95061E+00  2.93566E+00  5.88423E+00  7.11792E+00  2.96080E+00  4.02285E+00  4.41647E+00  6.06539E+00  6.08077E+00
   1.68564E+00  4.58535E+00  1.97232E+00  3.21148E+00  6.30854E+00  1.92750E+00  3.96718E+00  4.00348E+00  7.57983E-01  2.99788E+00
   2.18724E+00  9.56353E-01  1.93405E+00  2.80629E+00  2.26388E+00  4.01673E+00  1.57808E+00  3.08578E+00  7.72698E-01  3.70600E+00
   3.95111E+00  1.18154E+00  5.42346E+00  8.32755E-01  2.79324E+00  3.12123E+00  4.92562E-01  1.33456E+00  5.22724E+00  2.94008E+00
   6.26649E+00  1.95408E+00  3.34598E+00  3.21926E+00  2.02802E+00  5.86561E+00  4.47655E+00  4.40761E+00  2.09475E+00  2.42038E+00
   4.84594E+00  5.31823E+00  1.70820E+00  5.21681E+00  1.79482E+00  1.84052E+00  5.37665E+00  1.40421E+00  3.18201E+00  2.12943E+00
   1.35086E+00  1.26278E+00 -2.17163E+00  1.10305E+00  2.36546E+00 -1.51259E+00 -2.96805E-01  2.88180E+00  7.11795E-01  1.81322E+00
   7.94148E-02 -4.80523E-01  1.81415E+00 -6.22470E-01 -7.85640E-01  1.74193E+00 -1.33420E+00  2.22993E+00  3.49663E-01 -1.05908E-01
   4.93671E-01  5.98960E-01  1.66420E+00  4.70572E-02 -1.62647E+00  1.07236E+00  5.46243E-01  4.20383E-01  1.88479E+00 -1.65214E+00
   9.45761E-01  2.13845E+00  8.40248E-01  3.96558E-02 -1.41768E+00 -2.41453E-01 -9.63207E-01 -2.65210E+00  5.68927E-01  1.55812E+00
  -2.40028E+00 -1.80513E-01  1.34375E+00 -9.19605E-01  6.93826E-01 -8.88660E-01  7.17758E-02 -2.89334E+00 -1.84726E+00  1.57841E+00
   7.90313E-01 -5.89981E-01 -2.70725E-01  1.58370E+00 -6.69620E-01 -1.28643E+00 -5.00630E-02 -1.64172E-01  2.47810E-01 -3.90583E-01
   6.22270E-01 -2.84871E+00  2.30918E-01  1.95598E+00  2.87552E+00  2.00798E+00  1.50431E+00 -1.31341E-01 -7.74504E-01 -1.64898E+00
  -5.23707E-01 -2.79392E-01 -8.50551E-01  1.56189E+00  2.61884E-01 -1.23151E+00 -4.59929E-02 -3.29956E-01
 NY points of the fit to the data follow
  -4.98335E+00 -4.52592E+00 -3.63312E+00 -2.29136E+00 -6.18736E-01  1.25545E+00  3.28123E+00  5.31885E+00  7.10198E+00  8.27940E+00
   8.50665E+00  7.61614E+00  5.74523E+00  3.32470E+00  9.19466E-01 -1.04574E+00 -2.41738E+00 -3.30845E+00 -3.91960E+00 -4.33493E+00
  -4.64672E+00 -4.66427E+00 -4.43104E+00 -4.11522E+00 -3.70922E+00 -3.16376E+00 -2.42537E+00 -1.53577E+00 -6.49775E-01  6.88329E-02
   4.66574E-01  3.80721E-01 -2.08462E-01 -1.20217E+00 -2.37373E+00 -3.48625E+00 -4.43832E+00 -5.18865E+00 -5.61381E+00 -5.51175E+00
  -4.98117E+00 -4.29727E+00 -3.61059E+00 -2.95864E+00 -2.33892E+00 -1.80670E+00 -1.47458E+00 -1.44560E+00 -1.79338E+00 -2.54079E+00
  -3.56206E+00 -4.59963E+00 -5.38054E+00 -5.77466E+00 -5.86547E+00 -5.82982E+00 -5.73980E+00 -5.58732E+00 -5.41056E+00 -5.29036E+00
  -5.28855E+00 -5.42771E+00 -5.70149E+00 -6.04464E+00 -6.33794E+00 -6.49142E+00 -6.47440E+00 -6.32710E+00 -6.11863E+00 -5.90217E+00
  -5.72160E+00 -5.60365E+00 -5.55647E+00 -5.58240E+00 -5.66865E+00 -5.79191E+00 -5.91582E+00 -5.99466E+00 -5.97110E+00 -5.83016E+00
  -5.67805E+00 -5.53925E+00 -5.37305E+00 -5.17385E+00 -4.97504E+00 -4.83826E+00 -4.82712E+00 -4.98736E+00 -5.29992E+00 -5.68867E+00
  -6.03235E+00 -6.20246E+00 -6.14479E+00 -5.90099E+00 -5.40434E+00 -4.13099E+00 -2.13242E+00  1.47868E-01  2.68584E+00  5.63229E+00
   8.96134E+00  1.22890E+01  1.49155E+01  1.60497E+01  1.51263E+01  1.21159E+01  7.69676E+00  3.07332E+00 -5.77018E-01 -2.80169E+00
  -4.04147E+00 -4.98245E+00 -5.79795E+00 -6.15784E+00 -6.12944E+00 -5.99061E+00 -5.78176E+00 -5.44738E+00 -4.64951E+00 -2.73189E+00
  -1.05999E-01  2.80359E+00  6.07699E+00  9.82707E+00  1.38993E+01  1.77469E+01  2.04981E+01  2.12936E+01  1.96549E+01  1.57436E+01
   1.04893E+01  5.30690E+00  1.35192E+00 -1.15376E+00 -2.86277E+00 -4.37923E+00 -5.56646E+00 -5.95444E+00 -5.79621E+00 -5.44770E+00
  -5.11276E+00 -4.92344E+00 -4.91116E+00 -5.03604E+00 -5.24698E+00 -5.48284E+00 -5.70148E+00 -5.89633E+00 -6.07180E+00 -6.23284E+00
  -6.37808E+00 -6.48928E+00 -6.58277E+00 -6.69725E+00 -6.81652E+00 -6.91136E+00 -6.98091E+00 -7.03048E+00 -7.12289E+00 -7.29202E+00
  -7.49282E+00 -7.65354E+00 -7.72370E+00 -7.69683E+00 -7.63471E+00 -7.64201E+00 -7.80818E+00 -8.14792E+00 -8.58287E+00 -8.96890E+00
  -9.19534E+00 -9.32070E+00 -9.44288E+00 -9.63143E+00 -9.84283E+00 -9.96421E+00 -9.96130E+00 -9.84731E+00 -9.66690E+00 -9.51645E+00
  -9.42045E+00 -9.32540E+00 -9.16767E+00 -8.86543E+00 -8.38172E+00 -7.78240E+00 -7.14890E+00 -6.50159E+00 -5.83661E+00 -5.20581E+00
  -4.74735E+00 -4.60400E+00 -4.78671E+00 -5.15134E+00 -5.49673E+00 -5.63731E+00 -5.43667E+00 -4.93115E+00 -4.21044E+00 -3.39522E+00
  -2.65889E+00 -2.17595E+00 -2.06514E+00 -2.30878E+00 -2.92570E+00 -3.94242E+00 -5.20925E+00 -6.44041E+00 -7.27035E+00 -7.46551E+00
  -6.99576E+00 -5.89280E+00 -4.34168E+00 -2.66662E+00 -1.26780E+00 -4.89292E-01 -4.12374E-01 -9.95724E-01 -2.22853E+00 -3.90897E+00
  -5.55899E+00 -6.61529E+00 -6.81238E+00 -6.23182E+00 -5.05438E+00 -3.50205E+00 -1.88166E+00 -6.13583E-01  7.33920E-02  3.31291E-01
   4.05377E-01  5.01560E-01  6.96059E-01  9.76011E-01  1.31713E+00  1.67321E+00  1.97780E+00  2.18725E+00  2.25719E+00  2.15071E+00
   1.89948E+00  1.62249E+00  1.51358E+00  1.71429E+00  2.24362E+00  3.03232E+00  3.97315E+00  4.99581E+00  6.12176E+00  7.25754E+00
   8.43535E+00  9.97993E+00  1.30108E+01  1.79066E+01  2.33869E+01  2.89657E+01  3.46791E+01  4.04546E+01  4.58457E+01  5.00248E+01
   5.19118E+01  5.04876E+01  4.52632E+01  3.68282E+01  2.70614E+01  1.84834E+01  1.26875E+01  9.21142E+00  6.60278E+00  4.17340E+00
   2.51089E+00  1.84334E+00  1.50494E+00  1.27872E+00  1.11213E+00  9.58625E-01  7.73199E-01  5.53899E-01  3.17668E-01  9.33050E-02
  -9.36092E-02 -2.34200E-01 -3.37854E-01 -4.10430E-01 -4.48736E-01 -4.57343E-01 -4.47960E-01 -4.25371E-01 -3.83435E-01 -3.14004E-01
  -2.16096E-01 -9.51834E-02  4.69601E-02  2.06887E-01  3.76711E-01  5.49884E-01  7.24954E-01  9.03214E-01  1.08611E+00  1.27298E+00
   1.46060E+00  1.64543E+00  1.82414E+00  1.99118E+00  2.14062E+00  2.26906E+00  2.37592E+00  2.46218E+00  2.52886E+00  2.57727E+00
   2.61054E+00  2.63199E+00  2.64507E+00  2.65395E+00  2.66331E+00  2.67822E+00  2.70440E+00  2.74922E+00  2.82504E+00  2.95621E+00
   3.13116E+00  3.28942E+00  3.42572E+00  3.54619E+00  3.63416E+00  3.64940E+00  3.54075E+00  3.29962E+00  2.99413E+00  2.66789E+00
   2.38827E+00  2.25667E+00  2.35424E+00  2.68750E+00  3.18021E+00  3.72831E+00  4.25407E+00  4.70730E+00  5.03163E+00  5.20119E+00
   5.25827E+00  5.26619E+00  5.29169E+00  5.33731E+00  5.35768E+00  5.32451E+00  5.24011E+00  5.11321E+00  4.95853E+00  4.79044E+00
   4.65705E+00  4.62429E+00  4.73634E+00  4.98203E+00  5.29687E+00  5.60422E+00  5.85074E+00  6.00591E+00  6.03896E+00  5.94509E+00
   5.77467E+00  5.58315E+00  5.39132E+00  5.18587E+00  4.95439E+00  4.71428E+00  4.47841E+00  4.24281E+00  4.00715E+00  3.77335E+00
   3.54404E+00  3.32207E+00  3.11021E+00  2.91108E+00  2.72703E+00  2.56021E+00  2.41245E+00  2.28530E+00  2.17999E+00  2.09752E+00
   2.03860E+00  2.00375E+00  1.99323E+00  2.00710E+00  2.04508E+00  2.10672E+00  2.19121E+00  2.29754E+00  2.42426E+00  2.56959E+00
   2.73126E+00  2.90669E+00  3.09279E+00  3.28618E+00  3.48302E+00  3.67921E+00  3.87038E+00  4.05214E+00  4.22009E+00  4.37004E+00
   4.49804E+00  4.60063E+00  4.67493E+00  4.71879E+00  4.73083E+00  4.71053E+00  4.65814E+00  4.57480E+00  4.46235E+00  4.32339E+00
   4.16099E+00  3.97867E+00  3.78015E+00  3.56931E+00  3.35001E+00  3.12596E+00  2.90061E+00  2.67705E+00  2.45795E+00  2.24560E+00
   2.04182E+00  1.84803E+00  1.66519E+00  1.49393E+00  1.33449E+00  1.18692E+00  1.05100E+00  9.26370E-01  8.12482E-01  7.08739E-01
   6.14452E-01  5.28975E-01  4.51613E-01  3.81716E-01  3.18600E-01  2.61668E-01  2.10331E-01  1.64105E-01  1.22496E-01  8.50867E-02
   5.14415E-02  2.12243E-02 -5.89809E-03 -3.01729E-02 -5.18796E-02 -7.12375E-02 -8.84923E-02 -1.03803E-01 -1.17348E-01 -1.29237E-01
  -1.39634E-01 -1.48651E-01 -1.56427E-01 -1.63027E-01 -1.68549E-01 -1.73042E-01 -1.76617E-01 -1.79329E-01 -1.81264E-01 -1.82439E-01
  -1.82921E-01 -1.82731E-01 -1.81951E-01 -1.80603E-01 -1.78741E-01 -1.76361E-01 -1.73512E-01 -1.70209E-01 -1.66517E-01 -1.62436E-01
  -1.58004E-01 -1.53202E-01 -1.48076E-01 -1.42632E-01 -1.36923E-01 -1.30935E-01 -1.24695E-01 -1.18186E-01 -1.11455E-01 -1.04504E-01
  -9.73760E-02 -9.00450E-02 -8.25346E-02 -7.48296E-02 -6.69787E-02 -5.89769E-02 -5.08565E-02 -4.25866E-02 -3.41940E-02 -2.56684E-02
  -1.70592E-02 -8.35433E-03  4.21450E-04  9.29968E-03  1.82474E-02  2.72696E-02  3.63186E-02  4.54140E-02
 NY background values follow
    -8.477E+00   -8.472E+00   -8.467E+00   -8.462E+00   -8.457E+00   -8.452E+00   -8.446E+00   -8.441E+00   -8.436E+00   -8.431E+00
    -8.426E+00   -8.421E+00   -8.416E+00   -8.411E+00   -8.407E+00   -8.402E+00   -8.397E+00   -8.392E+00   -8.387E+00   -8.382E+00
    -8.377E+00   -8.373E+00   -8.368E+00   -8.363E+00   -8.358E+00   -8.353E+00   -8.349E+00   -8.344E+00   -8.339E+00   -8.334E+00
    -8.330E+00   -8.325E+00   -8.320E+00   -8.316E+00   -8.311E+00   -8.306E+00   -8.302E+00   -8.297E+00   -8.292E+00   -8.288E+00
    -8.283E+00   -8.278E+00   -8.274E+00   -8.269E+00   -8.265E+00   -8.260E+00   -8.255E+00   -8.251E+00   -8.246E+00   -8.242E+00
    -8.237E+00   -8.233E+00   -8.228E+00   -8.223E+00   -8.219E+00   -8.214E+00   -8.210E+00   -8.205E+00   -8.200E+00   -8.196E+00
    -8.191E+00   -8.186E+00   -8.182E+00   -8.177E+00   -8.172E+00   -8.168E+00   -8.163E+00   -8.158E+00   -8.153E+00   -8.149E+00
    -8.144E+00   -8.139E+00   -8.134E+00   -8.129E+00   -8.124E+00   -8.119E+00   -8.114E+00   -8.109E+00   -8.104E+00   -8.099E+00
    -8.093E+00   -8.088E+00   -8.083E+00   -8.077E+00   -8.072E+00   -8.067E+00   -8.061E+00   -8.056E+00   -8.050E+00   -8.045E+00
    -8.039E+00   -8.033E+00   -8.027E+00   -8.021E+00   -8.016E+00   -8.010E+00   -8.004E+00   -7.997E+00   -7.991E+00   -7.985E+00
    -7.979E+00   -7.972E+00   -7.966E+00   -7.959E+00   -7.952E+00   -7.946E+00   -7.939E+00   -7.932E+00   -7.925E+00   -7.918E+00
    -7.910E+00   -7.903E+00   -7.896E+00   -7.888E+00   -7.880E+00   -7.873E+00   -7.865E+00   -7.857E+00   -7.849E+00   -7.840E+00
    -7.832E+00   -7.823E+00   -7.815E+00   -7.806E+00   -7.797E+00   -7.788E+00   -7.779E+00   -7.769E+00   -7.760E+00   -7.750E+00
    -7.740E+00   -7.731E+00   -7.720E+00   -7.710E+00   -7.700E+00   -7.689E+00   -7.678E+00   -7.668E+00   -7.656E+00   -7.645E+00
    -7.634E+00   -7.622E+00   -7.610E+00   -7.598E+00   -7.586E+00   -7.574E+00   -7.561E+00   -7.548E+00   -7.535E+00   -7.522E+00
    -7.508E+00   -7.494E+00   -7.480E+00   -7.466E+00   -7.452E+00   -7.437E+00   -7.422E+00   -7.407E+00   -7.391E+00   -7.375E+00
    -7.359E+00   -7.343E+00   -7.326E+00   -7.309E+00   -7.292E+00   -7.274E+00   -7.257E+00   -7.238E+00   -7.220E+00   -7.201E+00
    -7.182E+00   -7.163E+00   -7.143E+00   -7.123E+00   -7.102E+00   -7.081E+00   -7.060E+00   -7.039E+00   -7.017E+00   -6.995E+00
    -6.972E+00   -6.949E+00   -6.926E+00   -6.902E+00   -6.878E+00   -6.853E+00   -6.829E+00   -6.804E+00   -6.778E+00   -6.752E+00
    -6.726E+00   -6.700E+00   -6.673E+00   -6.646E+00   -6.619E+00   -6.591E+00   -6.564E+00   -6.535E+00   -6.507E+00   -6.479E+00
    -6.450E+00   -6.421E+00   -6.392E+00   -6.362E+00   -6.332E+00   -6.303E+00   -6.272E+00   -6.242E+00   -6.212E+00   -6.181E+00
    -6.151E+00   -6.120E+00   -6.089E+00   -6.057E+00   -6.026E+00   -5.995E+00   -5.963E+00   -5.932E+00   -5.900E+00   -5.868E+00
    -5.836E+00   -5.804E+00   -5.772E+00   -5.740E+00   -5.708E+00   -5.676E+00   -5.644E+00   -5.611E+00   -5.579E+00   -5.547E+00
    -5.515E+00   -5.482E+00   -5.450E+00   -5.418E+00   -5.386E+00   -5.353E+00   -5.321E+00   -5.289E+00   -5.257E+00   -5.225E+00
    -5.192E+00   -5.160E+00   -5.128E+00   -5.096E+00   -5.064E+00   -5.033E+00   -5.001E+00   -4.969E+00   -4.937E+00   -4.906E+00
    -4.874E+00   -4.843E+00   -4.812E+00   -4.780E+00   -4.749E+00   -4.718E+00   -4.687E+00   -4.657E+00   -4.626E+00   -4.595E+00
    -4.565E+00   -4.535E+00   -4.505E+00   -4.475E+00   -4.445E+00   -4.415E+00   -4.386E+00   -4.356E+00   -4.327E+00   -4.298E+00
    -4.269E+00   -4.241E+00   -4.212E+00   -4.184E+00   -4.156E+00   -4.128E+00   -4.101E+00   -4.073E+00   -4.046E+00   -4.019E+00
    -3.992E+00   -3.965E+00   -3.939E+00   -3.912E+00   -3.886E+00   -3.860E+00   -3.834E+00   -3.809E+00   -3.783E+00   -3.758E+00
    -3.733E+00   -3.708E+00   -3.684E+00   -3.659E+00   -3.635E+00   -3.611E+00   -3.587E+00   -3.563E+00   -3.540E+00   -3.516E+00
    -3.493E+00   -3.470E+00   -3.447E+00   -3.425E+00   -3.402E+00   -3.380E+00   -3.358E+00   -3.336E+00   -3.315E+00   -3.293E+00
    -3.272E+00   -3.251E+00   -3.230E+00   -3.209E+00   -3.189E+00   -3.168E+00   -3.148E+00   -3.128E+00   -3.108E+00   -3.089E+00
    -3.069E+00   -3.050E+00   -3.031E+00   -3.012E+00   -2.993E+00   -2.974E+00   -2.956E+00   -2.938E+00   -2.920E+00   -2.902E+00
    -2.884E+00   -2.866E+00   -2.849E+00   -2.831E+00   -2.814E+00   -2.797E+00   -2.780E+00   -2.764E+00   -2.747E+00   -2.730E+00
    -2.714E+00   -2.698E+00   -2.682E+00   -2.666E+00   -2.650E+00   -2.634E+00   -2.619E+00   -2.603E+00   -2.588E+00   -2.572E+00
    -2.557E+00   -2.542E+00   -2.527E+00   -2.512E+00   -2.498E+00   -2.483E+00   -2.468E+00   -2.454E+00   -2.440E+00   -2.425E+00
    -2.411E+00   -2.397E+00   -2.383E+00   -2.369E+00   -2.355E+00   -2.341E+00   -2.328E+00   -2.314E+00   -2.300E+00   -2.287E+00
    -2.273E+00   -2.260E+00   -2.246E+00   -2.233E+00   -2.220E+00   -2.207E+00   -2.193E+00   -2.180E+00   -2.167E+00   -2.154E+00
    -2.141E+00   -2.128E+00   -2.115E+00   -2.102E+00   -2.089E+00   -2.076E+00   -2.063E+00   -2.050E+00   -2.037E+00   -2.024E+00
    -2.011E+00   -1.998E+00   -1.986E+00   -1.973E+00   -1.960E+00   -1.947E+00   -1.934E+00   -1.921E+00   -1.908E+00   -1.895E+00
    -1.882E+00   -1.869E+00   -1.855E+00   -1.842E+00   -1.829E+00   -1.816E+00   -1.803E+00   -1.789E+00   -1.776E+00   -1.762E+00
    -1.749E+00   -1.735E+00   -1.722E+00   -1.708E+00   -1.695E+00   -1.681E+00   -1.667E+00   -1.653E+00   -1.640E+00   -1.626E+00
    -1.612E+00   -1.598E+00   -1.584E+00   -1.570E+00   -1.556E+00   -1.542E+00   -1.528E+00   -1.514E+00   -1.499E+00   -1.485E+00
    -1.471E+00   -1.457E+00   -1.442E+00   -1.428E+00   -1.414E+00   -1.399E+00   -1.385E+00   -1.371E+00   -1.356E+00   -1.342E+00
    -1.327E+00   -1.313E+00   -1.298E+00   -1.284E+00   -1.269E+00   -1.255E+00   -1.240E+00   -1.226E+00   -1.211E+00   -1.196E+00
    -1.182E+00   -1.167E+00   -1.153E+00   -1.138E+00   -1.123E+00   -1.109E+00   -1.094E+00   -1.079E+00   -1.065E+00   -1.050E+00
    -1.035E+00   -1.021E+00   -1.006E+00   -9.913E-01   -9.766E-01   -9.619E-01   -9.472E-01   -9.325E-01   -9.178E-01   -9.030E-01
    -8.883E-01   -8.736E-01   -8.589E-01   -8.442E-01   -8.294E-01   -8.147E-01   -8.000E-01   -7.852E-01   -7.705E-01   -7.558E-01
    -7.411E-01   -7.263E-01   -7.116E-01   -6.969E-01   -6.821E-01   -6.674E-01   -6.527E-01   -6.380E-01   -6.232E-01   -6.085E-01
    -5.938E-01   -5.791E-01   -5.644E-01   -5.497E-01   -5.350E-01   -5.203E-01   -5.056E-01   -4.909E-01
 Ala      Conc. = 1.23E+02
