 LCModel (Version 6.3-1L) Copyright: S.W. Provencher.          Ref.: Magn. Reson. Med. 30:672-679 (1993).                
 Slice#2 Row#9 Col#1  PD_05_press_1_raw_act
 36 lines in following concentration table = NCONC+1
    Conc.  %SD /Cr+PCr  Metabolite                                         
   24.609  93%   0.379 Ala                                                 
    8.535  87%   0.131 Asp                                                 
    0.000 999%   0.000 Cr                                                  
   65.000  17%   1.000 PCr                                                 
    4.290 104% 6.6E-02 GABA                                                
    3.663 123% 5.6E-02 Glc                                                 
   40.970 112%   0.630 Gln                                                 
   56.636  89%   0.871 Glu                                                 
    7.230  57%   0.111 GPC                                                 
    0.000 999%   0.000 PCh                                                 
   14.522 108%   0.223 GSH                                                 
    0.000 999%   0.000 Ins                                                 
   30.656  81%   0.472 Lac                                                 
   38.237  38%   0.588 NAA                                                 
   25.802  56%   0.397 NAAG                                                
    1.010 145% 1.6E-02 Scyllo                                              
    6.134 121% 9.4E-02 Tau                                                 
    0.000 999%   0.000 -CrCH2                                              
    7.230  57%   0.111 GPC+PCh                                             
   64.039  22%   0.985 NAA+NAAG                                            
   65.000  17%   1.000 Cr+PCr                                              
   97.606  70%   1.502 Glu+Gln                                             
  154.143  54%   2.371 Lip13a                                              
    0.000 999%   0.000 Lip13b                                              
   40.089  68%   0.617 Lip09                                               
    1.980 662% 3.0E-02 MM09                                                
   21.580  80%   0.332 Lip20                                               
    0.000 999%   0.000 MM20                                                
    0.630 999% 9.7E-03 MM12                                                
   12.144 213%   0.187 MM14                                                
    0.000 999%   0.000 MM17                                                
  154.143  54%   2.371 Lip13a+Lip13b                                       
  166.917  51%   2.568 MM14+Lip13a+Lip13b+MM12                             
   42.069  69%   0.647 MM09+Lip09                                          
   21.580  80%   0.332 MM20+Lip20                                          
   6 lines in following misc. output table
  FWHM = 0.046 ppm    S/N =   1                                            
  Data shift =-0.031 ppm                                                   
  Ph:  43 deg     -10.1 deg/ppm                                            
  alphaB,S = 7.9E-01,   4.7E+01                                            
   14 spline knots.   Ns = 5(1)                                            
  ( 4) 2 infls.   ( 1) 1 extrs.                                            
  498 points on ppm-axis = NY
      4.000000     3.992357     3.984714     3.977070     3.969427     3.961784     3.954141     3.946497     3.938854     3.931211
      3.923568     3.915925     3.908281     3.900638     3.892995     3.885352     3.877708     3.870065     3.862422     3.854779
      3.847136     3.839492     3.831849     3.824206     3.816563     3.808919     3.801276     3.793633     3.785990     3.778347
      3.770703     3.763060     3.755417     3.747774     3.740130     3.732487     3.724844     3.717201     3.709558     3.701914
      3.694271     3.686628     3.678985     3.671341     3.663698     3.656055     3.648412     3.640769     3.633125     3.625482
      3.617839     3.610196     3.602552     3.594909     3.587266     3.579623     3.571980     3.564336     3.556693     3.549050
      3.541407     3.533763     3.526120     3.518477     3.510834     3.503191     3.495547     3.487904     3.480261     3.472618
      3.464974     3.457331     3.449688     3.442045     3.434402     3.426758     3.419115     3.411472     3.403829     3.396185
      3.388542     3.380899     3.373256     3.365613     3.357969     3.350326     3.342683     3.335040     3.327396     3.319753
      3.312110     3.304467     3.296824     3.289180     3.281537     3.273894     3.266251     3.258607     3.250964     3.243321
      3.235678     3.228034     3.220391     3.212748     3.205105     3.197462     3.189818     3.182175     3.174532     3.166889
      3.159245     3.151602     3.143959     3.136316     3.128673     3.121029     3.113386     3.105743     3.098100     3.090456
      3.082813     3.075170     3.067527     3.059884     3.052240     3.044597     3.036954     3.029311     3.021667     3.014024
      3.006381     2.998738     2.991095     2.983451     2.975808     2.968165     2.960522     2.952878     2.945235     2.937592
      2.929949     2.922306     2.914662     2.907019     2.899376     2.891733     2.884089     2.876446     2.868803     2.861160
      2.853517     2.845873     2.838230     2.830587     2.822944     2.815300     2.807657     2.800014     2.792371     2.784728
      2.777084     2.769441     2.761798     2.754155     2.746511     2.738868     2.731225     2.723582     2.715939     2.708295
      2.700652     2.693009     2.685366     2.677722     2.670079     2.662436     2.654793     2.647150     2.639506     2.631863
      2.624220     2.616577     2.608933     2.601290     2.593647     2.586004     2.578361     2.570717     2.563074     2.555431
      2.547788     2.540144     2.532501     2.524858     2.517215     2.509572     2.501928     2.494285     2.486642     2.478999
      2.471355     2.463712     2.456069     2.448426     2.440783     2.433139     2.425496     2.417853     2.410210     2.402566
      2.394923     2.387280     2.379637     2.371994     2.364350     2.356707     2.349064     2.341421     2.333777     2.326134
      2.318491     2.310848     2.303205     2.295561     2.287918     2.280275     2.272632     2.264988     2.257345     2.249702
      2.242059     2.234416     2.226772     2.219129     2.211486     2.203843     2.196199     2.188556     2.180913     2.173270
      2.165627     2.157983     2.150340     2.142697     2.135054     2.127410     2.119767     2.112124     2.104481     2.096838
      2.089194     2.081551     2.073908     2.066265     2.058621     2.050978     2.043335     2.035692     2.028049     2.020405
      2.012762     2.005119     1.997476     1.989833     1.982190     1.974546     1.966903     1.959260     1.951617     1.943974
      1.936331     1.928688     1.921045     1.913402     1.905759     1.898115     1.890472     1.882829     1.875186     1.867543
      1.859900     1.852257     1.844614     1.836971     1.829327     1.821684     1.814041     1.806398     1.798755     1.791112
      1.783469     1.775826     1.768183     1.760540     1.752896     1.745253     1.737610     1.729967     1.722324     1.714681
      1.707038     1.699395     1.691752     1.684108     1.676465     1.668822     1.661179     1.653536     1.645893     1.638250
      1.630607     1.622964     1.615321     1.607677     1.600034     1.592391     1.584748     1.577105     1.569462     1.561819
      1.554176     1.546533     1.538890     1.531246     1.523603     1.515960     1.508317     1.500674     1.493031     1.485388
      1.477745     1.470102     1.462458     1.454815     1.447172     1.439529     1.431886     1.424243     1.416600     1.408957
      1.401314     1.393671     1.386027     1.378384     1.370741     1.363098     1.355455     1.347812     1.340169     1.332526
      1.324883     1.317240     1.309596     1.301953     1.294310     1.286667     1.279024     1.271381     1.263738     1.256095
      1.248452     1.240808     1.233165     1.225522     1.217879     1.210236     1.202593     1.194950     1.187307     1.179664
      1.172021     1.164377     1.156734     1.149091     1.141448     1.133805     1.126162     1.118519     1.110876     1.103233
      1.095590     1.087946     1.080303     1.072660     1.065017     1.057374     1.049731     1.042088     1.034445     1.026802
      1.019158     1.011515     1.003872     0.996229     0.988586     0.980943     0.973300     0.965657     0.958014     0.950371
      0.942727     0.935084     0.927441     0.919798     0.912155     0.904512     0.896869     0.889226     0.881583     0.873940
      0.866296     0.858653     0.851010     0.843367     0.835724     0.828081     0.820438     0.812795     0.805152     0.797508
      0.789865     0.782222     0.774579     0.766936     0.759293     0.751650     0.744007     0.736364     0.728721     0.721077
      0.713434     0.705791     0.698148     0.690505     0.682862     0.675219     0.667576     0.659933     0.652290     0.644646
      0.637003     0.629360     0.621717     0.614074     0.606431     0.598788     0.591145     0.583502     0.575858     0.568215
      0.560572     0.552929     0.545286     0.537643     0.530000     0.522357     0.514714     0.507071     0.499427     0.491784
      0.484141     0.476498     0.468855     0.461212     0.453569     0.445925     0.438282     0.430639     0.422996     0.415353
      0.407710     0.400067     0.392424     0.384780     0.377137     0.369494     0.361851     0.354208     0.346565     0.338922
      0.331278     0.323635     0.315992     0.308349     0.300706     0.293063     0.285420     0.277777     0.270133     0.262490
      0.254847     0.247204     0.239561     0.231918     0.224275     0.216631     0.208988     0.201345
 NY phased data points follow
   3.04542E+01  3.21359E+01  3.12537E+01  3.22592E+01  2.92934E+01  3.08687E+01  2.95633E+01  2.97344E+01  2.84016E+01  2.90453E+01
   2.91241E+01  3.03053E+01  2.83854E+01  2.89208E+01  2.73360E+01  2.63244E+01  2.62701E+01  2.63962E+01  2.50097E+01  2.64807E+01
   2.46239E+01  2.47392E+01  2.37003E+01  2.32933E+01  2.31581E+01  2.49473E+01  2.21618E+01  2.33888E+01  2.23383E+01  2.30661E+01
   2.24603E+01  2.50220E+01  2.30992E+01  2.31420E+01  2.18937E+01  2.31892E+01  2.04653E+01  2.23399E+01  2.05175E+01  2.22143E+01
   1.95151E+01  2.08183E+01  2.04527E+01  1.93142E+01  2.01191E+01  2.05004E+01  2.01522E+01  1.94604E+01  1.98258E+01  2.05264E+01
   1.90994E+01  1.88801E+01  1.75764E+01  2.00024E+01  1.81272E+01  1.89413E+01  1.80949E+01  1.82796E+01  1.68611E+01  1.94656E+01
   1.79058E+01  1.80683E+01  1.72399E+01  1.60991E+01  1.73414E+01  1.76935E+01  1.79313E+01  1.77772E+01  1.70679E+01  1.59409E+01
   1.61078E+01  1.75521E+01  1.74949E+01  1.70143E+01  1.66247E+01  1.80992E+01  1.62309E+01  1.55081E+01  1.58410E+01  1.56779E+01
   1.42116E+01  1.67162E+01  1.63371E+01  1.62928E+01  1.52940E+01  1.62904E+01  1.47722E+01  1.49384E+01  1.44112E+01  1.50680E+01
   1.57542E+01  1.53951E+01  1.40967E+01  1.62742E+01  1.51445E+01  1.43351E+01  1.38684E+01  1.62192E+01  1.56885E+01  1.45629E+01
   1.43854E+01  1.42603E+01  1.56972E+01  1.61891E+01  1.57577E+01  1.48502E+01  1.44286E+01  1.45383E+01  1.37426E+01  1.62436E+01
   1.50427E+01  1.45767E+01  1.41451E+01  1.50601E+01  1.42721E+01  1.39056E+01  1.42513E+01  1.50472E+01  1.42932E+01  1.36162E+01
   1.40721E+01  1.49550E+01  1.34095E+01  1.37344E+01  1.39933E+01  1.50459E+01  1.31982E+01  1.55318E+01  1.64649E+01  1.55900E+01
   1.46490E+01  1.34758E+01  1.27696E+01  1.44093E+01  1.34301E+01  1.56763E+01  1.39117E+01  1.36358E+01  1.23393E+01  1.29779E+01
   1.35848E+01  1.36259E+01  1.39329E+01  1.35652E+01  1.26295E+01  1.34295E+01  1.37908E+01  1.34064E+01  1.47149E+01  1.31930E+01
   1.36813E+01  1.28621E+01  1.29056E+01  1.13892E+01  1.26826E+01  1.28530E+01  1.15506E+01  1.19928E+01  1.27839E+01  1.29845E+01
   1.30539E+01  1.39630E+01  1.09948E+01  1.27179E+01  1.14326E+01  1.33277E+01  1.27663E+01  1.17949E+01  1.23609E+01  1.36992E+01
   1.33052E+01  1.32466E+01  1.09975E+01  1.33975E+01  1.25222E+01  1.16178E+01  1.30751E+01  1.26148E+01  1.28672E+01  1.25444E+01
   1.19898E+01  1.23793E+01  1.21240E+01  1.37700E+01  1.11710E+01  1.16660E+01  1.20453E+01  1.31840E+01  1.17394E+01  1.30987E+01
   1.26952E+01  1.29308E+01  1.27820E+01  1.24532E+01  1.17180E+01  1.05716E+01  1.14286E+01  1.21334E+01  1.08112E+01  1.22027E+01
   1.39250E+01  1.26794E+01  1.12779E+01  1.22863E+01  1.36106E+01  1.26793E+01  1.29627E+01  1.38567E+01  1.16351E+01  1.06758E+01
   1.14711E+01  1.27909E+01  1.15099E+01  1.15799E+01  1.11083E+01  1.21092E+01  1.28345E+01  1.24798E+01  1.09134E+01  1.12458E+01
   1.20137E+01  1.10254E+01  1.05746E+01  1.10404E+01  1.17034E+01  1.08282E+01  1.14255E+01  1.16756E+01  1.13876E+01  1.13197E+01
   1.12173E+01  1.02089E+01  1.09926E+01  1.09218E+01  1.17469E+01  1.12872E+01  1.09299E+01  1.07660E+01  1.17612E+01  1.14294E+01
   9.58977E+00  1.00380E+01  1.19106E+01  1.07148E+01  9.86545E+00  1.09870E+01  1.00452E+01  1.20447E+01  9.93179E+00  1.10416E+01
   1.13796E+01  9.59846E+00  1.09548E+01  1.22363E+01  1.12372E+01  1.12657E+01  1.21353E+01  1.32618E+01  1.15962E+01  1.29784E+01
   1.21159E+01  1.19957E+01  1.08745E+01  1.28968E+01  1.21814E+01  1.13486E+01  9.26238E+00  9.67151E+00  9.56463E+00  9.99649E+00
   1.04433E+01  9.84514E+00  1.01542E+01  1.05491E+01  9.66840E+00  1.10386E+01  1.02793E+01  9.08390E+00  1.05225E+01  1.08957E+01
   1.16539E+01  1.07685E+01  1.12597E+01  9.11544E+00  9.93591E+00  1.06848E+01  9.96034E+00  1.03031E+01  9.69281E+00  1.07695E+01
   9.89138E+00  1.25205E+01  1.04150E+01  1.00502E+01  1.07567E+01  1.02355E+01  9.25714E+00  1.04070E+01  9.53943E+00  9.82475E+00
   8.22718E+00  1.12235E+01  7.67205E+00  9.71767E+00  9.58240E+00  1.01067E+01  8.05116E+00  8.22757E+00  9.32933E+00  8.21383E+00
   9.60458E+00  8.82337E+00  8.37076E+00  8.44227E+00  1.06490E+01  8.84094E+00  1.02850E+01  9.47991E+00  8.29749E+00  9.73394E+00
   9.32162E+00  9.02013E+00  8.03720E+00  1.10733E+01  9.99451E+00  9.26496E+00  9.63679E+00  9.69335E+00  8.83558E+00  1.00410E+01
   8.99113E+00  8.31141E+00  9.40892E+00  9.06132E+00  9.59289E+00  9.11768E+00  9.48445E+00  9.54506E+00  1.01961E+01  9.62844E+00
   8.98963E+00  9.76123E+00  1.07907E+01  8.82242E+00  1.01630E+01  8.79914E+00  8.59799E+00  8.68784E+00  9.82841E+00  9.41247E+00
   8.78343E+00  8.35128E+00  8.69677E+00  7.96485E+00  9.38151E+00  8.57646E+00  9.19022E+00  1.08108E+01  8.45115E+00  9.94055E+00
   7.75559E+00  8.70046E+00  7.13164E+00  6.94440E+00  7.56636E+00  1.04619E+01  9.96401E+00  8.70029E+00  8.50604E+00  8.69714E+00
   8.09609E+00  8.59757E+00  8.88261E+00  7.86903E+00  9.80970E+00  7.50777E+00  8.83261E+00  7.80285E+00  7.73293E+00  7.60376E+00
   7.27886E+00  7.03861E+00  8.08749E+00  6.84436E+00  7.78934E+00  6.64295E+00  7.29754E+00  6.63313E+00  7.42459E+00  6.48909E+00
   6.96162E+00  8.66412E+00  7.08960E+00  7.88592E+00  6.28603E+00  7.79153E+00  8.06692E+00  7.53489E+00  6.76693E+00  9.07976E+00
   9.11054E+00  7.53030E+00  7.61133E+00  6.94330E+00  6.20356E+00  7.47295E+00  6.83508E+00  7.92346E+00  6.83383E+00  7.96862E+00
   6.96428E+00  7.84988E+00  7.14134E+00  7.34179E+00  6.98986E+00  7.18486E+00  6.15474E+00  7.41501E+00  6.36198E+00  7.04837E+00
   6.58122E+00  7.74247E+00  6.70181E+00  6.54792E+00  6.00274E+00  5.21795E+00  5.86431E+00  7.43245E+00  6.16925E+00  6.86399E+00
   5.89077E+00  6.33046E+00  6.97761E+00  7.27679E+00  7.09551E+00  5.97204E+00  6.04516E+00  6.35411E+00  7.73049E+00  6.98605E+00
   6.22871E+00  5.65723E+00  6.80936E+00  6.09882E+00  7.88276E+00  6.32133E+00  5.24237E+00  6.33721E+00  6.38059E+00  8.29652E+00
   4.67878E+00  5.67127E+00  6.04161E+00  5.32007E+00  5.90446E+00  5.67996E+00  6.92373E+00  6.24174E+00  5.37585E+00  4.53940E+00
   5.36750E+00  7.02417E+00  6.03796E+00  6.74077E+00  6.59094E+00  6.25785E+00  6.04004E+00  7.28289E+00  5.56377E+00  6.02506E+00
   4.93994E+00  5.28913E+00  6.97295E+00  5.32935E+00  5.25692E+00  5.49290E+00  5.91106E+00  4.63185E+00  4.34939E+00  4.28294E+00
   5.66537E+00  5.58980E+00  5.94135E+00  5.70823E+00  4.59509E+00  5.57272E+00  5.62629E+00  4.54183E+00  6.00036E+00  4.29875E+00
   6.45660E+00  6.07668E+00  4.59432E+00  5.47010E+00  5.09562E+00  5.48166E+00  4.14007E+00  4.86062E+00
 NY points of the fit to the data follow
   2.92240E+01  2.90402E+01  2.88707E+01  2.87300E+01  2.86745E+01  2.87025E+01  2.87608E+01  2.88217E+01  2.88702E+01  2.88705E+01
   2.87523E+01  2.84517E+01  2.79672E+01  2.73709E+01  2.67789E+01  2.62997E+01  2.59795E+01  2.57513E+01  2.55478E+01  2.53569E+01
   2.51790E+01  2.50084E+01  2.48326E+01  2.46406E+01  2.44328E+01  2.42247E+01  2.40197E+01  2.38237E+01  2.36567E+01  2.35350E+01
   2.34529E+01  2.33805E+01  2.32772E+01  2.31025E+01  2.28463E+01  2.25321E+01  2.22009E+01  2.18953E+01  2.16369E+01  2.14395E+01
   2.12975E+01  2.11843E+01  2.10684E+01  2.09308E+01  2.07699E+01  2.05952E+01  2.04203E+01  2.02508E+01  2.00854E+01  1.99260E+01
   1.97730E+01  1.96235E+01  1.94754E+01  1.93275E+01  1.91783E+01  1.90292E+01  1.88828E+01  1.87406E+01  1.86016E+01  1.84658E+01
   1.83335E+01  1.82054E+01  1.80812E+01  1.79594E+01  1.78398E+01  1.77214E+01  1.76041E+01  1.74877E+01  1.73722E+01  1.72578E+01
   1.71465E+01  1.70406E+01  1.69398E+01  1.68429E+01  1.67484E+01  1.66544E+01  1.65589E+01  1.64599E+01  1.63572E+01  1.62532E+01
   1.61523E+01  1.60617E+01  1.59841E+01  1.59151E+01  1.58485E+01  1.57812E+01  1.57112E+01  1.56362E+01  1.55543E+01  1.54654E+01
   1.53727E+01  1.52813E+01  1.51965E+01  1.51218E+01  1.50562E+01  1.49974E+01  1.49495E+01  1.49317E+01  1.49714E+01  1.50462E+01
   1.51271E+01  1.52020E+01  1.52631E+01  1.52884E+01  1.52416E+01  1.51011E+01  1.48816E+01  1.46302E+01  1.44071E+01  1.42573E+01
   1.41805E+01  1.41302E+01  1.40861E+01  1.40454E+01  1.40077E+01  1.39722E+01  1.39388E+01  1.39084E+01  1.38818E+01  1.38619E+01
   1.38578E+01  1.39096E+01  1.41110E+01  1.44366E+01  1.48050E+01  1.51783E+01  1.55330E+01  1.58049E+01  1.58810E+01  1.56717E+01
   1.51891E+01  1.45595E+01  1.39634E+01  1.35527E+01  1.33677E+01  1.32850E+01  1.32211E+01  1.31698E+01  1.31362E+01  1.31249E+01
   1.31345E+01  1.31540E+01  1.31670E+01  1.31643E+01  1.31448E+01  1.31132E+01  1.30776E+01  1.30432E+01  1.30113E+01  1.29807E+01
   1.29488E+01  1.29177E+01  1.28891E+01  1.28639E+01  1.28418E+01  1.28214E+01  1.28016E+01  1.27825E+01  1.27635E+01  1.27423E+01
   1.27171E+01  1.26870E+01  1.26563E+01  1.26316E+01  1.26149E+01  1.26025E+01  1.25893E+01  1.25710E+01  1.25470E+01  1.25209E+01
   1.24956E+01  1.24719E+01  1.24503E+01  1.24305E+01  1.24095E+01  1.23846E+01  1.23546E+01  1.23236E+01  1.22989E+01  1.22843E+01
   1.22747E+01  1.22629E+01  1.22454E+01  1.22274E+01  1.22185E+01  1.22220E+01  1.22333E+01  1.22470E+01  1.22584E+01  1.22648E+01
   1.22663E+01  1.22577E+01  1.22285E+01  1.21716E+01  1.20949E+01  1.20165E+01  1.19551E+01  1.19242E+01  1.19299E+01  1.19693E+01
   1.20326E+01  1.21033E+01  1.21587E+01  1.21777E+01  1.21443E+01  1.20483E+01  1.19079E+01  1.17521E+01  1.16010E+01  1.14768E+01
   1.14074E+01  1.14239E+01  1.15228E+01  1.16707E+01  1.18232E+01  1.19378E+01  1.19740E+01  1.19069E+01  1.17572E+01  1.15696E+01
   1.13861E+01  1.12428E+01  1.11682E+01  1.11729E+01  1.12405E+01  1.13468E+01  1.14550E+01  1.15273E+01  1.15435E+01  1.15056E+01
   1.14369E+01  1.13606E+01  1.12950E+01  1.12535E+01  1.12386E+01  1.12407E+01  1.12504E+01  1.12549E+01  1.12383E+01  1.12028E+01
   1.11550E+01  1.10951E+01  1.10230E+01  1.09495E+01  1.08946E+01  1.08680E+01  1.08665E+01  1.08826E+01  1.09071E+01  1.09297E+01
   1.09621E+01  1.10537E+01  1.11995E+01  1.13654E+01  1.15415E+01  1.17603E+01  1.20253E+01  1.22456E+01  1.23582E+01  1.23682E+01
   1.23106E+01  1.21999E+01  1.20226E+01  1.17595E+01  1.13989E+01  1.10014E+01  1.06712E+01  1.04797E+01  1.04017E+01  1.03589E+01
   1.03292E+01  1.03085E+01  1.02930E+01  1.02812E+01  1.02715E+01  1.02590E+01  1.02396E+01  1.02120E+01  1.01790E+01  1.01446E+01
   1.01129E+01  1.00860E+01  1.00638E+01  1.00445E+01  1.00261E+01  1.00073E+01  9.98706E+00  9.96521E+00  9.94226E+00  9.91918E+00
   9.89688E+00  9.87582E+00  9.85605E+00  9.83726E+00  9.81810E+00  9.79760E+00  9.77556E+00  9.75223E+00  9.72840E+00  9.70518E+00
   9.68306E+00  9.66220E+00  9.64262E+00  9.62399E+00  9.60578E+00  9.58741E+00  9.56860E+00  9.54965E+00  9.53083E+00  9.51231E+00
   9.49422E+00  9.47665E+00  9.45966E+00  9.44338E+00  9.42792E+00  9.41349E+00  9.40036E+00  9.38894E+00  9.37986E+00  9.37418E+00
   9.37394E+00  9.38400E+00  9.41087E+00  9.43822E+00  9.44649E+00  9.43173E+00  9.39206E+00  9.31910E+00  9.20233E+00  9.04589E+00
   8.89226E+00  8.79383E+00  8.77344E+00  8.83176E+00  8.95115E+00  9.09649E+00  9.24064E+00  9.36002E+00  9.43014E+00  9.44256E+00
   9.41220E+00  9.37532E+00  9.37651E+00  9.40556E+00  9.42286E+00  9.41568E+00  9.37863E+00  9.29919E+00  9.16134E+00  8.97076E+00
   8.78463E+00  8.65941E+00  8.62298E+00  8.68073E+00  8.81293E+00  8.97003E+00  9.10765E+00  9.19432E+00  9.20547E+00  9.13931E+00
   9.01993E+00  8.88892E+00  8.78413E+00  8.70294E+00  8.63151E+00  8.56485E+00  8.50113E+00  8.43964E+00  8.38010E+00  8.32249E+00
   8.26686E+00  8.21329E+00  8.16184E+00  8.11257E+00  8.06550E+00  8.02066E+00  7.97802E+00  7.93756E+00  7.89921E+00  7.86291E+00
   7.82859E+00  7.79619E+00  7.76565E+00  7.73690E+00  7.70987E+00  7.68453E+00  7.66081E+00  7.63867E+00  7.61807E+00  7.59894E+00
   7.58120E+00  7.56477E+00  7.54954E+00  7.53536E+00  7.52208E+00  7.50949E+00  7.49736E+00  7.48542E+00  7.47341E+00  7.46102E+00
   7.44794E+00  7.43386E+00  7.41850E+00  7.40159E+00  7.38292E+00  7.36232E+00  7.33968E+00  7.31493E+00  7.28812E+00  7.25932E+00
   7.22867E+00  7.19637E+00  7.16267E+00  7.12783E+00  7.09215E+00  7.05594E+00  7.01948E+00  6.98305E+00  6.94690E+00  6.91124E+00
   6.87625E+00  6.84208E+00  6.80882E+00  6.77654E+00  6.74526E+00  6.71498E+00  6.68569E+00  6.65734E+00  6.62988E+00  6.60324E+00
   6.57736E+00  6.55215E+00  6.52755E+00  6.50349E+00  6.47990E+00  6.45673E+00  6.43391E+00  6.41141E+00  6.38916E+00  6.36714E+00
   6.34530E+00  6.32361E+00  6.30204E+00  6.28058E+00  6.25920E+00  6.23787E+00  6.21658E+00  6.19531E+00  6.17404E+00  6.15277E+00
   6.13149E+00  6.11017E+00  6.08881E+00  6.06740E+00  6.04593E+00  6.02442E+00  6.00285E+00  5.98122E+00  5.95954E+00  5.93780E+00
   5.91601E+00  5.89416E+00  5.87226E+00  5.85030E+00  5.82829E+00  5.80623E+00  5.78412E+00  5.76196E+00  5.73976E+00  5.71750E+00
   5.69520E+00  5.67286E+00  5.65048E+00  5.62805E+00  5.60559E+00  5.58310E+00  5.56057E+00  5.53801E+00  5.51541E+00  5.49279E+00
   5.47015E+00  5.44748E+00  5.42478E+00  5.40207E+00  5.37935E+00  5.35660E+00  5.33385E+00  5.31108E+00  5.28831E+00  5.26553E+00
   5.24274E+00  5.21996E+00  5.19718E+00  5.17440E+00  5.15163E+00  5.12888E+00  5.10613E+00  5.08340E+00
 NY background values follow
     2.916E+01    2.895E+01    2.874E+01    2.853E+01    2.833E+01    2.812E+01    2.791E+01    2.770E+01    2.750E+01    2.729E+01
     2.708E+01    2.688E+01    2.667E+01    2.646E+01    2.626E+01    2.606E+01    2.585E+01    2.565E+01    2.545E+01    2.525E+01
     2.505E+01    2.485E+01    2.465E+01    2.445E+01    2.425E+01    2.406E+01    2.386E+01    2.367E+01    2.348E+01    2.329E+01
     2.310E+01    2.291E+01    2.273E+01    2.254E+01    2.236E+01    2.218E+01    2.200E+01    2.182E+01    2.165E+01    2.147E+01
     2.130E+01    2.113E+01    2.096E+01    2.079E+01    2.063E+01    2.047E+01    2.031E+01    2.015E+01    1.999E+01    1.984E+01
     1.969E+01    1.954E+01    1.939E+01    1.925E+01    1.911E+01    1.897E+01    1.883E+01    1.869E+01    1.856E+01    1.843E+01
     1.830E+01    1.817E+01    1.804E+01    1.792E+01    1.780E+01    1.768E+01    1.756E+01    1.744E+01    1.733E+01    1.722E+01
     1.711E+01    1.700E+01    1.689E+01    1.679E+01    1.668E+01    1.658E+01    1.648E+01    1.639E+01    1.629E+01    1.620E+01
     1.611E+01    1.602E+01    1.593E+01    1.584E+01    1.576E+01    1.568E+01    1.559E+01    1.551E+01    1.544E+01    1.536E+01
     1.529E+01    1.521E+01    1.514E+01    1.507E+01    1.501E+01    1.494E+01    1.488E+01    1.481E+01    1.475E+01    1.469E+01
     1.463E+01    1.457E+01    1.452E+01    1.446E+01    1.441E+01    1.436E+01    1.431E+01    1.426E+01    1.421E+01    1.416E+01
     1.412E+01    1.407E+01    1.403E+01    1.399E+01    1.395E+01    1.391E+01    1.387E+01    1.383E+01    1.379E+01    1.375E+01
     1.372E+01    1.368E+01    1.365E+01    1.362E+01    1.358E+01    1.355E+01    1.352E+01    1.349E+01    1.346E+01    1.343E+01
     1.340E+01    1.338E+01    1.335E+01    1.332E+01    1.330E+01    1.327E+01    1.325E+01    1.322E+01    1.320E+01    1.317E+01
     1.315E+01    1.313E+01    1.310E+01    1.308E+01    1.306E+01    1.304E+01    1.302E+01    1.300E+01    1.298E+01    1.295E+01
     1.293E+01    1.291E+01    1.289E+01    1.287E+01    1.286E+01    1.284E+01    1.282E+01    1.280E+01    1.278E+01    1.276E+01
     1.274E+01    1.272E+01    1.271E+01    1.269E+01    1.267E+01    1.265E+01    1.263E+01    1.261E+01    1.260E+01    1.258E+01
     1.256E+01    1.254E+01    1.252E+01    1.250E+01    1.248E+01    1.247E+01    1.245E+01    1.243E+01    1.241E+01    1.239E+01
     1.237E+01    1.235E+01    1.233E+01    1.231E+01    1.229E+01    1.227E+01    1.225E+01    1.223E+01    1.220E+01    1.218E+01
     1.216E+01    1.214E+01    1.212E+01    1.209E+01    1.207E+01    1.205E+01    1.203E+01    1.200E+01    1.198E+01    1.196E+01
     1.194E+01    1.191E+01    1.189E+01    1.187E+01    1.184E+01    1.182E+01    1.180E+01    1.177E+01    1.175E+01    1.172E+01
     1.170E+01    1.168E+01    1.165E+01    1.163E+01    1.160E+01    1.158E+01    1.156E+01    1.153E+01    1.151E+01    1.148E+01
     1.146E+01    1.143E+01    1.141E+01    1.139E+01    1.136E+01    1.134E+01    1.131E+01    1.129E+01    1.126E+01    1.124E+01
     1.122E+01    1.119E+01    1.117E+01    1.114E+01    1.112E+01    1.110E+01    1.107E+01    1.105E+01    1.103E+01    1.100E+01
     1.098E+01    1.095E+01    1.093E+01    1.091E+01    1.088E+01    1.086E+01    1.084E+01    1.081E+01    1.079E+01    1.077E+01
     1.074E+01    1.072E+01    1.070E+01    1.067E+01    1.065E+01    1.063E+01    1.060E+01    1.058E+01    1.056E+01    1.053E+01
     1.051E+01    1.049E+01    1.046E+01    1.044E+01    1.042E+01    1.040E+01    1.037E+01    1.035E+01    1.033E+01    1.030E+01
     1.028E+01    1.026E+01    1.024E+01    1.021E+01    1.019E+01    1.017E+01    1.015E+01    1.012E+01    1.010E+01    1.008E+01
     1.006E+01    1.003E+01    1.001E+01    9.988E+00    9.966E+00    9.943E+00    9.921E+00    9.898E+00    9.876E+00    9.853E+00
     9.831E+00    9.808E+00    9.786E+00    9.763E+00    9.741E+00    9.718E+00    9.696E+00    9.673E+00    9.650E+00    9.627E+00
     9.605E+00    9.582E+00    9.559E+00    9.536E+00    9.513E+00    9.490E+00    9.467E+00    9.444E+00    9.421E+00    9.398E+00
     9.374E+00    9.351E+00    9.328E+00    9.304E+00    9.281E+00    9.257E+00    9.233E+00    9.209E+00    9.186E+00    9.162E+00
     9.138E+00    9.113E+00    9.089E+00    9.065E+00    9.041E+00    9.016E+00    8.992E+00    8.968E+00    8.943E+00    8.918E+00
     8.894E+00    8.869E+00    8.844E+00    8.819E+00    8.795E+00    8.770E+00    8.745E+00    8.720E+00    8.695E+00    8.670E+00
     8.645E+00    8.620E+00    8.594E+00    8.569E+00    8.544E+00    8.519E+00    8.494E+00    8.468E+00    8.443E+00    8.418E+00
     8.392E+00    8.367E+00    8.342E+00    8.317E+00    8.291E+00    8.266E+00    8.240E+00    8.215E+00    8.190E+00    8.164E+00
     8.139E+00    8.114E+00    8.089E+00    8.063E+00    8.038E+00    8.013E+00    7.987E+00    7.962E+00    7.937E+00    7.912E+00
     7.887E+00    7.862E+00    7.837E+00    7.812E+00    7.787E+00    7.762E+00    7.737E+00    7.712E+00    7.687E+00    7.663E+00
     7.638E+00    7.614E+00    7.589E+00    7.565E+00    7.540E+00    7.516E+00    7.492E+00    7.468E+00    7.444E+00    7.420E+00
     7.396E+00    7.372E+00    7.349E+00    7.325E+00    7.302E+00    7.278E+00    7.255E+00    7.232E+00    7.209E+00    7.186E+00
     7.163E+00    7.141E+00    7.118E+00    7.096E+00    7.074E+00    7.051E+00    7.029E+00    7.008E+00    6.986E+00    6.964E+00
     6.943E+00    6.922E+00    6.900E+00    6.879E+00    6.858E+00    6.837E+00    6.817E+00    6.796E+00    6.775E+00    6.755E+00
     6.734E+00    6.714E+00    6.694E+00    6.673E+00    6.653E+00    6.633E+00    6.613E+00    6.593E+00    6.573E+00    6.553E+00
     6.533E+00    6.513E+00    6.493E+00    6.473E+00    6.453E+00    6.433E+00    6.413E+00    6.393E+00    6.373E+00    6.353E+00
     6.333E+00    6.313E+00    6.293E+00    6.273E+00    6.253E+00    6.233E+00    6.212E+00    6.192E+00    6.172E+00    6.151E+00
     6.130E+00    6.110E+00    6.089E+00    6.068E+00    6.047E+00    6.026E+00    6.005E+00    5.984E+00    5.962E+00    5.941E+00
     5.919E+00    5.898E+00    5.876E+00    5.855E+00    5.833E+00    5.811E+00    5.789E+00    5.767E+00    5.745E+00    5.723E+00
     5.701E+00    5.679E+00    5.656E+00    5.634E+00    5.612E+00    5.589E+00    5.567E+00    5.544E+00    5.522E+00    5.499E+00
     5.477E+00    5.454E+00    5.431E+00    5.409E+00    5.386E+00    5.363E+00    5.341E+00    5.318E+00    5.295E+00    5.272E+00
     5.250E+00    5.227E+00    5.204E+00    5.181E+00    5.158E+00    5.136E+00    5.113E+00    5.090E+00
 Ala      Conc. = 2.46E+01
