 LCModel (Version 6.3-1L) Copyright: S.W. Provencher.          Ref.: Magn. Reson. Med. 30:672-679 (1993).                
 Slice#3 Row#11 Col#4  PD_05_press_1_raw_act
 36 lines in following concentration table = NCONC+1
    Conc.  %SD /Cr+PCr  Metabolite                                         
    0.000 999%   0.000 Ala                                                 
    0.000 999%   0.000 Asp                                                 
   92.667 101%   0.266 Cr                                                  
  255.259  38%   0.734 PCr                                                 
    0.000 999%   0.000 GABA                                                
   14.859 294% 4.3E-02 Glc                                                 
  565.553  25%   1.625 Gln                                                 
  402.942  39%   1.158 Glu                                                 
   86.613  11%   0.249 GPC                                                 
    0.000 999%   0.000 PCh                                                 
  237.985  16%   0.684 GSH                                                 
   87.453 175%   0.251 Ins                                                 
    0.000 999%   0.000 Lac                                                 
  547.475   5%   1.574 NAA                                                 
    0.000 999%   0.000 NAAG                                                
   16.564  66% 4.8E-02 Scyllo                                              
   11.318 638% 3.3E-02 Tau                                                 
   64.480  76%   0.185 -CrCH2                                              
   86.613  11%   0.249 GPC+PCh                                             
  547.475   5%   1.574 NAA+NAAG                                            
  347.926   7%   1.000 Cr+PCr                                              
  968.495  26%   2.784 Glu+Gln                                             
    0.000 999%   0.000 Lip13a                                              
    0.000 999%   0.000 Lip13b                                              
  188.914  45%   0.543 Lip09                                               
    2.231 475% 6.4E-03 MM09                                                
    0.000 999%   0.000 Lip20                                               
    0.000 999%   0.000 MM20                                                
    0.125 999% 3.6E-04 MM12                                                
    0.000 999%   0.000 MM14                                                
   21.977  65% 6.3E-02 MM17                                                
    0.000 999%   0.000 Lip13a+Lip13b                                       
    0.125 999% 3.6E-04 MM14+Lip13a+Lip13b+MM12                             
  191.145  45%   0.549 MM09+Lip09                                          
    0.000 999%   0.000 MM20+Lip20                                          
   6 lines in following misc. output table
  FWHM = 0.084 ppm    S/N =   6                                            
  Data shift =-0.023 ppm                                                   
  Ph: -46 deg     -33.6 deg/ppm                                            
  alphaB,S = 3.5E-01,   2.4E+01                                            
   14 spline knots.   Ns = 9(1)                                            
  (13) 9 infls.   (12) 3 extrs.                                            
  498 points on ppm-axis = NY
      4.000000     3.992357     3.984714     3.977070     3.969427     3.961784     3.954141     3.946497     3.938854     3.931211
      3.923568     3.915925     3.908281     3.900638     3.892995     3.885352     3.877708     3.870065     3.862422     3.854779
      3.847136     3.839492     3.831849     3.824206     3.816563     3.808919     3.801276     3.793633     3.785990     3.778347
      3.770703     3.763060     3.755417     3.747774     3.740130     3.732487     3.724844     3.717201     3.709558     3.701914
      3.694271     3.686628     3.678985     3.671341     3.663698     3.656055     3.648412     3.640769     3.633125     3.625482
      3.617839     3.610196     3.602552     3.594909     3.587266     3.579623     3.571980     3.564336     3.556693     3.549050
      3.541407     3.533763     3.526120     3.518477     3.510834     3.503191     3.495547     3.487904     3.480261     3.472618
      3.464974     3.457331     3.449688     3.442045     3.434402     3.426758     3.419115     3.411472     3.403829     3.396185
      3.388542     3.380899     3.373256     3.365613     3.357969     3.350326     3.342683     3.335040     3.327396     3.319753
      3.312110     3.304467     3.296824     3.289180     3.281537     3.273894     3.266251     3.258607     3.250964     3.243321
      3.235678     3.228034     3.220391     3.212748     3.205105     3.197462     3.189818     3.182175     3.174532     3.166889
      3.159245     3.151602     3.143959     3.136316     3.128673     3.121029     3.113386     3.105743     3.098100     3.090456
      3.082813     3.075170     3.067527     3.059884     3.052240     3.044597     3.036954     3.029311     3.021667     3.014024
      3.006381     2.998738     2.991095     2.983451     2.975808     2.968165     2.960522     2.952878     2.945235     2.937592
      2.929949     2.922306     2.914662     2.907019     2.899376     2.891733     2.884089     2.876446     2.868803     2.861160
      2.853517     2.845873     2.838230     2.830587     2.822944     2.815300     2.807657     2.800014     2.792371     2.784728
      2.777084     2.769441     2.761798     2.754155     2.746511     2.738868     2.731225     2.723582     2.715939     2.708295
      2.700652     2.693009     2.685366     2.677722     2.670079     2.662436     2.654793     2.647150     2.639506     2.631863
      2.624220     2.616577     2.608933     2.601290     2.593647     2.586004     2.578361     2.570717     2.563074     2.555431
      2.547788     2.540144     2.532501     2.524858     2.517215     2.509572     2.501928     2.494285     2.486642     2.478999
      2.471355     2.463712     2.456069     2.448426     2.440783     2.433139     2.425496     2.417853     2.410210     2.402566
      2.394923     2.387280     2.379637     2.371994     2.364350     2.356707     2.349064     2.341421     2.333777     2.326134
      2.318491     2.310848     2.303205     2.295561     2.287918     2.280275     2.272632     2.264988     2.257345     2.249702
      2.242059     2.234416     2.226772     2.219129     2.211486     2.203843     2.196199     2.188556     2.180913     2.173270
      2.165627     2.157983     2.150340     2.142697     2.135054     2.127410     2.119767     2.112124     2.104481     2.096838
      2.089194     2.081551     2.073908     2.066265     2.058621     2.050978     2.043335     2.035692     2.028049     2.020405
      2.012762     2.005119     1.997476     1.989833     1.982190     1.974546     1.966903     1.959260     1.951617     1.943974
      1.936331     1.928688     1.921045     1.913402     1.905759     1.898115     1.890472     1.882829     1.875186     1.867543
      1.859900     1.852257     1.844614     1.836971     1.829327     1.821684     1.814041     1.806398     1.798755     1.791112
      1.783469     1.775826     1.768183     1.760540     1.752896     1.745253     1.737610     1.729967     1.722324     1.714681
      1.707038     1.699395     1.691752     1.684108     1.676465     1.668822     1.661179     1.653536     1.645893     1.638250
      1.630607     1.622964     1.615321     1.607677     1.600034     1.592391     1.584748     1.577105     1.569462     1.561819
      1.554176     1.546533     1.538890     1.531246     1.523603     1.515960     1.508317     1.500674     1.493031     1.485388
      1.477745     1.470102     1.462458     1.454815     1.447172     1.439529     1.431886     1.424243     1.416600     1.408957
      1.401314     1.393671     1.386027     1.378384     1.370741     1.363098     1.355455     1.347812     1.340169     1.332526
      1.324883     1.317240     1.309596     1.301953     1.294310     1.286667     1.279024     1.271381     1.263738     1.256095
      1.248452     1.240808     1.233165     1.225522     1.217879     1.210236     1.202593     1.194950     1.187307     1.179664
      1.172021     1.164377     1.156734     1.149091     1.141448     1.133805     1.126162     1.118519     1.110876     1.103233
      1.095590     1.087946     1.080303     1.072660     1.065017     1.057374     1.049731     1.042088     1.034445     1.026802
      1.019158     1.011515     1.003872     0.996229     0.988586     0.980943     0.973300     0.965657     0.958014     0.950371
      0.942727     0.935084     0.927441     0.919798     0.912155     0.904512     0.896869     0.889226     0.881583     0.873940
      0.866296     0.858653     0.851010     0.843367     0.835724     0.828081     0.820438     0.812795     0.805152     0.797508
      0.789865     0.782222     0.774579     0.766936     0.759293     0.751650     0.744007     0.736364     0.728721     0.721077
      0.713434     0.705791     0.698148     0.690505     0.682862     0.675219     0.667576     0.659933     0.652290     0.644646
      0.637003     0.629360     0.621717     0.614074     0.606431     0.598788     0.591145     0.583502     0.575858     0.568215
      0.560572     0.552929     0.545286     0.537643     0.530000     0.522357     0.514714     0.507071     0.499427     0.491784
      0.484141     0.476498     0.468855     0.461212     0.453569     0.445925     0.438282     0.430639     0.422996     0.415353
      0.407710     0.400067     0.392424     0.384780     0.377137     0.369494     0.361851     0.354208     0.346565     0.338922
      0.331278     0.323635     0.315992     0.308349     0.300706     0.293063     0.285420     0.277777     0.270133     0.262490
      0.254847     0.247204     0.239561     0.231918     0.224275     0.216631     0.208988     0.201345
 NY phased data points follow
  -5.92073E+01 -5.78683E+01 -5.71089E+01 -5.63849E+01 -5.26138E+01 -5.29722E+01 -4.98106E+01 -4.60015E+01 -4.68636E+01 -4.71055E+01
  -4.61365E+01 -4.67619E+01 -4.42960E+01 -4.59255E+01 -4.50370E+01 -4.64627E+01 -4.56820E+01 -4.51418E+01 -4.53501E+01 -4.40359E+01
  -4.21271E+01 -4.29944E+01 -4.12325E+01 -4.00249E+01 -3.70338E+01 -3.62665E+01 -3.77045E+01 -3.51695E+01 -3.60569E+01 -3.41490E+01
  -3.34005E+01 -3.55557E+01 -3.34855E+01 -3.27398E+01 -3.38086E+01 -3.24313E+01 -3.36706E+01 -3.23582E+01 -3.24148E+01 -3.09345E+01
  -3.06970E+01 -2.87215E+01 -3.08397E+01 -2.92184E+01 -3.00900E+01 -2.71710E+01 -2.72084E+01 -2.66752E+01 -2.61518E+01 -2.76426E+01
  -2.53559E+01 -2.55291E+01 -2.37418E+01 -2.35867E+01 -2.39363E+01 -2.51898E+01 -2.38211E+01 -2.18158E+01 -2.48665E+01 -2.06744E+01
  -2.24062E+01 -2.21804E+01 -2.16250E+01 -2.12269E+01 -2.14432E+01 -1.97621E+01 -2.05257E+01 -1.92770E+01 -1.97771E+01 -1.72243E+01
  -1.66369E+01 -1.69793E+01 -1.76829E+01 -1.58061E+01 -1.60294E+01 -1.56022E+01 -1.42221E+01 -1.57656E+01 -1.78969E+01 -1.45520E+01
  -1.25413E+01 -1.16047E+01 -1.22347E+01 -1.13862E+01 -1.15318E+01 -1.09878E+01 -1.23427E+01 -1.03131E+01 -1.02353E+01 -9.79382E+00
  -8.41899E+00 -8.52300E+00 -9.29197E+00 -6.99935E+00 -7.63165E+00 -5.77657E+00 -6.81965E+00 -5.49976E+00 -2.63917E+00 -1.93656E+00
  -2.53200E+00 -3.12056E-01 -1.05406E+00  5.14486E-01  2.12224E+00 -9.16933E-01  1.34323E+00  7.45647E-01 -8.76649E-01  7.88789E-01
  -3.17878E+00 -1.95248E+00 -3.15116E+00 -2.84295E+00 -1.12525E+00 -2.26154E+00 -6.90419E-01  6.13472E-01  4.49557E-02  1.73344E+00
   3.55936E+00  3.90575E+00  6.91725E+00  6.93357E+00  9.93124E+00  1.00153E+01  1.00898E+01  1.18967E+01  9.93304E+00  1.01447E+01
   9.42453E+00  1.08454E+01  6.98511E+00  7.98741E+00  5.10979E+00  5.55773E+00  3.39841E+00  5.33363E+00  3.74416E+00  5.82482E+00
   7.34769E+00  5.81605E+00  7.20313E+00  6.36823E+00  7.35626E+00  8.20340E+00  7.25059E+00  8.28350E+00  9.51315E+00  9.98931E+00
   8.07261E+00  1.01193E+01  9.52671E+00  9.82822E+00  9.57836E+00  9.19816E+00  1.06435E+01  1.26438E+01  9.74377E+00  1.13769E+01
   1.32743E+01  1.18438E+01  1.18752E+01  1.15480E+01  1.30583E+01  1.33139E+01  1.55433E+01  1.40334E+01  1.38754E+01  1.35887E+01
   1.48822E+01  1.41173E+01  1.50674E+01  1.32874E+01  1.38750E+01  1.28079E+01  1.43086E+01  1.36417E+01  1.47272E+01  1.55994E+01
   1.47582E+01  1.60737E+01  1.37404E+01  1.68477E+01  1.67886E+01  1.78938E+01  1.66901E+01  1.96683E+01  1.69082E+01  1.88838E+01
   2.06564E+01  2.03304E+01  2.07160E+01  2.18689E+01  2.26529E+01  2.16652E+01  2.40702E+01  2.17201E+01  2.14234E+01  2.33372E+01
   2.33408E+01  2.25314E+01  2.33961E+01  2.39391E+01  2.22901E+01  2.30777E+01  2.40940E+01  2.51487E+01  2.50059E+01  2.50119E+01
   2.38583E+01  2.53078E+01  2.56699E+01  2.82893E+01  2.78287E+01  3.07496E+01  2.97568E+01  2.86617E+01  2.88114E+01  2.98826E+01
   2.88715E+01  2.98118E+01  2.97341E+01  2.95637E+01  2.91874E+01  2.88745E+01  3.05502E+01  3.07992E+01  2.97710E+01  3.28049E+01
   3.13674E+01  3.10221E+01  3.20248E+01  3.28082E+01  3.26369E+01  3.23493E+01  3.30365E+01  3.34031E+01  3.41564E+01  3.31596E+01
   3.42106E+01  3.42465E+01  3.40631E+01  3.44361E+01  3.48068E+01  3.32535E+01  3.49080E+01  3.59973E+01  3.60721E+01  3.74990E+01
   3.91405E+01  3.99320E+01  4.01351E+01  4.27642E+01  4.40458E+01  4.55420E+01  4.80734E+01  5.24795E+01  5.25361E+01  5.58881E+01
   5.68885E+01  5.84449E+01  5.97769E+01  5.48798E+01  5.38576E+01  5.49476E+01  5.46716E+01  5.10277E+01  4.82764E+01  4.79392E+01
   4.70547E+01  4.72947E+01  4.63458E+01  4.76550E+01  4.67743E+01  4.93737E+01  4.87359E+01  5.08428E+01  4.98320E+01  5.06412E+01
   5.13905E+01  5.06171E+01  5.11043E+01  5.15698E+01  5.13931E+01  5.41343E+01  5.32257E+01  5.39976E+01  5.40337E+01  5.34147E+01
   5.21341E+01  5.26989E+01  5.29329E+01  5.40270E+01  5.52635E+01  5.47053E+01  5.49018E+01  5.59930E+01  5.67644E+01  5.49861E+01
   5.47457E+01  5.53149E+01  5.71327E+01  5.61904E+01  5.62145E+01  5.65680E+01  5.61275E+01  5.54751E+01  5.42809E+01  5.70949E+01
   5.56621E+01  5.52254E+01  5.65802E+01  5.46695E+01  5.80375E+01  5.52999E+01  5.43989E+01  5.41720E+01  5.41880E+01  5.36341E+01
   5.27883E+01  5.30351E+01  5.20270E+01  5.33939E+01  5.03222E+01  5.24105E+01  5.03228E+01  5.05242E+01  5.01398E+01  4.79584E+01
   4.83277E+01  4.81271E+01  4.73034E+01  4.64464E+01  4.54127E+01  4.54026E+01  4.41718E+01  4.54573E+01  4.23859E+01  4.09000E+01
   4.05254E+01  4.12970E+01  3.96403E+01  3.98757E+01  3.86651E+01  3.94642E+01  3.62997E+01  3.70674E+01  3.72889E+01  3.69377E+01
   3.52632E+01  3.34175E+01  3.52602E+01  3.46204E+01  3.33117E+01  3.31014E+01  3.26627E+01  3.31905E+01  3.29972E+01  3.13603E+01
   3.28713E+01  3.11660E+01  3.13896E+01  3.06349E+01  2.91536E+01  3.09124E+01  2.99372E+01  2.92754E+01  2.83658E+01  2.86159E+01
   2.80379E+01  2.53667E+01  2.68548E+01  2.65756E+01  2.66943E+01  2.47998E+01  2.57301E+01  2.52981E+01  2.34468E+01  2.32992E+01
   2.43107E+01  2.27010E+01  2.31582E+01  2.25580E+01  2.09404E+01  1.88081E+01  2.22700E+01  2.22600E+01  2.18806E+01  2.17676E+01
   2.07930E+01  2.07880E+01  2.21299E+01  2.15293E+01  2.13170E+01  2.17310E+01  1.97761E+01  2.11825E+01  2.22638E+01  1.83276E+01
   2.19424E+01  2.18118E+01  2.12388E+01  2.12352E+01  1.97444E+01  2.05999E+01  2.05394E+01  2.04268E+01  2.22901E+01  1.99365E+01
   2.12222E+01  2.12957E+01  2.03314E+01  2.08172E+01  2.11288E+01  1.91752E+01  1.91338E+01  2.00746E+01  1.95536E+01  2.03177E+01
   1.93202E+01  1.99515E+01  2.14831E+01  2.17678E+01  1.97732E+01  1.85600E+01  1.99851E+01  2.03223E+01  1.88305E+01  1.99275E+01
   1.86631E+01  1.80320E+01  1.90167E+01  1.83629E+01  1.93791E+01  1.87838E+01  1.77104E+01  1.98170E+01  1.76106E+01  1.81128E+01
   2.00740E+01  1.82865E+01  1.83686E+01  1.84431E+01  1.70890E+01  1.97549E+01  1.87999E+01  1.77669E+01  1.83808E+01  2.06472E+01
   1.73621E+01  1.99575E+01  1.93479E+01  1.69526E+01  1.90682E+01  1.82095E+01  1.82957E+01  1.82353E+01  1.76330E+01  1.91374E+01
   1.84171E+01  1.77778E+01  1.58329E+01  1.79117E+01  1.77807E+01  1.94303E+01  1.82793E+01  1.79558E+01  1.83030E+01  1.61729E+01
   1.66156E+01  1.82094E+01  1.82969E+01  1.70080E+01  1.63002E+01  1.81482E+01  1.87173E+01  1.66939E+01  1.82355E+01  1.88567E+01
   1.58488E+01  1.69545E+01  1.67830E+01  1.65479E+01  1.64529E+01  1.66318E+01  1.38055E+01  1.71048E+01  1.49499E+01  1.73211E+01
   1.70662E+01  1.54596E+01  1.58766E+01  1.60040E+01  1.62900E+01  1.44856E+01  1.54912E+01  1.75472E+01
 NY points of the fit to the data follow
  -5.75455E+01 -5.65227E+01 -5.54640E+01 -5.41267E+01 -5.26400E+01 -5.13640E+01 -5.01143E+01 -4.88608E+01 -4.77665E+01 -4.67771E+01
  -4.63108E+01 -4.60450E+01 -4.54869E+01 -4.51233E+01 -4.51044E+01 -4.51228E+01 -4.50438E+01 -4.49297E+01 -4.47439E+01 -4.42500E+01
  -4.36160E+01 -4.27945E+01 -4.18967E+01 -4.09310E+01 -3.96229E+01 -3.82621E+01 -3.71304E+01 -3.59557E+01 -3.49011E+01 -3.39058E+01
  -3.32349E+01 -3.32035E+01 -3.30826E+01 -3.27068E+01 -3.25291E+01 -3.26975E+01 -3.30358E+01 -3.31566E+01 -3.29723E+01 -3.24922E+01
  -3.19295E+01 -3.12429E+01 -3.04191E+01 -2.96164E+01 -2.89210E+01 -2.83461E+01 -2.78163E+01 -2.73322E+01 -2.69259E+01 -2.65935E+01
  -2.62036E+01 -2.57557E+01 -2.53507E+01 -2.49764E+01 -2.45828E+01 -2.41642E+01 -2.37310E+01 -2.32895E+01 -2.28402E+01 -2.23815E+01
  -2.19191E+01 -2.14845E+01 -2.10652E+01 -2.06382E+01 -2.02019E+01 -1.97686E+01 -1.93424E+01 -1.89085E+01 -1.84775E+01 -1.80450E+01
  -1.75986E+01 -1.71502E+01 -1.67053E+01 -1.62810E+01 -1.58795E+01 -1.54781E+01 -1.50702E+01 -1.46537E+01 -1.42239E+01 -1.37932E+01
  -1.33542E+01 -1.28672E+01 -1.23808E+01 -1.19608E+01 -1.15584E+01 -1.11515E+01 -1.07381E+01 -1.03731E+01 -1.01305E+01 -9.87281E+00
  -9.50957E+00 -9.16846E+00 -8.90885E+00 -8.59107E+00 -7.96006E+00 -7.06795E+00 -6.19795E+00 -5.11647E+00 -3.58275E+00 -2.24826E+00
  -1.37456E+00 -5.27020E-01  2.58291E-01  1.04084E+00  1.13867E+00  3.42708E-01  7.06809E-03  2.21990E-01 -9.14543E-02 -1.06689E+00
  -1.98700E+00 -2.38626E+00 -2.47424E+00 -2.19681E+00 -1.81675E+00 -1.47696E+00 -1.09281E+00 -5.23582E-01  4.22216E-01  1.52140E+00
   2.58516E+00  4.15695E+00  6.15079E+00  7.61097E+00  8.69771E+00  9.80583E+00  1.08008E+01  1.16102E+01  1.11711E+01  9.96929E+00
   9.64961E+00  9.54643E+00  8.48653E+00  6.86098E+00  5.57408E+00  4.93223E+00  4.90338E+00  5.38144E+00  5.72441E+00  6.01433E+00
   6.34356E+00  6.73519E+00  7.14878E+00  7.55233E+00  7.92751E+00  8.20686E+00  8.37486E+00  8.47576E+00  8.58300E+00  8.74788E+00
   8.94218E+00  9.20207E+00  9.47515E+00  9.72506E+00  9.96367E+00  1.02246E+01  1.04838E+01  1.07156E+01  1.09644E+01  1.12355E+01
   1.15280E+01  1.18098E+01  1.20220E+01  1.22791E+01  1.25862E+01  1.28242E+01  1.30249E+01  1.32039E+01  1.34037E+01  1.36567E+01
   1.38841E+01  1.40218E+01  1.40975E+01  1.42471E+01  1.44700E+01  1.46992E+01  1.49249E+01  1.51156E+01  1.53769E+01  1.56680E+01
   1.58820E+01  1.61302E+01  1.64617E+01  1.69145E+01  1.74356E+01  1.78698E+01  1.82839E+01  1.86815E+01  1.90046E+01  1.93784E+01
   1.97059E+01  1.98133E+01  1.98945E+01  2.01566E+01  2.05246E+01  2.09366E+01  2.13804E+01  2.18487E+01  2.24107E+01  2.30536E+01
   2.35518E+01  2.39149E+01  2.42406E+01  2.43078E+01  2.41390E+01  2.39614E+01  2.37430E+01  2.34948E+01  2.34487E+01  2.35735E+01
   2.40255E+01  2.49371E+01  2.57200E+01  2.61126E+01  2.67303E+01  2.77001E+01  2.85104E+01  2.87474E+01  2.85329E+01  2.84173E+01
   2.85830E+01  2.87091E+01  2.86511E+01  2.86740E+01  2.90315E+01  2.95854E+01  2.99820E+01  3.03483E+01  3.09731E+01  3.16629E+01
   3.21037E+01  3.24971E+01  3.30271E+01  3.34477E+01  3.36780E+01  3.38891E+01  3.42540E+01  3.47185E+01  3.48781E+01  3.48192E+01
   3.50200E+01  3.53338E+01  3.54021E+01  3.54787E+01  3.58738E+01  3.63232E+01  3.66530E+01  3.70698E+01  3.77408E+01  3.85821E+01
   3.94012E+01  4.02218E+01  4.14769E+01  4.31693E+01  4.46564E+01  4.65935E+01  4.96241E+01  5.21339E+01  5.36175E+01  5.51602E+01
   5.66079E+01  5.81151E+01  5.78907E+01  5.56304E+01  5.47286E+01  5.50734E+01  5.39743E+01  5.13527E+01  4.89796E+01  4.78069E+01
   4.72377E+01  4.75484E+01  4.80436E+01  4.84025E+01  4.87565E+01  4.91086E+01  4.94263E+01  4.97447E+01  5.00751E+01  5.03961E+01
   5.06911E+01  5.09646E+01  5.12313E+01  5.14978E+01  5.17575E+01  5.20098E+01  5.22585E+01  5.25030E+01  5.27383E+01  5.29612E+01
   5.31729E+01  5.33715E+01  5.35576E+01  5.37315E+01  5.38936E+01  5.40434E+01  5.41801E+01  5.43030E+01  5.44114E+01  5.45047E+01
   5.45824E+01  5.46439E+01  5.46886E+01  5.47159E+01  5.47252E+01  5.47157E+01  5.46870E+01  5.46391E+01  5.45717E+01  5.44839E+01
   5.43752E+01  5.42458E+01  5.40956E+01  5.39243E+01  5.37317E+01  5.35174E+01  5.32812E+01  5.30232E+01  5.27437E+01  5.24436E+01
   5.21236E+01  5.17845E+01  5.14273E+01  5.10527E+01  5.06615E+01  5.02543E+01  4.98319E+01  4.93950E+01  4.89443E+01  4.84808E+01
   4.80049E+01  4.75175E+01  4.70191E+01  4.65105E+01  4.59927E+01  4.54662E+01  4.49318E+01  4.43902E+01  4.38421E+01  4.32884E+01
   4.27298E+01  4.21670E+01  4.16008E+01  4.10319E+01  4.04610E+01  3.98891E+01  3.93168E+01  3.87449E+01  3.81741E+01  3.76051E+01
   3.70388E+01  3.64760E+01  3.59174E+01  3.53637E+01  3.48157E+01  3.42741E+01  3.37398E+01  3.32136E+01  3.26962E+01  3.21883E+01
   3.16906E+01  3.12041E+01  3.07294E+01  3.02669E+01  2.98163E+01  2.93776E+01  2.89505E+01  2.85351E+01  2.81311E+01  2.77386E+01
   2.73571E+01  2.69868E+01  2.66274E+01  2.62789E+01  2.59413E+01  2.56143E+01  2.52979E+01  2.49920E+01  2.46966E+01  2.44117E+01
   2.41373E+01  2.38734E+01  2.36199E+01  2.33770E+01  2.31447E+01  2.29234E+01  2.27130E+01  2.25138E+01  2.23259E+01  2.21498E+01
   2.19856E+01  2.18337E+01  2.16941E+01  2.15670E+01  2.14525E+01  2.13506E+01  2.12610E+01  2.11835E+01  2.11171E+01  2.10611E+01
   2.10144E+01  2.09756E+01  2.09430E+01  2.09147E+01  2.08888E+01  2.08631E+01  2.08356E+01  2.08044E+01  2.07675E+01  2.07235E+01
   2.06711E+01  2.06096E+01  2.05386E+01  2.04583E+01  2.03691E+01  2.02721E+01  2.01684E+01  2.00598E+01  1.99478E+01  1.98342E+01
   1.97209E+01  1.96093E+01  1.95011E+01  1.93975E+01  1.92995E+01  1.92080E+01  1.91233E+01  1.90458E+01  1.89754E+01  1.89122E+01
   1.88556E+01  1.88054E+01  1.87610E+01  1.87219E+01  1.86874E+01  1.86571E+01  1.86304E+01  1.86066E+01  1.85852E+01  1.85658E+01
   1.85480E+01  1.85314E+01  1.85154E+01  1.84999E+01  1.84843E+01  1.84686E+01  1.84523E+01  1.84353E+01  1.84171E+01  1.83977E+01
   1.83767E+01  1.83541E+01  1.83295E+01  1.83028E+01  1.82740E+01  1.82432E+01  1.82103E+01  1.81756E+01  1.81390E+01  1.81005E+01
   1.80601E+01  1.80180E+01  1.79742E+01  1.79289E+01  1.78819E+01  1.78334E+01  1.77833E+01  1.77320E+01  1.76792E+01  1.76252E+01
   1.75700E+01  1.75136E+01  1.74560E+01  1.73975E+01  1.73379E+01  1.72775E+01  1.72162E+01  1.71541E+01  1.70913E+01  1.70278E+01
   1.69637E+01  1.68992E+01  1.68341E+01  1.67686E+01  1.67027E+01  1.66367E+01  1.65704E+01  1.65039E+01  1.64374E+01  1.63708E+01
   1.63043E+01  1.62380E+01  1.61718E+01  1.61058E+01  1.60402E+01  1.59749E+01  1.59101E+01  1.58459E+01
 NY background values follow
    -5.850E+01   -5.781E+01   -5.713E+01   -5.644E+01   -5.576E+01   -5.507E+01   -5.439E+01   -5.371E+01   -5.303E+01   -5.236E+01
    -5.168E+01   -5.101E+01   -5.034E+01   -4.967E+01   -4.900E+01   -4.833E+01   -4.767E+01   -4.701E+01   -4.635E+01   -4.570E+01
    -4.505E+01   -4.440E+01   -4.375E+01   -4.311E+01   -4.247E+01   -4.184E+01   -4.120E+01   -4.057E+01   -3.995E+01   -3.933E+01
    -3.871E+01   -3.810E+01   -3.749E+01   -3.688E+01   -3.628E+01   -3.568E+01   -3.509E+01   -3.450E+01   -3.392E+01   -3.334E+01
    -3.277E+01   -3.220E+01   -3.163E+01   -3.108E+01   -3.052E+01   -2.998E+01   -2.943E+01   -2.890E+01   -2.837E+01   -2.784E+01
    -2.732E+01   -2.681E+01   -2.630E+01   -2.579E+01   -2.529E+01   -2.480E+01   -2.431E+01   -2.382E+01   -2.334E+01   -2.287E+01
    -2.239E+01   -2.193E+01   -2.147E+01   -2.101E+01   -2.055E+01   -2.011E+01   -1.966E+01   -1.922E+01   -1.878E+01   -1.835E+01
    -1.792E+01   -1.750E+01   -1.708E+01   -1.666E+01   -1.625E+01   -1.584E+01   -1.543E+01   -1.503E+01   -1.463E+01   -1.423E+01
    -1.384E+01   -1.345E+01   -1.307E+01   -1.268E+01   -1.230E+01   -1.192E+01   -1.155E+01   -1.118E+01   -1.081E+01   -1.044E+01
    -1.008E+01   -9.720E+00   -9.362E+00   -9.006E+00   -8.652E+00   -8.301E+00   -7.952E+00   -7.606E+00   -7.261E+00   -6.919E+00
    -6.579E+00   -6.241E+00   -5.905E+00   -5.571E+00   -5.238E+00   -4.908E+00   -4.579E+00   -4.252E+00   -3.927E+00   -3.604E+00
    -3.282E+00   -2.961E+00   -2.642E+00   -2.325E+00   -2.009E+00   -1.694E+00   -1.380E+00   -1.068E+00   -7.569E-01   -4.470E-01
    -1.381E-01    1.697E-01    4.765E-01    7.824E-01    1.087E+00    1.392E+00    1.695E+00    1.998E+00    2.300E+00    2.601E+00
     2.902E+00    3.202E+00    3.502E+00    3.801E+00    4.100E+00    4.399E+00    4.697E+00    4.995E+00    5.293E+00    5.591E+00
     5.888E+00    6.185E+00    6.481E+00    6.777E+00    7.073E+00    7.368E+00    7.663E+00    7.957E+00    8.250E+00    8.544E+00
     8.836E+00    9.128E+00    9.419E+00    9.710E+00    1.000E+01    1.029E+01    1.058E+01    1.087E+01    1.115E+01    1.144E+01
     1.172E+01    1.201E+01    1.229E+01    1.257E+01    1.286E+01    1.314E+01    1.342E+01    1.370E+01    1.397E+01    1.425E+01
     1.453E+01    1.480E+01    1.507E+01    1.535E+01    1.562E+01    1.589E+01    1.616E+01    1.642E+01    1.669E+01    1.695E+01
     1.722E+01    1.748E+01    1.774E+01    1.800E+01    1.826E+01    1.852E+01    1.877E+01    1.903E+01    1.928E+01    1.954E+01
     1.980E+01    2.005E+01    2.031E+01    2.056E+01    2.082E+01    2.107E+01    2.133E+01    2.159E+01    2.185E+01    2.211E+01
     2.237E+01    2.263E+01    2.289E+01    2.316E+01    2.342E+01    2.369E+01    2.396E+01    2.424E+01    2.451E+01    2.479E+01
     2.507E+01    2.535E+01    2.564E+01    2.593E+01    2.622E+01    2.652E+01    2.681E+01    2.712E+01    2.742E+01    2.773E+01
     2.805E+01    2.836E+01    2.869E+01    2.901E+01    2.934E+01    2.968E+01    3.002E+01    3.037E+01    3.072E+01    3.107E+01
     3.143E+01    3.179E+01    3.216E+01    3.253E+01    3.291E+01    3.328E+01    3.366E+01    3.405E+01    3.443E+01    3.482E+01
     3.521E+01    3.561E+01    3.600E+01    3.640E+01    3.679E+01    3.719E+01    3.759E+01    3.800E+01    3.840E+01    3.880E+01
     3.920E+01    3.960E+01    4.001E+01    4.041E+01    4.081E+01    4.121E+01    4.161E+01    4.201E+01    4.240E+01    4.280E+01
     4.319E+01    4.358E+01    4.397E+01    4.436E+01    4.474E+01    4.513E+01    4.550E+01    4.588E+01    4.625E+01    4.662E+01
     4.698E+01    4.734E+01    4.770E+01    4.805E+01    4.839E+01    4.874E+01    4.907E+01    4.940E+01    4.972E+01    5.003E+01
     5.034E+01    5.064E+01    5.093E+01    5.122E+01    5.149E+01    5.175E+01    5.201E+01    5.225E+01    5.248E+01    5.271E+01
     5.292E+01    5.312E+01    5.330E+01    5.348E+01    5.364E+01    5.378E+01    5.392E+01    5.404E+01    5.414E+01    5.423E+01
     5.431E+01    5.437E+01    5.441E+01    5.443E+01    5.444E+01    5.443E+01    5.441E+01    5.436E+01    5.430E+01    5.421E+01
     5.411E+01    5.399E+01    5.385E+01    5.369E+01    5.350E+01    5.330E+01    5.307E+01    5.282E+01    5.255E+01    5.226E+01
     5.194E+01    5.161E+01    5.126E+01    5.089E+01    5.051E+01    5.011E+01    4.969E+01    4.925E+01    4.881E+01    4.835E+01
     4.787E+01    4.739E+01    4.689E+01    4.639E+01    4.587E+01    4.534E+01    4.481E+01    4.427E+01    4.372E+01    4.317E+01
     4.261E+01    4.205E+01    4.149E+01    4.092E+01    4.035E+01    3.978E+01    3.920E+01    3.863E+01    3.806E+01    3.749E+01
     3.693E+01    3.636E+01    3.580E+01    3.525E+01    3.470E+01    3.416E+01    3.363E+01    3.310E+01    3.258E+01    3.207E+01
     3.157E+01    3.109E+01    3.061E+01    3.015E+01    2.969E+01    2.925E+01    2.882E+01    2.841E+01    2.800E+01    2.761E+01
     2.722E+01    2.685E+01    2.649E+01    2.613E+01    2.579E+01    2.546E+01    2.514E+01    2.483E+01    2.452E+01    2.423E+01
     2.395E+01    2.367E+01    2.341E+01    2.315E+01    2.291E+01    2.267E+01    2.244E+01    2.222E+01    2.200E+01    2.180E+01
     2.160E+01    2.141E+01    2.123E+01    2.105E+01    2.089E+01    2.073E+01    2.057E+01    2.043E+01    2.029E+01    2.016E+01
     2.003E+01    1.991E+01    1.979E+01    1.969E+01    1.958E+01    1.949E+01    1.940E+01    1.931E+01    1.923E+01    1.915E+01
     1.908E+01    1.902E+01    1.895E+01    1.890E+01    1.884E+01    1.879E+01    1.875E+01    1.871E+01    1.867E+01    1.863E+01
     1.860E+01    1.857E+01    1.855E+01    1.852E+01    1.850E+01    1.848E+01    1.847E+01    1.845E+01    1.844E+01    1.843E+01
     1.842E+01    1.841E+01    1.840E+01    1.840E+01    1.839E+01    1.839E+01    1.838E+01    1.838E+01    1.837E+01    1.837E+01
     1.836E+01    1.836E+01    1.835E+01    1.835E+01    1.834E+01    1.833E+01    1.832E+01    1.831E+01    1.830E+01    1.829E+01
     1.827E+01    1.825E+01    1.823E+01    1.821E+01    1.818E+01    1.815E+01    1.812E+01    1.809E+01    1.806E+01    1.802E+01
     1.798E+01    1.794E+01    1.790E+01    1.786E+01    1.781E+01    1.777E+01    1.772E+01    1.767E+01    1.762E+01    1.756E+01
     1.751E+01    1.745E+01    1.740E+01    1.734E+01    1.728E+01    1.722E+01    1.716E+01    1.710E+01    1.704E+01    1.698E+01
     1.691E+01    1.685E+01    1.679E+01    1.672E+01    1.666E+01    1.659E+01    1.653E+01    1.646E+01    1.639E+01    1.633E+01
     1.626E+01    1.620E+01    1.613E+01    1.607E+01    1.600E+01    1.594E+01    1.587E+01    1.581E+01
 Cr       Conc. = 9.27E+01
