 LCModel (Version 6.3-1L) Copyright: S.W. Provencher.          Ref.: Magn. Reson. Med. 30:672-679 (1993).                
 Slice#3 Row#1 Col#5  PD_05_press_1_raw_act
 36 lines in following concentration table = NCONC+1
    Conc.  %SD /Cr+PCr  Metabolite                                         
    1.501 999% 1.1E-02 Ala                                                 
   15.715 147%   0.110 Asp                                                 
  142.772  12%   1.000 Cr                                                  
    0.000 999%   0.000 PCr                                                 
   15.546  89%   0.109 GABA                                                
   14.324  98%   0.100 Glc                                                 
  124.507  57%   0.872 Gln                                                 
  235.275  34%   1.648 Glu                                                 
   32.505  20%   0.228 GPC                                                 
    0.000 999%   0.000 PCh                                                 
   74.382  33%   0.521 GSH                                                 
  397.478  20%   2.784 Ins                                                 
   29.781 128%   0.209 Lac                                                 
  160.381  11%   1.123 NAA                                                 
    0.000 999%   0.000 NAAG                                                
    5.756  74% 4.0E-02 Scyllo                                              
    9.779 232% 6.8E-02 Tau                                                 
    0.000 999%   0.000 -CrCH2                                              
   32.505  20%   0.228 GPC+PCh                                             
  160.381  11%   1.123 NAA+NAAG                                            
  142.772  12%   1.000 Cr+PCr                                              
  359.782  30%   2.520 Glu+Gln                                             
  186.906  43%   1.309 Lip13a                                              
    0.000 999%   0.000 Lip13b                                              
   30.902  99%   0.216 Lip09                                               
    0.000 999%   0.000 MM09                                                
   23.076  98%   0.162 Lip20                                               
    0.000 999%   0.000 MM20                                                
    0.000 999%   0.000 MM12                                                
 1.16E-02 999% 8.1E-05 MM14                                                
 1.61E-03 999% 1.1E-05 MM17                                                
  186.906  43%   1.309 Lip13a+Lip13b                                       
  186.918  43%   1.309 MM14+Lip13a+Lip13b+MM12                             
   30.902  99%   0.216 MM09+Lip09                                          
   23.076  98%   0.162 MM20+Lip20                                          
   6 lines in following misc. output table
  FWHM = 0.046 ppm    S/N =   2                                            
  Data shift = 0.000 ppm                                                   
  Ph: -15 deg      -2.6 deg/ppm                                            
  alphaB,S = 1.6E+00,   4.2E+01                                            
   14 spline knots.   Ns = 5(1)                                            
  ( 9) 2 infls.   ( 9) 1 extrs.                                            
  498 points on ppm-axis = NY
      4.000000     3.992357     3.984714     3.977070     3.969427     3.961784     3.954141     3.946497     3.938854     3.931211
      3.923568     3.915925     3.908281     3.900638     3.892995     3.885352     3.877708     3.870065     3.862422     3.854779
      3.847136     3.839492     3.831849     3.824206     3.816563     3.808919     3.801276     3.793633     3.785990     3.778347
      3.770703     3.763060     3.755417     3.747774     3.740130     3.732487     3.724844     3.717201     3.709558     3.701914
      3.694271     3.686628     3.678985     3.671341     3.663698     3.656055     3.648412     3.640769     3.633125     3.625482
      3.617839     3.610196     3.602552     3.594909     3.587266     3.579623     3.571980     3.564336     3.556693     3.549050
      3.541407     3.533763     3.526120     3.518477     3.510834     3.503191     3.495547     3.487904     3.480261     3.472618
      3.464974     3.457331     3.449688     3.442045     3.434402     3.426758     3.419115     3.411472     3.403829     3.396185
      3.388542     3.380899     3.373256     3.365613     3.357969     3.350326     3.342683     3.335040     3.327396     3.319753
      3.312110     3.304467     3.296824     3.289180     3.281537     3.273894     3.266251     3.258607     3.250964     3.243321
      3.235678     3.228034     3.220391     3.212748     3.205105     3.197462     3.189818     3.182175     3.174532     3.166889
      3.159245     3.151602     3.143959     3.136316     3.128673     3.121029     3.113386     3.105743     3.098100     3.090456
      3.082813     3.075170     3.067527     3.059884     3.052240     3.044597     3.036954     3.029311     3.021667     3.014024
      3.006381     2.998738     2.991095     2.983451     2.975808     2.968165     2.960522     2.952878     2.945235     2.937592
      2.929949     2.922306     2.914662     2.907019     2.899376     2.891733     2.884089     2.876446     2.868803     2.861160
      2.853517     2.845873     2.838230     2.830587     2.822944     2.815300     2.807657     2.800014     2.792371     2.784728
      2.777084     2.769441     2.761798     2.754155     2.746511     2.738868     2.731225     2.723582     2.715939     2.708295
      2.700652     2.693009     2.685366     2.677722     2.670079     2.662436     2.654793     2.647150     2.639506     2.631863
      2.624220     2.616577     2.608933     2.601290     2.593647     2.586004     2.578361     2.570717     2.563074     2.555431
      2.547788     2.540144     2.532501     2.524858     2.517215     2.509572     2.501928     2.494285     2.486642     2.478999
      2.471355     2.463712     2.456069     2.448426     2.440783     2.433139     2.425496     2.417853     2.410210     2.402566
      2.394923     2.387280     2.379637     2.371994     2.364350     2.356707     2.349064     2.341421     2.333777     2.326134
      2.318491     2.310848     2.303205     2.295561     2.287918     2.280275     2.272632     2.264988     2.257345     2.249702
      2.242059     2.234416     2.226772     2.219129     2.211486     2.203843     2.196199     2.188556     2.180913     2.173270
      2.165627     2.157983     2.150340     2.142697     2.135054     2.127410     2.119767     2.112124     2.104481     2.096838
      2.089194     2.081551     2.073908     2.066265     2.058621     2.050978     2.043335     2.035692     2.028049     2.020405
      2.012762     2.005119     1.997476     1.989833     1.982190     1.974546     1.966903     1.959260     1.951617     1.943974
      1.936331     1.928688     1.921045     1.913402     1.905759     1.898115     1.890472     1.882829     1.875186     1.867543
      1.859900     1.852257     1.844614     1.836971     1.829327     1.821684     1.814041     1.806398     1.798755     1.791112
      1.783469     1.775826     1.768183     1.760540     1.752896     1.745253     1.737610     1.729967     1.722324     1.714681
      1.707038     1.699395     1.691752     1.684108     1.676465     1.668822     1.661179     1.653536     1.645893     1.638250
      1.630607     1.622964     1.615321     1.607677     1.600034     1.592391     1.584748     1.577105     1.569462     1.561819
      1.554176     1.546533     1.538890     1.531246     1.523603     1.515960     1.508317     1.500674     1.493031     1.485388
      1.477745     1.470102     1.462458     1.454815     1.447172     1.439529     1.431886     1.424243     1.416600     1.408957
      1.401314     1.393671     1.386027     1.378384     1.370741     1.363098     1.355455     1.347812     1.340169     1.332526
      1.324883     1.317240     1.309596     1.301953     1.294310     1.286667     1.279024     1.271381     1.263738     1.256095
      1.248452     1.240808     1.233165     1.225522     1.217879     1.210236     1.202593     1.194950     1.187307     1.179664
      1.172021     1.164377     1.156734     1.149091     1.141448     1.133805     1.126162     1.118519     1.110876     1.103233
      1.095590     1.087946     1.080303     1.072660     1.065017     1.057374     1.049731     1.042088     1.034445     1.026802
      1.019158     1.011515     1.003872     0.996229     0.988586     0.980943     0.973300     0.965657     0.958014     0.950371
      0.942727     0.935084     0.927441     0.919798     0.912155     0.904512     0.896869     0.889226     0.881583     0.873940
      0.866296     0.858653     0.851010     0.843367     0.835724     0.828081     0.820438     0.812795     0.805152     0.797508
      0.789865     0.782222     0.774579     0.766936     0.759293     0.751650     0.744007     0.736364     0.728721     0.721077
      0.713434     0.705791     0.698148     0.690505     0.682862     0.675219     0.667576     0.659933     0.652290     0.644646
      0.637003     0.629360     0.621717     0.614074     0.606431     0.598788     0.591145     0.583502     0.575858     0.568215
      0.560572     0.552929     0.545286     0.537643     0.530000     0.522357     0.514714     0.507071     0.499427     0.491784
      0.484141     0.476498     0.468855     0.461212     0.453569     0.445925     0.438282     0.430639     0.422996     0.415353
      0.407710     0.400067     0.392424     0.384780     0.377137     0.369494     0.361851     0.354208     0.346565     0.338922
      0.331278     0.323635     0.315992     0.308349     0.300706     0.293063     0.285420     0.277777     0.270133     0.262490
      0.254847     0.247204     0.239561     0.231918     0.224275     0.216631     0.208988     0.201345
 NY phased data points follow
   7.06346E+00  8.03572E+00  6.49012E+00  6.85271E+00  7.28496E+00  6.36732E+00  7.72724E+00  6.72844E+00  9.04228E+00  5.85253E+00
   7.30720E+00  9.44416E+00  1.00101E+01  9.81716E+00  1.02051E+01  7.14791E+00  6.59558E+00  8.45649E+00  6.31454E+00  7.24132E+00
   4.80360E+00  6.33343E+00  5.29319E+00  6.35802E+00  4.58934E+00  5.23233E+00  5.30451E+00  5.59590E+00  7.78827E+00  4.37708E+00
   8.89931E+00  4.98917E+00  4.97933E+00  6.53391E+00  4.35453E+00  5.17722E+00  6.27178E+00  4.53197E+00  6.39268E+00  4.08369E+00
   4.41396E+00  4.36494E+00  5.48818E+00  5.44963E+00  4.41096E+00  7.25063E+00  5.23198E+00  6.63407E+00  5.05437E+00  4.84303E+00
   4.64618E+00  3.86521E+00  5.01839E+00  3.41700E+00  4.07110E+00  3.41521E+00  3.95072E+00  5.02560E+00  6.09793E+00  5.47093E+00
   5.08021E+00  6.63140E+00  4.96433E+00  3.48962E+00  4.87312E+00  2.61610E+00  9.07553E-01  4.23257E+00  4.36059E+00  2.14489E+00
   3.51592E+00  5.65298E+00  5.16226E+00  5.51164E+00  5.13393E+00  3.17710E+00  3.85328E+00  2.84993E+00  3.46407E+00  3.50016E+00
   3.35315E+00  2.83457E+00  3.41538E+00  3.16346E+00  4.26759E+00  2.54032E+00  4.37145E+00  2.77832E+00  1.84161E+00  2.42563E+00
   4.66138E+00  8.23484E-01  3.68941E+00  3.88208E+00  1.76708E+00  8.82704E-01  1.43490E+00 -7.48605E-01  1.02804E+00  1.13702E+00
   4.06754E+00  3.62007E+00  5.21404E+00  7.25587E+00  6.00000E+00  2.96249E+00  5.63115E+00  4.02180E+00  4.24459E+00  2.27679E+00
   1.38696E+00  4.36250E+00  3.05054E+00  4.13752E+00  2.48197E+00  2.65326E+00  3.32668E+00  2.69382E+00  1.64060E+00  1.11363E+00
   7.56222E-01  1.55454E+00  7.83673E-01  2.71421E+00  2.61484E+00  3.98128E+00  5.40248E+00  4.56353E+00  6.66558E+00  8.65074E+00
   5.16592E+00  5.03304E+00  4.79132E+00  4.12842E+00  5.19525E-01  1.24290E+00  2.31023E+00  2.17809E+00  2.70374E+00  1.48155E+00
   2.45151E+00  2.06690E+00  2.14693E+00  2.82748E+00  3.01243E+00  2.75607E+00  2.51915E+00  9.72990E-01  7.54604E-01 -5.24169E-03
   2.35904E+00  1.67609E+00  1.31286E+00  5.59265E-01  2.32253E+00  2.84357E+00  1.35173E+00  2.17537E+00  9.24270E-01  3.20705E+00
   2.38618E+00  2.50827E+00  2.39071E+00  1.12581E+00  3.56767E-01  2.26084E+00  3.75741E+00  3.37228E-01  1.68442E+00  2.11276E+00
   9.84155E-01  1.25243E+00  3.43491E+00 -3.66224E-01  1.95009E+00 -1.64627E-01 -7.52778E-01  3.79772E+00  2.83061E+00  2.91158E+00
   1.22470E+00 -2.43211E+00  3.46831E-01  6.45515E-01 -5.25316E-01  2.27419E+00  9.54480E-01 -1.02867E+00 -7.62625E-01  1.96104E+00
   2.78958E+00  2.03745E+00  2.57490E+00 -1.92526E-01  1.80779E+00  1.49011E+00  1.22958E+00  2.39395E+00  3.02694E+00 -7.68229E-01
   1.40451E+00  4.13476E+00  2.09284E+00  1.19360E+00  2.92819E+00  1.44196E+00 -4.95124E-01 -8.53346E-01  1.70049E+00  2.17494E+00
  -3.22449E+00  3.14272E+00 -1.75723E+00  2.10161E+00  1.98611E+00  9.90754E-01  3.23032E+00  1.67657E+00  8.77584E-01  5.70274E-01
   1.85153E+00 -9.80462E-01  1.42031E+00 -1.63737E+00  1.79502E+00  1.18021E+00  3.25440E+00  2.34389E+00  3.31357E+00  1.12118E+00
   2.57289E+00 -5.95491E-01  8.17621E-01  2.34977E+00  3.65330E+00  1.49586E+00  1.76877E+00  4.04010E+00  2.95122E+00  1.97388E+00
   2.06509E+00  9.05714E-01  7.85035E-01  5.40887E-02  3.09796E-01  1.33867E+00  1.99660E+00  2.56844E+00  1.45890E+00 -3.67313E-01
   1.44778E-01  7.00480E-01 -1.20240E-01  3.49442E-01  2.95067E-01  3.72132E+00  2.22470E+00  3.46291E+00  4.94685E+00  4.92269E+00
   6.17806E+00  7.60665E+00  7.41294E+00  6.05196E+00  4.70466E+00  2.48681E+00  2.25999E+00  2.21319E+00  3.42323E+00  8.28838E-01
   2.82301E+00  2.72966E-01  8.15795E-02  1.58310E+00  2.86693E+00  6.83859E-02  1.07926E+00  9.27529E-01  1.02933E+00  1.07375E-01
   1.21986E+00 -1.56901E-01  2.76528E-02 -1.18861E+00  1.51501E+00  7.25976E-01 -1.23785E+00  6.74559E-01  1.98809E+00  1.46710E+00
   1.52754E-01 -1.20401E-01  1.26806E+00  2.81010E+00  9.91474E-01  1.25370E+00  2.41834E+00  3.44887E+00 -2.52573E-01  1.60277E+00
   2.14719E+00 -3.73620E-01 -7.53662E-01 -9.25875E-01  4.22876E+00  1.92456E+00 -2.03960E+00  2.47188E+00  2.27951E-01  3.73269E-01
   2.38506E+00  5.96370E-01  2.50022E+00 -8.78821E-01  3.73759E-01  6.60344E-01 -3.60079E-01  7.65281E-02  3.04016E+00  1.71466E+00
   9.57840E-01  1.53928E-01  1.25168E+00 -1.13605E+00  7.00565E-01 -1.59606E+00 -1.11854E+00 -3.44164E-01 -4.10015E-01  1.72559E+00
  -9.64393E-02  1.41176E+00  2.82362E-01  7.64810E-02  1.00150E+00  3.34457E+00  1.05363E+00  3.10395E-01  9.49132E-01  3.81081E+00
  -2.90924E-01  2.73060E+00  2.30994E+00  3.52074E+00  1.70694E+00  2.30637E+00  3.74413E+00  2.84074E+00  2.62964E+00  1.59354E+00
   1.91023E+00  3.07075E+00  2.11753E+00  6.90612E-01  2.35797E-01  1.16639E-01  2.43821E+00  8.95051E-01  1.21902E+00  1.23136E+00
  -7.40416E-01  1.27192E+00 -1.05810E+00  1.08652E+00  8.21015E-01  3.32005E+00  1.78852E+00  1.29422E+00  3.21684E+00  1.08541E-01
   1.49853E+00  1.24092E+00  1.70141E-01  2.98396E-01  5.51456E-01 -1.27065E+00 -1.00503E+00 -2.64443E-01 -1.59726E+00 -6.96165E-01
   1.83833E-01 -3.50281E-01 -1.19195E-01 -2.18000E+00 -1.26464E+00  2.14122E+00  8.09863E-01 -1.16229E+00  1.57936E+00  2.06077E+00
   1.57533E+00  7.88589E-01  7.80816E-01  7.74555E-01  6.68442E-01 -3.77000E-01  5.94228E-01 -4.17843E-01 -2.35422E+00  8.40563E-01
  -1.67220E-01  1.01655E+00 -6.77316E-01 -1.39883E-01 -2.68391E+00 -4.02276E-01 -1.54732E-01  7.47181E-01  8.23682E-01  7.28021E-01
  -3.23205E-01 -9.31488E-01  2.21239E+00 -3.79384E-01 -4.29645E-01  1.44016E+00 -4.51648E-01  3.32318E-02  4.94189E-01  1.10695E+00
   1.34014E+00  1.46406E+00 -1.99534E-01 -1.10118E-02  1.16198E+00 -2.35056E-01  4.69488E-01  7.58109E-01 -1.86948E+00  1.30213E+00
   4.97460E-01 -1.64353E+00  1.99258E+00 -2.10512E-01 -1.75596E+00  4.25724E-01  2.78282E-01  1.34211E+00 -7.90396E-01  3.33105E-01
  -1.24727E+00  2.31052E-01  9.26091E-01 -4.47147E-01  1.71874E-01  1.49486E+00 -6.30715E-02 -3.26739E+00  2.21296E-01  1.79287E+00
   1.41841E-01 -3.16910E-01  1.06084E+00 -4.52627E-01  2.96896E-01  5.11903E-01  1.21960E+00  1.13838E+00  8.50777E-01  6.23136E-01
   2.12809E+00  2.43944E-01  9.76388E-01  5.87436E-01  4.28123E-01  2.03652E+00  1.91051E+00  2.02365E+00  1.26915E+00  1.50198E-01
   1.40161E+00  9.55581E-01  2.63386E-02  1.03647E+00 -5.00079E-01 -1.99544E-01 -7.26101E-01  7.22225E-01  1.30117E+00 -2.17818E-01
   1.29253E-01  2.73487E+00 -9.73704E-01  1.77387E+00 -1.49685E+00  1.50267E+00 -1.26310E+00  3.23290E-01 -1.35890E-01  8.42137E-01
  -1.29168E+00 -1.00407E+00  9.19388E-01  1.49400E+00  1.60147E-01  3.10528E-02  2.82642E-01  1.00420E+00
 NY points of the fit to the data follow
   5.10161E+00  4.91748E+00  4.81623E+00  4.80755E+00  4.84742E+00  4.91857E+00  5.06279E+00  5.41491E+00  5.95446E+00  6.56351E+00
   7.18284E+00  7.73641E+00  8.06048E+00  7.97990E+00  7.50777E+00  6.83497E+00  6.12128E+00  5.43439E+00  4.88501E+00  4.66012E+00
   4.65114E+00  4.67675E+00  4.68151E+00  4.65093E+00  4.65710E+00  4.77885E+00  4.97979E+00  5.27969E+00  5.70531E+00  6.20289E+00
   6.60259E+00  6.76271E+00  6.69221E+00  6.41099E+00  5.91364E+00  5.28183E+00  4.71711E+00  4.34145E+00  4.08577E+00  3.97532E+00
   4.00201E+00  4.17296E+00  4.53018E+00  5.06876E+00  5.70025E+00  6.30631E+00  6.78960E+00  7.02971E+00  6.86513E+00  6.29084E+00
   5.49707E+00  4.69046E+00  3.97710E+00  3.47960E+00  3.35956E+00  3.57352E+00  3.92879E+00  4.29030E+00  4.60593E+00  4.83051E+00
   4.90335E+00  4.79637E+00  4.55465E+00  4.25430E+00  3.96211E+00  3.74035E+00  3.66951E+00  3.75688E+00  3.94393E+00  4.15542E+00
   4.33258E+00  4.45029E+00  4.48336E+00  4.42695E+00  4.31727E+00  4.18551E+00  4.05314E+00  3.91649E+00  3.80212E+00  3.72800E+00
   3.67341E+00  3.62330E+00  3.55216E+00  3.43514E+00  3.26662E+00  3.05728E+00  2.82343E+00  2.59782E+00  2.44037E+00  2.40453E+00
   2.49255E+00  2.67763E+00  2.91013E+00  3.13319E+00  3.27844E+00  3.30777E+00  3.24273E+00  3.15404E+00  3.21983E+00  3.53143E+00
   4.00686E+00  4.58458E+00  5.18856E+00  5.66888E+00  5.79642E+00  5.49717E+00  4.92496E+00  4.25649E+00  3.57675E+00  2.98049E+00
   2.66638E+00  2.60916E+00  2.60886E+00  2.61643E+00  2.61905E+00  2.61329E+00  2.60041E+00  2.58499E+00  2.57119E+00  2.56832E+00
   2.59139E+00  2.66423E+00  2.87470E+00  3.43157E+00  4.28119E+00  5.25696E+00  6.26472E+00  7.16943E+00  7.71974E+00  7.65388E+00
   6.98501E+00  5.98595E+00  4.86463E+00  3.70691E+00  2.71372E+00  2.19027E+00  1.98482E+00  1.91262E+00  1.93905E+00  2.04852E+00
   2.21773E+00  2.38467E+00  2.48400E+00  2.50777E+00  2.47033E+00  2.39115E+00  2.30402E+00  2.22235E+00  2.16248E+00  2.11820E+00
   2.07615E+00  2.03800E+00  2.00685E+00  1.98457E+00  1.97013E+00  1.96123E+00  1.94894E+00  1.92526E+00  1.89160E+00  1.85277E+00
   1.81862E+00  1.79364E+00  1.78405E+00  1.79446E+00  1.81348E+00  1.82559E+00  1.82176E+00  1.80122E+00  1.76420E+00  1.71842E+00
   1.67080E+00  1.62198E+00  1.57697E+00  1.53591E+00  1.49643E+00  1.46109E+00  1.43196E+00  1.41597E+00  1.41613E+00  1.41963E+00
   1.41274E+00  1.39712E+00  1.37601E+00  1.35112E+00  1.33717E+00  1.36180E+00  1.43812E+00  1.56527E+00  1.71788E+00  1.86505E+00
   1.97745E+00  2.01288E+00  1.94292E+00  1.77928E+00  1.56707E+00  1.36552E+00  1.23696E+00  1.22526E+00  1.34830E+00  1.58687E+00
   1.88551E+00  2.17952E+00  2.40750E+00  2.51793E+00  2.46225E+00  2.20588E+00  1.81303E+00  1.36714E+00  9.49155E-01  6.50066E-01
   5.74774E-01  8.10944E-01  1.28106E+00  1.83611E+00  2.35516E+00  2.74221E+00  2.83813E+00  2.52118E+00  1.93029E+00  1.27620E+00
   6.76101E-01  2.24989E-01  5.66984E-02  2.57469E-01  6.93480E-01  1.19175E+00  1.61670E+00  1.90968E+00  2.04106E+00  1.98106E+00
   1.79090E+00  1.59558E+00  1.49116E+00  1.48598E+00  1.54278E+00  1.62221E+00  1.71972E+00  1.79189E+00  1.74854E+00  1.59407E+00
   1.40491E+00  1.22119E+00  1.04739E+00  9.17767E-01  9.02405E-01  9.78193E-01  1.06903E+00  1.14626E+00  1.22675E+00  1.28515E+00
   1.30195E+00  1.32746E+00  1.39340E+00  1.47941E+00  1.60435E+00  1.96588E+00  2.70796E+00  3.66164E+00  4.72056E+00  5.81838E+00
   6.73348E+00  7.10310E+00  6.74359E+00  5.84475E+00  4.70204E+00  3.46123E+00  2.27582E+00  1.49265E+00  1.21735E+00  1.10281E+00
   1.04238E+00  1.02729E+00  1.03993E+00  1.07135E+00  1.11458E+00  1.15247E+00  1.17289E+00  1.17167E+00  1.14847E+00  1.10697E+00
   1.06049E+00  1.02139E+00  9.92502E-01  9.73794E-01  9.64648E-01  9.62576E-01  9.63925E-01  9.64236E-01  9.61474E-01  9.56577E-01
   9.49695E-01  9.40458E-01  9.29970E-01  9.19833E-01  9.10207E-01  9.00656E-01  8.91742E-01  8.83944E-01  8.76853E-01  8.70248E-01
   8.64293E-01  8.58625E-01  8.53143E-01  8.47802E-01  8.42496E-01  8.37166E-01  8.31846E-01  8.26575E-01  8.21361E-01  8.16259E-01
   8.11440E-01  8.06921E-01  8.02674E-01  7.98719E-01  7.95070E-01  7.91768E-01  7.88867E-01  7.86430E-01  7.84529E-01  7.83266E-01
   7.82813E-01  7.83538E-01  7.86014E-01  7.89526E-01  7.92901E-01  7.95793E-01  7.97827E-01  7.98356E-01  7.97260E-01  7.95963E-01
   7.97625E-01  8.04789E-01  8.17948E-01  8.37756E-01  8.65059E-01  8.98005E-01  9.33823E-01  9.71288E-01  1.01077E+00  1.05397E+00
   1.10325E+00  1.16385E+00  1.24838E+00  1.34945E+00  1.43713E+00  1.49822E+00  1.52209E+00  1.49073E+00  1.39125E+00  1.24149E+00
   1.10433E+00  1.02703E+00  1.01378E+00  1.07018E+00  1.20888E+00  1.39183E+00  1.54388E+00  1.63196E+00  1.65588E+00  1.62882E+00
   1.55699E+00  1.44903E+00  1.34524E+00  1.26561E+00  1.19707E+00  1.13368E+00  1.07361E+00  1.01634E+00  9.61796E-01  9.10110E-01
   8.61448E-01  8.15959E-01  7.73739E-01  7.34823E-01  6.99189E-01  6.66757E-01  6.37409E-01  6.10991E-01  5.87328E-01  5.66233E-01
   5.47516E-01  5.30994E-01  5.16495E-01  5.03861E-01  4.92949E-01  4.83631E-01  4.75794E-01  4.69340E-01  4.64181E-01  4.60235E-01
   4.57423E-01  4.55660E-01  4.54858E-01  4.54923E-01  4.55744E-01  4.57197E-01  4.59139E-01  4.61408E-01  4.63832E-01  4.66222E-01
   4.68385E-01  4.70120E-01  4.71228E-01  4.71522E-01  4.70834E-01  4.69019E-01  4.65963E-01  4.61586E-01  4.55844E-01  4.48739E-01
   4.40310E-01  4.30636E-01  4.19827E-01  4.08021E-01  3.95375E-01  3.82064E-01  3.68267E-01  3.54163E-01  3.39921E-01  3.25697E-01
   3.11629E-01  2.97839E-01  2.84425E-01  2.71463E-01  2.59006E-01  2.47088E-01  2.35726E-01  2.24923E-01  2.14671E-01  2.04948E-01
   1.95727E-01  1.86975E-01  1.78660E-01  1.70748E-01  1.63203E-01  1.55990E-01  1.49075E-01  1.42428E-01  1.36022E-01  1.29834E-01
   1.23840E-01  1.18017E-01  1.12349E-01  1.06819E-01  1.01415E-01  9.61228E-02  9.09314E-02  8.58295E-02  8.08076E-02  7.58590E-02
   7.09783E-02  6.61591E-02  6.13953E-02  5.66817E-02  5.20152E-02  4.73932E-02  4.28129E-02  3.82701E-02  3.37604E-02  2.92809E-02
   2.48301E-02  2.04073E-02  1.60105E-02  1.16375E-02  7.28619E-03  2.95529E-03 -1.35574E-03 -5.64804E-03 -9.92363E-03 -1.41847E-02
  -1.84324E-02 -2.26665E-02 -2.68865E-02 -3.10931E-02 -3.52878E-02 -3.94719E-02 -4.36464E-02 -4.78115E-02 -5.19670E-02 -5.61141E-02
  -6.02546E-02 -6.43893E-02 -6.85180E-02 -7.26402E-02 -7.67561E-02 -8.08669E-02 -8.49739E-02 -8.90775E-02 -9.31775E-02 -9.72737E-02
  -1.01367E-01 -1.05458E-01 -1.09547E-01 -1.13636E-01 -1.17723E-01 -1.21808E-01 -1.25892E-01 -1.29976E-01
 NY background values follow
     4.180E+00    4.165E+00    4.150E+00    4.136E+00    4.121E+00    4.107E+00    4.092E+00    4.078E+00    4.063E+00    4.049E+00
     4.034E+00    4.020E+00    4.005E+00    3.990E+00    3.976E+00    3.961E+00    3.947E+00    3.932E+00    3.918E+00    3.903E+00
     3.889E+00    3.874E+00    3.859E+00    3.845E+00    3.830E+00    3.816E+00    3.801E+00    3.787E+00    3.772E+00    3.758E+00
     3.743E+00    3.729E+00    3.714E+00    3.700E+00    3.685E+00    3.670E+00    3.656E+00    3.642E+00    3.627E+00    3.613E+00
     3.598E+00    3.584E+00    3.569E+00    3.555E+00    3.540E+00    3.526E+00    3.511E+00    3.497E+00    3.483E+00    3.468E+00
     3.454E+00    3.439E+00    3.425E+00    3.411E+00    3.396E+00    3.382E+00    3.368E+00    3.353E+00    3.339E+00    3.325E+00
     3.311E+00    3.296E+00    3.282E+00    3.268E+00    3.254E+00    3.239E+00    3.225E+00    3.211E+00    3.197E+00    3.183E+00
     3.169E+00    3.155E+00    3.141E+00    3.127E+00    3.113E+00    3.099E+00    3.085E+00    3.071E+00    3.057E+00    3.043E+00
     3.029E+00    3.015E+00    3.001E+00    2.987E+00    2.973E+00    2.960E+00    2.946E+00    2.932E+00    2.918E+00    2.905E+00
     2.891E+00    2.877E+00    2.864E+00    2.850E+00    2.837E+00    2.823E+00    2.810E+00    2.796E+00    2.783E+00    2.769E+00
     2.756E+00    2.743E+00    2.729E+00    2.716E+00    2.703E+00    2.689E+00    2.676E+00    2.663E+00    2.650E+00    2.637E+00
     2.624E+00    2.610E+00    2.597E+00    2.584E+00    2.571E+00    2.558E+00    2.546E+00    2.533E+00    2.520E+00    2.507E+00
     2.494E+00    2.481E+00    2.469E+00    2.456E+00    2.443E+00    2.431E+00    2.418E+00    2.406E+00    2.393E+00    2.380E+00
     2.368E+00    2.356E+00    2.343E+00    2.331E+00    2.319E+00    2.306E+00    2.294E+00    2.282E+00    2.270E+00    2.257E+00
     2.245E+00    2.233E+00    2.221E+00    2.209E+00    2.197E+00    2.185E+00    2.173E+00    2.162E+00    2.150E+00    2.138E+00
     2.126E+00    2.114E+00    2.103E+00    2.091E+00    2.080E+00    2.068E+00    2.056E+00    2.045E+00    2.034E+00    2.022E+00
     2.011E+00    1.999E+00    1.988E+00    1.977E+00    1.966E+00    1.954E+00    1.943E+00    1.932E+00    1.921E+00    1.910E+00
     1.899E+00    1.888E+00    1.877E+00    1.866E+00    1.855E+00    1.845E+00    1.834E+00    1.823E+00    1.812E+00    1.802E+00
     1.791E+00    1.780E+00    1.770E+00    1.759E+00    1.749E+00    1.738E+00    1.728E+00    1.718E+00    1.707E+00    1.697E+00
     1.687E+00    1.677E+00    1.666E+00    1.656E+00    1.646E+00    1.636E+00    1.626E+00    1.616E+00    1.606E+00    1.596E+00
     1.586E+00    1.577E+00    1.567E+00    1.557E+00    1.547E+00    1.538E+00    1.528E+00    1.518E+00    1.509E+00    1.499E+00
     1.490E+00    1.480E+00    1.471E+00    1.461E+00    1.452E+00    1.443E+00    1.434E+00    1.424E+00    1.415E+00    1.406E+00
     1.397E+00    1.388E+00    1.379E+00    1.370E+00    1.361E+00    1.352E+00    1.343E+00    1.334E+00    1.325E+00    1.316E+00
     1.307E+00    1.299E+00    1.290E+00    1.281E+00    1.272E+00    1.264E+00    1.255E+00    1.247E+00    1.238E+00    1.230E+00
     1.221E+00    1.213E+00    1.205E+00    1.196E+00    1.188E+00    1.180E+00    1.171E+00    1.163E+00    1.155E+00    1.147E+00
     1.139E+00    1.131E+00    1.123E+00    1.115E+00    1.107E+00    1.099E+00    1.091E+00    1.083E+00    1.075E+00    1.067E+00
     1.059E+00    1.052E+00    1.044E+00    1.036E+00    1.029E+00    1.021E+00    1.013E+00    1.006E+00    9.983E-01    9.908E-01
     9.833E-01    9.759E-01    9.685E-01    9.611E-01    9.537E-01    9.464E-01    9.391E-01    9.319E-01    9.246E-01    9.174E-01
     9.103E-01    9.031E-01    8.960E-01    8.889E-01    8.819E-01    8.748E-01    8.678E-01    8.609E-01    8.539E-01    8.470E-01
     8.401E-01    8.333E-01    8.265E-01    8.197E-01    8.129E-01    8.062E-01    7.994E-01    7.928E-01    7.861E-01    7.795E-01
     7.729E-01    7.663E-01    7.597E-01    7.532E-01    7.467E-01    7.402E-01    7.338E-01    7.274E-01    7.210E-01    7.146E-01
     7.083E-01    7.019E-01    6.957E-01    6.894E-01    6.832E-01    6.769E-01    6.707E-01    6.646E-01    6.584E-01    6.523E-01
     6.462E-01    6.402E-01    6.341E-01    6.281E-01    6.221E-01    6.162E-01    6.102E-01    6.043E-01    5.984E-01    5.925E-01
     5.867E-01    5.808E-01    5.750E-01    5.693E-01    5.635E-01    5.578E-01    5.521E-01    5.464E-01    5.407E-01    5.351E-01
     5.294E-01    5.239E-01    5.183E-01    5.127E-01    5.072E-01    5.017E-01    4.962E-01    4.907E-01    4.853E-01    4.799E-01
     4.745E-01    4.691E-01    4.637E-01    4.584E-01    4.531E-01    4.478E-01    4.425E-01    4.373E-01    4.321E-01    4.269E-01
     4.217E-01    4.165E-01    4.113E-01    4.062E-01    4.011E-01    3.960E-01    3.910E-01    3.859E-01    3.809E-01    3.759E-01
     3.709E-01    3.659E-01    3.610E-01    3.560E-01    3.511E-01    3.462E-01    3.414E-01    3.365E-01    3.317E-01    3.269E-01
     3.221E-01    3.173E-01    3.125E-01    3.078E-01    3.030E-01    2.983E-01    2.936E-01    2.890E-01    2.843E-01    2.797E-01
     2.750E-01    2.704E-01    2.658E-01    2.613E-01    2.567E-01    2.522E-01    2.477E-01    2.432E-01    2.387E-01    2.342E-01
     2.297E-01    2.253E-01    2.209E-01    2.165E-01    2.121E-01    2.077E-01    2.033E-01    1.990E-01    1.946E-01    1.903E-01
     1.860E-01    1.817E-01    1.775E-01    1.732E-01    1.690E-01    1.647E-01    1.605E-01    1.563E-01    1.521E-01    1.479E-01
     1.437E-01    1.396E-01    1.354E-01    1.313E-01    1.272E-01    1.231E-01    1.190E-01    1.149E-01    1.108E-01    1.067E-01
     1.026E-01    9.859E-02    9.455E-02    9.051E-02    8.648E-02    8.246E-02    7.845E-02    7.445E-02    7.045E-02    6.646E-02
     6.248E-02    5.851E-02    5.454E-02    5.058E-02    4.662E-02    4.267E-02    3.873E-02    3.479E-02    3.086E-02    2.693E-02
     2.300E-02    1.908E-02    1.517E-02    1.126E-02    7.348E-03    3.444E-03   -4.573E-04   -4.355E-03   -8.249E-03   -1.214E-02
    -1.603E-02   -1.991E-02   -2.380E-02   -2.767E-02   -3.155E-02   -3.542E-02   -3.930E-02   -4.316E-02   -4.703E-02   -5.090E-02
    -5.476E-02   -5.862E-02   -6.248E-02   -6.633E-02   -7.019E-02   -7.404E-02   -7.789E-02   -8.174E-02   -8.559E-02   -8.944E-02
    -9.329E-02   -9.713E-02   -1.010E-01   -1.048E-01   -1.087E-01   -1.125E-01   -1.164E-01   -1.202E-01   -1.240E-01   -1.279E-01
    -1.317E-01   -1.356E-01   -1.394E-01   -1.432E-01   -1.471E-01   -1.509E-01   -1.548E-01   -1.586E-01
 Ala      Conc. = 1.50E+00
