 LCModel (Version 6.3-1L) Copyright: S.W. Provencher.          Ref.: Magn. Reson. Med. 30:672-679 (1993).                
 Slice#2 Row#8 Col#5  PD_05_press_1_raw_act
 36 lines in following concentration table = NCONC+1
    Conc.  %SD /Cr+PCr  Metabolite                                         
   26.658 268% 2.1E-02 Ala                                                 
    0.000 999%   0.000 Asp                                                 
  318.421  47%   0.245 Cr                                                  
  981.511  16%   0.755 PCr                                                 
    0.000 999%   0.000 GABA                                                
    0.000 999%   0.000 Glc                                                 
  557.550  27%   0.429 Gln                                                 
 1.75E+03  10%   1.350 Glu                                                 
  527.749   4%   0.406 GPC                                                 
    0.000 999%   0.000 PCh                                                 
  344.197  15%   0.265 GSH                                                 
 1.05E+03  18%   0.805 Ins                                                 
    0.000 999%   0.000 Lac                                                 
 2.21E+03   4%   1.699 NAA                                                 
  461.175  17%   0.355 NAAG                                                
  106.331  20% 8.2E-02 Scyllo                                              
  196.849  88%   0.151 Tau                                                 
  215.693  40%   0.166 -CrCH2                                              
  527.749   4%   0.406 GPC+PCh                                             
 2.67E+03   3%   2.054 NAA+NAAG                                            
 1.30E+03   4%   1.000 Cr+PCr                                              
 2.31E+03  10%   1.779 Glu+Gln                                             
 1.23E+03  40%   0.945 Lip13a                                              
    0.000 999%   0.000 Lip13b                                              
  199.957 108%   0.154 Lip09                                               
 1.03E+03  23%   0.791 MM09                                                
  178.937  79%   0.138 Lip20                                               
 2.08E+03  17%   1.601 MM20                                                
  378.224  43%   0.291 MM12                                                
 1.07E+03  30%   0.826 MM14                                                
  549.792  39%   0.423 MM17                                                
 1.23E+03  40%   0.945 Lip13a+Lip13b                                       
 2.68E+03  17%   2.063 MM14+Lip13a+Lip13b+MM12                             
 1.23E+03  16%   0.945 MM09+Lip09                                          
 2.26E+03  16%   1.738 MM20+Lip20                                          
   6 lines in following misc. output table
  FWHM = 0.046 ppm    S/N =  18                                            
  Data shift = 0.015 ppm                                                   
  Ph: -47 deg     -14.0 deg/ppm                                            
  alphaB,S = 8.2E-01,   1.3E+02                                            
   14 spline knots.   Ns = 6(1)                                            
  ( 9) 4 infls.   ( 3) 1 extrs.                                            
  498 points on ppm-axis = NY
      4.000000     3.992357     3.984714     3.977070     3.969427     3.961784     3.954141     3.946497     3.938854     3.931211
      3.923568     3.915925     3.908281     3.900638     3.892995     3.885352     3.877708     3.870065     3.862422     3.854779
      3.847136     3.839492     3.831849     3.824206     3.816563     3.808919     3.801276     3.793633     3.785990     3.778347
      3.770703     3.763060     3.755417     3.747774     3.740130     3.732487     3.724844     3.717201     3.709558     3.701914
      3.694271     3.686628     3.678985     3.671341     3.663698     3.656055     3.648412     3.640769     3.633125     3.625482
      3.617839     3.610196     3.602552     3.594909     3.587266     3.579623     3.571980     3.564336     3.556693     3.549050
      3.541407     3.533763     3.526120     3.518477     3.510834     3.503191     3.495547     3.487904     3.480261     3.472618
      3.464974     3.457331     3.449688     3.442045     3.434402     3.426758     3.419115     3.411472     3.403829     3.396185
      3.388542     3.380899     3.373256     3.365613     3.357969     3.350326     3.342683     3.335040     3.327396     3.319753
      3.312110     3.304467     3.296824     3.289180     3.281537     3.273894     3.266251     3.258607     3.250964     3.243321
      3.235678     3.228034     3.220391     3.212748     3.205105     3.197462     3.189818     3.182175     3.174532     3.166889
      3.159245     3.151602     3.143959     3.136316     3.128673     3.121029     3.113386     3.105743     3.098100     3.090456
      3.082813     3.075170     3.067527     3.059884     3.052240     3.044597     3.036954     3.029311     3.021667     3.014024
      3.006381     2.998738     2.991095     2.983451     2.975808     2.968165     2.960522     2.952878     2.945235     2.937592
      2.929949     2.922306     2.914662     2.907019     2.899376     2.891733     2.884089     2.876446     2.868803     2.861160
      2.853517     2.845873     2.838230     2.830587     2.822944     2.815300     2.807657     2.800014     2.792371     2.784728
      2.777084     2.769441     2.761798     2.754155     2.746511     2.738868     2.731225     2.723582     2.715939     2.708295
      2.700652     2.693009     2.685366     2.677722     2.670079     2.662436     2.654793     2.647150     2.639506     2.631863
      2.624220     2.616577     2.608933     2.601290     2.593647     2.586004     2.578361     2.570717     2.563074     2.555431
      2.547788     2.540144     2.532501     2.524858     2.517215     2.509572     2.501928     2.494285     2.486642     2.478999
      2.471355     2.463712     2.456069     2.448426     2.440783     2.433139     2.425496     2.417853     2.410210     2.402566
      2.394923     2.387280     2.379637     2.371994     2.364350     2.356707     2.349064     2.341421     2.333777     2.326134
      2.318491     2.310848     2.303205     2.295561     2.287918     2.280275     2.272632     2.264988     2.257345     2.249702
      2.242059     2.234416     2.226772     2.219129     2.211486     2.203843     2.196199     2.188556     2.180913     2.173270
      2.165627     2.157983     2.150340     2.142697     2.135054     2.127410     2.119767     2.112124     2.104481     2.096838
      2.089194     2.081551     2.073908     2.066265     2.058621     2.050978     2.043335     2.035692     2.028049     2.020405
      2.012762     2.005119     1.997476     1.989833     1.982190     1.974546     1.966903     1.959260     1.951617     1.943974
      1.936331     1.928688     1.921045     1.913402     1.905759     1.898115     1.890472     1.882829     1.875186     1.867543
      1.859900     1.852257     1.844614     1.836971     1.829327     1.821684     1.814041     1.806398     1.798755     1.791112
      1.783469     1.775826     1.768183     1.760540     1.752896     1.745253     1.737610     1.729967     1.722324     1.714681
      1.707038     1.699395     1.691752     1.684108     1.676465     1.668822     1.661179     1.653536     1.645893     1.638250
      1.630607     1.622964     1.615321     1.607677     1.600034     1.592391     1.584748     1.577105     1.569462     1.561819
      1.554176     1.546533     1.538890     1.531246     1.523603     1.515960     1.508317     1.500674     1.493031     1.485388
      1.477745     1.470102     1.462458     1.454815     1.447172     1.439529     1.431886     1.424243     1.416600     1.408957
      1.401314     1.393671     1.386027     1.378384     1.370741     1.363098     1.355455     1.347812     1.340169     1.332526
      1.324883     1.317240     1.309596     1.301953     1.294310     1.286667     1.279024     1.271381     1.263738     1.256095
      1.248452     1.240808     1.233165     1.225522     1.217879     1.210236     1.202593     1.194950     1.187307     1.179664
      1.172021     1.164377     1.156734     1.149091     1.141448     1.133805     1.126162     1.118519     1.110876     1.103233
      1.095590     1.087946     1.080303     1.072660     1.065017     1.057374     1.049731     1.042088     1.034445     1.026802
      1.019158     1.011515     1.003872     0.996229     0.988586     0.980943     0.973300     0.965657     0.958014     0.950371
      0.942727     0.935084     0.927441     0.919798     0.912155     0.904512     0.896869     0.889226     0.881583     0.873940
      0.866296     0.858653     0.851010     0.843367     0.835724     0.828081     0.820438     0.812795     0.805152     0.797508
      0.789865     0.782222     0.774579     0.766936     0.759293     0.751650     0.744007     0.736364     0.728721     0.721077
      0.713434     0.705791     0.698148     0.690505     0.682862     0.675219     0.667576     0.659933     0.652290     0.644646
      0.637003     0.629360     0.621717     0.614074     0.606431     0.598788     0.591145     0.583502     0.575858     0.568215
      0.560572     0.552929     0.545286     0.537643     0.530000     0.522357     0.514714     0.507071     0.499427     0.491784
      0.484141     0.476498     0.468855     0.461212     0.453569     0.445925     0.438282     0.430639     0.422996     0.415353
      0.407710     0.400067     0.392424     0.384780     0.377137     0.369494     0.361851     0.354208     0.346565     0.338922
      0.331278     0.323635     0.315992     0.308349     0.300706     0.293063     0.285420     0.277777     0.270133     0.262490
      0.254847     0.247204     0.239561     0.231918     0.224275     0.216631     0.208988     0.201345
 NY phased data points follow
  -4.75989E+01 -4.24309E+01 -4.43746E+01 -3.79218E+01 -3.52447E+01 -3.07324E+01 -2.73568E+01 -2.30277E+01 -1.51360E+01 -1.18998E+01
  -1.13708E+01 -1.50447E+01 -1.14169E+01 -1.93303E+01 -2.54393E+01 -2.87944E+01 -3.16525E+01 -3.42958E+01 -3.49900E+01 -3.39579E+01
  -3.39842E+01 -3.41153E+01 -3.17885E+01 -3.56091E+01 -2.87271E+01 -2.55448E+01 -2.64779E+01 -3.08255E+01 -3.07115E+01 -2.34073E+01
  -2.45154E+01 -2.09919E+01 -1.74913E+01 -2.10953E+01 -2.46314E+01 -2.55794E+01 -2.61844E+01 -2.38572E+01 -2.51416E+01 -2.61598E+01
  -2.26942E+01 -2.01540E+01 -1.90507E+01 -2.16958E+01 -1.74930E+01 -1.19185E+01 -1.38688E+01 -1.42575E+01 -1.56708E+01 -1.94527E+01
  -1.96395E+01 -2.16494E+01 -2.17470E+01 -2.22177E+01 -2.49067E+01 -2.27439E+01 -2.15397E+01 -1.84717E+01 -2.01432E+01 -1.96252E+01
  -2.04423E+01 -2.30556E+01 -2.08185E+01 -2.40361E+01 -2.58822E+01 -2.10107E+01 -2.08651E+01 -2.05779E+01 -2.31872E+01 -2.33077E+01
  -2.22156E+01 -2.06399E+01 -2.03963E+01 -1.91798E+01 -1.79036E+01 -1.89593E+01 -1.83510E+01 -1.53263E+01 -1.90127E+01 -1.91555E+01
  -1.81768E+01 -1.60459E+01 -1.44937E+01 -1.33192E+01 -1.66638E+01 -1.12026E+01 -1.25683E+01 -1.14852E+01 -1.41639E+01 -1.26115E+01
  -1.15840E+01 -1.02375E+01 -1.21172E+01 -1.30642E+01 -1.27717E+01 -9.91855E+00 -8.43417E+00 -6.82825E+00 -3.31854E+00  8.79741E+00
   1.94591E+01  3.37967E+01  4.10678E+01  3.55704E+01  3.14990E+01  2.22566E+01  1.32180E+01  8.90708E+00  4.04335E-01 -3.75132E+00
  -2.70530E+00 -7.43015E+00 -8.83686E+00 -9.31498E+00 -9.98320E+00 -7.72919E+00 -6.09411E+00 -8.06961E+00 -7.35525E+00 -9.13031E+00
  -6.30730E+00 -7.19443E+00 -3.50382E+00  4.74753E+00  1.39509E+01  2.71348E+01  3.71582E+01  3.95544E+01  3.69490E+01  2.55772E+01
   1.62580E+01  1.03762E+01  3.81765E+00 -1.89273E-01 -2.49979E+00 -6.95441E+00 -8.36241E+00 -9.85646E+00 -6.93651E+00 -9.27410E+00
  -7.95796E+00 -5.98344E+00 -4.53191E+00 -9.23982E+00 -7.86962E+00 -8.31190E+00 -6.68525E+00 -8.10618E+00 -5.08721E+00 -1.27650E+01
  -8.61393E+00 -5.59590E+00 -8.76999E+00 -9.15479E+00 -7.16693E+00 -5.40480E+00 -4.72424E+00 -8.67640E+00 -7.05169E+00 -2.96494E+00
  -1.30971E+01 -1.40945E+01 -1.29969E+01 -8.59194E+00 -5.65348E+00 -5.59886E+00 -9.19630E+00 -9.69772E+00 -1.10941E+01 -1.38264E+01
  -1.14022E+01 -1.50317E+01 -1.34696E+01 -1.49114E+01 -1.81753E+01 -1.91503E+01 -1.82550E+01 -1.60643E+01 -8.94930E+00 -1.45495E+01
  -1.82942E+01 -1.79378E+01 -2.07468E+01 -1.63405E+01 -1.49980E+01 -1.31303E+01 -1.06967E+01 -9.10833E+00 -3.96739E+00 -9.99372E-01
   2.30464E-01  9.16133E-01 -2.23967E+00  1.04557E+00  4.80342E-01 -2.44640E-01 -4.46941E+00 -2.69500E+00 -7.81045E+00 -9.57318E+00
  -4.95534E+00  3.24821E-01  6.69511E-01  2.37106E+00  3.98602E+00 -1.60361E+00 -2.37545E+00 -8.03760E+00 -3.48685E+00 -9.95112E+00
  -8.16344E+00 -7.82788E+00 -3.32134E+00  2.90544E+00  7.58624E+00  1.30634E+01  1.29184E+01  9.81750E+00  4.48271E+00  1.57986E+00
  -4.19880E+00 -5.14554E+00 -8.88836E+00 -6.40766E+00 -5.43627E+00  2.01230E+00  2.55462E+00  5.62150E+00  3.98296E+00  5.68580E+00
   7.98423E+00  5.59021E+00  5.58370E+00  6.99611E+00  3.96492E+00  1.60370E+00  5.84733E+00  8.37363E+00  7.45904E+00  2.71602E+00
   1.76522E+00  2.85286E+00 -8.57149E-01  2.12583E+00  6.22883E+00  9.23499E+00  1.16710E+01  9.81842E+00  1.02565E+01  6.43824E+00
   1.26857E+01  1.29298E+01  1.50768E+01  2.59212E+01  3.13739E+01  3.76509E+01  4.54064E+01  5.44823E+01  7.28700E+01  9.54855E+01
   1.08350E+02  9.68203E+01  7.15883E+01  4.81735E+01  4.22860E+01  3.18483E+01  2.27864E+01  1.54945E+01  7.31722E+00  8.35701E+00
   1.13163E+01  8.71452E+00  6.50550E+00  9.91765E+00  7.72812E+00  2.08996E+00  3.88377E+00  1.06848E+00  3.80978E+00  6.07983E+00
   6.37716E+00  3.41300E+00  5.98531E+00  3.71303E+00  3.54178E+00  4.73219E+00  2.62360E-01  3.09368E+00  3.66327E+00  7.40126E+00
   4.91937E+00  5.35763E+00  6.31531E+00  4.89714E+00  6.18012E+00  6.57933E+00  6.44544E+00  7.13491E+00  5.59895E+00  4.94591E+00
   6.08939E+00  7.29844E+00  8.67236E+00  3.56199E+00  6.00172E+00  8.16758E+00  9.92985E+00  7.93112E+00  5.94076E+00  9.17620E+00
   8.14887E+00  7.75625E+00  7.27586E+00  1.10033E+01  6.98402E+00  1.10787E+01  1.05234E+01  9.26588E+00  1.11836E+01  1.15454E+01
   6.80755E+00  4.23182E+00  6.98629E+00  5.34686E+00  5.87835E+00  9.08590E+00  8.07092E+00  8.70342E+00  1.09159E+01  6.95223E+00
   7.86556E+00  1.07670E+01  1.16372E+01  1.26445E+01  9.65915E+00  1.58341E+01  1.33059E+01  1.43905E+01  1.58243E+01  1.35481E+01
   1.34457E+01  1.33404E+01  1.15258E+01  1.11558E+01  1.71269E+01  1.21234E+01  1.38546E+01  1.43299E+01  1.52025E+01  1.64313E+01
   1.47458E+01  1.48191E+01  1.42589E+01  1.53665E+01  1.82673E+01  1.29274E+01  1.10114E+01  9.09675E+00  1.11229E+01  1.13221E+01
   1.38941E+01  1.27119E+01  1.33906E+01  1.23337E+01  1.18330E+01  1.50324E+01  1.15384E+01  1.40086E+01  1.31876E+01  1.39445E+01
   1.26301E+01  1.56995E+01  1.10529E+01  1.38980E+01  1.44216E+01  8.26428E+00  1.10706E+01  1.13427E+01  1.34017E+01  1.10437E+01
   1.11572E+01  6.80348E+00  8.90576E+00  1.02016E+01  5.52885E+00  9.11297E+00  8.36851E+00  9.31101E+00  7.16394E+00  1.04187E+01
   7.70222E+00  8.24574E+00  1.25389E+01  1.14421E+01  1.43486E+01  1.45045E+01  1.52438E+01  1.15032E+01  1.73489E+01  1.28199E+01
   1.48290E+01  1.54040E+01  1.61151E+01  1.59187E+01  1.53571E+01  1.72584E+01  1.55541E+01  1.82318E+01  2.00128E+01  1.43553E+01
   1.72029E+01  1.53366E+01  1.38928E+01  1.45654E+01  1.40917E+01  1.20498E+01  1.24812E+01  9.55792E+00  1.25958E+01  1.03596E+01
   9.61863E+00  8.92305E+00  1.12020E+01  1.07954E+01  1.09090E+01  1.13111E+01  1.19599E+01  9.70475E+00  9.53424E+00  1.03372E+01
   9.83629E+00  1.42816E+01  1.10637E+01  7.96589E+00  9.44510E+00  7.65108E+00  8.19113E+00  7.03237E+00  1.15188E+01  1.03104E+01
   8.00500E+00  1.16281E+01  8.50052E+00  7.40739E+00  9.16314E+00  8.49686E+00  6.12917E+00  8.06763E+00  9.52812E+00  6.72890E+00
   9.16394E+00  5.85577E+00  7.63268E+00  7.08474E+00  8.67040E+00  1.01072E+01  7.05846E+00  4.04661E+00  7.28546E+00  5.93860E+00
   4.74105E+00  1.09170E+01  8.52115E+00  8.95511E+00  6.75637E+00  7.10142E+00  6.01274E+00  1.06785E+01  8.80964E+00  7.82961E+00
   1.13085E+01  6.28528E+00  9.25760E+00  7.05327E+00  8.03639E+00  7.39725E+00  8.98493E+00  9.74680E+00  6.73719E+00  3.83816E+00
   6.40424E+00  8.68436E+00  8.09905E+00  6.24529E+00  9.82334E+00  8.93164E+00  6.82844E+00  7.35307E+00  5.46062E+00  1.07120E+01
   1.06963E+01  8.03488E+00  1.06540E+01  7.18517E+00  6.36365E+00  6.36078E+00  6.65995E+00  9.31317E+00
 NY points of the fit to the data follow
  -4.11818E+01 -4.08386E+01 -4.01991E+01 -3.88729E+01 -3.64483E+01 -3.28683E+01 -2.78050E+01 -2.15366E+01 -1.53693E+01 -1.12965E+01
  -1.06713E+01 -1.31542E+01 -1.71036E+01 -2.09355E+01 -2.40417E+01 -2.65596E+01 -2.87732E+01 -3.05140E+01 -3.15072E+01 -3.19844E+01
  -3.20041E+01 -3.18645E+01 -3.17866E+01 -3.17645E+01 -3.15474E+01 -3.11626E+01 -3.04798E+01 -2.90449E+01 -2.66777E+01 -2.38166E+01
  -2.13476E+01 -1.98259E+01 -1.93643E+01 -1.98915E+01 -2.13757E+01 -2.35845E+01 -2.60201E+01 -2.79284E+01 -2.86328E+01 -2.82695E+01
  -2.71143E+01 -2.54282E+01 -2.35355E+01 -2.14094E+01 -1.89980E+01 -1.66793E+01 -1.54001E+01 -1.58403E+01 -1.76153E+01 -1.96722E+01
  -2.12520E+01 -2.22675E+01 -2.29787E+01 -2.34469E+01 -2.34860E+01 -2.29693E+01 -2.20787E+01 -2.10746E+01 -2.01912E+01 -1.97215E+01
  -1.98204E+01 -2.03455E+01 -2.09627E+01 -2.13343E+01 -2.13423E+01 -2.10483E+01 -2.05741E+01 -2.00147E+01 -1.94428E+01 -1.88428E+01
  -1.82578E+01 -1.78021E+01 -1.75113E+01 -1.73285E+01 -1.72009E+01 -1.71734E+01 -1.73250E+01 -1.75918E+01 -1.78146E+01 -1.77933E+01
  -1.74243E+01 -1.66768E+01 -1.57286E+01 -1.45708E+01 -1.32152E+01 -1.20333E+01 -1.15643E+01 -1.20067E+01 -1.29539E+01 -1.37278E+01
  -1.40009E+01 -1.40189E+01 -1.40823E+01 -1.42040E+01 -1.41697E+01 -1.36393E+01 -1.21008E+01 -8.29468E+00 -1.87697E+00  7.60140E+00
   2.01009E+01  3.28890E+01  4.08098E+01  4.01174E+01  3.19981E+01  2.13960E+01  1.25330E+01  6.06614E+00  6.41273E-01 -4.47781E+00
  -8.56565E+00 -1.04462E+01 -1.09974E+01 -1.11637E+01 -1.11943E+01 -1.11571E+01 -1.10609E+01 -1.09138E+01 -1.06942E+01 -1.03168E+01
  -9.48687E+00 -7.07896E+00 -2.32568E+00  4.91264E+00  1.51752E+01  2.72566E+01  3.70206E+01  3.98393E+01  3.47664E+01  2.55042E+01
   1.68749E+01  1.07018E+01  5.74261E+00  6.26381E-01 -4.47401E+00 -7.87612E+00 -9.08186E+00 -9.21602E+00 -8.76749E+00 -8.08278E+00
  -7.45496E+00 -7.04654E+00 -6.89015E+00 -6.94830E+00 -7.10715E+00 -7.27659E+00 -7.45151E+00 -7.63275E+00 -7.82985E+00 -8.03864E+00
  -8.23204E+00 -8.42025E+00 -8.56757E+00 -8.60306E+00 -8.48233E+00 -8.29122E+00 -8.17539E+00 -8.27762E+00 -8.72259E+00 -9.38398E+00
  -9.93101E+00 -1.00048E+01 -9.49076E+00 -8.75824E+00 -8.40984E+00 -8.73624E+00 -9.49747E+00 -1.02023E+01 -1.05492E+01 -1.06611E+01
  -1.08019E+01 -1.11303E+01 -1.16229E+01 -1.21822E+01 -1.26581E+01 -1.28268E+01 -1.24801E+01 -1.17743E+01 -1.12416E+01 -1.12186E+01
  -1.14655E+01 -1.14778E+01 -1.10571E+01 -1.04604E+01 -1.00887E+01 -9.83889E+00 -9.04707E+00 -7.40429E+00 -5.24558E+00 -3.32501E+00
  -2.23870E+00 -2.00657E+00 -2.38202E+00 -3.01876E+00 -3.63809E+00 -4.16796E+00 -4.52869E+00 -4.51539E+00 -3.96127E+00 -2.85437E+00
  -1.34511E+00  2.89742E-01  1.70069E+00  2.55292E+00  2.37994E+00  1.02599E+00 -1.28713E+00 -4.10363E+00 -6.74962E+00 -8.47260E+00
  -8.70862E+00 -7.25982E+00 -4.38309E+00 -4.34623E-01  3.88154E+00  7.22666E+00  8.09091E+00  6.03290E+00  1.95204E+00 -2.64351E+00
  -6.75121E+00 -9.82140E+00 -1.09438E+01 -9.45903E+00 -5.88188E+00 -1.69696E+00  1.55821E+00  3.60336E+00  4.76699E+00  5.28142E+00
   5.22913E+00  4.89443E+00  4.78603E+00  5.12400E+00  5.69742E+00  6.28253E+00  6.80137E+00  7.02200E+00  6.74443E+00  5.95939E+00
   4.90392E+00  4.01224E+00  3.76189E+00  4.40342E+00  5.68169E+00  7.07159E+00  8.11718E+00  8.69752E+00  9.04995E+00  9.65803E+00
   1.11397E+01  1.36535E+01  1.75302E+01  2.26698E+01  2.91773E+01  3.74961E+01  4.66376E+01  5.92896E+01  7.71693E+01  9.50531E+01
   1.02602E+02  9.42495E+01  7.50511E+01  5.55676E+01  4.19290E+01  3.23287E+01  2.35443E+01  1.48858E+01  8.65798E+00  6.74468E+00
   6.11872E+00  5.80840E+00  5.73872E+00  5.82237E+00  5.85698E+00  5.75187E+00  5.53850E+00  5.30563E+00  5.10493E+00  4.93827E+00
   4.79563E+00  4.69436E+00  4.65624E+00  4.65811E+00  4.64783E+00  4.61627E+00  4.58963E+00  4.58569E+00  4.61479E+00  4.68707E+00
   4.81548E+00  4.99529E+00  5.19176E+00  5.37840E+00  5.55537E+00  5.72984E+00  5.90476E+00  6.08262E+00  6.26964E+00  6.47516E+00
   6.69882E+00  6.92604E+00  7.14302E+00  7.34231E+00  7.51939E+00  7.67114E+00  7.79462E+00  7.88895E+00  7.95842E+00  8.00510E+00
   8.03094E+00  8.04003E+00  8.03807E+00  8.03101E+00  8.02433E+00  8.02320E+00  8.03271E+00  8.05871E+00  8.10719E+00  8.18397E+00
   8.29516E+00  8.44852E+00  8.63939E+00  8.85999E+00  9.10012E+00  9.32953E+00  9.51063E+00  9.63528E+00  9.74130E+00  9.89160E+00
   1.01203E+01  1.04146E+01  1.07639E+01  1.11727E+01  1.16272E+01  1.20777E+01  1.24566E+01  1.27418E+01  1.29657E+01  1.31619E+01
   1.33381E+01  1.34877E+01  1.36070E+01  1.37096E+01  1.38080E+01  1.38980E+01  1.39773E+01  1.40457E+01  1.41024E+01  1.41470E+01
   1.41788E+01  1.41979E+01  1.42037E+01  1.41950E+01  1.41701E+01  1.41274E+01  1.40658E+01  1.39850E+01  1.38845E+01  1.37637E+01
   1.36223E+01  1.34608E+01  1.32807E+01  1.30841E+01  1.28731E+01  1.26499E+01  1.24166E+01  1.21768E+01  1.19339E+01  1.16916E+01
   1.14529E+01  1.12207E+01  1.09980E+01  1.07879E+01  1.05937E+01  1.04180E+01  1.02627E+01  1.01296E+01  1.00208E+01  9.93846E+00
   9.88452E+00  9.86055E+00  9.86761E+00  9.90707E+00  9.98048E+00  1.00896E+01  1.02356E+01  1.04192E+01  1.06403E+01  1.08990E+01
   1.11948E+01  1.15265E+01  1.18913E+01  1.22851E+01  1.27025E+01  1.31376E+01  1.35829E+01  1.40299E+01  1.44685E+01  1.48880E+01
   1.52775E+01  1.56268E+01  1.59261E+01  1.61663E+01  1.63397E+01  1.64405E+01  1.64652E+01  1.64134E+01  1.62864E+01  1.60880E+01
   1.58236E+01  1.55009E+01  1.51290E+01  1.47183E+01  1.42794E+01  1.38223E+01  1.33568E+01  1.28922E+01  1.24367E+01  1.19975E+01
   1.15799E+01  1.11876E+01  1.08233E+01  1.04888E+01  1.01847E+01  9.91090E+00  9.66598E+00  9.44820E+00  9.25554E+00  9.08623E+00
   8.93822E+00  8.80931E+00  8.69704E+00  8.59932E+00  8.51436E+00  8.44087E+00  8.37740E+00  8.32254E+00  8.27480E+00  8.23322E+00
   8.19709E+00  8.16599E+00  8.13918E+00  8.11594E+00  8.09551E+00  8.07767E+00  8.06223E+00  8.04913E+00  8.03787E+00  8.02804E+00
   8.01929E+00  8.01171E+00  8.00532E+00  8.00007E+00  7.99557E+00  7.99159E+00  7.98802E+00  7.98512E+00  7.98289E+00  7.98126E+00
   7.97987E+00  7.97862E+00  7.97758E+00  7.97703E+00  7.97691E+00  7.97708E+00  7.97723E+00  7.97742E+00  7.97778E+00  7.97856E+00
   7.97961E+00  7.98075E+00  7.98178E+00  7.98288E+00  7.98421E+00  7.98593E+00  7.98780E+00  7.98965E+00  7.99140E+00  7.99332E+00
   7.99552E+00  7.99807E+00  8.00067E+00  8.00323E+00  8.00578E+00  8.00864E+00  8.01183E+00  8.01533E+00  8.01882E+00  8.02233E+00
   8.02598E+00  8.03008E+00  8.03454E+00  8.03927E+00  8.04401E+00  8.04893E+00  8.05418E+00  8.06001E+00
 NY background values follow
    -4.390E+01   -4.356E+01   -4.323E+01   -4.290E+01   -4.256E+01   -4.223E+01   -4.189E+01   -4.156E+01   -4.123E+01   -4.089E+01
    -4.056E+01   -4.023E+01   -3.990E+01   -3.956E+01   -3.923E+01   -3.890E+01   -3.857E+01   -3.824E+01   -3.791E+01   -3.758E+01
    -3.725E+01   -3.692E+01   -3.660E+01   -3.627E+01   -3.594E+01   -3.562E+01   -3.529E+01   -3.497E+01   -3.465E+01   -3.432E+01
    -3.400E+01   -3.368E+01   -3.336E+01   -3.305E+01   -3.273E+01   -3.241E+01   -3.210E+01   -3.178E+01   -3.147E+01   -3.116E+01
    -3.085E+01   -3.054E+01   -3.024E+01   -2.993E+01   -2.963E+01   -2.932E+01   -2.902E+01   -2.872E+01   -2.842E+01   -2.812E+01
    -2.783E+01   -2.754E+01   -2.724E+01   -2.695E+01   -2.666E+01   -2.638E+01   -2.609E+01   -2.581E+01   -2.553E+01   -2.525E+01
    -2.497E+01   -2.469E+01   -2.442E+01   -2.415E+01   -2.388E+01   -2.361E+01   -2.334E+01   -2.308E+01   -2.281E+01   -2.255E+01
    -2.230E+01   -2.204E+01   -2.179E+01   -2.154E+01   -2.129E+01   -2.104E+01   -2.079E+01   -2.055E+01   -2.031E+01   -2.007E+01
    -1.984E+01   -1.961E+01   -1.938E+01   -1.915E+01   -1.892E+01   -1.870E+01   -1.848E+01   -1.826E+01   -1.805E+01   -1.784E+01
    -1.763E+01   -1.742E+01   -1.721E+01   -1.701E+01   -1.681E+01   -1.662E+01   -1.642E+01   -1.623E+01   -1.604E+01   -1.586E+01
    -1.568E+01   -1.550E+01   -1.532E+01   -1.514E+01   -1.497E+01   -1.480E+01   -1.463E+01   -1.447E+01   -1.430E+01   -1.414E+01
    -1.398E+01   -1.383E+01   -1.367E+01   -1.352E+01   -1.338E+01   -1.323E+01   -1.309E+01   -1.294E+01   -1.281E+01   -1.267E+01
    -1.253E+01   -1.240E+01   -1.227E+01   -1.214E+01   -1.202E+01   -1.190E+01   -1.177E+01   -1.166E+01   -1.154E+01   -1.142E+01
    -1.131E+01   -1.120E+01   -1.109E+01   -1.099E+01   -1.088E+01   -1.078E+01   -1.068E+01   -1.058E+01   -1.049E+01   -1.039E+01
    -1.030E+01   -1.021E+01   -1.012E+01   -1.003E+01   -9.949E+00   -9.864E+00   -9.781E+00   -9.699E+00   -9.618E+00   -9.538E+00
    -9.459E+00   -9.381E+00   -9.303E+00   -9.227E+00   -9.151E+00   -9.076E+00   -9.001E+00   -8.927E+00   -8.853E+00   -8.779E+00
    -8.706E+00   -8.632E+00   -8.559E+00   -8.485E+00   -8.412E+00   -8.338E+00   -8.264E+00   -8.190E+00   -8.115E+00   -8.039E+00
    -7.963E+00   -7.887E+00   -7.809E+00   -7.731E+00   -7.651E+00   -7.571E+00   -7.490E+00   -7.407E+00   -7.324E+00   -7.238E+00
    -7.152E+00   -7.064E+00   -6.975E+00   -6.884E+00   -6.791E+00   -6.698E+00   -6.603E+00   -6.507E+00   -6.409E+00   -6.311E+00
    -6.212E+00   -6.111E+00   -6.010E+00   -5.908E+00   -5.805E+00   -5.702E+00   -5.598E+00   -5.493E+00   -5.388E+00   -5.282E+00
    -5.176E+00   -5.070E+00   -4.963E+00   -4.857E+00   -4.750E+00   -4.643E+00   -4.536E+00   -4.429E+00   -4.323E+00   -4.216E+00
    -4.110E+00   -4.004E+00   -3.898E+00   -3.793E+00   -3.689E+00   -3.585E+00   -3.482E+00   -3.379E+00   -3.277E+00   -3.176E+00
    -3.076E+00   -2.977E+00   -2.879E+00   -2.782E+00   -2.686E+00   -2.592E+00   -2.498E+00   -2.406E+00   -2.316E+00   -2.226E+00
    -2.138E+00   -2.051E+00   -1.965E+00   -1.881E+00   -1.797E+00   -1.715E+00   -1.634E+00   -1.554E+00   -1.475E+00   -1.397E+00
    -1.320E+00   -1.243E+00   -1.168E+00   -1.094E+00   -1.021E+00   -9.480E-01   -8.763E-01   -8.053E-01   -7.352E-01   -6.657E-01
    -5.970E-01   -5.290E-01   -4.616E-01   -3.949E-01   -3.287E-01   -2.632E-01   -1.982E-01   -1.337E-01   -6.968E-02   -6.156E-03
     5.693E-02    1.196E-01    1.819E-01    2.438E-01    3.054E-01    3.667E-01    4.277E-01    4.884E-01    5.490E-01    6.093E-01
     6.694E-01    7.295E-01    7.894E-01    8.492E-01    9.088E-01    9.684E-01    1.028E+00    1.087E+00    1.146E+00    1.205E+00
     1.264E+00    1.323E+00    1.381E+00    1.440E+00    1.498E+00    1.556E+00    1.614E+00    1.672E+00    1.730E+00    1.787E+00
     1.844E+00    1.901E+00    1.958E+00    2.015E+00    2.072E+00    2.128E+00    2.184E+00    2.240E+00    2.296E+00    2.351E+00
     2.407E+00    2.462E+00    2.516E+00    2.571E+00    2.626E+00    2.680E+00    2.734E+00    2.787E+00    2.841E+00    2.894E+00
     2.947E+00    3.000E+00    3.052E+00    3.105E+00    3.157E+00    3.208E+00    3.260E+00    3.311E+00    3.362E+00    3.412E+00
     3.463E+00    3.513E+00    3.562E+00    3.612E+00    3.661E+00    3.710E+00    3.759E+00    3.807E+00    3.855E+00    3.903E+00
     3.950E+00    3.997E+00    4.044E+00    4.091E+00    4.137E+00    4.183E+00    4.229E+00    4.274E+00    4.319E+00    4.364E+00
     4.409E+00    4.453E+00    4.497E+00    4.540E+00    4.583E+00    4.626E+00    4.669E+00    4.711E+00    4.753E+00    4.795E+00
     4.836E+00    4.877E+00    4.918E+00    4.959E+00    4.999E+00    5.038E+00    5.078E+00    5.117E+00    5.156E+00    5.194E+00
     5.232E+00    5.270E+00    5.307E+00    5.345E+00    5.381E+00    5.418E+00    5.454E+00    5.490E+00    5.525E+00    5.560E+00
     5.595E+00    5.630E+00    5.664E+00    5.698E+00    5.732E+00    5.765E+00    5.798E+00    5.831E+00    5.864E+00    5.896E+00
     5.928E+00    5.959E+00    5.991E+00    6.022E+00    6.053E+00    6.084E+00    6.114E+00    6.144E+00    6.174E+00    6.204E+00
     6.233E+00    6.263E+00    6.291E+00    6.320E+00    6.349E+00    6.377E+00    6.405E+00    6.433E+00    6.461E+00    6.488E+00
     6.515E+00    6.542E+00    6.569E+00    6.596E+00    6.622E+00    6.649E+00    6.675E+00    6.701E+00    6.726E+00    6.752E+00
     6.777E+00    6.803E+00    6.828E+00    6.852E+00    6.877E+00    6.901E+00    6.925E+00    6.949E+00    6.973E+00    6.997E+00
     7.020E+00    7.043E+00    7.066E+00    7.088E+00    7.110E+00    7.132E+00    7.154E+00    7.176E+00    7.197E+00    7.218E+00
     7.238E+00    7.259E+00    7.279E+00    7.299E+00    7.318E+00    7.337E+00    7.356E+00    7.375E+00    7.393E+00    7.411E+00
     7.428E+00    7.446E+00    7.463E+00    7.479E+00    7.495E+00    7.511E+00    7.527E+00    7.542E+00    7.557E+00    7.571E+00
     7.585E+00    7.599E+00    7.612E+00    7.625E+00    7.638E+00    7.650E+00    7.662E+00    7.673E+00    7.684E+00    7.695E+00
     7.706E+00    7.716E+00    7.726E+00    7.736E+00    7.745E+00    7.754E+00    7.763E+00    7.772E+00    7.781E+00    7.789E+00
     7.797E+00    7.805E+00    7.813E+00    7.821E+00    7.828E+00    7.835E+00    7.843E+00    7.850E+00    7.857E+00    7.864E+00
     7.871E+00    7.877E+00    7.884E+00    7.891E+00    7.898E+00    7.904E+00    7.911E+00    7.918E+00    7.924E+00    7.931E+00
     7.938E+00    7.945E+00    7.952E+00    7.959E+00    7.966E+00    7.973E+00    7.980E+00    7.987E+00
 Ala      Conc. = 2.67E+01
