 LCModel (Version 6.3-1L) Copyright: S.W. Provencher.          Ref.: Magn. Reson. Med. 30:672-679 (1993).                
 Slice#3 Row#8 Col#10  PD_05_press_1_raw_act
 36 lines in following concentration table = NCONC+1
    Conc.  %SD /Cr+PCr  Metabolite                                         
   14.464 451% 1.3E-02 Ala                                                 
    0.000 999%   0.000 Asp                                                 
  656.958  20%   0.596 Cr                                                  
  445.579  31%   0.404 PCr                                                 
   60.904 170% 5.5E-02 GABA                                                
    0.000 999%   0.000 Glc                                                 
  281.288  48%   0.255 Gln                                                 
 1.23E+03  14%   1.119 Glu                                                 
  346.626   4%   0.314 GPC                                                 
    0.000 999%   0.000 PCh                                                 
  400.677  12%   0.363 GSH                                                 
  991.109  16%   0.899 Ins                                                 
   55.570 128% 5.0E-02 Lac                                                 
 1.66E+03   5%   1.501 NAA                                                 
  153.125  52%   0.139 NAAG                                                
   41.483  40% 3.8E-02 Scyllo                                              
    0.000 999%   0.000 Tau                                                 
   75.694  95% 6.9E-02 -CrCH2                                              
  346.626   4%   0.314 GPC+PCh                                             
 1.81E+03   3%   1.640 NAA+NAAG                                            
 1.10E+03   4%   1.000 Cr+PCr                                              
 1.52E+03  15%   1.375 Glu+Gln                                             
  459.586  57%   0.417 Lip13a                                              
    0.000 999%   0.000 Lip13b                                              
    0.000 999%   0.000 Lip09                                               
 1.08E+03  14%   0.977 MM09                                                
   52.284 181% 4.7E-02 Lip20                                               
 2.48E+03  11%   2.249 MM20                                                
  460.722  28%   0.418 MM12                                                
 1.45E+03  19%   1.311 MM14                                                
 1.23E+03  18%   1.114 MM17                                                
  459.586  57%   0.417 Lip13a+Lip13b                                       
 2.37E+03  12%   2.146 MM14+Lip13a+Lip13b+MM12                             
 1.08E+03  14%   0.977 MM09+Lip09                                          
 2.53E+03  11%   2.296 MM20+Lip20                                          
   6 lines in following misc. output table
  FWHM = 0.046 ppm    S/N =  15                                            
  Data shift = 0.015 ppm                                                   
  Ph: -10 deg      -5.4 deg/ppm                                            
  alphaB,S = 1.3E+00,   9.0E+01                                            
   14 spline knots.   Ns = 6(1)                                            
  (13) 2 infls.   ( 7) 1 extrs.                                            
  498 points on ppm-axis = NY
      4.000000     3.992357     3.984714     3.977070     3.969427     3.961784     3.954141     3.946497     3.938854     3.931211
      3.923568     3.915925     3.908281     3.900638     3.892995     3.885352     3.877708     3.870065     3.862422     3.854779
      3.847136     3.839492     3.831849     3.824206     3.816563     3.808919     3.801276     3.793633     3.785990     3.778347
      3.770703     3.763060     3.755417     3.747774     3.740130     3.732487     3.724844     3.717201     3.709558     3.701914
      3.694271     3.686628     3.678985     3.671341     3.663698     3.656055     3.648412     3.640769     3.633125     3.625482
      3.617839     3.610196     3.602552     3.594909     3.587266     3.579623     3.571980     3.564336     3.556693     3.549050
      3.541407     3.533763     3.526120     3.518477     3.510834     3.503191     3.495547     3.487904     3.480261     3.472618
      3.464974     3.457331     3.449688     3.442045     3.434402     3.426758     3.419115     3.411472     3.403829     3.396185
      3.388542     3.380899     3.373256     3.365613     3.357969     3.350326     3.342683     3.335040     3.327396     3.319753
      3.312110     3.304467     3.296824     3.289180     3.281537     3.273894     3.266251     3.258607     3.250964     3.243321
      3.235678     3.228034     3.220391     3.212748     3.205105     3.197462     3.189818     3.182175     3.174532     3.166889
      3.159245     3.151602     3.143959     3.136316     3.128673     3.121029     3.113386     3.105743     3.098100     3.090456
      3.082813     3.075170     3.067527     3.059884     3.052240     3.044597     3.036954     3.029311     3.021667     3.014024
      3.006381     2.998738     2.991095     2.983451     2.975808     2.968165     2.960522     2.952878     2.945235     2.937592
      2.929949     2.922306     2.914662     2.907019     2.899376     2.891733     2.884089     2.876446     2.868803     2.861160
      2.853517     2.845873     2.838230     2.830587     2.822944     2.815300     2.807657     2.800014     2.792371     2.784728
      2.777084     2.769441     2.761798     2.754155     2.746511     2.738868     2.731225     2.723582     2.715939     2.708295
      2.700652     2.693009     2.685366     2.677722     2.670079     2.662436     2.654793     2.647150     2.639506     2.631863
      2.624220     2.616577     2.608933     2.601290     2.593647     2.586004     2.578361     2.570717     2.563074     2.555431
      2.547788     2.540144     2.532501     2.524858     2.517215     2.509572     2.501928     2.494285     2.486642     2.478999
      2.471355     2.463712     2.456069     2.448426     2.440783     2.433139     2.425496     2.417853     2.410210     2.402566
      2.394923     2.387280     2.379637     2.371994     2.364350     2.356707     2.349064     2.341421     2.333777     2.326134
      2.318491     2.310848     2.303205     2.295561     2.287918     2.280275     2.272632     2.264988     2.257345     2.249702
      2.242059     2.234416     2.226772     2.219129     2.211486     2.203843     2.196199     2.188556     2.180913     2.173270
      2.165627     2.157983     2.150340     2.142697     2.135054     2.127410     2.119767     2.112124     2.104481     2.096838
      2.089194     2.081551     2.073908     2.066265     2.058621     2.050978     2.043335     2.035692     2.028049     2.020405
      2.012762     2.005119     1.997476     1.989833     1.982190     1.974546     1.966903     1.959260     1.951617     1.943974
      1.936331     1.928688     1.921045     1.913402     1.905759     1.898115     1.890472     1.882829     1.875186     1.867543
      1.859900     1.852257     1.844614     1.836971     1.829327     1.821684     1.814041     1.806398     1.798755     1.791112
      1.783469     1.775826     1.768183     1.760540     1.752896     1.745253     1.737610     1.729967     1.722324     1.714681
      1.707038     1.699395     1.691752     1.684108     1.676465     1.668822     1.661179     1.653536     1.645893     1.638250
      1.630607     1.622964     1.615321     1.607677     1.600034     1.592391     1.584748     1.577105     1.569462     1.561819
      1.554176     1.546533     1.538890     1.531246     1.523603     1.515960     1.508317     1.500674     1.493031     1.485388
      1.477745     1.470102     1.462458     1.454815     1.447172     1.439529     1.431886     1.424243     1.416600     1.408957
      1.401314     1.393671     1.386027     1.378384     1.370741     1.363098     1.355455     1.347812     1.340169     1.332526
      1.324883     1.317240     1.309596     1.301953     1.294310     1.286667     1.279024     1.271381     1.263738     1.256095
      1.248452     1.240808     1.233165     1.225522     1.217879     1.210236     1.202593     1.194950     1.187307     1.179664
      1.172021     1.164377     1.156734     1.149091     1.141448     1.133805     1.126162     1.118519     1.110876     1.103233
      1.095590     1.087946     1.080303     1.072660     1.065017     1.057374     1.049731     1.042088     1.034445     1.026802
      1.019158     1.011515     1.003872     0.996229     0.988586     0.980943     0.973300     0.965657     0.958014     0.950371
      0.942727     0.935084     0.927441     0.919798     0.912155     0.904512     0.896869     0.889226     0.881583     0.873940
      0.866296     0.858653     0.851010     0.843367     0.835724     0.828081     0.820438     0.812795     0.805152     0.797508
      0.789865     0.782222     0.774579     0.766936     0.759293     0.751650     0.744007     0.736364     0.728721     0.721077
      0.713434     0.705791     0.698148     0.690505     0.682862     0.675219     0.667576     0.659933     0.652290     0.644646
      0.637003     0.629360     0.621717     0.614074     0.606431     0.598788     0.591145     0.583502     0.575858     0.568215
      0.560572     0.552929     0.545286     0.537643     0.530000     0.522357     0.514714     0.507071     0.499427     0.491784
      0.484141     0.476498     0.468855     0.461212     0.453569     0.445925     0.438282     0.430639     0.422996     0.415353
      0.407710     0.400067     0.392424     0.384780     0.377137     0.369494     0.361851     0.354208     0.346565     0.338922
      0.331278     0.323635     0.315992     0.308349     0.300706     0.293063     0.285420     0.277777     0.270133     0.262490
      0.254847     0.247204     0.239561     0.231918     0.224275     0.216631     0.208988     0.201345
 NY phased data points follow
   1.30083E+01  1.61868E+01  1.18488E+01  1.27830E+01  1.55572E+01  1.55723E+01  1.99468E+01  2.63411E+01  2.64751E+01  3.23137E+01
   3.70685E+01  3.73262E+01  3.34694E+01  3.00785E+01  2.90961E+01  2.36221E+01  2.12947E+01  1.81146E+01  1.61301E+01  1.33796E+01
   1.43913E+01  1.44640E+01  1.47638E+01  1.85206E+01  1.68330E+01  1.50788E+01  1.67030E+01  1.71270E+01  1.72193E+01  1.89177E+01
   1.91480E+01  2.02672E+01  2.14123E+01  2.11105E+01  1.90248E+01  1.79083E+01  1.71716E+01  1.60972E+01  1.59661E+01  1.42026E+01
   1.55687E+01  1.40487E+01  1.55054E+01  1.64512E+01  2.01404E+01  1.99454E+01  2.00032E+01  2.05283E+01  2.18030E+01  2.00800E+01
   1.79359E+01  1.35400E+01  1.09501E+01  1.24436E+01  1.28154E+01  1.23928E+01  1.45415E+01  1.13535E+01  1.31211E+01  1.04929E+01
   1.04349E+01  9.15863E+00  5.62503E+00  8.42319E+00  5.20717E+00  3.16820E+00  5.19032E+00  4.63261E+00  5.66479E+00  2.14356E+00
   7.32659E+00  5.31821E+00  7.14175E+00  4.50994E+00  6.70161E+00  7.87672E+00  5.55216E+00  8.60112E+00  6.71332E+00  6.13422E+00
   6.04286E+00  8.02731E+00  6.32924E+00  5.72613E+00  4.64482E+00  8.64351E+00  7.51578E+00  5.66009E+00  6.09524E+00  8.90595E+00
   5.47140E+00  7.48093E+00  9.71435E+00  6.35626E+00  8.66007E+00  9.43636E+00  8.40609E+00  8.58780E+00  1.27435E+01  1.51308E+01
   2.32562E+01  2.97972E+01  3.43459E+01  3.94729E+01  3.80330E+01  3.21252E+01  2.83414E+01  1.89159E+01  1.81981E+01  1.19845E+01
   9.49326E+00  9.72791E+00  9.10613E+00  6.39482E+00  8.25750E+00  5.59846E+00  8.23730E+00  1.07513E+01  9.34527E+00  9.72733E+00
   9.02890E+00  5.93758E+00  1.13549E+01  1.45319E+01  2.47909E+01  3.50510E+01  4.08981E+01  4.42095E+01  4.51086E+01  3.82176E+01
   3.34984E+01  2.42833E+01  2.00935E+01  1.60436E+01  1.02228E+01  9.08574E+00  6.12050E+00  5.21510E+00  4.91529E+00  4.78504E+00
   4.45344E+00  1.07380E+00  6.07131E+00  4.55668E+00  5.03485E+00  5.67618E+00  5.81389E+00  4.46127E+00  4.27155E+00  6.24156E+00
   3.90818E+00  5.48710E+00  7.09493E+00  7.74059E-01  3.64251E+00  3.88725E+00  3.17192E+00  3.76854E+00  2.93366E+00  4.70467E+00
   2.74270E+00  2.24440E+00 -1.69873E+00 -1.31010E-01 -2.85768E-02 -4.07311E-01 -1.38009E-01  3.34917E+00 -5.02419E-01 -4.79047E-01
  -2.65583E+00 -2.83900E+00 -4.62338E+00 -6.97394E+00 -7.08491E+00 -7.35276E+00 -8.06524E+00 -4.19208E+00 -4.15303E+00 -4.29984E+00
  -6.99968E+00 -1.35415E+00 -6.82749E+00 -6.58095E+00 -6.80497E+00 -7.48208E+00 -5.72011E+00 -4.93765E+00 -3.90156E+00 -1.90731E-01
   4.73716E+00  3.55928E+00  1.85257E+00  3.63344E+00  6.10329E+00  4.47854E+00  1.31387E+00 -4.78720E+00 -2.01210E+00 -1.57056E+00
   1.39457E-01  1.25746E+00  1.07169E+00  4.75227E+00  3.60538E+00  4.31031E+00  2.30808E+00  9.45782E-01 -4.87465E-01 -1.29220E+00
  -2.29436E+00  1.12800E+00  2.34100E+00  6.15433E+00  4.49904E+00  9.58582E+00  1.35942E+01  1.08044E+01  4.06139E+00  4.31476E+00
   3.07654E+00 -1.68173E+00 -1.00470E+00 -6.41419E-02  1.18393E+00  2.97774E+00  3.87305E+00  3.20358E+00  6.36773E+00  7.02226E+00
   6.42871E+00  5.89204E+00  9.78197E+00  6.70391E+00  5.88703E+00  6.72769E+00  5.65038E+00  8.11773E+00  4.19648E+00  7.21605E+00
   3.83486E+00  2.40772E+00  4.79663E+00  4.33456E+00  6.21786E+00  1.00862E+01  9.90365E+00  1.18738E+01  1.17348E+01  1.19334E+01
   1.40823E+01  1.35916E+01  1.46553E+01  1.89379E+01  2.00844E+01  2.35376E+01  3.20723E+01  4.17639E+01  5.72243E+01  6.80078E+01
   7.61612E+01  6.80637E+01  5.71095E+01  4.02736E+01  3.32700E+01  2.20226E+01  1.82334E+01  1.45447E+01  1.02669E+01  6.98659E+00
   1.65823E+00  5.14828E+00  2.84789E+00  2.72511E+00  3.80469E+00  6.56759E+00  7.66591E+00  7.49468E+00  5.73987E+00  5.99965E+00
   4.10846E+00  5.57613E+00  5.71336E+00  4.93668E+00  2.39479E+00  2.51870E+00  4.16789E+00  6.39104E+00  4.14239E+00  5.99458E+00
   4.14485E+00  4.16334E+00  6.82665E+00  5.88079E+00  3.76024E+00  4.98609E+00  7.37504E+00  3.82192E+00  5.50651E+00  3.32936E+00
   7.71729E+00  7.70411E+00  7.69033E+00  9.39509E+00  5.30192E+00  6.46943E+00  9.51223E+00  7.31192E+00  8.12997E+00  1.07240E+01
   6.82247E+00  7.07181E+00  8.53894E+00  8.29009E+00  1.12583E+01  1.00050E+01  5.61194E+00  9.39875E+00  8.04570E+00  9.07162E+00
   8.21082E+00  6.08610E+00  7.95363E+00  4.49023E+00  4.33654E+00  6.81552E+00  6.69574E+00  7.40970E+00  7.54167E+00  1.04985E+01
   6.06019E+00  7.79249E+00  8.50145E+00  7.46927E+00  7.66666E+00  9.92966E+00  1.00324E+01  5.66556E+00  8.41414E+00  8.99666E+00
   6.57793E+00  1.15806E+01  7.89526E+00  1.09543E+01  7.00925E+00  8.10110E+00  6.59329E+00  8.98708E+00  7.21731E+00  5.29199E+00
   5.07992E+00  5.55488E+00  5.80197E+00  7.68901E+00  6.62792E+00  6.52266E+00  5.50741E+00  4.21581E+00  6.17606E+00  6.69848E+00
   6.93590E+00  5.16008E+00  2.19704E+00  4.57020E+00  5.25862E+00  7.95693E+00  6.88829E+00  8.16972E+00  7.01279E+00  6.14225E+00
   6.73275E+00  6.03048E+00  7.91056E+00  5.56342E+00  5.45286E+00  5.11778E+00  4.82552E+00  5.03249E+00  4.48753E+00  3.94457E+00
   4.84713E+00  5.05500E+00  4.78224E+00  7.38316E+00  3.17482E+00  4.11372E+00  2.04483E+00  6.08806E+00  6.70054E+00  8.92029E+00
   3.36308E+00  5.22481E+00  6.17412E+00  7.28327E+00  5.55458E+00  5.41596E+00  5.15154E+00  7.91795E+00  7.67063E+00  6.61905E+00
   5.23053E+00  7.90039E+00  4.57205E+00  6.50800E+00  4.29504E+00  3.79387E+00  5.92954E+00  3.35482E+00  2.52788E+00  5.92661E+00
   4.88334E+00  4.42894E+00  5.44449E+00  6.08765E+00  5.13879E+00  6.33539E+00  7.05909E+00  4.31142E+00  6.45411E+00  2.36677E+00
   6.23956E+00  1.07487E+00  2.61847E+00  2.33221E+00  3.68109E+00  1.70949E+00  1.97435E+00  3.67200E+00  4.33797E+00  4.53950E+00
   1.42319E+00  3.22750E+00  4.20348E+00  8.48482E-01  4.26653E+00  3.65111E-01  3.71585E+00  2.01749E+00  4.28743E+00  5.97215E-01
  -7.07617E-02  5.46634E-01  1.04505E+00  3.33218E+00  2.06602E+00  1.58266E+00 -2.69701E-01  9.33372E-01  4.73894E-01  1.67790E+00
   2.15627E+00  5.63280E-01  2.80123E+00 -1.13809E+00  4.02062E+00  2.63172E+00  1.59189E+00 -6.93086E-01 -1.12438E+00 -2.34441E+00
   2.01755E+00  1.32740E+00  4.49814E-01 -1.95995E+00  1.52138E+00  2.65040E+00  7.37603E-02 -8.87039E-01  3.67637E+00  3.55542E+00
   1.27479E+00  1.18151E+00 -1.22295E-01  2.42619E+00  3.13475E+00  1.90871E+00  1.04679E+00  1.98945E-01 -1.37289E+00  4.23245E-01
   3.54521E-01  1.99645E+00  2.01728E+00 -1.03675E+00  1.74573E+00 -1.42827E-01  3.28333E-01 -2.21641E+00  3.01765E+00  4.91023E-01
   2.00832E+00  9.42741E-01  2.19281E+00  2.17306E+00  1.81569E+00 -1.91514E+00  7.65091E-01 -4.79505E-01
 NY points of the fit to the data follow
   1.37815E+01  1.35054E+01  1.34583E+01  1.38391E+01  1.48946E+01  1.67761E+01  1.98663E+01  2.39255E+01  2.85094E+01  3.28433E+01
   3.58041E+01  3.65348E+01  3.48713E+01  3.14704E+01  2.74726E+01  2.37741E+01  2.07081E+01  1.83371E+01  1.64768E+01  1.49930E+01
   1.42785E+01  1.39125E+01  1.35577E+01  1.31552E+01  1.29728E+01  1.32001E+01  1.39037E+01  1.53337E+01  1.74752E+01  1.99119E+01
   2.19064E+01  2.28518E+01  2.25570E+01  2.12263E+01  1.93292E+01  1.72625E+01  1.51165E+01  1.30488E+01  1.16405E+01  1.11024E+01
   1.11708E+01  1.18068E+01  1.28922E+01  1.43397E+01  1.60142E+01  1.77135E+01  1.89711E+01  1.91752E+01  1.81676E+01  1.63337E+01
   1.42899E+01  1.25766E+01  1.13601E+01  1.05012E+01  9.94626E+00  9.88547E+00  1.03111E+01  1.09363E+01  1.15135E+01  1.18499E+01
   1.17710E+01  1.12532E+01  1.04315E+01  9.58045E+00  8.94207E+00  8.60513E+00  8.54554E+00  8.71088E+00  9.01388E+00  9.36646E+00
   9.67769E+00  9.84190E+00  9.80475E+00  9.57558E+00  9.22954E+00  8.87987E+00  8.58267E+00  8.34837E+00  8.13232E+00  7.94564E+00
   7.84625E+00  7.83309E+00  7.84116E+00  7.84921E+00  7.81307E+00  7.62816E+00  7.22740E+00  6.66540E+00  6.11921E+00  5.78452E+00
   5.76369E+00  5.97941E+00  6.26425E+00  6.48179E+00  6.60178E+00  6.68569E+00  6.88302E+00  8.07534E+00  1.09386E+01  1.56187E+01
   2.23397E+01  3.01639E+01  3.68563E+01  4.00044E+01  3.84966E+01  3.33070E+01  2.67395E+01  2.08022E+01  1.61986E+01  1.24472E+01
   9.04950E+00  6.83618E+00  6.11280E+00  5.87310E+00  5.76415E+00  5.70406E+00  5.66897E+00  5.64732E+00  5.65823E+00  5.77207E+00
   6.22022E+00  7.87967E+00  1.14622E+01  1.69408E+01  2.45666E+01  3.34756E+01  4.12989E+01  4.53670E+01  4.42669E+01  3.89036E+01
   3.18186E+01  2.52771E+01  2.00119E+01  1.53757E+01  1.07024E+01  6.97393E+00  5.16391E+00  4.40153E+00  4.34463E+00  4.77411E+00
   5.36366E+00  5.84985E+00  6.13131E+00  6.14193E+00  5.91070E+00  5.55887E+00  5.16320E+00  4.75608E+00  4.37086E+00  3.98347E+00
   3.64264E+00  3.34279E+00  3.08168E+00  2.88619E+00  2.76095E+00  2.64465E+00  2.49970E+00  2.26623E+00  1.90321E+00  1.49602E+00
   1.16652E+00  1.07306E+00  1.25114E+00  1.50977E+00  1.59110E+00  1.35669E+00  8.72872E-01  3.61126E-01 -2.14468E-02 -3.36917E-01
  -6.67042E-01 -1.05538E+00 -1.47388E+00 -1.85083E+00 -2.16316E+00 -2.34408E+00 -2.29592E+00 -2.08198E+00 -1.90650E+00 -1.90641E+00
  -2.05053E+00 -2.20686E+00 -2.22799E+00 -2.15032E+00 -2.10482E+00 -1.97078E+00 -1.43289E+00 -3.73565E-01  1.05388E+00  2.44978E+00
   3.48960E+00  4.01485E+00  3.97592E+00  3.51922E+00  2.81142E+00  1.94299E+00  1.15668E+00  7.12967E-01  7.80968E-01  1.39445E+00
   2.44277E+00  3.66164E+00  4.69263E+00  5.31648E+00  5.35938E+00  4.78992E+00  3.59595E+00  1.95564E+00  2.96108E-01 -9.99064E-01
  -1.59752E+00 -1.17927E+00  2.41169E-01  2.45623E+00  5.00184E+00  7.10941E+00  7.97660E+00  7.21998E+00  5.01763E+00  2.10333E+00
  -7.39276E-01 -2.95537E+00 -3.99556E+00 -3.60095E+00 -1.89127E+00  6.23656E-01  2.94104E+00  4.55650E+00  5.43820E+00  5.79074E+00
   5.81390E+00  5.66339E+00  5.65980E+00  6.07659E+00  6.83982E+00  7.68660E+00  8.37811E+00  8.66208E+00  8.42836E+00  7.73774E+00
   6.80379E+00  6.01748E+00  5.76781E+00  6.21040E+00  7.18715E+00  8.42289E+00  9.62031E+00  1.04884E+01  1.09382E+01  1.11453E+01
   1.14941E+01  1.21378E+01  1.32446E+01  1.51354E+01  1.91136E+01  2.54974E+01  3.38931E+01  4.49193E+01  5.73833E+01  6.77305E+01
   7.18648E+01  6.78044E+01  5.74023E+01  4.49341E+01  3.41236E+01  2.59138E+01  1.90910E+01  1.25750E+01  8.27428E+00  6.75269E+00
   5.98280E+00  5.49173E+00  5.21910E+00  5.12547E+00  5.07476E+00  4.98404E+00  4.82862E+00  4.60682E+00  4.34166E+00  4.07441E+00
   3.82770E+00  3.61426E+00  3.46332E+00  3.38872E+00  3.37390E+00  3.39761E+00  3.44916E+00  3.52907E+00  3.64271E+00  3.78671E+00
   3.96252E+00  4.17491E+00  4.41780E+00  4.68215E+00  4.96505E+00  5.26294E+00  5.57179E+00  5.88816E+00  6.20815E+00  6.52693E+00
   6.84023E+00  7.14020E+00  7.41646E+00  7.66035E+00  7.86531E+00  8.02716E+00  8.14315E+00  8.21157E+00  8.23502E+00  8.21738E+00
   8.16285E+00  8.07688E+00  7.96648E+00  7.83930E+00  7.70349E+00  7.56715E+00  7.43780E+00  7.32230E+00  7.22683E+00  7.15707E+00
   7.11852E+00  7.11663E+00  7.14850E+00  7.20812E+00  7.28851E+00  7.37418E+00  7.44831E+00  7.50275E+00  7.54271E+00  7.58836E+00
   7.65801E+00  7.75435E+00  7.87466E+00  8.01178E+00  8.15449E+00  8.28895E+00  8.38798E+00  8.43284E+00  8.43062E+00  8.39935E+00
   8.35988E+00  8.33193E+00  8.30378E+00  8.26440E+00  8.20766E+00  8.08435E+00  7.84221E+00  7.46629E+00  7.00133E+00  6.55849E+00
   6.22608E+00  6.04290E+00  6.01689E+00  6.11924E+00  6.30024E+00  6.50651E+00  6.64672E+00  6.66480E+00  6.59314E+00  6.48327E+00
   6.36520E+00  6.23379E+00  6.07449E+00  5.92258E+00  5.79182E+00  5.66777E+00  5.54427E+00  5.41928E+00  5.29249E+00  5.16477E+00
   5.03758E+00  4.91277E+00  4.79234E+00  4.67854E+00  4.57378E+00  4.48066E+00  4.40156E+00  4.33869E+00  4.29393E+00  4.26902E+00
   4.26549E+00  4.28462E+00  4.32716E+00  4.39339E+00  4.48309E+00  4.59573E+00  4.73031E+00  4.88535E+00  5.05861E+00  5.24731E+00
   5.44813E+00  5.65740E+00  5.87099E+00  6.08435E+00  6.29249E+00  6.49032E+00  6.67276E+00  6.83505E+00  6.97268E+00  7.08159E+00
   7.15823E+00  7.19992E+00  7.20493E+00  7.17259E+00  7.10308E+00  6.99751E+00  6.85779E+00  6.68677E+00  6.48802E+00  6.26565E+00
   6.02399E+00  5.76750E+00  5.50062E+00  5.22779E+00  4.95318E+00  4.68059E+00  4.41321E+00  4.15372E+00  3.90430E+00  3.66676E+00
   3.44238E+00  3.23198E+00  3.03581E+00  2.85388E+00  2.68594E+00  2.53163E+00  2.39038E+00  2.26142E+00  2.14383E+00  2.03677E+00
   1.93943E+00  1.85108E+00  1.77093E+00  1.69818E+00  1.63203E+00  1.57186E+00  1.51714E+00  1.46742E+00  1.42216E+00  1.38089E+00
   1.34312E+00  1.30860E+00  1.27705E+00  1.24827E+00  1.22191E+00  1.19770E+00  1.17541E+00  1.15497E+00  1.13624E+00  1.11910E+00
   1.10333E+00  1.08877E+00  1.07533E+00  1.06304E+00  1.05180E+00  1.04154E+00  1.03207E+00  1.02335E+00  1.01535E+00  1.00811E+00
   1.00156E+00  9.95603E-01  9.90127E-01  9.85142E-01  9.80659E-01  9.76722E-01  9.73236E-01  9.70128E-01  9.67318E-01  9.64865E-01
   9.62791E-01  9.61115E-01  9.59733E-01  9.58596E-01  9.57671E-01  9.57041E-01  9.56713E-01  9.56679E-01  9.56824E-01  9.57134E-01
   9.57611E-01  9.58346E-01  9.59322E-01  9.60506E-01  9.61801E-01  9.63228E-01  9.64816E-01  9.66643E-01  9.68661E-01  9.70829E-01
   9.73072E-01  9.75449E-01  9.77999E-01  9.80777E-01  9.83712E-01  9.86769E-01  9.89912E-01  9.93228E-01
 NY background values follow
     1.143E+01    1.136E+01    1.129E+01    1.122E+01    1.115E+01    1.108E+01    1.101E+01    1.094E+01    1.087E+01    1.080E+01
     1.073E+01    1.067E+01    1.060E+01    1.053E+01    1.046E+01    1.039E+01    1.032E+01    1.025E+01    1.018E+01    1.011E+01
     1.004E+01    9.968E+00    9.898E+00    9.828E+00    9.759E+00    9.689E+00    9.619E+00    9.550E+00    9.480E+00    9.410E+00
     9.341E+00    9.271E+00    9.202E+00    9.132E+00    9.063E+00    8.994E+00    8.924E+00    8.855E+00    8.786E+00    8.716E+00
     8.647E+00    8.578E+00    8.509E+00    8.440E+00    8.371E+00    8.302E+00    8.233E+00    8.164E+00    8.096E+00    8.027E+00
     7.958E+00    7.890E+00    7.821E+00    7.753E+00    7.685E+00    7.616E+00    7.548E+00    7.480E+00    7.412E+00    7.345E+00
     7.277E+00    7.209E+00    7.142E+00    7.074E+00    7.007E+00    6.940E+00    6.873E+00    6.806E+00    6.740E+00    6.673E+00
     6.607E+00    6.541E+00    6.474E+00    6.409E+00    6.343E+00    6.277E+00    6.212E+00    6.147E+00    6.081E+00    6.017E+00
     5.952E+00    5.887E+00    5.823E+00    5.759E+00    5.695E+00    5.631E+00    5.568E+00    5.504E+00    5.441E+00    5.379E+00
     5.316E+00    5.254E+00    5.191E+00    5.129E+00    5.068E+00    5.006E+00    4.945E+00    4.884E+00    4.823E+00    4.763E+00
     4.702E+00    4.642E+00    4.583E+00    4.523E+00    4.464E+00    4.405E+00    4.346E+00    4.288E+00    4.229E+00    4.171E+00
     4.113E+00    4.056E+00    3.999E+00    3.942E+00    3.885E+00    3.829E+00    3.772E+00    3.717E+00    3.661E+00    3.605E+00
     3.550E+00    3.496E+00    3.441E+00    3.387E+00    3.333E+00    3.279E+00    3.226E+00    3.173E+00    3.120E+00    3.067E+00
     3.015E+00    2.963E+00    2.911E+00    2.860E+00    2.809E+00    2.758E+00    2.707E+00    2.657E+00    2.607E+00    2.558E+00
     2.508E+00    2.459E+00    2.411E+00    2.362E+00    2.315E+00    2.267E+00    2.220E+00    2.173E+00    2.126E+00    2.080E+00
     2.034E+00    1.989E+00    1.944E+00    1.899E+00    1.855E+00    1.811E+00    1.767E+00    1.724E+00    1.681E+00    1.639E+00
     1.597E+00    1.556E+00    1.515E+00    1.474E+00    1.434E+00    1.394E+00    1.355E+00    1.316E+00    1.278E+00    1.240E+00
     1.202E+00    1.166E+00    1.129E+00    1.093E+00    1.058E+00    1.023E+00    9.881E-01    9.542E-01    9.207E-01    8.877E-01
     8.553E-01    8.234E-01    7.920E-01    7.611E-01    7.308E-01    7.009E-01    6.716E-01    6.428E-01    6.145E-01    5.866E-01
     5.593E-01    5.324E-01    5.060E-01    4.801E-01    4.547E-01    4.297E-01    4.052E-01    3.812E-01    3.576E-01    3.344E-01
     3.117E-01    2.894E-01    2.676E-01    2.461E-01    2.251E-01    2.045E-01    1.844E-01    1.646E-01    1.452E-01    1.262E-01
     1.077E-01    8.946E-02    7.164E-02    5.421E-02    3.714E-02    2.045E-02    4.112E-03   -1.186E-02   -2.749E-02   -4.276E-02
    -5.770E-02   -7.229E-02   -8.655E-02   -1.005E-01   -1.141E-01   -1.274E-01   -1.404E-01   -1.530E-01   -1.654E-01   -1.774E-01
    -1.892E-01   -2.006E-01   -2.118E-01   -2.227E-01   -2.333E-01   -2.435E-01   -2.536E-01   -2.633E-01   -2.727E-01   -2.819E-01
    -2.908E-01   -2.994E-01   -3.078E-01   -3.159E-01   -3.238E-01   -3.313E-01   -3.387E-01   -3.458E-01   -3.526E-01   -3.592E-01
    -3.655E-01   -3.716E-01   -3.775E-01   -3.831E-01   -3.885E-01   -3.936E-01   -3.986E-01   -4.033E-01   -4.078E-01   -4.121E-01
    -4.161E-01   -4.200E-01   -4.236E-01   -4.270E-01   -4.303E-01   -4.333E-01   -4.361E-01   -4.388E-01   -4.412E-01   -4.434E-01
    -4.455E-01   -4.474E-01   -4.491E-01   -4.506E-01   -4.520E-01   -4.531E-01   -4.541E-01   -4.550E-01   -4.556E-01   -4.561E-01
    -4.565E-01   -4.566E-01   -4.567E-01   -4.565E-01   -4.562E-01   -4.558E-01   -4.552E-01   -4.544E-01   -4.536E-01   -4.525E-01
    -4.514E-01   -4.501E-01   -4.486E-01   -4.470E-01   -4.453E-01   -4.435E-01   -4.415E-01   -4.394E-01   -4.372E-01   -4.349E-01
    -4.324E-01   -4.299E-01   -4.272E-01   -4.244E-01   -4.215E-01   -4.185E-01   -4.153E-01   -4.121E-01   -4.088E-01   -4.054E-01
    -4.019E-01   -3.983E-01   -3.946E-01   -3.908E-01   -3.869E-01   -3.830E-01   -3.789E-01   -3.748E-01   -3.706E-01   -3.663E-01
    -3.620E-01   -3.575E-01   -3.530E-01   -3.485E-01   -3.438E-01   -3.391E-01   -3.343E-01   -3.294E-01   -3.245E-01   -3.195E-01
    -3.145E-01   -3.094E-01   -3.042E-01   -2.990E-01   -2.937E-01   -2.883E-01   -2.829E-01   -2.774E-01   -2.719E-01   -2.663E-01
    -2.607E-01   -2.550E-01   -2.493E-01   -2.435E-01   -2.377E-01   -2.318E-01   -2.259E-01   -2.199E-01   -2.139E-01   -2.079E-01
    -2.018E-01   -1.957E-01   -1.895E-01   -1.833E-01   -1.771E-01   -1.708E-01   -1.645E-01   -1.581E-01   -1.518E-01   -1.454E-01
    -1.390E-01   -1.325E-01   -1.260E-01   -1.195E-01   -1.130E-01   -1.065E-01   -9.988E-02   -9.329E-02   -8.666E-02   -8.002E-02
    -7.336E-02   -6.667E-02   -5.996E-02   -5.323E-02   -4.648E-02   -3.971E-02   -3.291E-02   -2.610E-02   -1.927E-02   -1.242E-02
    -5.557E-03    1.329E-03    8.233E-03    1.515E-02    2.209E-02    2.904E-02    3.602E-02    4.300E-02    5.000E-02    5.702E-02
     6.405E-02    7.109E-02    7.815E-02    8.523E-02    9.231E-02    9.941E-02    1.065E-01    1.136E-01    1.208E-01    1.279E-01
     1.351E-01    1.422E-01    1.494E-01    1.566E-01    1.638E-01    1.710E-01    1.782E-01    1.854E-01    1.927E-01    1.999E-01
     2.071E-01    2.144E-01    2.216E-01    2.289E-01    2.361E-01    2.434E-01    2.507E-01    2.579E-01    2.652E-01    2.724E-01
     2.797E-01    2.870E-01    2.942E-01    3.015E-01    3.088E-01    3.160E-01    3.233E-01    3.305E-01    3.377E-01    3.450E-01
     3.522E-01    3.594E-01    3.666E-01    3.738E-01    3.810E-01    3.882E-01    3.953E-01    4.025E-01    4.096E-01    4.168E-01
     4.239E-01    4.310E-01    4.381E-01    4.451E-01    4.522E-01    4.592E-01    4.662E-01    4.732E-01    4.802E-01    4.872E-01
     4.941E-01    5.011E-01    5.080E-01    5.148E-01    5.217E-01    5.285E-01    5.353E-01    5.421E-01    5.489E-01    5.557E-01
     5.624E-01    5.691E-01    5.758E-01    5.825E-01    5.892E-01    5.958E-01    6.025E-01    6.091E-01    6.157E-01    6.223E-01
     6.289E-01    6.355E-01    6.420E-01    6.486E-01    6.551E-01    6.617E-01    6.682E-01    6.747E-01    6.812E-01    6.877E-01
     6.942E-01    7.007E-01    7.072E-01    7.137E-01    7.202E-01    7.266E-01    7.331E-01    7.396E-01    7.460E-01    7.525E-01
     7.590E-01    7.654E-01    7.719E-01    7.784E-01    7.848E-01    7.913E-01    7.978E-01    8.042E-01
 Ala      Conc. = 1.45E+01
