 LCModel (Version 6.3-1L) Copyright: S.W. Provencher.          Ref.: Magn. Reson. Med. 30:672-679 (1993).                
 Slice#1 Row#4 Col#8  PD_05_press_1_raw_act
 36 lines in following concentration table = NCONC+1
    Conc.  %SD /Cr+PCr  Metabolite                                         
   50.606 206% 6.0E-02 Ala                                                 
    0.000 999%   0.000 Asp                                                 
  185.790 124%   0.220 Cr                                                  
  658.485  36%   0.780 PCr                                                 
    0.000 999%   0.000 GABA                                                
   15.454 700% 1.8E-02 Glc                                                 
  167.096 131%   0.198 Gln                                                 
  831.283  29%   0.985 Glu                                                 
  380.387   5%   0.451 GPC                                                 
    0.000 999%   0.000 PCh                                                 
  237.543  28%   0.281 GSH                                                 
  558.151  38%   0.661 Ins                                                 
    0.000 999%   0.000 Lac                                                 
 1.41E+03   7%   1.666 NAA                                                 
  107.188 101%   0.127 NAAG                                                
   72.165  32% 8.5E-02 Scyllo                                              
  128.982 119%   0.153 Tau                                                 
  448.731  21%   0.531 -CrCH2                                              
  380.387   5%   0.451 GPC+PCh                                             
 1.51E+03   5%   1.793 NAA+NAAG                                            
  844.276   6%   1.000 Cr+PCr                                              
  998.379  35%   1.183 Glu+Gln                                             
  656.587  61%   0.778 Lip13a                                              
   69.371 252% 8.2E-02 Lip13b                                              
  136.197 115%   0.161 Lip09                                               
 1.21E+03  17%   1.429 MM09                                                
  127.062  86%   0.150 Lip20                                               
 2.63E+03  11%   3.109 MM20                                                
  448.108  35%   0.531 MM12                                                
    0.000 999%   0.000 MM14                                                
  433.604  36%   0.514 MM17                                                
  725.958  41%   0.860 Lip13a+Lip13b                                       
 1.17E+03  21%   1.391 MM14+Lip13a+Lip13b+MM12                             
 1.34E+03  11%   1.591 MM09+Lip09                                          
 2.75E+03  11%   3.260 MM20+Lip20                                          
   6 lines in following misc. output table
  FWHM = 0.054 ppm    S/N =   8                                            
  Data shift =-0.038 ppm                                                   
  Ph: -58 deg     -22.0 deg/ppm                                            
  alphaB,S = 8.5E+01,   2.0E+02                                            
   14 spline knots.   Ns = 7(1)                                            
   2 inflections.     1 extrema                                            
  498 points on ppm-axis = NY
      4.000000     3.992357     3.984714     3.977070     3.969427     3.961784     3.954141     3.946497     3.938854     3.931211
      3.923568     3.915925     3.908281     3.900638     3.892995     3.885352     3.877708     3.870065     3.862422     3.854779
      3.847136     3.839492     3.831849     3.824206     3.816563     3.808919     3.801276     3.793633     3.785990     3.778347
      3.770703     3.763060     3.755417     3.747774     3.740130     3.732487     3.724844     3.717201     3.709558     3.701914
      3.694271     3.686628     3.678985     3.671341     3.663698     3.656055     3.648412     3.640769     3.633125     3.625482
      3.617839     3.610196     3.602552     3.594909     3.587266     3.579623     3.571980     3.564336     3.556693     3.549050
      3.541407     3.533763     3.526120     3.518477     3.510834     3.503191     3.495547     3.487904     3.480261     3.472618
      3.464974     3.457331     3.449688     3.442045     3.434402     3.426758     3.419115     3.411472     3.403829     3.396185
      3.388542     3.380899     3.373256     3.365613     3.357969     3.350326     3.342683     3.335040     3.327396     3.319753
      3.312110     3.304467     3.296824     3.289180     3.281537     3.273894     3.266251     3.258607     3.250964     3.243321
      3.235678     3.228034     3.220391     3.212748     3.205105     3.197462     3.189818     3.182175     3.174532     3.166889
      3.159245     3.151602     3.143959     3.136316     3.128673     3.121029     3.113386     3.105743     3.098100     3.090456
      3.082813     3.075170     3.067527     3.059884     3.052240     3.044597     3.036954     3.029311     3.021667     3.014024
      3.006381     2.998738     2.991095     2.983451     2.975808     2.968165     2.960522     2.952878     2.945235     2.937592
      2.929949     2.922306     2.914662     2.907019     2.899376     2.891733     2.884089     2.876446     2.868803     2.861160
      2.853517     2.845873     2.838230     2.830587     2.822944     2.815300     2.807657     2.800014     2.792371     2.784728
      2.777084     2.769441     2.761798     2.754155     2.746511     2.738868     2.731225     2.723582     2.715939     2.708295
      2.700652     2.693009     2.685366     2.677722     2.670079     2.662436     2.654793     2.647150     2.639506     2.631863
      2.624220     2.616577     2.608933     2.601290     2.593647     2.586004     2.578361     2.570717     2.563074     2.555431
      2.547788     2.540144     2.532501     2.524858     2.517215     2.509572     2.501928     2.494285     2.486642     2.478999
      2.471355     2.463712     2.456069     2.448426     2.440783     2.433139     2.425496     2.417853     2.410210     2.402566
      2.394923     2.387280     2.379637     2.371994     2.364350     2.356707     2.349064     2.341421     2.333777     2.326134
      2.318491     2.310848     2.303205     2.295561     2.287918     2.280275     2.272632     2.264988     2.257345     2.249702
      2.242059     2.234416     2.226772     2.219129     2.211486     2.203843     2.196199     2.188556     2.180913     2.173270
      2.165627     2.157983     2.150340     2.142697     2.135054     2.127410     2.119767     2.112124     2.104481     2.096838
      2.089194     2.081551     2.073908     2.066265     2.058621     2.050978     2.043335     2.035692     2.028049     2.020405
      2.012762     2.005119     1.997476     1.989833     1.982190     1.974546     1.966903     1.959260     1.951617     1.943974
      1.936331     1.928688     1.921045     1.913402     1.905759     1.898115     1.890472     1.882829     1.875186     1.867543
      1.859900     1.852257     1.844614     1.836971     1.829327     1.821684     1.814041     1.806398     1.798755     1.791112
      1.783469     1.775826     1.768183     1.760540     1.752896     1.745253     1.737610     1.729967     1.722324     1.714681
      1.707038     1.699395     1.691752     1.684108     1.676465     1.668822     1.661179     1.653536     1.645893     1.638250
      1.630607     1.622964     1.615321     1.607677     1.600034     1.592391     1.584748     1.577105     1.569462     1.561819
      1.554176     1.546533     1.538890     1.531246     1.523603     1.515960     1.508317     1.500674     1.493031     1.485388
      1.477745     1.470102     1.462458     1.454815     1.447172     1.439529     1.431886     1.424243     1.416600     1.408957
      1.401314     1.393671     1.386027     1.378384     1.370741     1.363098     1.355455     1.347812     1.340169     1.332526
      1.324883     1.317240     1.309596     1.301953     1.294310     1.286667     1.279024     1.271381     1.263738     1.256095
      1.248452     1.240808     1.233165     1.225522     1.217879     1.210236     1.202593     1.194950     1.187307     1.179664
      1.172021     1.164377     1.156734     1.149091     1.141448     1.133805     1.126162     1.118519     1.110876     1.103233
      1.095590     1.087946     1.080303     1.072660     1.065017     1.057374     1.049731     1.042088     1.034445     1.026802
      1.019158     1.011515     1.003872     0.996229     0.988586     0.980943     0.973300     0.965657     0.958014     0.950371
      0.942727     0.935084     0.927441     0.919798     0.912155     0.904512     0.896869     0.889226     0.881583     0.873940
      0.866296     0.858653     0.851010     0.843367     0.835724     0.828081     0.820438     0.812795     0.805152     0.797508
      0.789865     0.782222     0.774579     0.766936     0.759293     0.751650     0.744007     0.736364     0.728721     0.721077
      0.713434     0.705791     0.698148     0.690505     0.682862     0.675219     0.667576     0.659933     0.652290     0.644646
      0.637003     0.629360     0.621717     0.614074     0.606431     0.598788     0.591145     0.583502     0.575858     0.568215
      0.560572     0.552929     0.545286     0.537643     0.530000     0.522357     0.514714     0.507071     0.499427     0.491784
      0.484141     0.476498     0.468855     0.461212     0.453569     0.445925     0.438282     0.430639     0.422996     0.415353
      0.407710     0.400067     0.392424     0.384780     0.377137     0.369494     0.361851     0.354208     0.346565     0.338922
      0.331278     0.323635     0.315992     0.308349     0.300706     0.293063     0.285420     0.277777     0.270133     0.262490
      0.254847     0.247204     0.239561     0.231918     0.224275     0.216631     0.208988     0.201345
 NY phased data points follow
  -1.48146E+01 -1.50236E+01 -1.08151E+01 -1.18876E+01 -9.88821E+00 -5.02618E+00 -1.15058E+01 -2.12472E+00  2.30441E+00  1.43819E+00
   5.37737E+00  3.25437E+00  1.95070E+00 -5.69515E-01 -2.89283E+00 -1.79515E+00 -5.18107E+00 -1.03499E+01 -8.28791E+00 -9.61348E+00
  -1.03814E+01 -7.76721E+00 -7.31903E+00 -8.68672E+00 -1.60500E+00 -3.80579E+00 -5.48596E+00 -5.11361E+00 -3.90381E+00 -7.62979E-01
  -4.25810E+00 -8.11344E-01 -2.20607E+00 -3.39902E+00 -9.09307E+00  3.36636E-01 -7.78288E+00 -5.59888E+00 -2.11856E+00 -2.90482E+00
  -3.49681E+00  5.53943E-01 -3.90075E+00 -2.00965E+00 -2.95233E+00  3.46531E-01  1.72904E+00  2.12472E+00  1.42066E+00 -1.24048E+00
  -2.35297E+00 -1.41207E+00 -1.61738E+00 -1.93867E+00 -7.47642E+00 -3.79417E+00 -3.84820E+00 -2.56685E+00 -5.68429E+00 -7.23375E+00
  -8.78541E+00 -7.56484E+00 -7.98658E+00 -3.13743E+00 -6.71728E+00 -9.33592E+00 -1.06199E+01 -6.07334E+00 -5.49620E+00 -8.87273E+00
  -6.35640E+00 -7.28926E+00 -3.24674E+00 -5.38159E+00 -6.95787E+00 -4.18809E+00 -1.07692E+01 -4.21396E+00 -8.01315E+00 -5.43678E+00
  -6.33667E+00 -1.40162E+00 -7.57699E+00 -5.85840E+00 -2.79123E+00 -6.19389E-01 -5.55031E+00 -5.05970E+00 -4.57900E+00  1.12127E+00
  -3.35861E+00 -1.69915E+00 -3.64188E+00 -8.05841E-01 -1.21447E+00  1.77881E+00  1.97603E+00  6.04631E+00  8.39705E+00  7.75801E+00
   1.90639E+01  2.24442E+01  3.03023E+01  3.30831E+01  2.42475E+01  2.02981E+01  1.32564E+01  6.27808E+00  2.53093E+00  5.76791E+00
   7.74518E+00 -2.53482E+00 -3.78735E+00 -4.98836E+00 -3.12506E+00 -1.12764E+00 -2.83092E+00 -2.00964E+00  1.28423E+00  1.61851E+00
   2.05463E+00  8.54640E+00  5.03649E+00  6.67764E+00  1.15786E+01  2.25700E+01  2.11287E+01  2.65563E+01  2.11646E+01  1.75201E+01
   1.63730E+01  5.49519E+00  6.90069E+00  5.07337E+00  2.84148E+00  3.91697E+00 -3.07902E+00 -3.10145E+00 -6.60720E+00 -3.09929E+00
  -4.88569E+00  1.16553E+00 -1.14027E+00 -7.99455E+00  5.53780E-02 -2.24411E-01 -4.63396E+00 -1.73405E+00 -3.06383E+00  3.22674E-01
  -4.72550E+00 -4.67917E+00 -3.41341E+00  4.81368E-02 -1.92877E+00 -3.77163E+00  2.06424E+00 -5.97144E-01 -5.51889E+00 -1.48915E+00
  -7.67381E-01 -1.77374E+00 -2.76823E+00 -5.65615E+00 -7.01417E+00 -2.90023E+00 -3.13956E+00 -5.31074E+00 -6.28400E+00 -6.86277E+00
  -1.00535E+01 -1.00786E+01 -7.27766E+00 -1.09515E+01 -1.08081E+01 -7.35445E+00 -1.26399E+01 -7.89237E+00 -4.96115E+00 -8.26970E+00
  -8.43415E+00 -7.35355E+00 -1.05728E+01 -8.61792E+00 -5.64952E+00 -4.50332E+00 -5.51184E+00 -6.47446E+00 -9.29757E+00  5.51771E-01
  -2.68444E+00 -5.94209E+00 -3.84735E+00 -2.97466E+00 -8.49584E-02  2.85672E-02 -4.67091E+00 -7.05831E+00 -1.22536E+00  5.33049E-01
  -8.57038E-01 -3.91201E+00  1.69124E+00 -4.37011E-02 -1.35030E+00  2.68018E+00 -2.94967E+00  9.81585E-01  1.42518E+00  7.40423E-01
   2.62214E-01  8.07990E-01  4.76960E+00  3.15630E+00 -5.77314E-01  5.09446E+00  8.79683E+00  1.40720E+00  2.87559E-01  5.75924E+00
   2.44247E+00 -3.98104E+00 -2.31212E+00 -9.23406E-01  1.19087E-01  5.49561E-02  4.64454E+00  4.89220E+00  1.41259E+00  6.84174E+00
   6.79238E+00  3.78428E+00  1.33462E+00  9.59337E+00  4.15410E+00  4.64905E+00 -5.54287E-01  3.33204E+00  7.63899E+00  2.92398E+00
   5.70801E+00  2.10245E+00  5.77807E+00  1.72188E+00  5.47334E+00  1.40683E+00  7.20277E+00  1.13510E+01  9.06274E+00  7.46402E+00
   8.54659E+00  1.43440E+01  1.36892E+01  1.98340E+01  2.33104E+01  2.33044E+01  2.29002E+01  3.68996E+01  3.87121E+01  4.80315E+01
   5.35530E+01  5.50029E+01  4.84488E+01  4.24223E+01  3.07006E+01  2.77700E+01  1.77568E+01  1.21484E+01  6.91959E+00  9.39492E+00
   4.50087E+00  4.94324E+00  5.55017E+00  6.90248E+00  7.94607E+00  8.50432E+00  4.47934E+00  5.66679E+00  4.98633E+00  6.13835E+00
   6.22875E-01  9.63872E+00  4.76213E+00  3.58163E+00  5.97433E+00  3.15552E+00  2.35804E+00  1.85191E+00  6.19238E+00  1.25810E+00
   5.54167E+00  5.29081E+00  1.08848E+00  8.04572E-01  4.34953E+00  3.20946E+00 -3.45800E+00  3.90232E+00  1.48038E+00  8.14005E-01
  -2.88212E+00  1.10287E+00  9.58755E+00 -6.81962E-01  9.26405E-01  6.18027E+00  4.63526E+00  5.45564E+00  3.90205E+00  5.40893E+00
   7.34632E+00  3.05027E+00 -3.42665E+00  5.41450E+00  7.87754E-01  3.03642E+00  6.15896E+00  4.32501E+00  1.35889E+00  2.05532E+00
   5.52710E+00  4.91711E+00  5.80139E+00  4.61035E+00  6.50126E+00  2.78777E+00 -7.34184E-01 -2.11185E+00  7.68218E-01  7.92357E+00
   3.96244E+00  4.56439E-01  2.70444E+00  5.85850E+00 -1.95968E+00  2.08259E+00  2.13847E+00  2.21653E+00  3.44623E+00  8.62454E+00
   5.53563E+00  1.61878E+00  4.25262E+00  5.57423E-01  4.49629E+00  5.51288E+00 -3.76833E+00  8.25433E+00  7.99136E+00  7.18567E+00
   5.38086E+00  7.16469E+00  7.69748E+00  6.95736E+00  7.82618E+00  8.99830E+00  9.34163E+00  4.74097E+00  4.91772E+00  9.25307E+00
   1.01850E+01  1.09535E+01  8.32140E+00  7.58319E+00  5.38122E+00  6.77459E+00  8.74468E+00  6.12374E+00  9.96123E+00  4.64254E+00
   9.52427E+00  1.05310E+01  6.33218E+00  7.27770E+00  3.95443E+00  1.03171E+01  6.56961E+00  6.34118E+00  5.72667E+00  1.01923E+01
   5.70274E+00  8.44646E+00  1.02104E+01  7.75473E+00  8.53106E+00  3.44085E+00  7.11637E+00  8.41388E+00  1.14110E+01  1.23188E+01
   9.89165E+00  6.49326E+00  7.82671E+00  9.59412E+00  1.27620E+01  1.07575E+01  9.89807E+00  1.01341E+01  1.09795E+01  1.10758E+01
   7.96741E+00  9.48693E+00  1.58508E+01  1.03103E+01  9.77335E+00  1.73082E+01  8.29926E+00  1.00883E+01  1.36074E+01  1.01493E+01
   1.37951E+01  1.22174E+01  1.12014E+01  9.59644E+00  1.15135E+01  9.24719E+00  8.39055E+00  1.29983E+01  1.05910E+01  1.04235E+01
   1.32413E+01  6.83979E+00  7.27413E+00  4.92307E+00  9.48499E+00  6.92269E+00  4.16293E+00  3.76351E+00  6.24027E+00  2.51430E+00
   5.38709E+00  6.27605E+00  3.00932E+00  8.49148E+00  7.72711E+00  2.44005E+00  7.28912E+00  1.05519E+01  5.30410E+00  6.12457E+00
   1.13919E+01  5.64025E+00  3.53381E+00  5.65642E+00  1.17438E+00  2.91352E+00  3.22921E+00  5.19682E+00  2.31674E+00  1.05655E+00
   5.50673E+00  7.89057E+00  6.38950E+00  6.84207E+00  4.72368E+00  6.35490E+00  4.60691E+00  2.18829E+00  4.48866E+00  7.69325E+00
   5.67172E+00  1.95642E+00  1.36949E+00  7.16601E+00  4.24033E+00  4.97585E+00  6.20081E+00  4.60882E+00  4.00951E+00  5.30683E+00
   6.27900E+00  8.80251E+00  4.17439E+00  7.94066E+00  6.68035E+00  7.48473E+00  5.82438E+00  4.60292E+00  6.80946E+00  5.13962E+00
   6.54983E+00  7.84963E+00  4.57103E+00  4.80774E+00  6.26376E+00  7.11857E+00  5.81532E+00  1.60281E+00  3.91955E+00  1.26884E+00
   7.03166E+00  4.26022E+00  5.28746E+00  1.91742E-01  8.84725E+00  9.58330E+00  4.64297E+00  6.32393E+00
 NY points of the fit to the data follow
  -8.23785E+00 -8.52724E+00 -8.38809E+00 -7.77411E+00 -6.83264E+00 -5.64029E+00 -4.20634E+00 -2.50147E+00 -6.61388E-01  9.90352E-01
   2.04977E+00  2.26612E+00  1.67452E+00  5.32440E-01 -8.27605E-01 -2.16150E+00 -3.39090E+00 -4.51224E+00 -5.28349E+00 -5.75493E+00
  -6.04812E+00 -6.30826E+00 -6.52583E+00 -6.49361E+00 -6.27152E+00 -5.92028E+00 -5.37678E+00 -4.58345E+00 -3.59371E+00 -2.58745E+00
  -1.74586E+00 -1.23244E+00 -1.15946E+00 -1.52867E+00 -2.23445E+00 -3.09495E+00 -3.96619E+00 -4.79890E+00 -5.43395E+00 -5.66605E+00
  -5.51953E+00 -5.08882E+00 -4.47386E+00 -3.76480E+00 -3.04243E+00 -2.38822E+00 -1.89564E+00 -1.67765E+00 -1.81479E+00 -2.29539E+00
  -3.02322E+00 -3.83276E+00 -4.55755E+00 -5.12397E+00 -5.49356E+00 -5.65038E+00 -5.62753E+00 -5.48621E+00 -5.30648E+00 -5.16352E+00
  -5.11148E+00 -5.18452E+00 -5.36164E+00 -5.59531E+00 -5.81248E+00 -5.93988E+00 -5.96974E+00 -5.92423E+00 -5.80077E+00 -5.60727E+00
  -5.39612E+00 -5.21445E+00 -5.08993E+00 -5.03435E+00 -5.04928E+00 -5.12085E+00 -5.23825E+00 -5.39263E+00 -5.53834E+00 -5.56185E+00
  -5.35007E+00 -5.00081E+00 -4.58765E+00 -4.11124E+00 -3.59070E+00 -3.11835E+00 -2.84429E+00 -2.86989E+00 -3.18976E+00 -3.68689E+00
  -4.22803E+00 -4.69910E+00 -5.02772E+00 -5.19358E+00 -5.01960E+00 -3.57900E+00 -3.63854E-01  3.68520E+00  8.24764E+00  1.34637E+01
   1.90963E+01  2.42288E+01  2.75666E+01  2.81256E+01  2.57667E+01  2.12424E+01  1.57151E+01  1.02527E+01  5.49484E+00  1.62713E+00
  -1.26920E+00 -2.91356E+00 -3.48347E+00 -3.70372E+00 -3.80996E+00 -3.85242E+00 -3.84703E+00 -3.77874E+00 -3.57352E+00 -2.76660E+00
  -5.83589E-01  2.45481E+00  5.90744E+00  9.85256E+00  1.42564E+01  1.85717E+01  2.18483E+01  2.31917E+01  2.22026E+01  1.92449E+01
   1.51770E+01  1.08722E+01  6.92392E+00  3.54988E+00  8.02976E-01 -1.09572E+00 -1.98211E+00 -2.34891E+00 -2.45275E+00 -2.36883E+00
  -2.18548E+00 -1.99226E+00 -1.84846E+00 -1.79653E+00 -1.85948E+00 -2.01065E+00 -2.20916E+00 -2.42793E+00 -2.64239E+00 -2.83139E+00
  -2.98486E+00 -3.10020E+00 -3.18603E+00 -3.25111E+00 -3.33745E+00 -3.45458E+00 -3.57446E+00 -3.68961E+00 -3.79022E+00 -3.90364E+00
  -4.04388E+00 -4.15358E+00 -4.18192E+00 -4.14128E+00 -4.09412E+00 -4.10739E+00 -4.22113E+00 -4.42567E+00 -4.68399E+00 -4.98011E+00
  -5.30852E+00 -5.59261E+00 -5.81042E+00 -5.98630E+00 -6.14108E+00 -6.26364E+00 -6.29415E+00 -6.21002E+00 -6.07321E+00 -5.96011E+00
  -5.92174E+00 -5.91825E+00 -5.84762E+00 -5.67318E+00 -5.40206E+00 -5.03766E+00 -4.55773E+00 -3.92341E+00 -3.15990E+00 -2.36681E+00
  -1.68592E+00 -1.24959E+00 -1.06875E+00 -1.09273E+00 -1.25653E+00 -1.48428E+00 -1.69469E+00 -1.76036E+00 -1.61789E+00 -1.28887E+00
  -8.36273E-01 -3.32106E-01  1.32884E-01  4.02713E-01  4.18200E-01  1.69784E-01 -3.58710E-01 -1.07339E+00 -1.74655E+00 -2.10580E+00
  -2.09045E+00 -1.74514E+00 -1.07131E+00 -1.21056E-01  8.86214E-01  1.59437E+00  1.72963E+00  1.28719E+00  4.14767E-01 -7.33368E-01
  -1.86641E+00 -2.67318E+00 -2.93868E+00 -2.56153E+00 -1.62817E+00 -3.46244E-01  9.93393E-01  2.14458E+00  2.99275E+00  3.52981E+00
   3.85220E+00  4.05352E+00  4.21414E+00  4.43463E+00  4.75278E+00  5.10671E+00  5.37722E+00  5.52120E+00  5.56201E+00  5.53713E+00
   5.47828E+00  5.49207E+00  5.69605E+00  6.11975E+00  6.71529E+00  7.39557E+00  8.08888E+00  8.71208E+00  9.23926E+00  9.77971E+00
   1.03711E+01  1.10337E+01  1.19979E+01  1.43308E+01  1.88643E+01  2.43427E+01  3.01063E+01  3.62971E+01  4.27493E+01  4.84537E+01
   5.19013E+01  5.18721E+01  4.81314E+01  4.15784E+01  3.37308E+01  2.60262E+01  1.92942E+01  1.37759E+01  9.54854E+00  6.93709E+00
   5.84547E+00  5.29889E+00  4.93487E+00  4.67048E+00  4.44825E+00  4.23138E+00  4.01258E+00  3.78675E+00  3.55679E+00  3.33340E+00
   3.12703E+00  2.94418E+00  2.79165E+00  2.67259E+00  2.58143E+00  2.51148E+00  2.45812E+00  2.42108E+00  2.40149E+00  2.40006E+00
   2.41709E+00  2.45414E+00  2.50928E+00  2.57924E+00  2.65962E+00  2.74712E+00  2.83901E+00  2.93346E+00  3.02876E+00  3.12368E+00
   3.21653E+00  3.30587E+00  3.38872E+00  3.46184E+00  3.52198E+00  3.56707E+00  3.59577E+00  3.60778E+00  3.60311E+00  3.58320E+00
   3.54956E+00  3.50418E+00  3.44933E+00  3.38778E+00  3.32211E+00  3.25539E+00  3.19065E+00  3.13170E+00  3.08323E+00  3.05373E+00
   3.05519E+00  3.07015E+00  3.07473E+00  3.06993E+00  3.05389E+00  3.01096E+00  2.91938E+00  2.76898E+00  2.59304E+00  2.44709E+00
   2.35848E+00  2.34699E+00  2.42849E+00  2.60563E+00  2.86135E+00  3.16397E+00  3.47417E+00  3.74676E+00  3.96054E+00  4.12695E+00
   4.26621E+00  4.39727E+00  4.53154E+00  4.67719E+00  4.85016E+00  5.06007E+00  5.29874E+00  5.56116E+00  5.84370E+00  6.14211E+00
   6.45002E+00  6.75917E+00  7.05901E+00  7.33797E+00  7.58417E+00  7.78750E+00  7.94055E+00  8.04017E+00  8.08722E+00  8.08672E+00
   8.04621E+00  7.97502E+00  7.88226E+00  7.77623E+00  7.66312E+00  7.54737E+00  7.43142E+00  7.31673E+00  7.20391E+00  7.09367E+00
   6.98667E+00  6.88419E+00  6.78771E+00  6.69942E+00  6.62159E+00  6.55688E+00  6.50772E+00  6.47675E+00  6.46629E+00  6.47880E+00
   6.51632E+00  6.58093E+00  6.67418E+00  6.79763E+00  6.95229E+00  7.13910E+00  7.35830E+00  7.60980E+00  7.89261E+00  8.20529E+00
   8.54534E+00  8.90963E+00  9.29377E+00  9.69258E+00  1.00997E+01  1.05081E+01  1.09099E+01  1.12968E+01  1.16600E+01  1.19910E+01
   1.22812E+01  1.25232E+01  1.27105E+01  1.28378E+01  1.29015E+01  1.28998E+01  1.28326E+01  1.27019E+01  1.25113E+01  1.22661E+01
   1.19727E+01  1.16387E+01  1.12723E+01  1.08821E+01  1.04764E+01  1.00635E+01  9.65064E+00  9.24463E+00  8.85107E+00  8.47476E+00
   8.11918E+00  7.78699E+00  7.47968E+00  7.19816E+00  6.94238E+00  6.71194E+00  6.50571E+00  6.32246E+00  6.16051E+00  6.01831E+00
   5.89404E+00  5.78612E+00  5.69275E+00  5.61247E+00  5.54374E+00  5.48537E+00  5.43608E+00  5.39491E+00  5.36077E+00  5.33294E+00
   5.31060E+00  5.29323E+00  5.28018E+00  5.27104E+00  5.26527E+00  5.26261E+00  5.26263E+00  5.26519E+00  5.26992E+00  5.27668E+00
   5.28517E+00  5.29535E+00  5.30696E+00  5.32000E+00  5.33422E+00  5.34961E+00  5.36596E+00  5.38331E+00  5.40150E+00  5.42057E+00
   5.44032E+00  5.46079E+00  5.48183E+00  5.50354E+00  5.52575E+00  5.54854E+00  5.57173E+00  5.59542E+00  5.61946E+00  5.64397E+00
   5.66880E+00  5.69404E+00  5.71952E+00  5.74537E+00  5.77145E+00  5.79788E+00  5.82453E+00  5.85148E+00  5.87859E+00  5.90597E+00
   5.93353E+00  5.96136E+00  5.98934E+00  6.01755E+00  6.04587E+00  6.07444E+00  6.10314E+00  6.13208E+00  6.16112E+00  6.19036E+00
   6.21971E+00  6.24929E+00  6.27899E+00  6.30893E+00  6.33896E+00  6.36921E+00  6.39959E+00  6.43023E+00
 NY background values follow
    -9.500E+00   -9.469E+00   -9.437E+00   -9.405E+00   -9.373E+00   -9.341E+00   -9.309E+00   -9.277E+00   -9.246E+00   -9.214E+00
    -9.182E+00   -9.150E+00   -9.118E+00   -9.086E+00   -9.054E+00   -9.022E+00   -8.991E+00   -8.959E+00   -8.927E+00   -8.895E+00
    -8.863E+00   -8.831E+00   -8.799E+00   -8.767E+00   -8.735E+00   -8.703E+00   -8.671E+00   -8.639E+00   -8.608E+00   -8.576E+00
    -8.544E+00   -8.512E+00   -8.480E+00   -8.448E+00   -8.416E+00   -8.384E+00   -8.352E+00   -8.320E+00   -8.288E+00   -8.256E+00
    -8.224E+00   -8.192E+00   -8.160E+00   -8.128E+00   -8.096E+00   -8.064E+00   -8.032E+00   -8.000E+00   -7.968E+00   -7.936E+00
    -7.904E+00   -7.872E+00   -7.840E+00   -7.808E+00   -7.776E+00   -7.744E+00   -7.712E+00   -7.680E+00   -7.648E+00   -7.616E+00
    -7.584E+00   -7.552E+00   -7.520E+00   -7.488E+00   -7.456E+00   -7.424E+00   -7.392E+00   -7.360E+00   -7.328E+00   -7.296E+00
    -7.264E+00   -7.232E+00   -7.200E+00   -7.167E+00   -7.135E+00   -7.103E+00   -7.071E+00   -7.039E+00   -7.007E+00   -6.975E+00
    -6.943E+00   -6.911E+00   -6.879E+00   -6.847E+00   -6.815E+00   -6.783E+00   -6.750E+00   -6.718E+00   -6.686E+00   -6.654E+00
    -6.622E+00   -6.590E+00   -6.558E+00   -6.526E+00   -6.494E+00   -6.461E+00   -6.429E+00   -6.397E+00   -6.365E+00   -6.333E+00
    -6.301E+00   -6.269E+00   -6.237E+00   -6.204E+00   -6.172E+00   -6.140E+00   -6.108E+00   -6.076E+00   -6.044E+00   -6.012E+00
    -5.979E+00   -5.947E+00   -5.915E+00   -5.883E+00   -5.851E+00   -5.819E+00   -5.787E+00   -5.754E+00   -5.722E+00   -5.690E+00
    -5.658E+00   -5.626E+00   -5.594E+00   -5.561E+00   -5.529E+00   -5.497E+00   -5.465E+00   -5.433E+00   -5.400E+00   -5.368E+00
    -5.336E+00   -5.304E+00   -5.272E+00   -5.239E+00   -5.207E+00   -5.175E+00   -5.143E+00   -5.111E+00   -5.078E+00   -5.046E+00
    -5.014E+00   -4.982E+00   -4.950E+00   -4.917E+00   -4.885E+00   -4.853E+00   -4.821E+00   -4.789E+00   -4.756E+00   -4.724E+00
    -4.692E+00   -4.660E+00   -4.627E+00   -4.595E+00   -4.563E+00   -4.531E+00   -4.499E+00   -4.466E+00   -4.434E+00   -4.402E+00
    -4.370E+00   -4.337E+00   -4.305E+00   -4.273E+00   -4.241E+00   -4.208E+00   -4.176E+00   -4.144E+00   -4.112E+00   -4.079E+00
    -4.047E+00   -4.015E+00   -3.983E+00   -3.950E+00   -3.918E+00   -3.886E+00   -3.854E+00   -3.821E+00   -3.789E+00   -3.757E+00
    -3.725E+00   -3.692E+00   -3.660E+00   -3.628E+00   -3.596E+00   -3.563E+00   -3.531E+00   -3.499E+00   -3.466E+00   -3.434E+00
    -3.402E+00   -3.370E+00   -3.337E+00   -3.305E+00   -3.273E+00   -3.241E+00   -3.208E+00   -3.176E+00   -3.144E+00   -3.111E+00
    -3.079E+00   -3.047E+00   -3.015E+00   -2.982E+00   -2.950E+00   -2.918E+00   -2.885E+00   -2.853E+00   -2.821E+00   -2.789E+00
    -2.756E+00   -2.724E+00   -2.692E+00   -2.659E+00   -2.627E+00   -2.595E+00   -2.563E+00   -2.530E+00   -2.498E+00   -2.466E+00
    -2.433E+00   -2.401E+00   -2.369E+00   -2.336E+00   -2.304E+00   -2.272E+00   -2.240E+00   -2.207E+00   -2.175E+00   -2.143E+00
    -2.110E+00   -2.078E+00   -2.046E+00   -2.013E+00   -1.981E+00   -1.949E+00   -1.917E+00   -1.884E+00   -1.852E+00   -1.820E+00
    -1.787E+00   -1.755E+00   -1.723E+00   -1.690E+00   -1.658E+00   -1.626E+00   -1.594E+00   -1.561E+00   -1.529E+00   -1.497E+00
    -1.464E+00   -1.432E+00   -1.400E+00   -1.367E+00   -1.335E+00   -1.303E+00   -1.270E+00   -1.238E+00   -1.206E+00   -1.174E+00
    -1.141E+00   -1.109E+00   -1.077E+00   -1.044E+00   -1.012E+00   -9.797E-01   -9.473E-01   -9.150E-01   -8.827E-01   -8.504E-01
    -8.181E-01   -7.858E-01   -7.535E-01   -7.212E-01   -6.889E-01   -6.566E-01   -6.243E-01   -5.920E-01   -5.597E-01   -5.274E-01
    -4.951E-01   -4.627E-01   -4.304E-01   -3.981E-01   -3.658E-01   -3.335E-01   -3.012E-01   -2.689E-01   -2.366E-01   -2.043E-01
    -1.720E-01   -1.397E-01   -1.074E-01   -7.510E-02   -4.280E-02   -1.050E-02    2.180E-02    5.410E-02    8.640E-02    1.187E-01
     1.510E-01    1.833E-01    2.156E-01    2.479E-01    2.802E-01    3.125E-01    3.448E-01    3.771E-01    4.094E-01    4.417E-01
     4.739E-01    5.062E-01    5.385E-01    5.708E-01    6.031E-01    6.354E-01    6.677E-01    7.000E-01    7.323E-01    7.645E-01
     7.968E-01    8.291E-01    8.614E-01    8.937E-01    9.260E-01    9.582E-01    9.905E-01    1.023E+00    1.055E+00    1.087E+00
     1.120E+00    1.152E+00    1.184E+00    1.216E+00    1.249E+00    1.281E+00    1.313E+00    1.346E+00    1.378E+00    1.410E+00
     1.442E+00    1.475E+00    1.507E+00    1.539E+00    1.571E+00    1.604E+00    1.636E+00    1.668E+00    1.700E+00    1.733E+00
     1.765E+00    1.797E+00    1.829E+00    1.862E+00    1.894E+00    1.926E+00    1.958E+00    1.991E+00    2.023E+00    2.055E+00
     2.087E+00    2.120E+00    2.152E+00    2.184E+00    2.216E+00    2.249E+00    2.281E+00    2.313E+00    2.345E+00    2.378E+00
     2.410E+00    2.442E+00    2.474E+00    2.506E+00    2.539E+00    2.571E+00    2.603E+00    2.635E+00    2.668E+00    2.700E+00
     2.732E+00    2.764E+00    2.796E+00    2.829E+00    2.861E+00    2.893E+00    2.925E+00    2.957E+00    2.990E+00    3.022E+00
     3.054E+00    3.086E+00    3.118E+00    3.151E+00    3.183E+00    3.215E+00    3.247E+00    3.279E+00    3.312E+00    3.344E+00
     3.376E+00    3.408E+00    3.440E+00    3.472E+00    3.505E+00    3.537E+00    3.569E+00    3.601E+00    3.633E+00    3.665E+00
     3.698E+00    3.730E+00    3.762E+00    3.794E+00    3.826E+00    3.858E+00    3.891E+00    3.923E+00    3.955E+00    3.987E+00
     4.019E+00    4.051E+00    4.083E+00    4.116E+00    4.148E+00    4.180E+00    4.212E+00    4.244E+00    4.276E+00    4.308E+00
     4.340E+00    4.372E+00    4.405E+00    4.437E+00    4.469E+00    4.501E+00    4.533E+00    4.565E+00    4.597E+00    4.629E+00
     4.661E+00    4.694E+00    4.726E+00    4.758E+00    4.790E+00    4.822E+00    4.854E+00    4.886E+00    4.918E+00    4.950E+00
     4.982E+00    5.014E+00    5.046E+00    5.078E+00    5.111E+00    5.143E+00    5.175E+00    5.207E+00    5.239E+00    5.271E+00
     5.303E+00    5.335E+00    5.367E+00    5.399E+00    5.431E+00    5.463E+00    5.495E+00    5.527E+00    5.559E+00    5.591E+00
     5.623E+00    5.655E+00    5.687E+00    5.719E+00    5.751E+00    5.783E+00    5.815E+00    5.847E+00    5.879E+00    5.911E+00
     5.943E+00    5.975E+00    6.007E+00    6.039E+00    6.071E+00    6.103E+00    6.135E+00    6.167E+00    6.199E+00    6.231E+00
     6.263E+00    6.295E+00    6.327E+00    6.359E+00    6.391E+00    6.423E+00    6.455E+00    6.486E+00
 Ala      Conc. = 5.06E+01
