 LCModel (Version 6.3-1L) Copyright: S.W. Provencher.          Ref.: Magn. Reson. Med. 30:672-679 (1993).                
 Slice#3 Row#12 Col#3  PD_05_press_1_raw_act
 36 lines in following concentration table = NCONC+1
    Conc.  %SD /Cr+PCr  Metabolite                                         
 2.44E+03  37%   3.922 Ala                                                 
    0.000 999%   0.000 Asp                                                 
    0.000 999%   0.000 Cr                                                  
  621.825  18%   1.000 PCr                                                 
   25.154 500% 4.0E-02 GABA                                                
   36.777 334% 5.9E-02 Glc                                                 
 1.10E+04  10%  17.734 Gln                                                 
 6.18E+03  20%   9.934 Glu                                                 
    0.000 999%   0.000 GPC                                                 
  109.199  36%   0.176 PCh                                                 
    0.000 999%   0.000 GSH                                                 
 1.11E+03  40%   1.782 Ins                                                 
 2.59E+03  33%   4.169 Lac                                                 
    0.000 999%   0.000 NAA                                                 
    0.000 999%   0.000 NAAG                                                
   65.868  53%   0.106 Scyllo                                              
  350.452  57%   0.564 Tau                                                 
    0.000 999%   0.000 -CrCH2                                              
  109.199  36%   0.176 GPC+PCh                                             
    0.000 999%   0.000 NAA+NAAG                                            
  621.825  18%   1.000 Cr+PCr                                              
 1.72E+04  12%  27.667 Glu+Gln                                             
 3.03E+04  10%  48.731 Lip13a                                              
    0.000 999%   0.000 Lip13b                                              
 4.66E+03  18%   7.497 Lip09                                               
 2.34E+03  18%   3.757 MM09                                                
 8.70E+03   8%  13.993+Lip20                                               
 4.17E+03  16%   6.700 MM20                                                
  634.036  58%   1.020 MM12                                                
 8.66E+03  12%  13.920 MM14                                                
    0.000 999%   0.000 MM17                                                
 3.03E+04  10%  48.731 Lip13a+Lip13b                                       
 3.96E+04   7%  63.670 MM14+Lip13a+Lip13b+MM12                             
 7.00E+03  12%  11.254 MM09+Lip09                                          
 1.29E+04   5%  20.692 MM20+Lip20                                          
   6 lines in following misc. output table
  FWHM = 0.153 ppm    S/N =  16                                            
  Data shift = 0.115 ppm                                                   
  Ph:-164 deg       4.9 deg/ppm                                            
  alphaB,S = 6.0E-01,   1.0E+02                                            
    9 spline knots.   Ns = 9(2)                                            
  ( 8) 2 infls.   ( 1) 1 extrs.                                            
  498 points on ppm-axis = NY
      4.000000     3.992357     3.984714     3.977070     3.969427     3.961784     3.954141     3.946497     3.938854     3.931211
      3.923568     3.915925     3.908281     3.900638     3.892995     3.885352     3.877708     3.870065     3.862422     3.854779
      3.847136     3.839492     3.831849     3.824206     3.816563     3.808919     3.801276     3.793633     3.785990     3.778347
      3.770703     3.763060     3.755417     3.747774     3.740130     3.732487     3.724844     3.717201     3.709558     3.701914
      3.694271     3.686628     3.678985     3.671341     3.663698     3.656055     3.648412     3.640769     3.633125     3.625482
      3.617839     3.610196     3.602552     3.594909     3.587266     3.579623     3.571980     3.564336     3.556693     3.549050
      3.541407     3.533763     3.526120     3.518477     3.510834     3.503191     3.495547     3.487904     3.480261     3.472618
      3.464974     3.457331     3.449688     3.442045     3.434402     3.426758     3.419115     3.411472     3.403829     3.396185
      3.388542     3.380899     3.373256     3.365613     3.357969     3.350326     3.342683     3.335040     3.327396     3.319753
      3.312110     3.304467     3.296824     3.289180     3.281537     3.273894     3.266251     3.258607     3.250964     3.243321
      3.235678     3.228034     3.220391     3.212748     3.205105     3.197462     3.189818     3.182175     3.174532     3.166889
      3.159245     3.151602     3.143959     3.136316     3.128673     3.121029     3.113386     3.105743     3.098100     3.090456
      3.082813     3.075170     3.067527     3.059884     3.052240     3.044597     3.036954     3.029311     3.021667     3.014024
      3.006381     2.998738     2.991095     2.983451     2.975808     2.968165     2.960522     2.952878     2.945235     2.937592
      2.929949     2.922306     2.914662     2.907019     2.899376     2.891733     2.884089     2.876446     2.868803     2.861160
      2.853517     2.845873     2.838230     2.830587     2.822944     2.815300     2.807657     2.800014     2.792371     2.784728
      2.777084     2.769441     2.761798     2.754155     2.746511     2.738868     2.731225     2.723582     2.715939     2.708295
      2.700652     2.693009     2.685366     2.677722     2.670079     2.662436     2.654793     2.647150     2.639506     2.631863
      2.624220     2.616577     2.608933     2.601290     2.593647     2.586004     2.578361     2.570717     2.563074     2.555431
      2.547788     2.540144     2.532501     2.524858     2.517215     2.509572     2.501928     2.494285     2.486642     2.478999
      2.471355     2.463712     2.456069     2.448426     2.440783     2.433139     2.425496     2.417853     2.410210     2.402566
      2.394923     2.387280     2.379637     2.371994     2.364350     2.356707     2.349064     2.341421     2.333777     2.326134
      2.318491     2.310848     2.303205     2.295561     2.287918     2.280275     2.272632     2.264988     2.257345     2.249702
      2.242059     2.234416     2.226772     2.219129     2.211486     2.203843     2.196199     2.188556     2.180913     2.173270
      2.165627     2.157983     2.150340     2.142697     2.135054     2.127410     2.119767     2.112124     2.104481     2.096838
      2.089194     2.081551     2.073908     2.066265     2.058621     2.050978     2.043335     2.035692     2.028049     2.020405
      2.012762     2.005119     1.997476     1.989833     1.982190     1.974546     1.966903     1.959260     1.951617     1.943974
      1.936331     1.928688     1.921045     1.913402     1.905759     1.898115     1.890472     1.882829     1.875186     1.867543
      1.859900     1.852257     1.844614     1.836971     1.829327     1.821684     1.814041     1.806398     1.798755     1.791112
      1.783469     1.775826     1.768183     1.760540     1.752896     1.745253     1.737610     1.729967     1.722324     1.714681
      1.707038     1.699395     1.691752     1.684108     1.676465     1.668822     1.661179     1.653536     1.645893     1.638250
      1.630607     1.622964     1.615321     1.607677     1.600034     1.592391     1.584748     1.577105     1.569462     1.561819
      1.554176     1.546533     1.538890     1.531246     1.523603     1.515960     1.508317     1.500674     1.493031     1.485388
      1.477745     1.470102     1.462458     1.454815     1.447172     1.439529     1.431886     1.424243     1.416600     1.408957
      1.401314     1.393671     1.386027     1.378384     1.370741     1.363098     1.355455     1.347812     1.340169     1.332526
      1.324883     1.317240     1.309596     1.301953     1.294310     1.286667     1.279024     1.271381     1.263738     1.256095
      1.248452     1.240808     1.233165     1.225522     1.217879     1.210236     1.202593     1.194950     1.187307     1.179664
      1.172021     1.164377     1.156734     1.149091     1.141448     1.133805     1.126162     1.118519     1.110876     1.103233
      1.095590     1.087946     1.080303     1.072660     1.065017     1.057374     1.049731     1.042088     1.034445     1.026802
      1.019158     1.011515     1.003872     0.996229     0.988586     0.980943     0.973300     0.965657     0.958014     0.950371
      0.942727     0.935084     0.927441     0.919798     0.912155     0.904512     0.896869     0.889226     0.881583     0.873940
      0.866296     0.858653     0.851010     0.843367     0.835724     0.828081     0.820438     0.812795     0.805152     0.797508
      0.789865     0.782222     0.774579     0.766936     0.759293     0.751650     0.744007     0.736364     0.728721     0.721077
      0.713434     0.705791     0.698148     0.690505     0.682862     0.675219     0.667576     0.659933     0.652290     0.644646
      0.637003     0.629360     0.621717     0.614074     0.606431     0.598788     0.591145     0.583502     0.575858     0.568215
      0.560572     0.552929     0.545286     0.537643     0.530000     0.522357     0.514714     0.507071     0.499427     0.491784
      0.484141     0.476498     0.468855     0.461212     0.453569     0.445925     0.438282     0.430639     0.422996     0.415353
      0.407710     0.400067     0.392424     0.384780     0.377137     0.369494     0.361851     0.354208     0.346565     0.338922
      0.331278     0.323635     0.315992     0.308349     0.300706     0.293063     0.285420     0.277777     0.270133     0.262490
      0.254847     0.247204     0.239561     0.231918     0.224275     0.216631     0.208988     0.201345
 NY phased data points follow
   5.25823E+00  2.42012E+00  4.70572E+00  4.14007E+00  2.92603E+00  1.84998E+00  3.89400E+00  1.75851E+00  7.34891E-01  1.06387E+00
   1.70214E+00  1.68524E+00  1.16926E+00  9.82233E-02  6.07142E-01 -7.58774E-02 -3.36730E-02  8.10249E-01  3.92495E-01 -1.88521E+00
  -2.72162E-01  6.58876E-02 -1.57083E+00 -2.24735E+00 -2.44683E+00 -2.05338E+00 -8.60040E-01 -2.46766E+00 -1.98614E+00 -2.63155E+00
  -1.72613E+00 -2.79604E+00 -2.67211E+00 -3.03660E+00 -3.81745E+00 -5.21854E+00 -2.26259E+00 -4.56398E+00 -4.04158E+00 -4.11847E+00
  -6.44164E+00 -5.27432E+00 -5.47990E+00 -6.58805E+00 -5.96008E+00 -7.26322E+00 -4.56769E+00 -6.60685E+00 -7.17901E+00 -9.42745E+00
  -9.83216E+00 -9.53063E+00 -8.33894E+00 -9.75049E+00 -8.77978E+00 -9.14816E+00 -9.67950E+00 -9.88008E+00 -1.01330E+01 -1.14565E+01
  -1.15229E+01 -1.13401E+01 -1.04139E+01 -1.35829E+01 -1.34961E+01 -1.21081E+01 -1.27626E+01 -1.39839E+01 -1.47402E+01 -1.31009E+01
  -1.49411E+01 -1.39584E+01 -1.51368E+01 -1.73607E+01 -1.46319E+01 -1.53766E+01 -1.65666E+01 -1.79553E+01 -1.73369E+01 -1.77399E+01
  -1.71628E+01 -1.99400E+01 -2.06081E+01 -1.96426E+01 -1.99777E+01 -1.91284E+01 -2.19088E+01 -2.34932E+01 -2.34500E+01 -2.50343E+01
  -2.37336E+01 -2.46982E+01 -2.33982E+01 -2.50704E+01 -2.44414E+01 -2.56198E+01 -2.39405E+01 -2.60090E+01 -2.63839E+01 -2.70153E+01
  -2.86922E+01 -2.83585E+01 -2.87217E+01 -3.01522E+01 -2.97743E+01 -3.11036E+01 -3.08850E+01 -3.23844E+01 -3.09574E+01 -3.12672E+01
  -3.28679E+01 -3.66212E+01 -3.36154E+01 -3.50896E+01 -3.62549E+01 -3.67276E+01 -3.65954E+01 -3.57950E+01 -3.65538E+01 -3.83536E+01
  -3.76248E+01 -3.81874E+01 -3.95121E+01 -3.83633E+01 -4.03039E+01 -3.86439E+01 -4.00655E+01 -3.99629E+01 -4.10497E+01 -4.14613E+01
  -4.08417E+01 -4.01105E+01 -4.01086E+01 -4.06750E+01 -4.16273E+01 -4.08434E+01 -4.16708E+01 -4.17083E+01 -4.17555E+01 -4.27317E+01
  -4.20260E+01 -4.31578E+01 -4.46346E+01 -4.49858E+01 -4.55576E+01 -4.62030E+01 -4.85712E+01 -4.70479E+01 -4.81173E+01 -4.99573E+01
  -4.94606E+01 -5.20096E+01 -5.24288E+01 -5.25579E+01 -5.42084E+01 -5.62579E+01 -5.43974E+01 -5.61611E+01 -5.71618E+01 -6.13271E+01
  -6.10698E+01 -6.13749E+01 -6.33331E+01 -6.60760E+01 -6.54218E+01 -6.84825E+01 -7.01496E+01 -7.10666E+01 -7.27764E+01 -7.30214E+01
  -7.67241E+01 -7.67533E+01 -7.75622E+01 -7.94216E+01 -8.32604E+01 -8.32740E+01 -8.51243E+01 -8.69085E+01 -9.00301E+01 -9.00515E+01
  -9.32232E+01 -9.47927E+01 -9.64168E+01 -9.74969E+01 -9.89643E+01 -1.00159E+02 -1.01055E+02 -1.03990E+02 -1.04753E+02 -1.06409E+02
  -1.07530E+02 -1.08695E+02 -1.07802E+02 -1.09143E+02 -1.09546E+02 -1.10723E+02 -1.10009E+02 -1.09583E+02 -1.09469E+02 -1.10185E+02
  -1.08996E+02 -1.10842E+02 -1.10838E+02 -1.10167E+02 -1.11113E+02 -1.07781E+02 -1.07479E+02 -1.06005E+02 -1.04700E+02 -1.04839E+02
  -1.03884E+02 -1.03810E+02 -1.03254E+02 -1.00989E+02 -1.01520E+02 -1.00687E+02 -9.93722E+01 -9.71563E+01 -9.71315E+01 -9.65268E+01
  -9.52435E+01 -9.56008E+01 -9.40955E+01 -9.17946E+01 -9.16899E+01 -8.99078E+01 -8.91720E+01 -8.69344E+01 -8.45498E+01 -8.52784E+01
  -8.22696E+01 -8.21724E+01 -8.15750E+01 -8.08003E+01 -7.93848E+01 -7.86180E+01 -7.77561E+01 -7.63260E+01 -7.38528E+01 -7.40024E+01
  -7.47447E+01 -7.30206E+01 -7.09469E+01 -7.19491E+01 -7.24118E+01 -7.23296E+01 -7.16375E+01 -7.20737E+01 -7.13448E+01 -7.09276E+01
  -6.96246E+01 -7.05306E+01 -7.06008E+01 -7.05326E+01 -7.17578E+01 -7.30782E+01 -7.31567E+01 -7.32331E+01 -7.39709E+01 -7.68473E+01
  -7.51500E+01 -7.51104E+01 -7.73526E+01 -7.65035E+01 -7.67274E+01 -7.79901E+01 -7.67333E+01 -7.81832E+01 -7.78617E+01 -7.88355E+01
  -7.88322E+01 -8.00332E+01 -7.76708E+01 -7.90788E+01 -7.99708E+01 -7.92824E+01 -7.94363E+01 -7.94320E+01 -7.96219E+01 -8.06911E+01
  -8.01413E+01 -7.98520E+01 -7.97837E+01 -8.06648E+01 -7.93653E+01 -7.92726E+01 -7.98451E+01 -7.65971E+01 -7.66810E+01 -7.71466E+01
  -7.74624E+01 -7.53510E+01 -7.65738E+01 -7.45906E+01 -7.49617E+01 -7.41301E+01 -7.12135E+01 -7.10223E+01 -7.02871E+01 -7.05517E+01
  -6.92400E+01 -6.75387E+01 -6.73693E+01 -6.54944E+01 -6.25993E+01 -6.08260E+01 -5.83945E+01 -5.63295E+01 -5.29087E+01 -5.13342E+01
  -4.71995E+01 -4.50657E+01 -4.05683E+01 -3.57550E+01 -3.23989E+01 -2.62173E+01 -2.17552E+01 -1.62311E+01 -1.19222E+01 -6.45354E+00
   4.68638E-01  5.60920E+00  9.87293E+00  1.61116E+01  2.13964E+01  2.53362E+01  2.95624E+01  3.18906E+01  3.57399E+01  3.82921E+01
   3.96833E+01  4.29100E+01  4.47033E+01  4.61362E+01  4.88052E+01  4.82526E+01  5.02932E+01  5.07576E+01  5.22799E+01  5.49511E+01
   5.32398E+01  5.55037E+01  5.43016E+01  5.63886E+01  5.66593E+01  5.70005E+01  5.81857E+01  5.73272E+01  5.69062E+01  5.63916E+01
   5.65199E+01  5.63095E+01  5.61687E+01  5.64500E+01  5.66739E+01  5.52671E+01  5.56110E+01  5.61295E+01  5.59744E+01  5.36287E+01
   5.48610E+01  5.44354E+01  5.43676E+01  5.47488E+01  5.40852E+01  5.22832E+01  5.32191E+01  5.42004E+01  5.25100E+01  5.21258E+01
   5.24968E+01  5.18077E+01  4.95204E+01  4.95557E+01  4.95543E+01  4.94490E+01  4.92251E+01  4.90084E+01  4.84614E+01  4.72852E+01
   4.54951E+01  4.66694E+01  4.67669E+01  4.54607E+01  4.61834E+01  4.42440E+01  4.73585E+01  4.49860E+01  4.46357E+01  4.38582E+01
   4.32682E+01  4.38141E+01  4.22942E+01  4.27485E+01  4.27626E+01  4.26671E+01  4.30034E+01  4.19755E+01  4.23006E+01  4.04110E+01
   4.10012E+01  4.06021E+01  3.98116E+01  3.93842E+01  3.98974E+01  3.83475E+01  3.82804E+01  3.90017E+01  3.78468E+01  3.63960E+01
   3.78085E+01  3.74930E+01  3.76962E+01  3.53655E+01  3.72202E+01  3.68660E+01  3.54273E+01  3.58025E+01  3.59000E+01  3.42958E+01
   3.39075E+01  3.55201E+01  3.47893E+01  3.47740E+01  3.46773E+01  3.43209E+01  3.43992E+01  3.31222E+01  3.27259E+01  3.25927E+01
   3.23462E+01  3.18201E+01  3.12812E+01  3.24086E+01  3.14264E+01  3.14141E+01  3.16036E+01  2.97920E+01  3.03447E+01  3.00955E+01
   3.18838E+01  2.97793E+01  2.99978E+01  2.90482E+01  2.84574E+01  3.00267E+01  2.96024E+01  2.85918E+01  2.81898E+01  2.89385E+01
   2.80108E+01  2.88225E+01  2.91567E+01  2.60653E+01  2.75321E+01  2.67059E+01  2.83149E+01  2.78624E+01  2.62507E+01  2.76086E+01
   2.78188E+01  2.62343E+01  2.69076E+01  2.67013E+01  2.67842E+01  2.70392E+01  2.54347E+01  2.56912E+01  2.72970E+01  2.52526E+01
   2.50201E+01  2.47235E+01  2.48275E+01  2.56943E+01  2.55702E+01  2.52222E+01  2.42995E+01  2.35258E+01  2.55139E+01  2.32442E+01
   2.42934E+01  2.45186E+01  2.30031E+01  2.38573E+01  2.34738E+01  2.24987E+01  2.42050E+01  2.38251E+01  2.27183E+01  2.28630E+01
   2.18661E+01  2.27767E+01  2.17769E+01  2.25097E+01  2.21275E+01  2.22251E+01  2.16714E+01  2.16776E+01
 NY points of the fit to the data follow
   7.14678E-01  1.44971E+00  5.77616E-01  1.24365E+00  6.88212E-01  1.35893E+00  7.83988E-01  1.11633E+00  6.20538E-01  6.95108E-01
   3.97710E-01  3.30023E-01  3.20451E-01  5.38898E-01  7.15566E-01  9.83434E-01  8.64703E-01  9.82176E-01  6.26645E-01  5.64256E-01
  -4.58442E-02 -1.02732E-01 -6.59433E-01 -7.10626E-01 -1.10147E+00 -1.14856E+00 -1.40598E+00 -1.56704E+00 -1.76585E+00 -2.11746E+00
  -2.23376E+00 -2.37223E+00 -2.28507E+00 -2.61626E+00 -2.36493E+00 -2.78643E+00 -2.31834E+00 -2.82005E+00 -2.33278E+00 -3.00295E+00
  -2.64851E+00 -3.27481E+00 -3.05307E+00 -3.66463E+00 -3.57052E+00 -4.07726E+00 -3.76168E+00 -3.68869E+00 -3.99480E+00 -4.72370E+00
  -5.81207E+00 -6.93947E+00 -8.49823E+00 -9.28355E+00 -9.11622E+00 -9.07740E+00 -8.62092E+00 -8.97133E+00 -9.01243E+00 -1.02895E+01
  -1.10739E+01 -1.19954E+01 -1.25667E+01 -1.32978E+01 -1.37080E+01 -1.43196E+01 -1.46553E+01 -1.52119E+01 -1.54869E+01 -1.58307E+01
  -1.59010E+01 -1.61885E+01 -1.63153E+01 -1.66727E+01 -1.68463E+01 -1.72651E+01 -1.74619E+01 -1.79448E+01 -1.81405E+01 -1.87037E+01
  -1.89302E+01 -1.95457E+01 -1.97323E+01 -2.04173E+01 -2.05883E+01 -2.13992E+01 -2.16180E+01 -2.25438E+01 -2.28048E+01 -2.37404E+01
  -2.40321E+01 -2.48767E+01 -2.52133E+01 -2.59543E+01 -2.62284E+01 -2.68508E+01 -2.70923E+01 -2.75791E+01 -2.77465E+01 -2.82265E+01
  -2.83600E+01 -2.88871E+01 -2.89917E+01 -2.96035E+01 -2.96628E+01 -3.03921E+01 -3.04377E+01 -3.12615E+01 -3.11814E+01 -3.22459E+01
  -3.22827E+01 -3.36129E+01 -3.37222E+01 -3.51091E+01 -3.52304E+01 -3.65230E+01 -3.66795E+01 -3.77258E+01 -3.78866E+01 -3.85316E+01
  -3.86889E+01 -3.89394E+01 -3.92177E+01 -3.91633E+01 -3.95229E+01 -3.89502E+01 -3.92682E+01 -3.86599E+01 -3.90975E+01 -3.85688E+01
  -3.91198E+01 -3.87548E+01 -3.94549E+01 -3.93821E+01 -4.02278E+01 -4.04715E+01 -4.14249E+01 -4.19654E+01 -4.29846E+01 -4.37948E+01
  -4.48330E+01 -4.58502E+01 -4.68400E+01 -4.79092E+01 -4.88292E+01 -4.99616E+01 -5.08284E+01 -5.20164E+01 -5.26410E+01 -5.31574E+01
  -5.37016E+01 -5.42979E+01 -5.49623E+01 -5.56982E+01 -5.65171E+01 -5.74129E+01 -5.83986E+01 -5.94580E+01 -6.06029E+01 -6.18158E+01
  -6.31023E+01 -6.44417E+01 -6.58397E+01 -6.72731E+01 -6.87479E+01 -7.02383E+01 -7.17521E+01 -7.32618E+01 -7.47767E+01 -7.62705E+01
  -7.77522E+01 -7.92007E+01 -8.06205E+01 -8.19956E+01 -8.33297E+01 -8.46109E+01 -8.58368E+01 -8.70110E+01 -8.80955E+01 -8.91636E+01
  -9.01286E+01 -9.11122E+01 -9.20792E+01 -9.30584E+01 -9.41861E+01 -9.52518E+01 -9.66645E+01 -9.77906E+01 -9.93956E+01 -1.00434E+02
  -1.02014E+02 -1.02628E+02 -1.03907E+02 -1.03865E+02 -1.04700E+02 -1.04154E+02 -1.04976E+02 -1.04171E+02 -1.05393E+02 -1.04525E+02
  -1.06369E+02 -1.05371E+02 -1.07649E+02 -1.06292E+02 -1.08499E+02 -1.06694E+02 -1.08416E+02 -1.06387E+02 -1.07542E+02 -1.05663E+02
  -1.06167E+02 -1.04847E+02 -1.04688E+02 -1.04051E+02 -1.03044E+02 -1.02948E+02 -1.01012E+02 -1.01237E+02 -9.85529E+01 -9.92035E+01
  -9.56403E+01 -9.66021E+01 -9.25537E+01 -9.32036E+01 -8.85361E+01 -8.91326E+01 -8.52183E+01 -8.48952E+01 -8.18756E+01 -8.12984E+01
  -7.95998E+01 -7.98234E+01 -8.14384E+01 -8.08897E+01 -8.24756E+01 -8.11227E+01 -8.23930E+01 -8.00649E+01 -8.01499E+01 -7.83340E+01
  -7.78078E+01 -7.66932E+01 -7.54757E+01 -7.55246E+01 -7.44117E+01 -7.53482E+01 -7.31421E+01 -7.45144E+01 -7.15737E+01 -7.31853E+01
  -6.98323E+01 -7.17475E+01 -6.84647E+01 -7.07528E+01 -6.78068E+01 -7.01284E+01 -6.74730E+01 -7.01860E+01 -6.93090E+01 -7.17145E+01
  -7.11643E+01 -7.28159E+01 -7.23224E+01 -7.26192E+01 -7.27774E+01 -7.38233E+01 -7.42331E+01 -7.56781E+01 -7.65866E+01 -7.81436E+01
  -7.89710E+01 -8.05404E+01 -8.12851E+01 -8.22924E+01 -8.26086E+01 -8.29992E+01 -8.29442E+01 -8.28675E+01 -8.27417E+01 -8.25674E+01
  -8.25962E+01 -8.24537E+01 -8.22880E+01 -8.19029E+01 -8.15650E+01 -8.09571E+01 -8.03893E+01 -7.97806E+01 -7.90852E+01 -7.83687E+01
  -7.75838E+01 -7.67968E+01 -7.59442E+01 -7.51202E+01 -7.42175E+01 -7.32480E+01 -7.21945E+01 -7.10834E+01 -6.98926E+01 -6.86321E+01
  -6.72894E+01 -6.58658E+01 -6.43703E+01 -6.27581E+01 -6.10396E+01 -5.91739E+01 -5.71645E+01 -5.49741E+01 -5.26006E+01 -5.00150E+01
  -4.71744E+01 -4.40844E+01 -4.05688E+01 -3.67484E+01 -3.25135E+01 -2.78617E+01 -2.30077E+01 -1.75983E+01 -1.24059E+01 -6.52533E+00
  -1.47423E+00  4.59076E+00  9.18019E+00  1.51763E+01  1.90772E+01  2.47561E+01  2.78355E+01  3.29589E+01  3.52178E+01  3.95314E+01
   4.10025E+01  4.43496E+01  4.51941E+01  4.76427E+01  4.81782E+01  4.98958E+01  5.03844E+01  5.14969E+01  5.21136E+01  5.26249E+01
   5.34646E+01  5.33910E+01  5.45062E+01  5.40982E+01  5.53648E+01  5.47307E+01  5.61729E+01  5.55722E+01  5.75783E+01  5.76784E+01
   5.87797E+01  5.83828E+01  5.88411E+01  5.80121E+01  5.79009E+01  5.65169E+01  5.56959E+01  5.51926E+01  5.50195E+01  5.47816E+01
   5.48464E+01  5.46056E+01  5.47708E+01  5.45327E+01  5.46175E+01  5.41903E+01  5.41811E+01  5.36105E+01  5.38767E+01  5.39707E+01
   5.35684E+01  5.27324E+01  5.19164E+01  5.04930E+01  4.93992E+01  4.73372E+01  4.60262E+01  4.51847E+01  4.46164E+01  4.42474E+01
   4.40368E+01  4.39549E+01  4.39758E+01  4.40750E+01  4.42279E+01  4.44101E+01  4.45979E+01  4.47691E+01  4.49039E+01  4.49858E+01
   4.50018E+01  4.49436E+01  4.48068E+01  4.45920E+01  4.43039E+01  4.39507E+01  4.35438E+01  4.30962E+01  4.26222E+01  4.21361E+01
   4.16514E+01  4.11802E+01  4.07323E+01  4.03151E+01  3.99332E+01  3.95884E+01  3.92804E+01  3.90062E+01  3.87613E+01  3.85397E+01
   3.83346E+01  3.81388E+01  3.79451E+01  3.77470E+01  3.75384E+01  3.73143E+01  3.70709E+01  3.68056E+01  3.65168E+01  3.62044E+01
   3.58689E+01  3.55120E+01  3.51359E+01  3.47436E+01  3.43385E+01  3.39242E+01  3.35043E+01  3.30825E+01  3.26623E+01  3.22470E+01
   3.18397E+01  3.14429E+01  3.10590E+01  3.06896E+01  3.03365E+01  3.00006E+01  2.96826E+01  2.93830E+01  2.91019E+01  2.88391E+01
   2.85944E+01  2.83671E+01  2.81566E+01  2.79621E+01  2.77827E+01  2.76176E+01  2.74657E+01  2.73261E+01  2.71977E+01  2.70797E+01
   2.69711E+01  2.68710E+01  2.67784E+01  2.66926E+01  2.66127E+01  2.65380E+01  2.64677E+01  2.64012E+01  2.63379E+01  2.62771E+01
   2.62183E+01  2.61609E+01  2.61046E+01  2.60487E+01  2.59930E+01  2.59370E+01  2.58803E+01  2.58226E+01  2.57635E+01  2.57029E+01
   2.56403E+01  2.55756E+01  2.55085E+01  2.54387E+01  2.53661E+01  2.52905E+01  2.52116E+01  2.51294E+01  2.50436E+01  2.49541E+01
   2.48607E+01  2.47634E+01  2.46620E+01  2.45564E+01  2.44465E+01  2.43322E+01  2.42133E+01  2.40899E+01  2.39618E+01  2.38290E+01
   2.36914E+01  2.35489E+01  2.34015E+01  2.32491E+01  2.30916E+01  2.29291E+01  2.27616E+01  2.25888E+01
 NY background values follow
    -4.717E+00   -5.214E+00   -5.695E+00   -6.160E+00   -6.611E+00   -7.047E+00   -7.468E+00   -7.876E+00   -8.270E+00   -8.651E+00
    -9.018E+00   -9.374E+00   -9.717E+00   -1.005E+01   -1.037E+01   -1.068E+01   -1.097E+01   -1.126E+01   -1.154E+01   -1.181E+01
    -1.207E+01   -1.231E+01   -1.256E+01   -1.279E+01   -1.301E+01   -1.323E+01   -1.344E+01   -1.364E+01   -1.384E+01   -1.403E+01
    -1.421E+01   -1.439E+01   -1.457E+01   -1.473E+01   -1.490E+01   -1.506E+01   -1.522E+01   -1.537E+01   -1.552E+01   -1.567E+01
    -1.582E+01   -1.596E+01   -1.610E+01   -1.624E+01   -1.638E+01   -1.652E+01   -1.666E+01   -1.680E+01   -1.694E+01   -1.709E+01
    -1.723E+01   -1.737E+01   -1.752E+01   -1.767E+01   -1.782E+01   -1.798E+01   -1.813E+01   -1.830E+01   -1.846E+01   -1.863E+01
    -1.881E+01   -1.899E+01   -1.917E+01   -1.937E+01   -1.957E+01   -1.977E+01   -1.998E+01   -2.020E+01   -2.043E+01   -2.066E+01
    -2.091E+01   -2.116E+01   -2.142E+01   -2.169E+01   -2.197E+01   -2.226E+01   -2.256E+01   -2.288E+01   -2.320E+01   -2.353E+01
    -2.388E+01   -2.424E+01   -2.461E+01   -2.500E+01   -2.540E+01   -2.581E+01   -2.623E+01   -2.667E+01   -2.712E+01   -2.758E+01
    -2.805E+01   -2.854E+01   -2.903E+01   -2.954E+01   -3.006E+01   -3.059E+01   -3.113E+01   -3.169E+01   -3.225E+01   -3.282E+01
    -3.340E+01   -3.400E+01   -3.460E+01   -3.521E+01   -3.583E+01   -3.646E+01   -3.710E+01   -3.774E+01   -3.840E+01   -3.906E+01
    -3.973E+01   -4.041E+01   -4.110E+01   -4.179E+01   -4.249E+01   -4.320E+01   -4.391E+01   -4.463E+01   -4.536E+01   -4.609E+01
    -4.683E+01   -4.758E+01   -4.833E+01   -4.908E+01   -4.984E+01   -5.061E+01   -5.138E+01   -5.215E+01   -5.293E+01   -5.372E+01
    -5.450E+01   -5.529E+01   -5.608E+01   -5.688E+01   -5.768E+01   -5.848E+01   -5.929E+01   -6.010E+01   -6.091E+01   -6.172E+01
    -6.253E+01   -6.334E+01   -6.416E+01   -6.498E+01   -6.580E+01   -6.662E+01   -6.743E+01   -6.825E+01   -6.907E+01   -6.989E+01
    -7.071E+01   -7.153E+01   -7.235E+01   -7.317E+01   -7.398E+01   -7.480E+01   -7.561E+01   -7.642E+01   -7.723E+01   -7.804E+01
    -7.885E+01   -7.965E+01   -8.045E+01   -8.125E+01   -8.204E+01   -8.283E+01   -8.362E+01   -8.440E+01   -8.518E+01   -8.595E+01
    -8.672E+01   -8.749E+01   -8.825E+01   -8.901E+01   -8.976E+01   -9.050E+01   -9.124E+01   -9.198E+01   -9.270E+01   -9.343E+01
    -9.414E+01   -9.485E+01   -9.555E+01   -9.625E+01   -9.693E+01   -9.762E+01   -9.829E+01   -9.895E+01   -9.961E+01   -1.003E+02
    -1.009E+02   -1.015E+02   -1.022E+02   -1.028E+02   -1.034E+02   -1.040E+02   -1.046E+02   -1.051E+02   -1.057E+02   -1.063E+02
    -1.068E+02   -1.073E+02   -1.079E+02   -1.084E+02   -1.089E+02   -1.094E+02   -1.099E+02   -1.103E+02   -1.108E+02   -1.112E+02
    -1.117E+02   -1.121E+02   -1.125E+02   -1.129E+02   -1.132E+02   -1.136E+02   -1.140E+02   -1.143E+02   -1.146E+02   -1.149E+02
    -1.152E+02   -1.155E+02   -1.158E+02   -1.160E+02   -1.163E+02   -1.165E+02   -1.167E+02   -1.169E+02   -1.171E+02   -1.172E+02
    -1.174E+02   -1.175E+02   -1.176E+02   -1.177E+02   -1.178E+02   -1.178E+02   -1.179E+02   -1.179E+02   -1.179E+02   -1.179E+02
    -1.179E+02   -1.178E+02   -1.177E+02   -1.177E+02   -1.176E+02   -1.174E+02   -1.173E+02   -1.171E+02   -1.169E+02   -1.167E+02
    -1.165E+02   -1.163E+02   -1.160E+02   -1.157E+02   -1.154E+02   -1.151E+02   -1.147E+02   -1.144E+02   -1.140E+02   -1.136E+02
    -1.132E+02   -1.128E+02   -1.123E+02   -1.119E+02   -1.114E+02   -1.109E+02   -1.104E+02   -1.099E+02   -1.093E+02   -1.088E+02
    -1.082E+02   -1.076E+02   -1.070E+02   -1.064E+02   -1.058E+02   -1.051E+02   -1.045E+02   -1.038E+02   -1.032E+02   -1.025E+02
    -1.018E+02   -1.011E+02   -1.003E+02   -9.961E+01   -9.887E+01   -9.812E+01   -9.735E+01   -9.658E+01   -9.580E+01   -9.501E+01
    -9.421E+01   -9.340E+01   -9.258E+01   -9.175E+01   -9.092E+01   -9.008E+01   -8.923E+01   -8.837E+01   -8.751E+01   -8.664E+01
    -8.576E+01   -8.488E+01   -8.400E+01   -8.310E+01   -8.221E+01   -8.130E+01   -8.040E+01   -7.949E+01   -7.857E+01   -7.765E+01
    -7.673E+01   -7.581E+01   -7.488E+01   -7.395E+01   -7.301E+01   -7.208E+01   -7.114E+01   -7.020E+01   -6.926E+01   -6.832E+01
    -6.738E+01   -6.644E+01   -6.550E+01   -6.456E+01   -6.362E+01   -6.268E+01   -6.174E+01   -6.080E+01   -5.986E+01   -5.893E+01
    -5.800E+01   -5.707E+01   -5.614E+01   -5.521E+01   -5.429E+01   -5.337E+01   -5.246E+01   -5.154E+01   -5.064E+01   -4.973E+01
    -4.883E+01   -4.793E+01   -4.703E+01   -4.614E+01   -4.525E+01   -4.436E+01   -4.348E+01   -4.260E+01   -4.172E+01   -4.085E+01
    -3.999E+01   -3.912E+01   -3.826E+01   -3.741E+01   -3.656E+01   -3.571E+01   -3.487E+01   -3.403E+01   -3.319E+01   -3.236E+01
    -3.154E+01   -3.072E+01   -2.990E+01   -2.909E+01   -2.828E+01   -2.748E+01   -2.668E+01   -2.589E+01   -2.510E+01   -2.432E+01
    -2.355E+01   -2.277E+01   -2.201E+01   -2.125E+01   -2.049E+01   -1.974E+01   -1.899E+01   -1.825E+01   -1.752E+01   -1.679E+01
    -1.607E+01   -1.535E+01   -1.464E+01   -1.394E+01   -1.324E+01   -1.254E+01   -1.186E+01   -1.118E+01   -1.050E+01   -9.832E+00
    -9.170E+00   -8.514E+00   -7.865E+00   -7.223E+00   -6.586E+00   -5.957E+00   -5.334E+00   -4.718E+00   -4.109E+00   -3.507E+00
    -2.912E+00   -2.323E+00   -1.742E+00   -1.168E+00   -6.014E-01   -4.180E-02    5.104E-01    1.055E+00    1.593E+00    2.122E+00
     2.645E+00    3.159E+00    3.666E+00    4.165E+00    4.657E+00    5.140E+00    5.616E+00    6.084E+00    6.543E+00    6.995E+00
     7.440E+00    7.876E+00    8.304E+00    8.725E+00    9.138E+00    9.543E+00    9.941E+00    1.033E+01    1.071E+01    1.109E+01
     1.145E+01    1.181E+01    1.216E+01    1.251E+01    1.284E+01    1.317E+01    1.349E+01    1.381E+01    1.411E+01    1.441E+01
     1.470E+01    1.498E+01    1.526E+01    1.553E+01    1.579E+01    1.604E+01    1.628E+01    1.652E+01    1.675E+01    1.697E+01
     1.719E+01    1.740E+01    1.760E+01    1.779E+01    1.798E+01    1.816E+01    1.833E+01    1.849E+01    1.865E+01    1.880E+01
     1.894E+01    1.908E+01    1.920E+01    1.932E+01    1.944E+01    1.954E+01    1.964E+01    1.973E+01    1.982E+01    1.989E+01
     1.996E+01    2.003E+01    2.008E+01    2.013E+01    2.017E+01    2.021E+01    2.024E+01    2.026E+01    2.027E+01    2.028E+01
     2.028E+01    2.027E+01    2.025E+01    2.023E+01    2.020E+01    2.017E+01    2.012E+01    2.008E+01    2.002E+01    1.996E+01
     1.989E+01    1.981E+01    1.973E+01    1.964E+01    1.954E+01    1.943E+01    1.932E+01    1.920E+01
 Ala      Conc. = 2.44E+03
