 LCModel (Version 6.3-1L) Copyright: S.W. Provencher.          Ref.: Magn. Reson. Med. 30:672-679 (1993).                
 Slice#1 Row#2 Col#14  PD_05_press_1_raw_act
 36 lines in following concentration table = NCONC+1
    Conc.  %SD /Cr+PCr  Metabolite                                         
  529.514  84%   0.000 Ala                                                 
    0.754 515%   0.000 Asp                                                 
    0.000 999%   0.000 Cr                                                  
    0.000 999%   0.000 PCr                                                 
    0.396 589%   0.000 GABA                                                
    0.415 562%   0.000 Glc                                                 
  586.537  61%   0.000 Gln                                                 
   77.278 480%   0.000 Glu                                                 
    4.703 257%   0.000 GPC                                                 
    0.000 999%   0.000 PCh                                                 
   32.099 181%   0.000 GSH                                                 
  133.849 120%   0.000 Ins                                                 
  764.496  66%   0.000 Lac                                                 
    0.000 999%   0.000 NAA                                                 
    0.000 999%   0.000 NAAG                                                
    0.124 632%   0.000 Scyllo                                              
    0.619 624%   0.000 Tau                                                 
    0.000 999%   0.000 -CrCH2                                              
    4.703 257%   0.000 GPC+PCh                                             
    0.000 999%   0.000 NAA+NAAG                                            
    0.000 999%   0.000 Cr+PCr                                              
  663.815  93%   0.000 Glu+Gln                                             
 4.68E+04  12%   0.000 Lip13a                                              
 2.16E+03  40%   0.000 Lip13b                                              
 2.30E+04  11%   0.000 Lip09                                               
    0.000 999%   0.000 MM09                                                
  159.425 221%   0.000 Lip20                                               
  159.559 169%   0.000 MM20                                                
    0.000 999%   0.000 MM12                                                
 3.25E+03  39%   0.000 MM14                                                
  494.719  52%   0.000 MM17                                                
 4.90E+04  11%   0.000 Lip13a+Lip13b                                       
 5.22E+04   9%   0.000 MM14+Lip13a+Lip13b+MM12                             
 2.30E+04  11%   0.000 MM09+Lip09                                          
  318.984  67%   0.000 MM20+Lip20                                          
   6 lines in following misc. output table
  FWHM = 0.138 ppm    S/N =  50                                            
  Data shift = 0.084 ppm                                                   
  Ph:-149 deg      57.2 deg/ppm                                            
  alphaB,S = 4.6E+00,   2.7E+01                                            
    7 spline knots.   Ns = 9(2)                                            
  (14) 9 infls.   ( 8) 4 extrs.                                            
  498 points on ppm-axis = NY
      4.000000     3.992357     3.984714     3.977070     3.969427     3.961784     3.954141     3.946497     3.938854     3.931211
      3.923568     3.915925     3.908281     3.900638     3.892995     3.885352     3.877708     3.870065     3.862422     3.854779
      3.847136     3.839492     3.831849     3.824206     3.816563     3.808919     3.801276     3.793633     3.785990     3.778347
      3.770703     3.763060     3.755417     3.747774     3.740130     3.732487     3.724844     3.717201     3.709558     3.701914
      3.694271     3.686628     3.678985     3.671341     3.663698     3.656055     3.648412     3.640769     3.633125     3.625482
      3.617839     3.610196     3.602552     3.594909     3.587266     3.579623     3.571980     3.564336     3.556693     3.549050
      3.541407     3.533763     3.526120     3.518477     3.510834     3.503191     3.495547     3.487904     3.480261     3.472618
      3.464974     3.457331     3.449688     3.442045     3.434402     3.426758     3.419115     3.411472     3.403829     3.396185
      3.388542     3.380899     3.373256     3.365613     3.357969     3.350326     3.342683     3.335040     3.327396     3.319753
      3.312110     3.304467     3.296824     3.289180     3.281537     3.273894     3.266251     3.258607     3.250964     3.243321
      3.235678     3.228034     3.220391     3.212748     3.205105     3.197462     3.189818     3.182175     3.174532     3.166889
      3.159245     3.151602     3.143959     3.136316     3.128673     3.121029     3.113386     3.105743     3.098100     3.090456
      3.082813     3.075170     3.067527     3.059884     3.052240     3.044597     3.036954     3.029311     3.021667     3.014024
      3.006381     2.998738     2.991095     2.983451     2.975808     2.968165     2.960522     2.952878     2.945235     2.937592
      2.929949     2.922306     2.914662     2.907019     2.899376     2.891733     2.884089     2.876446     2.868803     2.861160
      2.853517     2.845873     2.838230     2.830587     2.822944     2.815300     2.807657     2.800014     2.792371     2.784728
      2.777084     2.769441     2.761798     2.754155     2.746511     2.738868     2.731225     2.723582     2.715939     2.708295
      2.700652     2.693009     2.685366     2.677722     2.670079     2.662436     2.654793     2.647150     2.639506     2.631863
      2.624220     2.616577     2.608933     2.601290     2.593647     2.586004     2.578361     2.570717     2.563074     2.555431
      2.547788     2.540144     2.532501     2.524858     2.517215     2.509572     2.501928     2.494285     2.486642     2.478999
      2.471355     2.463712     2.456069     2.448426     2.440783     2.433139     2.425496     2.417853     2.410210     2.402566
      2.394923     2.387280     2.379637     2.371994     2.364350     2.356707     2.349064     2.341421     2.333777     2.326134
      2.318491     2.310848     2.303205     2.295561     2.287918     2.280275     2.272632     2.264988     2.257345     2.249702
      2.242059     2.234416     2.226772     2.219129     2.211486     2.203843     2.196199     2.188556     2.180913     2.173270
      2.165627     2.157983     2.150340     2.142697     2.135054     2.127410     2.119767     2.112124     2.104481     2.096838
      2.089194     2.081551     2.073908     2.066265     2.058621     2.050978     2.043335     2.035692     2.028049     2.020405
      2.012762     2.005119     1.997476     1.989833     1.982190     1.974546     1.966903     1.959260     1.951617     1.943974
      1.936331     1.928688     1.921045     1.913402     1.905759     1.898115     1.890472     1.882829     1.875186     1.867543
      1.859900     1.852257     1.844614     1.836971     1.829327     1.821684     1.814041     1.806398     1.798755     1.791112
      1.783469     1.775826     1.768183     1.760540     1.752896     1.745253     1.737610     1.729967     1.722324     1.714681
      1.707038     1.699395     1.691752     1.684108     1.676465     1.668822     1.661179     1.653536     1.645893     1.638250
      1.630607     1.622964     1.615321     1.607677     1.600034     1.592391     1.584748     1.577105     1.569462     1.561819
      1.554176     1.546533     1.538890     1.531246     1.523603     1.515960     1.508317     1.500674     1.493031     1.485388
      1.477745     1.470102     1.462458     1.454815     1.447172     1.439529     1.431886     1.424243     1.416600     1.408957
      1.401314     1.393671     1.386027     1.378384     1.370741     1.363098     1.355455     1.347812     1.340169     1.332526
      1.324883     1.317240     1.309596     1.301953     1.294310     1.286667     1.279024     1.271381     1.263738     1.256095
      1.248452     1.240808     1.233165     1.225522     1.217879     1.210236     1.202593     1.194950     1.187307     1.179664
      1.172021     1.164377     1.156734     1.149091     1.141448     1.133805     1.126162     1.118519     1.110876     1.103233
      1.095590     1.087946     1.080303     1.072660     1.065017     1.057374     1.049731     1.042088     1.034445     1.026802
      1.019158     1.011515     1.003872     0.996229     0.988586     0.980943     0.973300     0.965657     0.958014     0.950371
      0.942727     0.935084     0.927441     0.919798     0.912155     0.904512     0.896869     0.889226     0.881583     0.873940
      0.866296     0.858653     0.851010     0.843367     0.835724     0.828081     0.820438     0.812795     0.805152     0.797508
      0.789865     0.782222     0.774579     0.766936     0.759293     0.751650     0.744007     0.736364     0.728721     0.721077
      0.713434     0.705791     0.698148     0.690505     0.682862     0.675219     0.667576     0.659933     0.652290     0.644646
      0.637003     0.629360     0.621717     0.614074     0.606431     0.598788     0.591145     0.583502     0.575858     0.568215
      0.560572     0.552929     0.545286     0.537643     0.530000     0.522357     0.514714     0.507071     0.499427     0.491784
      0.484141     0.476498     0.468855     0.461212     0.453569     0.445925     0.438282     0.430639     0.422996     0.415353
      0.407710     0.400067     0.392424     0.384780     0.377137     0.369494     0.361851     0.354208     0.346565     0.338922
      0.331278     0.323635     0.315992     0.308349     0.300706     0.293063     0.285420     0.277777     0.270133     0.262490
      0.254847     0.247204     0.239561     0.231918     0.224275     0.216631     0.208988     0.201345
 NY phased data points follow
  -5.60443E+00 -6.66968E+00 -3.73156E+00 -5.63042E+00 -5.12394E+00 -8.47267E+00 -7.19721E+00 -5.86260E+00 -4.07475E+00 -7.02643E+00
  -7.01544E+00 -7.01377E+00 -6.19195E+00 -6.45674E+00 -6.97116E+00 -9.00960E+00 -7.38400E+00 -7.13618E+00 -7.41567E+00 -5.98504E+00
  -6.11783E+00 -8.43590E+00 -6.52899E+00 -7.52466E+00 -3.66048E+00 -5.82783E+00 -6.73202E+00 -6.57375E+00 -8.35869E+00 -6.50904E+00
  -7.99109E+00 -9.50680E+00 -9.58828E+00 -7.37198E+00 -6.37365E+00 -6.19104E+00 -7.66856E+00 -7.74153E+00 -7.37913E+00 -6.63356E+00
  -8.95195E+00 -6.89033E+00 -8.01015E+00 -8.34457E+00 -6.09378E+00 -1.10261E+01 -7.84755E+00 -7.42013E+00 -9.38928E+00 -8.74325E+00
  -6.97152E+00 -8.96275E+00 -6.70501E+00 -9.21248E+00 -7.89437E+00 -1.18187E+01 -1.02607E+01 -1.06166E+01 -7.71673E+00 -8.30720E+00
  -1.09604E+01 -7.32225E+00 -6.05018E+00 -7.65319E+00 -1.08218E+01 -8.29267E+00 -1.07480E+01 -8.90864E+00 -1.08842E+01 -9.74972E+00
  -7.85476E+00 -1.05438E+01 -1.10379E+01 -1.11759E+01 -1.18341E+01 -9.50207E+00 -1.20412E+01 -1.04168E+01 -1.07530E+01 -9.73962E+00
  -1.12768E+01 -1.06831E+01 -1.17063E+01 -9.86172E+00 -1.19262E+01 -9.23615E+00 -1.09610E+01 -1.02597E+01 -1.06782E+01 -1.16034E+01
  -1.39496E+01 -1.26053E+01 -1.19910E+01 -9.89944E+00 -1.41341E+01 -1.41732E+01 -1.31354E+01 -1.10458E+01 -1.18899E+01 -1.28213E+01
  -1.08242E+01 -1.10925E+01 -1.09930E+01 -1.22935E+01 -1.16899E+01 -1.12571E+01 -1.39666E+01 -1.14543E+01 -1.56900E+01 -1.39512E+01
  -1.35571E+01 -1.19037E+01 -1.16533E+01 -1.19254E+01 -1.17405E+01 -1.25568E+01 -1.05590E+01 -1.21748E+01 -1.25694E+01 -1.39091E+01
  -1.22664E+01 -1.28813E+01 -1.35612E+01 -1.32939E+01 -1.47379E+01 -1.41646E+01 -1.58335E+01 -1.23826E+01 -1.53967E+01 -1.52200E+01
  -1.51813E+01 -1.34626E+01 -1.22736E+01 -1.39742E+01 -1.21521E+01 -1.45481E+01 -1.36719E+01 -1.32211E+01 -1.33375E+01 -1.28029E+01
  -1.32835E+01 -1.30274E+01 -1.38469E+01 -1.37159E+01 -1.23616E+01 -1.06216E+01 -1.56340E+01 -1.34598E+01 -1.51055E+01 -1.54134E+01
  -1.54595E+01 -1.36689E+01 -1.32735E+01 -1.55247E+01 -1.42694E+01 -1.56557E+01 -1.31920E+01 -1.50872E+01 -1.54047E+01 -1.51800E+01
  -1.21962E+01 -1.58679E+01 -1.60487E+01 -1.67229E+01 -1.39789E+01 -1.61104E+01 -1.40104E+01 -1.51920E+01 -1.53216E+01 -1.29486E+01
  -1.44807E+01 -1.27348E+01 -1.66498E+01 -1.39808E+01 -1.54017E+01 -1.35793E+01 -1.43358E+01 -1.71821E+01 -1.58929E+01 -1.47654E+01
  -1.34606E+01 -1.46573E+01 -1.67655E+01 -1.52415E+01 -1.54922E+01 -1.71839E+01 -1.52496E+01 -1.51096E+01 -1.50626E+01 -1.42607E+01
  -1.28841E+01 -1.63258E+01 -1.82990E+01 -1.36919E+01 -1.72740E+01 -1.66978E+01 -1.73200E+01 -1.42991E+01 -1.47001E+01 -1.55887E+01
  -1.51597E+01 -1.59314E+01 -1.62980E+01 -1.33995E+01 -1.67079E+01 -1.83394E+01 -1.68668E+01 -1.87359E+01 -1.54370E+01 -1.71836E+01
  -1.54322E+01 -1.72224E+01 -1.63703E+01 -1.51752E+01 -1.62358E+01 -1.93171E+01 -1.54224E+01 -1.85961E+01 -1.80435E+01 -1.62776E+01
  -1.65634E+01 -1.65792E+01 -1.69541E+01 -1.69532E+01 -1.65271E+01 -1.85581E+01 -1.87573E+01 -1.66913E+01 -1.80469E+01 -1.65417E+01
  -1.52840E+01 -1.56468E+01 -1.83184E+01 -1.77179E+01 -1.73074E+01 -1.57677E+01 -1.51387E+01 -1.53485E+01 -1.72049E+01 -1.63134E+01
  -1.46788E+01 -1.74305E+01 -1.67446E+01 -1.72706E+01 -1.80494E+01 -1.66779E+01 -1.81901E+01 -1.73334E+01 -1.72603E+01 -1.70648E+01
  -1.70146E+01 -1.94396E+01 -1.77291E+01 -1.72627E+01 -1.95604E+01 -1.91690E+01 -1.83797E+01 -1.81453E+01 -1.90472E+01 -1.95310E+01
  -2.20443E+01 -2.28175E+01 -2.11952E+01 -2.24224E+01 -1.97666E+01 -2.07548E+01 -2.08718E+01 -2.25020E+01 -1.99424E+01 -2.08315E+01
  -2.17632E+01 -1.87053E+01 -2.24466E+01 -1.82511E+01 -2.14473E+01 -2.30635E+01 -2.05529E+01 -2.07152E+01 -2.27838E+01 -2.06104E+01
  -1.85315E+01 -1.93383E+01 -1.85793E+01 -2.07806E+01 -1.83105E+01 -2.15781E+01 -2.05568E+01 -1.94671E+01 -2.13308E+01 -1.65767E+01
  -1.85921E+01 -1.87591E+01 -1.92950E+01 -1.87048E+01 -1.83141E+01 -1.53730E+01 -1.93589E+01 -1.46640E+01 -1.73453E+01 -1.61805E+01
  -1.51416E+01 -1.53850E+01 -1.36386E+01 -1.59412E+01 -1.40238E+01 -1.12110E+01 -1.36161E+01 -1.30418E+01 -1.29902E+01 -1.14651E+01
  -1.12557E+01 -9.12950E+00 -1.08773E+01 -8.52349E+00 -8.36833E+00 -9.13157E+00 -5.94804E+00 -7.70907E+00 -4.86676E+00 -5.39353E+00
  -1.46072E+00  6.25392E-01  8.59879E-01  3.65448E+00  4.27705E+00  5.72702E+00  6.01894E+00  7.65571E+00  9.43068E+00  1.38249E+01
   1.38954E+01  1.66425E+01  2.12074E+01  2.39343E+01  2.50711E+01  2.94972E+01  3.40795E+01  3.41871E+01  4.14340E+01  4.60171E+01
   4.95784E+01  5.48905E+01  5.94987E+01  6.73947E+01  7.02870E+01  7.36916E+01  8.31796E+01  8.68919E+01  9.74818E+01  1.03820E+02
   1.10570E+02  1.16096E+02  1.18708E+02  1.22206E+02  1.25146E+02  1.25782E+02  1.30945E+02  1.27464E+02  1.29029E+02  1.27075E+02
   1.28042E+02  1.27157E+02  1.30175E+02  1.28622E+02  1.30038E+02  1.30837E+02  1.31562E+02  1.30721E+02  1.30998E+02  1.30760E+02
   1.30227E+02  1.28499E+02  1.28198E+02  1.23642E+02  1.23849E+02  1.22611E+02  1.17826E+02  1.14408E+02  1.15002E+02  1.10579E+02
   1.09173E+02  1.03514E+02  1.03126E+02  1.04182E+02  9.85586E+01  9.78075E+01  9.48458E+01  9.34039E+01  9.34786E+01  8.98495E+01
   8.79578E+01  8.75561E+01  8.39713E+01  8.30306E+01  8.19453E+01  8.23345E+01  7.66482E+01  7.73629E+01  7.72922E+01  7.17499E+01
   7.25018E+01  6.95253E+01  6.70526E+01  6.51482E+01  6.26365E+01  5.76509E+01  5.53310E+01  5.36430E+01  4.93197E+01  4.68454E+01
   4.32570E+01  4.17880E+01  3.79319E+01  3.75481E+01  3.26456E+01  3.38181E+01  3.02314E+01  2.99364E+01  2.55905E+01  2.57870E+01
   1.95978E+01  1.62790E+01  1.45283E+01  1.35638E+01  1.05511E+01  5.99187E+00  7.28366E+00  7.39706E+00  4.96839E+00  5.89280E-01
  -3.75540E-01 -1.78469E+00 -3.59975E+00 -4.20069E+00 -6.05474E+00 -7.59542E+00 -1.00896E+01 -9.77850E+00 -1.22047E+01 -1.37252E+01
  -1.51004E+01 -1.68545E+01 -1.58068E+01 -1.59831E+01 -1.83589E+01 -1.99840E+01 -2.07885E+01 -2.27324E+01 -2.11512E+01 -2.12633E+01
  -2.26003E+01 -2.15071E+01 -2.38181E+01 -2.45656E+01 -2.50630E+01 -2.56089E+01 -2.44875E+01 -2.65946E+01 -2.66191E+01 -2.64687E+01
  -2.76749E+01 -2.55623E+01 -2.66067E+01 -2.64254E+01 -2.93304E+01 -2.65493E+01 -2.91483E+01 -2.75420E+01 -2.66420E+01 -2.80725E+01
  -2.62168E+01 -2.74183E+01 -2.73109E+01 -2.81497E+01 -2.69367E+01 -2.73180E+01 -2.77181E+01 -2.97416E+01 -2.72086E+01 -2.73324E+01
  -2.77536E+01 -2.61683E+01 -2.79796E+01 -2.77713E+01 -2.69036E+01 -2.79720E+01 -2.80503E+01 -2.76723E+01 -2.60837E+01 -2.85380E+01
  -2.55811E+01 -2.71552E+01 -2.52215E+01 -2.85382E+01 -2.74781E+01 -2.70502E+01 -2.51469E+01 -2.98277E+01
 NY points of the fit to the data follow
  -5.60129E+00 -5.68850E+00 -5.76237E+00 -5.88057E+00 -5.91339E+00 -5.85420E+00 -5.93767E+00 -5.97980E+00 -6.04627E+00 -6.12901E+00
  -6.28743E+00 -6.56092E+00 -6.86714E+00 -6.98442E+00 -7.12496E+00 -7.13169E+00 -7.08891E+00 -6.84447E+00 -6.80836E+00 -6.67158E+00
  -6.86816E+00 -7.00988E+00 -7.24717E+00 -7.47672E+00 -7.52344E+00 -7.46917E+00 -7.45033E+00 -7.31976E+00 -7.37739E+00 -7.31231E+00
  -7.44869E+00 -7.40721E+00 -7.52734E+00 -7.34414E+00 -7.48587E+00 -7.43771E+00 -7.61992E+00 -7.72693E+00 -7.84738E+00 -7.88892E+00
  -7.93156E+00 -7.92194E+00 -7.94372E+00 -8.02322E+00 -8.07054E+00 -8.23910E+00 -8.18572E+00 -8.13905E+00 -8.10854E+00 -8.21029E+00
  -8.28230E+00 -8.51895E+00 -8.62581E+00 -8.96849E+00 -8.97934E+00 -9.08488E+00 -9.01334E+00 -9.11703E+00 -9.09161E+00 -9.22186E+00
  -9.29667E+00 -9.37509E+00 -9.46254E+00 -9.55199E+00 -9.63388E+00 -9.73845E+00 -9.82506E+00 -9.93859E+00 -1.00042E+01 -1.00590E+01
  -1.00735E+01 -1.01267E+01 -1.01497E+01 -1.02154E+01 -1.02452E+01 -1.03109E+01 -1.03471E+01 -1.04146E+01 -1.04638E+01 -1.05545E+01
  -1.06241E+01 -1.07236E+01 -1.07955E+01 -1.08921E+01 -1.09625E+01 -1.10641E+01 -1.11208E+01 -1.12247E+01 -1.12762E+01 -1.13888E+01
  -1.14389E+01 -1.15583E+01 -1.16091E+01 -1.17192E+01 -1.17435E+01 -1.18188E+01 -1.18343E+01 -1.18808E+01 -1.19090E+01 -1.19441E+01
  -1.19838E+01 -1.20141E+01 -1.20515E+01 -1.20579E+01 -1.21048E+01 -1.21053E+01 -1.21628E+01 -1.21630E+01 -1.22272E+01 -1.22366E+01
  -1.23077E+01 -1.23203E+01 -1.24003E+01 -1.24226E+01 -1.25107E+01 -1.25470E+01 -1.26241E+01 -1.26502E+01 -1.27086E+01 -1.27371E+01
  -1.28002E+01 -1.28473E+01 -1.29129E+01 -1.29697E+01 -1.30092E+01 -1.30255E+01 -1.30532E+01 -1.30695E+01 -1.31035E+01 -1.31367E+01
  -1.31871E+01 -1.32266E+01 -1.32763E+01 -1.33035E+01 -1.33345E+01 -1.33680E+01 -1.33914E+01 -1.34387E+01 -1.34612E+01 -1.35118E+01
  -1.35246E+01 -1.35727E+01 -1.35771E+01 -1.36352E+01 -1.36452E+01 -1.37143E+01 -1.37312E+01 -1.37971E+01 -1.38115E+01 -1.38755E+01
  -1.38913E+01 -1.39603E+01 -1.39862E+01 -1.40552E+01 -1.40867E+01 -1.41400E+01 -1.41661E+01 -1.42227E+01 -1.42602E+01 -1.43241E+01
  -1.43783E+01 -1.44414E+01 -1.45007E+01 -1.45569E+01 -1.46112E+01 -1.46650E+01 -1.47191E+01 -1.47714E+01 -1.48262E+01 -1.48800E+01
  -1.49367E+01 -1.49911E+01 -1.50501E+01 -1.51054E+01 -1.51656E+01 -1.52193E+01 -1.52717E+01 -1.53193E+01 -1.53743E+01 -1.54070E+01
  -1.54624E+01 -1.54997E+01 -1.55444E+01 -1.55630E+01 -1.56257E+01 -1.56221E+01 -1.56987E+01 -1.57166E+01 -1.58661E+01 -1.59854E+01
  -1.61616E+01 -1.63584E+01 -1.64588E+01 -1.66044E+01 -1.66862E+01 -1.67597E+01 -1.66652E+01 -1.66440E+01 -1.64150E+01 -1.63669E+01
  -1.61832E+01 -1.62653E+01 -1.63256E+01 -1.66520E+01 -1.67556E+01 -1.72052E+01 -1.70832E+01 -1.75189E+01 -1.72090E+01 -1.76375E+01
  -1.73526E+01 -1.78656E+01 -1.74128E+01 -1.78806E+01 -1.73368E+01 -1.77460E+01 -1.72402E+01 -1.76414E+01 -1.72115E+01 -1.76287E+01
  -1.72491E+01 -1.76186E+01 -1.72495E+01 -1.75257E+01 -1.72038E+01 -1.73168E+01 -1.70575E+01 -1.70802E+01 -1.69293E+01 -1.69415E+01
  -1.69132E+01 -1.69328E+01 -1.71007E+01 -1.71561E+01 -1.70932E+01 -1.71620E+01 -1.71100E+01 -1.73657E+01 -1.72746E+01 -1.76547E+01
  -1.75221E+01 -1.79104E+01 -1.77308E+01 -1.82045E+01 -1.80662E+01 -1.85353E+01 -1.83419E+01 -1.87243E+01 -1.84441E+01 -1.87580E+01
  -1.85195E+01 -1.88462E+01 -1.86639E+01 -1.89675E+01 -1.88350E+01 -1.90194E+01 -1.88950E+01 -1.90307E+01 -1.91056E+01 -1.92767E+01
  -1.93801E+01 -1.94599E+01 -1.95388E+01 -1.94487E+01 -1.94500E+01 -1.94160E+01 -1.94427E+01 -1.94267E+01 -1.95025E+01 -1.95265E+01
  -1.96157E+01 -1.96768E+01 -1.97899E+01 -1.98263E+01 -1.98947E+01 -1.98911E+01 -1.99190E+01 -1.98764E+01 -1.98743E+01 -1.98335E+01
  -1.98101E+01 -1.97781E+01 -1.97400E+01 -1.96831E+01 -1.96163E+01 -1.95281E+01 -1.94255E+01 -1.93026E+01 -1.91588E+01 -1.89925E+01
  -1.88017E+01 -1.85870E+01 -1.83455E+01 -1.80798E+01 -1.77872E+01 -1.74684E+01 -1.71244E+01 -1.67579E+01 -1.63701E+01 -1.59647E+01
  -1.55449E+01 -1.51147E+01 -1.46786E+01 -1.42391E+01 -1.38008E+01 -1.33660E+01 -1.29393E+01 -1.25265E+01 -1.21486E+01 -1.18135E+01
  -1.12689E+01 -1.07434E+01 -1.01903E+01 -9.66501E+00 -9.00335E+00 -8.36591E+00 -7.34388E+00 -6.47942E+00 -5.10884E+00 -3.47262E+00
  -1.93851E+00 -7.08694E-02  1.25785E+00  2.86846E+00  3.99317E+00  5.50994E+00  6.67244E+00  8.89982E+00  1.03001E+01  1.27771E+01
   1.48232E+01  1.77387E+01  2.03055E+01  2.32035E+01  2.60154E+01  2.94224E+01  3.28411E+01  3.65294E+01  4.03976E+01  4.50424E+01
   4.97496E+01  5.47535E+01  6.00332E+01  6.48238E+01  7.07779E+01  7.56610E+01  8.24672E+01  8.84697E+01  9.63147E+01  1.02543E+02
   1.10125E+02  1.14588E+02  1.20647E+02  1.22666E+02  1.26377E+02  1.26486E+02  1.28512E+02  1.27461E+02  1.29018E+02  1.27390E+02
   1.28887E+02  1.27798E+02  1.29473E+02  1.28908E+02  1.30677E+02  1.30041E+02  1.31401E+02  1.30428E+02  1.31054E+02  1.30553E+02
   1.30421E+02  1.29090E+02  1.28122E+02  1.25986E+02  1.24131E+02  1.21200E+02  1.18400E+02  1.15742E+02  1.13131E+02  1.10559E+02
   1.08041E+02  1.05594E+02  1.03235E+02  1.00977E+02  9.88274E+01  9.67903E+01  9.48637E+01  9.30412E+01  9.13124E+01  8.96632E+01
   8.80766E+01  8.65336E+01  8.50137E+01  8.34962E+01  8.19604E+01  8.03867E+01  7.87568E+01  7.70546E+01  7.52664E+01  7.33816E+01
   7.13925E+01  6.92944E+01  6.70859E+01  6.47686E+01  6.23468E+01  5.98277E+01  5.72205E+01  5.45363E+01  5.17877E+01  4.89882E+01
   4.61522E+01  4.32943E+01  4.04288E+01  3.75698E+01  3.47306E+01  3.19237E+01  2.91603E+01  2.64506E+01  2.38035E+01  2.12265E+01
   1.87258E+01  1.63064E+01  1.39720E+01  1.17253E+01  9.56787E+00  7.50043E+00  5.52287E+00  3.63440E+00  1.83366E+00  1.18765E-01
  -1.51254E+00 -3.06285E+00 -4.53492E+00 -5.93169E+00 -7.25621E+00 -8.51159E+00 -9.70093E+00 -1.08273E+01 -1.18938E+01 -1.29033E+01
  -1.38588E+01 -1.47629E+01 -1.56183E+01 -1.64276E+01 -1.71932E+01 -1.79175E+01 -1.86025E+01 -1.92504E+01 -1.98631E+01 -2.04425E+01
  -2.09903E+01 -2.15081E+01 -2.19975E+01 -2.24600E+01 -2.28970E+01 -2.33096E+01 -2.36992E+01 -2.40668E+01 -2.44136E+01 -2.47406E+01
  -2.50486E+01 -2.53387E+01 -2.56116E+01 -2.58681E+01 -2.61090E+01 -2.63349E+01 -2.65466E+01 -2.67447E+01 -2.69298E+01 -2.71023E+01
  -2.72629E+01 -2.74121E+01 -2.75503E+01 -2.76779E+01 -2.77954E+01 -2.79032E+01 -2.80017E+01 -2.80912E+01 -2.81721E+01 -2.82446E+01
  -2.83091E+01 -2.83660E+01 -2.84154E+01 -2.84576E+01 -2.84930E+01 -2.85216E+01 -2.85438E+01 -2.85598E+01 -2.85698E+01 -2.85739E+01
  -2.85724E+01 -2.85655E+01 -2.85533E+01 -2.85360E+01 -2.85137E+01 -2.84867E+01 -2.84550E+01 -2.84188E+01
 NY background values follow
    -6.752E+00   -6.826E+00   -6.900E+00   -6.974E+00   -7.048E+00   -7.121E+00   -7.195E+00   -7.268E+00   -7.340E+00   -7.413E+00
    -7.485E+00   -7.557E+00   -7.629E+00   -7.701E+00   -7.772E+00   -7.844E+00   -7.915E+00   -7.985E+00   -8.056E+00   -8.126E+00
    -8.196E+00   -8.266E+00   -8.336E+00   -8.405E+00   -8.474E+00   -8.543E+00   -8.612E+00   -8.681E+00   -8.749E+00   -8.817E+00
    -8.885E+00   -8.953E+00   -9.021E+00   -9.088E+00   -9.155E+00   -9.222E+00   -9.289E+00   -9.356E+00   -9.422E+00   -9.488E+00
    -9.554E+00   -9.620E+00   -9.686E+00   -9.751E+00   -9.816E+00   -9.882E+00   -9.946E+00   -1.001E+01   -1.008E+01   -1.014E+01
    -1.020E+01   -1.027E+01   -1.033E+01   -1.040E+01   -1.046E+01   -1.052E+01   -1.059E+01   -1.065E+01   -1.071E+01   -1.077E+01
    -1.084E+01   -1.090E+01   -1.096E+01   -1.102E+01   -1.108E+01   -1.115E+01   -1.121E+01   -1.127E+01   -1.133E+01   -1.139E+01
    -1.145E+01   -1.151E+01   -1.157E+01   -1.163E+01   -1.169E+01   -1.175E+01   -1.181E+01   -1.187E+01   -1.193E+01   -1.199E+01
    -1.205E+01   -1.211E+01   -1.217E+01   -1.223E+01   -1.229E+01   -1.234E+01   -1.240E+01   -1.246E+01   -1.252E+01   -1.258E+01
    -1.263E+01   -1.269E+01   -1.275E+01   -1.281E+01   -1.286E+01   -1.292E+01   -1.298E+01   -1.304E+01   -1.309E+01   -1.315E+01
    -1.321E+01   -1.326E+01   -1.332E+01   -1.337E+01   -1.343E+01   -1.349E+01   -1.354E+01   -1.360E+01   -1.365E+01   -1.371E+01
    -1.376E+01   -1.382E+01   -1.387E+01   -1.393E+01   -1.398E+01   -1.404E+01   -1.409E+01   -1.415E+01   -1.420E+01   -1.426E+01
    -1.431E+01   -1.437E+01   -1.442E+01   -1.447E+01   -1.453E+01   -1.458E+01   -1.464E+01   -1.469E+01   -1.474E+01   -1.480E+01
    -1.485E+01   -1.490E+01   -1.496E+01   -1.501E+01   -1.507E+01   -1.512E+01   -1.517E+01   -1.523E+01   -1.528E+01   -1.533E+01
    -1.539E+01   -1.544E+01   -1.550E+01   -1.555E+01   -1.560E+01   -1.566E+01   -1.571E+01   -1.577E+01   -1.582E+01   -1.588E+01
    -1.594E+01   -1.599E+01   -1.605E+01   -1.610E+01   -1.616E+01   -1.622E+01   -1.627E+01   -1.633E+01   -1.639E+01   -1.645E+01
    -1.651E+01   -1.656E+01   -1.662E+01   -1.668E+01   -1.674E+01   -1.680E+01   -1.686E+01   -1.693E+01   -1.699E+01   -1.705E+01
    -1.711E+01   -1.718E+01   -1.724E+01   -1.730E+01   -1.737E+01   -1.743E+01   -1.750E+01   -1.757E+01   -1.763E+01   -1.770E+01
    -1.777E+01   -1.784E+01   -1.791E+01   -1.798E+01   -1.805E+01   -1.812E+01   -1.819E+01   -1.826E+01   -1.834E+01   -1.841E+01
    -1.848E+01   -1.856E+01   -1.864E+01   -1.871E+01   -1.879E+01   -1.887E+01   -1.895E+01   -1.903E+01   -1.911E+01   -1.919E+01
    -1.927E+01   -1.936E+01   -1.944E+01   -1.953E+01   -1.961E+01   -1.970E+01   -1.979E+01   -1.988E+01   -1.997E+01   -2.006E+01
    -2.015E+01   -2.024E+01   -2.034E+01   -2.043E+01   -2.053E+01   -2.063E+01   -2.072E+01   -2.082E+01   -2.092E+01   -2.102E+01
    -2.113E+01   -2.123E+01   -2.133E+01   -2.144E+01   -2.155E+01   -2.166E+01   -2.176E+01   -2.188E+01   -2.199E+01   -2.210E+01
    -2.221E+01   -2.233E+01   -2.245E+01   -2.256E+01   -2.268E+01   -2.280E+01   -2.293E+01   -2.305E+01   -2.317E+01   -2.330E+01
    -2.343E+01   -2.355E+01   -2.368E+01   -2.382E+01   -2.395E+01   -2.408E+01   -2.422E+01   -2.436E+01   -2.449E+01   -2.463E+01
    -2.477E+01   -2.492E+01   -2.506E+01   -2.521E+01   -2.535E+01   -2.550E+01   -2.565E+01   -2.580E+01   -2.595E+01   -2.611E+01
    -2.626E+01   -2.642E+01   -2.657E+01   -2.673E+01   -2.689E+01   -2.705E+01   -2.721E+01   -2.737E+01   -2.753E+01   -2.770E+01
    -2.786E+01   -2.802E+01   -2.819E+01   -2.835E+01   -2.852E+01   -2.869E+01   -2.886E+01   -2.902E+01   -2.919E+01   -2.936E+01
    -2.953E+01   -2.970E+01   -2.987E+01   -3.005E+01   -3.022E+01   -3.039E+01   -3.056E+01   -3.073E+01   -3.091E+01   -3.108E+01
    -3.125E+01   -3.142E+01   -3.160E+01   -3.177E+01   -3.194E+01   -3.212E+01   -3.229E+01   -3.246E+01   -3.264E+01   -3.281E+01
    -3.298E+01   -3.315E+01   -3.332E+01   -3.350E+01   -3.367E+01   -3.384E+01   -3.401E+01   -3.418E+01   -3.435E+01   -3.452E+01
    -3.469E+01   -3.486E+01   -3.502E+01   -3.519E+01   -3.536E+01   -3.552E+01   -3.569E+01   -3.585E+01   -3.602E+01   -3.618E+01
    -3.634E+01   -3.650E+01   -3.666E+01   -3.682E+01   -3.698E+01   -3.714E+01   -3.729E+01   -3.745E+01   -3.760E+01   -3.775E+01
    -3.791E+01   -3.806E+01   -3.821E+01   -3.835E+01   -3.850E+01   -3.865E+01   -3.879E+01   -3.893E+01   -3.907E+01   -3.921E+01
    -3.935E+01   -3.949E+01   -3.962E+01   -3.976E+01   -3.989E+01   -4.002E+01   -4.015E+01   -4.027E+01   -4.040E+01   -4.052E+01
    -4.064E+01   -4.076E+01   -4.088E+01   -4.100E+01   -4.111E+01   -4.122E+01   -4.133E+01   -4.144E+01   -4.154E+01   -4.165E+01
    -4.175E+01   -4.185E+01   -4.194E+01   -4.204E+01   -4.213E+01   -4.222E+01   -4.231E+01   -4.239E+01   -4.248E+01   -4.256E+01
    -4.263E+01   -4.271E+01   -4.278E+01   -4.285E+01   -4.292E+01   -4.298E+01   -4.305E+01   -4.311E+01   -4.316E+01   -4.322E+01
    -4.327E+01   -4.332E+01   -4.337E+01   -4.341E+01   -4.345E+01   -4.349E+01   -4.353E+01   -4.357E+01   -4.360E+01   -4.363E+01
    -4.366E+01   -4.368E+01   -4.370E+01   -4.372E+01   -4.374E+01   -4.376E+01   -4.377E+01   -4.378E+01   -4.379E+01   -4.380E+01
    -4.380E+01   -4.380E+01   -4.380E+01   -4.380E+01   -4.379E+01   -4.379E+01   -4.378E+01   -4.377E+01   -4.375E+01   -4.374E+01
    -4.372E+01   -4.370E+01   -4.367E+01   -4.365E+01   -4.362E+01   -4.359E+01   -4.356E+01   -4.353E+01   -4.350E+01   -4.346E+01
    -4.342E+01   -4.338E+01   -4.333E+01   -4.329E+01   -4.324E+01   -4.319E+01   -4.314E+01   -4.309E+01   -4.303E+01   -4.298E+01
    -4.292E+01   -4.286E+01   -4.279E+01   -4.273E+01   -4.266E+01   -4.259E+01   -4.252E+01   -4.245E+01   -4.238E+01   -4.230E+01
    -4.223E+01   -4.215E+01   -4.207E+01   -4.198E+01   -4.190E+01   -4.181E+01   -4.172E+01   -4.163E+01   -4.154E+01   -4.145E+01
    -4.136E+01   -4.126E+01   -4.116E+01   -4.106E+01   -4.096E+01   -4.086E+01   -4.075E+01   -4.065E+01   -4.054E+01   -4.043E+01
    -4.032E+01   -4.021E+01   -4.009E+01   -3.998E+01   -3.986E+01   -3.974E+01   -3.962E+01   -3.950E+01   -3.938E+01   -3.926E+01
    -3.913E+01   -3.900E+01   -3.887E+01   -3.874E+01   -3.861E+01   -3.848E+01   -3.835E+01   -3.821E+01   -3.808E+01   -3.794E+01
    -3.780E+01   -3.766E+01   -3.752E+01   -3.737E+01   -3.723E+01   -3.708E+01   -3.694E+01   -3.679E+01   -3.664E+01   -3.649E+01
    -3.634E+01   -3.619E+01   -3.603E+01   -3.588E+01   -3.572E+01   -3.556E+01   -3.541E+01   -3.525E+01
 Ala      Conc. = 5.30E+02
