 LCModel (Version 6.3-1L) Copyright: S.W. Provencher.          Ref.: Magn. Reson. Med. 30:672-679 (1993).                
 Slice#1 Row#14 Col#13  PD_05_press_1_raw_act
 36 lines in following concentration table = NCONC+1
    Conc.  %SD /Cr+PCr  Metabolite                                         
    0.000 999%   0.000 Ala                                                 
    2.278  69%   0.150 Asp                                                 
    0.000 999%   0.000 Cr                                                  
   15.226  54%   1.000 PCr                                                 
    1.414  67% 9.3E-02 GABA                                                
    1.385  69% 9.1E-02 Glc                                                 
    0.000 999%   0.000 Gln                                                 
    0.000 999%   0.000 Glu                                                 
    5.368  59%   0.353 GPC                                                 
    0.000 999%   0.000 PCh                                                 
   20.197  59%   1.327 GSH                                                 
   14.242 254%   0.935 Ins                                                 
    0.000 999%   0.000 Lac                                                 
   14.799  63%   0.972 NAA                                                 
    0.000 999%   0.000 NAAG                                                
    0.446  71% 2.9E-02 Scyllo                                              
    2.219  71%   0.146 Tau                                                 
    1.436 188% 9.4E-02 -CrCH2                                              
    5.368  59%   0.353 GPC+PCh                                             
   14.799  63%   0.972 NAA+NAAG                                            
   15.226  54%   1.000 Cr+PCr                                              
    0.000 999%   0.000 Glu+Gln                                             
  630.021  17%  41.378 Lip13a                                              
    8.247 414%   0.542 Lip13b                                              
  189.838  19%  12.468 Lip09                                               
    0.000 999%   0.000 MM09                                                
   58.060  60%   3.813 Lip20                                               
    0.000 999%   0.000 MM20                                                
    7.507 403%   0.493 MM12                                                
   66.083  97%   4.340 MM14                                                
  128.444  33%   8.436 MM17                                                
  638.268  15%  41.920 Lip13a+Lip13b                                       
  711.857  11%  46.753 MM14+Lip13a+Lip13b+MM12                             
  189.838  19%  12.468 MM09+Lip09                                          
   58.060  60%   3.813 MM20+Lip20                                          
   6 lines in following misc. output table
  FWHM = 0.054 ppm    S/N =   2                                            
  Data shift = 0.008 ppm                                                   
  Ph: -32 deg     -47.8 deg/ppm                                            
  alphaB,S = 8.5E+01,   2.6E+01                                            
   14 spline knots.   Ns = 6(1)                                            
   2 inflections.     1 extrema                                            
  498 points on ppm-axis = NY
      4.000000     3.992357     3.984714     3.977070     3.969427     3.961784     3.954141     3.946497     3.938854     3.931211
      3.923568     3.915925     3.908281     3.900638     3.892995     3.885352     3.877708     3.870065     3.862422     3.854779
      3.847136     3.839492     3.831849     3.824206     3.816563     3.808919     3.801276     3.793633     3.785990     3.778347
      3.770703     3.763060     3.755417     3.747774     3.740130     3.732487     3.724844     3.717201     3.709558     3.701914
      3.694271     3.686628     3.678985     3.671341     3.663698     3.656055     3.648412     3.640769     3.633125     3.625482
      3.617839     3.610196     3.602552     3.594909     3.587266     3.579623     3.571980     3.564336     3.556693     3.549050
      3.541407     3.533763     3.526120     3.518477     3.510834     3.503191     3.495547     3.487904     3.480261     3.472618
      3.464974     3.457331     3.449688     3.442045     3.434402     3.426758     3.419115     3.411472     3.403829     3.396185
      3.388542     3.380899     3.373256     3.365613     3.357969     3.350326     3.342683     3.335040     3.327396     3.319753
      3.312110     3.304467     3.296824     3.289180     3.281537     3.273894     3.266251     3.258607     3.250964     3.243321
      3.235678     3.228034     3.220391     3.212748     3.205105     3.197462     3.189818     3.182175     3.174532     3.166889
      3.159245     3.151602     3.143959     3.136316     3.128673     3.121029     3.113386     3.105743     3.098100     3.090456
      3.082813     3.075170     3.067527     3.059884     3.052240     3.044597     3.036954     3.029311     3.021667     3.014024
      3.006381     2.998738     2.991095     2.983451     2.975808     2.968165     2.960522     2.952878     2.945235     2.937592
      2.929949     2.922306     2.914662     2.907019     2.899376     2.891733     2.884089     2.876446     2.868803     2.861160
      2.853517     2.845873     2.838230     2.830587     2.822944     2.815300     2.807657     2.800014     2.792371     2.784728
      2.777084     2.769441     2.761798     2.754155     2.746511     2.738868     2.731225     2.723582     2.715939     2.708295
      2.700652     2.693009     2.685366     2.677722     2.670079     2.662436     2.654793     2.647150     2.639506     2.631863
      2.624220     2.616577     2.608933     2.601290     2.593647     2.586004     2.578361     2.570717     2.563074     2.555431
      2.547788     2.540144     2.532501     2.524858     2.517215     2.509572     2.501928     2.494285     2.486642     2.478999
      2.471355     2.463712     2.456069     2.448426     2.440783     2.433139     2.425496     2.417853     2.410210     2.402566
      2.394923     2.387280     2.379637     2.371994     2.364350     2.356707     2.349064     2.341421     2.333777     2.326134
      2.318491     2.310848     2.303205     2.295561     2.287918     2.280275     2.272632     2.264988     2.257345     2.249702
      2.242059     2.234416     2.226772     2.219129     2.211486     2.203843     2.196199     2.188556     2.180913     2.173270
      2.165627     2.157983     2.150340     2.142697     2.135054     2.127410     2.119767     2.112124     2.104481     2.096838
      2.089194     2.081551     2.073908     2.066265     2.058621     2.050978     2.043335     2.035692     2.028049     2.020405
      2.012762     2.005119     1.997476     1.989833     1.982190     1.974546     1.966903     1.959260     1.951617     1.943974
      1.936331     1.928688     1.921045     1.913402     1.905759     1.898115     1.890472     1.882829     1.875186     1.867543
      1.859900     1.852257     1.844614     1.836971     1.829327     1.821684     1.814041     1.806398     1.798755     1.791112
      1.783469     1.775826     1.768183     1.760540     1.752896     1.745253     1.737610     1.729967     1.722324     1.714681
      1.707038     1.699395     1.691752     1.684108     1.676465     1.668822     1.661179     1.653536     1.645893     1.638250
      1.630607     1.622964     1.615321     1.607677     1.600034     1.592391     1.584748     1.577105     1.569462     1.561819
      1.554176     1.546533     1.538890     1.531246     1.523603     1.515960     1.508317     1.500674     1.493031     1.485388
      1.477745     1.470102     1.462458     1.454815     1.447172     1.439529     1.431886     1.424243     1.416600     1.408957
      1.401314     1.393671     1.386027     1.378384     1.370741     1.363098     1.355455     1.347812     1.340169     1.332526
      1.324883     1.317240     1.309596     1.301953     1.294310     1.286667     1.279024     1.271381     1.263738     1.256095
      1.248452     1.240808     1.233165     1.225522     1.217879     1.210236     1.202593     1.194950     1.187307     1.179664
      1.172021     1.164377     1.156734     1.149091     1.141448     1.133805     1.126162     1.118519     1.110876     1.103233
      1.095590     1.087946     1.080303     1.072660     1.065017     1.057374     1.049731     1.042088     1.034445     1.026802
      1.019158     1.011515     1.003872     0.996229     0.988586     0.980943     0.973300     0.965657     0.958014     0.950371
      0.942727     0.935084     0.927441     0.919798     0.912155     0.904512     0.896869     0.889226     0.881583     0.873940
      0.866296     0.858653     0.851010     0.843367     0.835724     0.828081     0.820438     0.812795     0.805152     0.797508
      0.789865     0.782222     0.774579     0.766936     0.759293     0.751650     0.744007     0.736364     0.728721     0.721077
      0.713434     0.705791     0.698148     0.690505     0.682862     0.675219     0.667576     0.659933     0.652290     0.644646
      0.637003     0.629360     0.621717     0.614074     0.606431     0.598788     0.591145     0.583502     0.575858     0.568215
      0.560572     0.552929     0.545286     0.537643     0.530000     0.522357     0.514714     0.507071     0.499427     0.491784
      0.484141     0.476498     0.468855     0.461212     0.453569     0.445925     0.438282     0.430639     0.422996     0.415353
      0.407710     0.400067     0.392424     0.384780     0.377137     0.369494     0.361851     0.354208     0.346565     0.338922
      0.331278     0.323635     0.315992     0.308349     0.300706     0.293063     0.285420     0.277777     0.270133     0.262490
      0.254847     0.247204     0.239561     0.231918     0.224275     0.216631     0.208988     0.201345
 NY phased data points follow
  -7.84883E-01  4.44312E-01 -9.45791E-01 -2.13701E-01  2.68135E-01 -4.76388E-01  6.59279E-01  7.10024E-01 -1.47456E-01 -6.01701E-01
   9.64510E-02 -1.67245E+00  9.02732E-01 -4.60092E-01 -5.34080E-01 -8.38197E-01 -9.44662E-01  2.99436E-01 -3.71839E-01  7.27202E-02
   4.42603E-01 -3.76835E-01 -3.87045E-01 -2.50519E-01 -3.29923E-01  4.06483E-01 -1.05867E-02 -7.69515E-01 -7.11549E-01 -2.05697E-01
   8.81266E-01  7.02903E-01 -4.09900E-01 -2.74256E-01  3.65080E-01  1.68661E-01 -6.30849E-01 -2.10774E-01  8.89164E-01  2.17249E-01
   6.33466E-02  4.48806E-01  2.95875E-01 -6.81581E-01  1.89792E-01  6.84595E-01 -8.92543E-01 -7.61959E-01 -1.68639E-01 -1.55206E-01
  -3.14221E-01  2.83491E-01  1.23697E+00 -7.15032E-01 -6.91783E-01 -8.40180E-02 -7.41244E-01 -9.98565E-01  7.58559E-01 -3.07522E-01
   2.38934E-01  3.06251E-01 -1.28160E+00  6.22728E-01 -7.87071E-01 -6.94851E-01 -2.35612E-01 -1.70207E+00 -4.79402E-02 -8.32531E-01
  -2.38208E-01 -1.29967E+00 -2.37768E-01 -8.15260E-01 -1.07411E-01 -7.56929E-01 -4.62171E-01 -4.26353E-01 -2.17030E-01  1.57722E+00
  -3.53092E-01 -3.91364E-01 -4.34469E-01 -2.60632E-01 -5.57516E-01 -6.74771E-01 -1.25948E+00 -5.01367E-01  9.59143E-01 -3.56498E-01
  -1.22732E+00  4.45477E-01 -4.28909E-01 -2.89193E-01 -1.27804E-01 -4.31151E-01 -7.96738E-01  7.67164E-01  4.00531E-01 -8.04053E-02
   9.95812E-01  1.86068E-01  5.89791E-01 -7.75864E-01  5.82466E-01  1.97376E-01 -6.81437E-01 -8.81898E-02 -2.48880E-01 -1.08759E-02
  -6.98101E-01 -1.62311E+00 -3.66460E-01 -1.63436E-01 -3.51018E-01 -4.83914E-01  1.05487E-01 -3.13071E-01 -1.10208E+00 -6.06616E-01
  -3.45324E-01 -8.79540E-01  1.77938E-01 -3.31420E-01  5.09591E-01  4.73542E-01 -3.26339E-01  7.64841E-01  6.71792E-01  6.41105E-01
   6.61447E-01 -3.22813E-01 -8.57751E-01  1.28484E+00 -2.19403E-01 -1.65709E+00 -9.24523E-01 -1.39820E+00 -4.11381E-01  3.11268E-02
   2.34744E-01  6.92021E-01 -5.75040E-01  4.54391E-01 -2.03043E-01 -7.61679E-01 -2.91169E-01 -8.26233E-01 -1.37578E+00  2.08865E-01
  -1.11067E-02  2.50795E-01  1.14563E+00  1.23553E+00 -3.08032E-01 -1.61126E-01 -5.28156E-01  2.08718E-01  3.78187E-01 -1.82647E-01
   6.98208E-01  1.05145E-03 -7.06616E-01  2.09177E-01 -2.82779E-01 -5.77893E-01 -3.71031E-01 -4.38324E-01 -7.78874E-02 -1.85668E-01
   2.03458E-01  3.92640E-01  8.46168E-01  2.28197E-01  5.51625E-01 -6.42651E-01 -1.09273E+00 -1.64805E-01  3.34563E-01  2.42660E-01
   7.90757E-01  8.89157E-01  2.15746E-01  9.09522E-01 -6.57462E-01 -1.05481E+00 -7.54292E-02 -5.03072E-01 -5.74614E-01 -7.59517E-01
  -7.72955E-02  4.94414E-01  2.49037E-01  1.12504E+00 -2.31589E-01  2.03160E-01  1.13325E+00 -5.77105E-01 -4.80888E-01  2.42163E-01
   2.34200E-01 -1.89676E-01  3.57347E-01 -4.44360E-01  1.58044E-01  1.11590E+00  4.29129E-01  5.55601E-01 -2.27216E-01  1.83825E+00
   1.33552E+00  8.68313E-01  4.88111E-02 -8.58101E-02  3.93038E-01 -5.80431E-01 -1.96544E-01  3.85701E-01 -1.19087E+00 -3.84539E-01
   1.56697E+00  1.40318E+00  8.21095E-02  1.53598E-01  5.09925E-01  6.61679E-01  1.13826E+00 -7.47747E-01 -5.00642E-01  6.89527E-01
   2.18404E-01 -1.18884E-01  5.62467E-01  7.01514E-01 -3.48641E-01  3.20527E-01  6.59537E-01  1.34662E-01  4.14614E-01 -2.56391E-01
   1.08559E-01  4.07478E-01  7.72776E-01 -8.15089E-01  5.02008E-01  4.73453E-01  9.95076E-01  2.29326E-01  3.53599E-01 -1.31446E+00
   4.22544E-02  1.26505E-01 -4.55886E-01 -3.78378E-01  1.04055E-01 -4.58178E-01  1.09475E+00  5.16857E-01  1.22420E-01  1.48923E+00
   1.54745E+00  2.44656E-01  1.33187E+00  9.34833E-01 -7.55309E-01  6.77917E-01  6.27283E-01 -1.04583E+00  7.78883E-01  4.51445E-01
   8.85115E-01  4.82255E-01 -6.98639E-01 -3.09495E-01  9.39928E-01  1.01049E-01  7.99555E-01  2.63108E-01  8.57696E-01 -6.42876E-01
  -4.38116E-01  4.42550E-01 -7.31007E-02  9.31833E-01  5.89960E-01  1.06554E+00  2.75515E-01  7.19940E-01  7.43410E-01  1.12083E+00
   1.02016E+00  6.06624E-01  1.23738E+00  5.41753E-01  1.22907E+00  2.28660E+00  1.83335E+00 -2.27165E-01  1.02812E+00  9.29608E-01
   6.35969E-01  6.81083E-01  1.89151E+00  3.14352E-01  7.78404E-01  5.62816E-01  3.94218E-03  1.53925E+00  9.63557E-01  8.70588E-01
   1.09535E+00  2.24200E+00  8.46863E-01  1.77767E+00  1.04289E+00  1.63527E+00  7.38855E-01  1.35859E+00  1.79394E+00  1.42042E+00
   1.43781E+00  2.03613E+00  1.73252E+00  5.01677E-01  1.54306E+00  3.47983E-01  9.11679E-01  1.73050E+00  1.61080E+00  1.15045E+00
   1.48017E+00  1.95954E+00  1.04163E+00  1.99003E+00  1.46598E+00  2.12892E+00  1.18855E+00  2.13073E+00  1.67652E+00  1.30369E+00
   1.69678E+00  2.06381E+00  6.53870E-01  1.61486E+00  2.12950E+00  2.38407E+00  7.67749E-01  2.64885E+00  1.99873E+00  2.23438E+00
   2.89674E+00  2.95846E+00  1.98671E+00  2.93116E+00  3.20610E+00  2.55545E+00  2.05652E+00  2.47336E+00  2.67715E+00  2.70577E+00
   3.11725E+00  3.00356E+00  2.22465E+00  3.11581E+00  2.28648E+00  1.57325E+00  2.28765E+00  2.03260E+00  2.63827E+00  3.22296E+00
   7.34975E-01  4.82277E-01  1.22832E+00  2.82732E+00  2.30640E+00  1.26250E+00  1.55556E+00  9.25738E-01  1.77007E+00  2.02972E+00
   1.28159E+00  2.62870E+00  2.71942E+00  1.03628E+00  2.02065E+00  2.88575E+00  1.48642E+00  3.32095E+00  2.50231E+00  1.99381E+00
   2.13996E+00  9.30837E-01  2.17247E+00  2.12090E+00  1.64666E+00  1.30590E+00  2.39568E+00  1.85002E+00  1.18240E+00  1.77603E+00
   1.23983E+00  1.36822E+00 -2.59630E-01  2.08300E-01  1.69567E+00  8.37681E-01  7.26902E-01  1.18045E+00  2.51191E+00  9.42734E-01
   1.47301E+00  2.96394E+00  1.59241E+00  1.07346E+00  1.38083E+00  8.05246E-02  2.13182E+00  2.43525E+00  1.33829E+00 -1.47264E-01
   1.01158E+00  1.44694E+00  1.40279E+00  2.26176E+00  1.08907E+00  1.26058E+00  5.26411E-01  8.67931E-01  1.11536E+00  1.78951E-01
   1.22919E+00  6.84891E-01  5.83834E-01  2.34100E-01  1.83253E+00  3.06003E-01  1.31187E+00  6.15762E-01  1.20101E+00  4.63971E-01
   1.36075E+00  1.25418E+00  1.09562E+00  9.00991E-01  1.19580E+00  2.55286E+00  1.18980E+00  1.10678E+00  5.84535E-01 -3.51096E-01
   6.67533E-01  1.34387E+00  2.06209E-01  1.48496E-01  1.09048E+00  4.23442E-01  1.16738E-01  1.26396E+00  4.63492E-01  6.52521E-01
   7.55681E-01  2.08234E+00  8.75741E-01  5.28716E-01 -3.46478E-01  1.14249E+00 -1.30754E-01  7.55745E-01  2.74689E-01  7.49325E-01
  -1.88025E-01  9.09521E-01  8.73993E-01 -1.18946E+00  5.14487E-01  1.73156E+00  5.13865E-01 -2.11346E-01  1.26018E+00  7.43283E-01
   8.20300E-01 -4.14268E-01  6.50157E-01  1.69198E+00 -2.31223E-02  1.01171E-01  1.01548E+00  6.52197E-01  4.05183E-01 -6.58602E-01
   3.38389E-01  2.91239E-01  7.27375E-01  2.20957E-01  4.75993E-01  1.96401E-01  3.31898E-01 -3.31886E-02
 NY points of the fit to the data follow
  -4.11320E-01 -4.07736E-01 -3.94399E-01 -3.58088E-01 -2.97620E-01 -2.25781E-01 -1.55130E-01 -9.63325E-02 -6.05578E-02 -5.72233E-02
  -8.80392E-02 -1.45043E-01 -2.13305E-01 -2.76158E-01 -3.21510E-01 -3.45246E-01 -3.51760E-01 -3.51683E-01 -3.52537E-01 -3.56707E-01
  -3.63883E-01 -3.72432E-01 -3.79911E-01 -3.78116E-01 -3.40363E-01 -2.53945E-01 -1.36620E-01 -1.17954E-02  9.92298E-02  1.73348E-01
   1.88236E-01  1.37213E-01  3.57911E-02 -8.70263E-02 -1.99792E-01 -2.79177E-01 -3.16374E-01 -3.19642E-01 -3.11676E-01 -3.07015E-01
  -3.05510E-01 -3.02123E-01 -2.91429E-01 -2.72160E-01 -2.47283E-01 -2.22840E-01 -2.05128E-01 -1.98705E-01 -2.05485E-01 -2.23956E-01
  -2.49591E-01 -2.76072E-01 -2.97152E-01 -3.08211E-01 -3.08039E-01 -2.99421E-01 -2.86635E-01 -2.73450E-01 -2.62490E-01 -2.55511E-01
  -2.53611E-01 -2.56611E-01 -2.63287E-01 -2.71186E-01 -2.77667E-01 -2.80603E-01 -2.78228E-01 -2.71139E-01 -2.61807E-01 -2.52189E-01
  -2.43259E-01 -2.35811E-01 -2.30612E-01 -2.27939E-01 -2.27793E-01 -2.29942E-01 -2.33522E-01 -2.37490E-01 -2.40746E-01 -2.42190E-01
  -2.40655E-01 -2.36594E-01 -2.32356E-01 -2.30323E-01 -2.31513E-01 -2.35662E-01 -2.41755E-01 -2.48206E-01 -2.52977E-01 -2.54259E-01
  -2.51028E-01 -2.43687E-01 -2.34074E-01 -2.24119E-01 -2.15345E-01 -2.06068E-01 -1.83103E-01 -1.20477E-01 -2.08065E-02  9.41899E-02
   2.04963E-01  2.93928E-01  3.42093E-01  3.33837E-01  2.67762E-01  1.59760E-01  3.81992E-02 -6.76965E-02 -1.38903E-01 -1.72054E-01
  -1.79422E-01 -1.79560E-01 -1.78088E-01 -1.75564E-01 -1.73064E-01 -1.71174E-01 -1.69808E-01 -1.68542E-01 -1.66291E-01 -1.59876E-01
  -1.38088E-01 -7.62277E-02  2.57755E-02  1.46692E-01  2.65832E-01  3.65183E-01  4.26412E-01  4.36530E-01  3.96680E-01  3.16986E-01
   2.15538E-01  1.14902E-01  3.06301E-02 -3.30610E-02 -8.05893E-02 -1.20347E-01 -1.45753E-01 -1.48107E-01 -1.25407E-01 -8.29610E-02
  -3.23639E-02  1.17956E-02  3.80797E-02  4.48685E-02  3.71902E-02  2.23016E-02  7.37170E-03 -3.51508E-03 -1.01334E-02 -1.40608E-02
  -1.73082E-02 -1.96629E-02 -2.05396E-02 -1.96243E-02 -1.71038E-02 -1.39283E-02 -1.11057E-02 -9.31565E-03 -8.71655E-03 -8.68611E-03
  -8.81004E-03 -8.67496E-03 -7.66003E-03 -5.67106E-03 -3.58540E-03 -2.61475E-03 -3.31221E-03 -5.34397E-03 -7.86442E-03 -1.03679E-02
  -1.34220E-02 -1.76702E-02 -2.26029E-02 -2.77864E-02 -3.29052E-02 -3.79856E-02 -4.26496E-02 -4.61054E-02 -4.78653E-02 -4.93253E-02
  -5.25496E-02 -5.81682E-02 -6.49351E-02 -6.98236E-02 -6.85305E-02 -5.69454E-02 -3.34355E-02 -5.85752E-05  3.75557E-02  7.23487E-02
   9.65872E-02  1.02424E-01  8.39809E-02  4.67593E-02  4.14969E-03 -3.16067E-02 -5.20941E-02 -5.27430E-02 -3.34275E-02 -1.84626E-05
   3.81399E-02  7.21467E-02  9.63331E-02  1.09187E-01  1.12763E-01  1.11452E-01  1.09727E-01  1.08187E-01  1.06152E-01  1.03640E-01
   1.01123E-01  9.90810E-02  9.80538E-02  9.91485E-02  1.03370E-01  1.11031E-01  1.21540E-01  1.33743E-01  1.46546E-01  1.59089E-01
   1.70790E-01  1.81515E-01  1.91154E-01  1.99436E-01  2.05500E-01  2.06815E-01  2.00531E-01  1.88435E-01  1.75403E-01  1.66067E-01
   1.64856E-01  1.77095E-01  2.06512E-01  2.47172E-01  2.86798E-01  3.14209E-01  3.21852E-01  3.06261E-01  2.69529E-01  2.22551E-01
   1.82469E-01  1.62181E-01  1.66772E-01  1.94327E-01  2.37184E-01  2.83821E-01  3.22527E-01  3.47226E-01  3.57083E-01  3.55154E-01
   3.46920E-01  3.38562E-01  3.35617E-01  3.43557E-01  3.79067E-01  4.58229E-01  5.67439E-01  6.83772E-01  7.88349E-01  8.63484E-01
   8.91602E-01  8.62421E-01  7.81178E-01  6.67986E-01  5.51126E-01  4.55838E-01  3.95400E-01  3.68092E-01  3.58935E-01  3.53910E-01
   3.50956E-01  3.49961E-01  3.50644E-01  3.52632E-01  3.55598E-01  3.59253E-01  3.63391E-01  3.68028E-01  3.73373E-01  3.79768E-01
   3.87670E-01  3.97503E-01  4.09568E-01  4.24070E-01  4.41098E-01  4.60633E-01  4.82635E-01  5.07069E-01  5.33898E-01  5.63122E-01
   5.94753E-01  6.28773E-01  6.65099E-01  7.03528E-01  7.43735E-01  7.85301E-01  8.27709E-01  8.70343E-01  9.12517E-01  9.53504E-01
   9.92564E-01  1.02897E+00  1.06204E+00  1.09120E+00  1.11597E+00  1.13605E+00  1.15125E+00  1.16160E+00  1.16727E+00  1.16863E+00
   1.16617E+00  1.16056E+00  1.15252E+00  1.14288E+00  1.13249E+00  1.12222E+00  1.11287E+00  1.10522E+00  1.09993E+00  1.09758E+00
   1.09864E+00  1.10344E+00  1.11223E+00  1.12512E+00  1.14215E+00  1.16327E+00  1.18836E+00  1.21725E+00  1.24973E+00  1.28558E+00
   1.32457E+00  1.36647E+00  1.41106E+00  1.45813E+00  1.50752E+00  1.55904E+00  1.61254E+00  1.66787E+00  1.72490E+00  1.78347E+00
   1.84344E+00  1.90466E+00  1.96696E+00  2.03019E+00  2.09417E+00  2.15869E+00  2.22350E+00  2.28821E+00  2.35227E+00  2.41488E+00
   2.47494E+00  2.53102E+00  2.58145E+00  2.62440E+00  2.65809E+00  2.68098E+00  2.69200E+00  2.69068E+00  2.67722E+00  2.65242E+00
   2.61758E+00  2.57427E+00  2.52415E+00  2.46880E+00  2.40958E+00  2.34763E+00  2.28389E+00  2.21910E+00  2.15389E+00  2.08884E+00
   2.02451E+00  1.96146E+00  1.90023E+00  1.84135E+00  1.78533E+00  1.73261E+00  1.68361E+00  1.63865E+00  1.59801E+00  1.56190E+00
   1.53045E+00  1.50375E+00  1.48183E+00  1.46466E+00  1.45217E+00  1.44423E+00  1.44066E+00  1.44125E+00  1.44571E+00  1.45372E+00
   1.46489E+00  1.47879E+00  1.49494E+00  1.51280E+00  1.53179E+00  1.55130E+00  1.57069E+00  1.58931E+00  1.60651E+00  1.62167E+00
   1.63420E+00  1.64357E+00  1.64931E+00  1.65105E+00  1.64852E+00  1.64155E+00  1.63007E+00  1.61415E+00  1.59394E+00  1.56971E+00
   1.54180E+00  1.51062E+00  1.47666E+00  1.44043E+00  1.40244E+00  1.36323E+00  1.32332E+00  1.28318E+00  1.24325E+00  1.20394E+00
   1.16558E+00  1.12846E+00  1.09281E+00  1.05879E+00  1.02653E+00  9.96107E-01  9.67545E-01  9.40849E-01  9.15988E-01  8.92909E-01
   8.71543E-01  8.51807E-01  8.33610E-01  8.16859E-01  8.01455E-01  7.87305E-01  7.74315E-01  7.62394E-01  7.51458E-01  7.41429E-01
   7.32231E-01  7.23797E-01  7.16063E-01  7.08971E-01  7.02469E-01  6.96508E-01  6.91045E-01  6.86040E-01  6.81456E-01  6.77261E-01
   6.73424E-01  6.69919E-01  6.66721E-01  6.63807E-01  6.61157E-01  6.58752E-01  6.56576E-01  6.54612E-01  6.52847E-01  6.51266E-01
   6.49858E-01  6.48613E-01  6.47519E-01  6.46568E-01  6.45751E-01  6.45059E-01  6.44486E-01  6.44025E-01  6.43669E-01  6.43413E-01
   6.43251E-01  6.43177E-01  6.43188E-01  6.43279E-01  6.43445E-01  6.43684E-01  6.43990E-01  6.44361E-01  6.44794E-01  6.45287E-01
   6.45835E-01  6.46436E-01  6.47088E-01  6.47789E-01  6.48537E-01  6.49329E-01  6.50164E-01  6.51039E-01  6.51953E-01  6.52904E-01
   6.53892E-01  6.54914E-01  6.55970E-01  6.57056E-01  6.58174E-01  6.59321E-01  6.60496E-01  6.61700E-01
 NY background values follow
    -4.630E-01   -4.608E-01   -4.587E-01   -4.565E-01   -4.543E-01   -4.522E-01   -4.500E-01   -4.479E-01   -4.457E-01   -4.436E-01
    -4.414E-01   -4.393E-01   -4.371E-01   -4.350E-01   -4.328E-01   -4.307E-01   -4.285E-01   -4.264E-01   -4.242E-01   -4.221E-01
    -4.199E-01   -4.178E-01   -4.156E-01   -4.134E-01   -4.113E-01   -4.091E-01   -4.070E-01   -4.048E-01   -4.027E-01   -4.005E-01
    -3.984E-01   -3.962E-01   -3.941E-01   -3.919E-01   -3.898E-01   -3.876E-01   -3.855E-01   -3.833E-01   -3.812E-01   -3.790E-01
    -3.769E-01   -3.747E-01   -3.725E-01   -3.704E-01   -3.682E-01   -3.661E-01   -3.639E-01   -3.618E-01   -3.596E-01   -3.575E-01
    -3.553E-01   -3.532E-01   -3.510E-01   -3.489E-01   -3.467E-01   -3.446E-01   -3.424E-01   -3.403E-01   -3.381E-01   -3.360E-01
    -3.338E-01   -3.317E-01   -3.295E-01   -3.273E-01   -3.252E-01   -3.230E-01   -3.209E-01   -3.187E-01   -3.166E-01   -3.144E-01
    -3.123E-01   -3.101E-01   -3.080E-01   -3.058E-01   -3.037E-01   -3.015E-01   -2.994E-01   -2.972E-01   -2.951E-01   -2.929E-01
    -2.908E-01   -2.886E-01   -2.864E-01   -2.843E-01   -2.821E-01   -2.800E-01   -2.778E-01   -2.757E-01   -2.735E-01   -2.714E-01
    -2.692E-01   -2.671E-01   -2.649E-01   -2.628E-01   -2.606E-01   -2.585E-01   -2.563E-01   -2.542E-01   -2.520E-01   -2.499E-01
    -2.477E-01   -2.455E-01   -2.434E-01   -2.412E-01   -2.391E-01   -2.369E-01   -2.348E-01   -2.326E-01   -2.305E-01   -2.283E-01
    -2.262E-01   -2.240E-01   -2.219E-01   -2.197E-01   -2.176E-01   -2.154E-01   -2.133E-01   -2.111E-01   -2.090E-01   -2.068E-01
    -2.046E-01   -2.025E-01   -2.003E-01   -1.982E-01   -1.960E-01   -1.939E-01   -1.917E-01   -1.896E-01   -1.874E-01   -1.853E-01
    -1.831E-01   -1.810E-01   -1.788E-01   -1.767E-01   -1.745E-01   -1.724E-01   -1.702E-01   -1.681E-01   -1.659E-01   -1.637E-01
    -1.616E-01   -1.594E-01   -1.573E-01   -1.551E-01   -1.530E-01   -1.508E-01   -1.487E-01   -1.465E-01   -1.444E-01   -1.422E-01
    -1.401E-01   -1.379E-01   -1.358E-01   -1.336E-01   -1.315E-01   -1.293E-01   -1.272E-01   -1.250E-01   -1.228E-01   -1.207E-01
    -1.185E-01   -1.164E-01   -1.142E-01   -1.121E-01   -1.099E-01   -1.078E-01   -1.056E-01   -1.035E-01   -1.013E-01   -9.917E-02
    -9.701E-02   -9.486E-02   -9.271E-02   -9.056E-02   -8.840E-02   -8.625E-02   -8.410E-02   -8.194E-02   -7.979E-02   -7.764E-02
    -7.549E-02   -7.333E-02   -7.118E-02   -6.903E-02   -6.688E-02   -6.472E-02   -6.257E-02   -6.042E-02   -5.827E-02   -5.611E-02
    -5.396E-02   -5.181E-02   -4.965E-02   -4.750E-02   -4.535E-02   -4.320E-02   -4.104E-02   -3.889E-02   -3.674E-02   -3.459E-02
    -3.243E-02   -3.028E-02   -2.813E-02   -2.597E-02   -2.382E-02   -2.167E-02   -1.952E-02   -1.736E-02   -1.521E-02   -1.306E-02
    -1.091E-02   -8.753E-03   -6.600E-03   -4.448E-03   -2.295E-03   -1.422E-04    2.010E-03    4.163E-03    6.316E-03    8.469E-03
     1.062E-02    1.277E-02    1.493E-02    1.708E-02    1.923E-02    2.138E-02    2.354E-02    2.569E-02    2.784E-02    3.000E-02
     3.215E-02    3.430E-02    3.645E-02    3.861E-02    4.076E-02    4.291E-02    4.506E-02    4.722E-02    4.937E-02    5.152E-02
     5.368E-02    5.583E-02    5.798E-02    6.013E-02    6.229E-02    6.444E-02    6.659E-02    6.874E-02    7.090E-02    7.305E-02
     7.520E-02    7.735E-02    7.951E-02    8.166E-02    8.381E-02    8.597E-02    8.812E-02    9.027E-02    9.242E-02    9.458E-02
     9.673E-02    9.888E-02    1.010E-01    1.032E-01    1.053E-01    1.075E-01    1.096E-01    1.118E-01    1.140E-01    1.161E-01
     1.183E-01    1.204E-01    1.226E-01    1.247E-01    1.269E-01    1.290E-01    1.312E-01    1.333E-01    1.355E-01    1.376E-01
     1.398E-01    1.419E-01    1.441E-01    1.462E-01    1.484E-01    1.505E-01    1.527E-01    1.549E-01    1.570E-01    1.592E-01
     1.613E-01    1.635E-01    1.656E-01    1.678E-01    1.699E-01    1.721E-01    1.742E-01    1.764E-01    1.785E-01    1.807E-01
     1.828E-01    1.850E-01    1.871E-01    1.893E-01    1.914E-01    1.936E-01    1.958E-01    1.979E-01    2.001E-01    2.022E-01
     2.044E-01    2.065E-01    2.087E-01    2.108E-01    2.130E-01    2.151E-01    2.173E-01    2.194E-01    2.216E-01    2.237E-01
     2.259E-01    2.280E-01    2.302E-01    2.323E-01    2.345E-01    2.367E-01    2.388E-01    2.410E-01    2.431E-01    2.453E-01
     2.474E-01    2.496E-01    2.517E-01    2.539E-01    2.560E-01    2.582E-01    2.603E-01    2.625E-01    2.646E-01    2.668E-01
     2.689E-01    2.711E-01    2.732E-01    2.754E-01    2.776E-01    2.797E-01    2.819E-01    2.840E-01    2.862E-01    2.883E-01
     2.905E-01    2.926E-01    2.948E-01    2.969E-01    2.991E-01    3.012E-01    3.034E-01    3.055E-01    3.077E-01    3.098E-01
     3.120E-01    3.141E-01    3.163E-01    3.185E-01    3.206E-01    3.228E-01    3.249E-01    3.271E-01    3.292E-01    3.314E-01
     3.335E-01    3.357E-01    3.378E-01    3.400E-01    3.421E-01    3.443E-01    3.464E-01    3.486E-01    3.507E-01    3.529E-01
     3.550E-01    3.572E-01    3.594E-01    3.615E-01    3.637E-01    3.658E-01    3.680E-01    3.701E-01    3.723E-01    3.744E-01
     3.766E-01    3.787E-01    3.809E-01    3.830E-01    3.852E-01    3.873E-01    3.895E-01    3.916E-01    3.938E-01    3.959E-01
     3.981E-01    4.003E-01    4.024E-01    4.046E-01    4.067E-01    4.089E-01    4.110E-01    4.132E-01    4.153E-01    4.175E-01
     4.196E-01    4.218E-01    4.239E-01    4.261E-01    4.282E-01    4.304E-01    4.325E-01    4.347E-01    4.368E-01    4.390E-01
     4.411E-01    4.433E-01    4.455E-01    4.476E-01    4.498E-01    4.519E-01    4.541E-01    4.562E-01    4.584E-01    4.605E-01
     4.627E-01    4.648E-01    4.670E-01    4.691E-01    4.713E-01    4.734E-01    4.756E-01    4.777E-01    4.799E-01    4.820E-01
     4.842E-01    4.864E-01    4.885E-01    4.907E-01    4.928E-01    4.950E-01    4.971E-01    4.993E-01    5.014E-01    5.036E-01
     5.057E-01    5.079E-01    5.100E-01    5.122E-01    5.143E-01    5.165E-01    5.186E-01    5.208E-01    5.229E-01    5.251E-01
     5.273E-01    5.294E-01    5.316E-01    5.337E-01    5.359E-01    5.380E-01    5.402E-01    5.423E-01    5.445E-01    5.466E-01
     5.488E-01    5.509E-01    5.531E-01    5.552E-01    5.574E-01    5.595E-01    5.617E-01    5.638E-01    5.660E-01    5.682E-01
     5.703E-01    5.725E-01    5.746E-01    5.768E-01    5.789E-01    5.811E-01    5.832E-01    5.854E-01    5.875E-01    5.897E-01
     5.918E-01    5.940E-01    5.961E-01    5.983E-01    6.004E-01    6.026E-01    6.047E-01    6.069E-01
 Asp      Conc. = 2.28E+00
