 LCModel (Version 6.3-1L) Copyright: S.W. Provencher.          Ref.: Magn. Reson. Med. 30:672-679 (1993).                
 Slice#1 Row#11 Col#14  PD_05_press_1_raw_act
 36 lines in following concentration table = NCONC+1
    Conc.  %SD /Cr+PCr  Metabolite                                         
   43.216  71%   2.233 Ala                                                 
    1.077  86% 5.6E-02 Asp                                                 
    0.000 999%   0.000 Cr                                                  
   19.356  56%   1.000 PCr                                                 
    0.646  86% 3.3E-02 GABA                                                
    0.645  86% 3.3E-02 Glc                                                 
    0.000 999%   0.000 Gln                                                 
    2.026 999%   0.105 Glu                                                 
    0.000 999%   0.000 GPC                                                 
    0.736 504% 3.8E-02 PCh                                                 
   25.899  64%   1.338 GSH                                                 
    0.000 999%   0.000 Ins                                                 
    0.000 999%   0.000 Lac                                                 
    0.000 999%   0.000 NAA                                                 
    0.000 999%   0.000 NAAG                                                
    0.216  85% 1.1E-02 Scyllo                                              
    1.083  85% 5.6E-02 Tau                                                 
    2.075  84%   0.107 -CrCH2                                              
    0.736 504% 3.8E-02 GPC+PCh                                             
    0.000 999%   0.000 NAA+NAAG                                            
   19.356  56%   1.000 Cr+PCr                                              
    2.026 999%   0.105 Glu+Gln                                             
 1.24E+03  12%  64.316 Lip13a                                              
    0.000 999%   0.000 Lip13b                                              
  345.317  25%  17.840 Lip09                                               
    8.453 917%   0.437 MM09                                                
   74.953  67%   3.872 Lip20                                               
    0.000 999%   0.000 MM20                                                
   29.478 166%   1.523 MM12                                                
    0.000 999%   0.000 MM14                                                
    0.000 999%   0.000 MM17                                                
 1.24E+03  12%  64.316 Lip13a+Lip13b                                       
 1.27E+03  11%  65.839 MM14+Lip13a+Lip13b+MM12                             
  353.769  17%  18.277 MM09+Lip09                                          
   74.953  67%   3.872 MM20+Lip20                                          
   6 lines in following misc. output table
  FWHM = 0.069 ppm    S/N =   3                                            
  Data shift = 0.054 ppm                                                   
  Ph: -44 deg     -76.3 deg/ppm                                            
  alphaB,S = 8.5E+01,   5.1E+01                                            
   14 spline knots.   Ns =10(1)                                            
   2 inflections.     2 extrema                                            
  498 points on ppm-axis = NY
      4.000000     3.992357     3.984714     3.977070     3.969427     3.961784     3.954141     3.946497     3.938854     3.931211
      3.923568     3.915925     3.908281     3.900638     3.892995     3.885352     3.877708     3.870065     3.862422     3.854779
      3.847136     3.839492     3.831849     3.824206     3.816563     3.808919     3.801276     3.793633     3.785990     3.778347
      3.770703     3.763060     3.755417     3.747774     3.740130     3.732487     3.724844     3.717201     3.709558     3.701914
      3.694271     3.686628     3.678985     3.671341     3.663698     3.656055     3.648412     3.640769     3.633125     3.625482
      3.617839     3.610196     3.602552     3.594909     3.587266     3.579623     3.571980     3.564336     3.556693     3.549050
      3.541407     3.533763     3.526120     3.518477     3.510834     3.503191     3.495547     3.487904     3.480261     3.472618
      3.464974     3.457331     3.449688     3.442045     3.434402     3.426758     3.419115     3.411472     3.403829     3.396185
      3.388542     3.380899     3.373256     3.365613     3.357969     3.350326     3.342683     3.335040     3.327396     3.319753
      3.312110     3.304467     3.296824     3.289180     3.281537     3.273894     3.266251     3.258607     3.250964     3.243321
      3.235678     3.228034     3.220391     3.212748     3.205105     3.197462     3.189818     3.182175     3.174532     3.166889
      3.159245     3.151602     3.143959     3.136316     3.128673     3.121029     3.113386     3.105743     3.098100     3.090456
      3.082813     3.075170     3.067527     3.059884     3.052240     3.044597     3.036954     3.029311     3.021667     3.014024
      3.006381     2.998738     2.991095     2.983451     2.975808     2.968165     2.960522     2.952878     2.945235     2.937592
      2.929949     2.922306     2.914662     2.907019     2.899376     2.891733     2.884089     2.876446     2.868803     2.861160
      2.853517     2.845873     2.838230     2.830587     2.822944     2.815300     2.807657     2.800014     2.792371     2.784728
      2.777084     2.769441     2.761798     2.754155     2.746511     2.738868     2.731225     2.723582     2.715939     2.708295
      2.700652     2.693009     2.685366     2.677722     2.670079     2.662436     2.654793     2.647150     2.639506     2.631863
      2.624220     2.616577     2.608933     2.601290     2.593647     2.586004     2.578361     2.570717     2.563074     2.555431
      2.547788     2.540144     2.532501     2.524858     2.517215     2.509572     2.501928     2.494285     2.486642     2.478999
      2.471355     2.463712     2.456069     2.448426     2.440783     2.433139     2.425496     2.417853     2.410210     2.402566
      2.394923     2.387280     2.379637     2.371994     2.364350     2.356707     2.349064     2.341421     2.333777     2.326134
      2.318491     2.310848     2.303205     2.295561     2.287918     2.280275     2.272632     2.264988     2.257345     2.249702
      2.242059     2.234416     2.226772     2.219129     2.211486     2.203843     2.196199     2.188556     2.180913     2.173270
      2.165627     2.157983     2.150340     2.142697     2.135054     2.127410     2.119767     2.112124     2.104481     2.096838
      2.089194     2.081551     2.073908     2.066265     2.058621     2.050978     2.043335     2.035692     2.028049     2.020405
      2.012762     2.005119     1.997476     1.989833     1.982190     1.974546     1.966903     1.959260     1.951617     1.943974
      1.936331     1.928688     1.921045     1.913402     1.905759     1.898115     1.890472     1.882829     1.875186     1.867543
      1.859900     1.852257     1.844614     1.836971     1.829327     1.821684     1.814041     1.806398     1.798755     1.791112
      1.783469     1.775826     1.768183     1.760540     1.752896     1.745253     1.737610     1.729967     1.722324     1.714681
      1.707038     1.699395     1.691752     1.684108     1.676465     1.668822     1.661179     1.653536     1.645893     1.638250
      1.630607     1.622964     1.615321     1.607677     1.600034     1.592391     1.584748     1.577105     1.569462     1.561819
      1.554176     1.546533     1.538890     1.531246     1.523603     1.515960     1.508317     1.500674     1.493031     1.485388
      1.477745     1.470102     1.462458     1.454815     1.447172     1.439529     1.431886     1.424243     1.416600     1.408957
      1.401314     1.393671     1.386027     1.378384     1.370741     1.363098     1.355455     1.347812     1.340169     1.332526
      1.324883     1.317240     1.309596     1.301953     1.294310     1.286667     1.279024     1.271381     1.263738     1.256095
      1.248452     1.240808     1.233165     1.225522     1.217879     1.210236     1.202593     1.194950     1.187307     1.179664
      1.172021     1.164377     1.156734     1.149091     1.141448     1.133805     1.126162     1.118519     1.110876     1.103233
      1.095590     1.087946     1.080303     1.072660     1.065017     1.057374     1.049731     1.042088     1.034445     1.026802
      1.019158     1.011515     1.003872     0.996229     0.988586     0.980943     0.973300     0.965657     0.958014     0.950371
      0.942727     0.935084     0.927441     0.919798     0.912155     0.904512     0.896869     0.889226     0.881583     0.873940
      0.866296     0.858653     0.851010     0.843367     0.835724     0.828081     0.820438     0.812795     0.805152     0.797508
      0.789865     0.782222     0.774579     0.766936     0.759293     0.751650     0.744007     0.736364     0.728721     0.721077
      0.713434     0.705791     0.698148     0.690505     0.682862     0.675219     0.667576     0.659933     0.652290     0.644646
      0.637003     0.629360     0.621717     0.614074     0.606431     0.598788     0.591145     0.583502     0.575858     0.568215
      0.560572     0.552929     0.545286     0.537643     0.530000     0.522357     0.514714     0.507071     0.499427     0.491784
      0.484141     0.476498     0.468855     0.461212     0.453569     0.445925     0.438282     0.430639     0.422996     0.415353
      0.407710     0.400067     0.392424     0.384780     0.377137     0.369494     0.361851     0.354208     0.346565     0.338922
      0.331278     0.323635     0.315992     0.308349     0.300706     0.293063     0.285420     0.277777     0.270133     0.262490
      0.254847     0.247204     0.239561     0.231918     0.224275     0.216631     0.208988     0.201345
 NY phased data points follow
   7.74185E-01 -4.55333E-01 -5.53608E-01  1.54753E-01 -5.68873E-01 -3.96872E-01  3.82739E-01  9.35948E-01 -6.76242E-01  2.42857E-01
   3.99535E-01  3.95343E-02 -1.08337E+00 -1.88864E-01 -3.68274E-01  3.23692E-01 -3.20756E-01 -3.04714E-01 -6.08606E-01  4.70943E-01
  -2.95216E-01 -2.20609E+00 -2.00198E-02 -1.10669E+00 -5.32249E-01 -4.55243E-01  3.73833E-01  8.57186E-01  5.43869E-01 -8.71058E-01
   1.87517E-01  3.20635E-01  9.53698E-01  1.02335E+00  5.45263E-01 -9.35242E-01 -8.32274E-01 -6.58580E-01 -8.79750E-01 -1.50286E+00
  -1.13423E+00 -1.31061E+00  2.04983E-01  1.76390E-01 -6.56565E-01 -1.80184E-01 -1.03205E+00  8.24113E-02  4.51197E-01 -1.42473E+00
   8.30842E-01 -4.49370E-01 -9.08233E-01  4.97565E-01  1.01858E+00  1.05843E-01 -2.44659E-01 -9.94596E-01 -1.19089E+00 -1.51433E+00
  -4.79913E-01  6.90480E-01  2.90850E-01 -7.13129E-01 -7.60344E-01  1.12247E+00 -7.96208E-01 -1.05339E-01  1.33637E+00 -5.73908E-01
   3.42544E-01  2.08025E-01  1.84236E-01  4.04974E-01 -9.56326E-01 -4.38722E-01 -4.81519E-01 -2.91391E-01 -2.01944E-03 -4.60671E-01
  -1.17994E+00 -4.86375E-01  1.41492E-01  1.29625E+00  4.70414E-01 -8.70428E-01 -2.06638E-01 -9.81700E-01  5.86892E-01  2.78722E-01
  -2.59749E-01  3.69686E-01 -1.03094E+00  3.76070E-01  2.97964E-01 -2.43908E-01  1.59861E+00  1.72336E+00  1.74420E-01  4.37146E-01
   1.00537E+00  9.70265E-01 -2.28520E-01  9.77617E-02  8.68307E-02 -3.87319E-01 -1.21891E+00 -1.37121E+00  9.53031E-01  1.19002E+00
  -1.02875E+00  1.73065E-02 -1.47041E-01  1.01665E+00  7.61581E-01  5.54598E-02 -4.87607E-01 -1.96471E+00 -3.43334E-01  7.19880E-01
  -5.87840E-01  1.44361E-01 -1.00955E+00  7.88116E-01 -6.03341E-01  6.87304E-01  8.48390E-01  2.39905E-01  2.49074E-01  4.49015E-01
   1.57028E+00  6.11392E-01  5.81565E-01  3.25421E-01 -4.48072E-01  8.87899E-01  1.08932E+00 -5.41973E-01  4.06166E-01  2.44129E-01
  -8.90440E-01  9.21335E-01  6.94769E-01 -4.11514E-01  8.87777E-01 -2.09352E-01 -3.86084E-01  8.06370E-01 -4.29669E-01  5.30460E-01
   1.06376E-01 -9.22167E-01 -8.44662E-02 -7.27717E-01  6.64734E-01 -1.10864E+00  1.42916E+00 -8.50000E-02 -1.11365E-01 -4.66067E-01
  -6.06907E-01 -8.02775E-02 -2.64679E-02 -1.05763E+00  1.21245E+00  5.54930E-02  1.51456E-01 -6.94272E-01  1.56981E+00  4.87059E-01
   3.55143E-01  6.45788E-01 -6.04249E-01 -8.65991E-01 -1.13136E+00  6.57850E-02 -1.03600E+00 -1.37133E-01 -2.60761E-01 -9.48992E-02
   6.37117E-01 -1.41985E+00 -5.56827E-01  1.08896E+00 -1.27314E+00 -4.61049E-01 -5.70454E-01 -2.05135E-01 -3.56604E-02  2.75249E-01
   4.72646E-01  5.80097E-01  8.08842E-01 -6.82766E-02  1.16750E+00  1.45038E-01 -8.96685E-01 -4.93357E-01  1.33465E-01 -2.70431E-01
  -5.64188E-01  3.19307E-01  3.33604E-02  7.70605E-01 -2.75600E-01 -1.48895E+00 -1.19547E+00 -7.36458E-01  1.72199E+00 -8.79561E-01
  -3.57418E-01 -1.23996E+00 -1.01509E+00  5.22365E-01  5.83302E-02  1.38125E-01 -1.27020E-01  5.98373E-01  1.86451E+00 -2.80445E-01
  -3.54991E-01  3.45767E-01 -1.50158E+00  4.57202E-01  1.89674E-01 -2.95115E-01 -1.16403E-01 -8.84363E-01 -5.16439E-01  4.43121E-02
  -2.73420E-01 -1.28267E+00 -1.09734E+00 -7.82068E-02 -1.25957E+00  6.43863E-01 -7.52545E-01 -6.39798E-01  1.26793E-01 -9.20825E-01
  -4.50564E-01  2.44287E-01  5.08669E-01 -1.09682E+00 -8.18632E-01  4.07229E-01 -1.54798E-01 -4.51799E-03 -1.75133E-01  1.23990E-01
  -4.49935E-01  6.53292E-01 -1.54162E+00 -5.90198E-01 -7.46759E-01 -3.05366E-01 -2.07002E+00 -1.51536E+00 -1.18357E+00  6.38516E-01
   4.31197E-01  2.34020E-01 -2.92869E-01 -9.73126E-01 -5.62466E-01  2.44023E-01 -9.50998E-01  3.34728E-01 -4.67473E-01  1.73519E+00
   1.77017E+00  6.19954E-01  5.54267E-01 -8.46586E-01  1.74009E-01 -1.31879E-01  3.45722E-01 -1.50409E-01  3.87479E-02  4.35449E-01
  -2.97757E-01  6.30173E-01  8.70936E-01  6.08015E-01 -1.14907E+00  1.06505E+00  5.61348E-01  9.79581E-01  1.83978E-01  1.01034E+00
   3.11710E-01 -1.20591E+00 -2.04836E-01  1.71925E-01 -3.55871E-01 -1.26391E+00 -6.46219E-01 -7.07034E-01  1.39240E-01 -7.24638E-01
   3.56181E-01  7.36500E-01  1.25756E+00  5.21760E-01 -2.05969E-01 -2.41937E-01 -1.24309E+00 -1.15001E+00 -5.17832E-01 -1.07999E+00
   1.76706E-01  1.26452E+00 -1.24696E+00  2.23450E-01 -5.84080E-01 -4.07171E-01  9.76514E-01  6.93547E-01  4.40412E-01 -9.79286E-02
   8.42794E-01  1.35770E+00  3.79623E-01  8.06621E-01  1.50361E+00  3.62849E-01  1.65310E+00  1.43721E+00  3.78459E-01  8.91693E-01
   2.15514E-01  6.20604E-01  3.26148E-04  8.58611E-01  4.38528E-01  1.33895E+00 -1.41216E-01  3.93474E-01  2.01669E+00  8.94701E-01
   2.21996E+00  3.03255E+00  9.25353E-01  2.72355E+00  1.36566E+00  2.01892E+00  2.54195E+00  2.81873E+00  2.01139E+00  3.34608E+00
   2.80623E+00  2.14855E+00  3.54639E+00  2.86933E+00  3.89489E+00  3.68382E+00  1.53491E+00  4.09619E+00  2.79167E+00  4.16269E+00
   2.75845E+00  2.65430E+00  3.45500E+00  4.12162E+00  3.87399E+00  4.32437E+00  3.88721E+00  2.16349E+00  3.88441E+00  4.10731E+00
   3.99970E+00  2.63743E+00  2.83197E+00  2.92725E+00  2.93385E+00  3.71399E+00  2.88484E+00  2.02039E+00  3.20094E+00  1.82616E+00
   2.49791E+00  3.37226E+00  2.75219E+00  1.48748E+00  2.29753E+00  2.30657E+00  2.01406E+00  1.77338E+00  1.91213E+00  2.10425E+00
   2.41463E+00  3.49376E+00  2.62282E+00  5.74354E-01  2.20064E+00  1.48635E+00  2.33209E+00  1.05465E+00  1.59412E+00  1.55991E+00
   1.10478E+00  2.19047E+00  2.61379E+00  1.23236E+00  2.90105E+00  2.75718E+00  2.58907E+00  2.51203E+00  2.91768E+00  1.33753E+00
   2.12342E+00  1.29327E+00  1.22060E+00  1.70762E+00  1.17077E+00  8.21701E-01  2.37363E+00 -4.45881E-01  4.07400E-01  1.02307E-01
   2.41498E-01 -8.89936E-01 -1.33951E-01  8.80019E-01 -2.66176E-01  2.71375E-01 -3.91893E-01  1.62955E-01  4.76588E-01  1.50497E-01
   1.96332E+00 -9.53933E-01 -5.60789E-01  4.42245E-01  6.24421E-01  6.05200E-01 -3.14799E-01 -1.18538E+00 -1.03509E+00  2.21481E-01
  -6.67350E-01 -1.42306E+00 -1.25972E+00 -2.37086E-01 -3.09716E-01  1.42172E-01  3.08120E-01 -1.06604E+00 -1.44596E-01 -1.41501E+00
  -1.11430E+00 -1.07074E+00 -5.17896E-01 -1.32577E+00 -4.25860E-01 -5.76697E-01 -6.39677E-02 -1.63791E+00 -8.69807E-01 -2.13591E-01
  -3.07297E-01  2.57357E-01 -6.71294E-01 -1.49359E-01 -4.55766E-02 -3.29819E-01 -5.21996E-01 -1.99567E+00  6.38195E-02 -3.86970E-01
  -6.85199E-01 -8.95775E-01  6.21747E-01 -3.71101E-01 -1.44716E+00 -1.55266E+00 -7.80488E-01 -5.93357E-01 -7.91286E-01 -6.23005E-01
  -1.33439E+00 -1.11643E+00 -8.69351E-01 -3.83574E-01 -1.60086E+00 -5.26403E-01 -6.00204E-01 -9.29829E-02 -7.66405E-01 -1.17319E+00
   6.51412E-02 -6.11254E-01  5.97345E-01 -1.84585E+00 -7.12506E-01 -3.27949E-01 -1.26245E+00 -5.93928E-01
 NY points of the fit to the data follow
  -6.37423E-02 -7.18488E-02 -6.51083E-02 -3.97029E-02  4.20192E-03  6.24939E-02  1.27020E-01  1.88834E-01  2.41798E-01  2.80973E-01
   3.02032E-01  3.01048E-01  2.74829E-01  2.25119E-01  1.60870E-01  9.34208E-02  3.59238E-02 -2.82068E-03 -2.26963E-02 -3.12702E-02
  -4.37308E-02 -5.72888E-02 -5.93964E-02 -4.33518E-02 -8.55025E-03  4.51258E-02  1.14345E-01  1.88230E-01  2.55467E-01  3.11144E-01
   3.55420E-01  3.87657E-01  4.01046E-01  3.86274E-01  3.40859E-01  2.73103E-01  1.96669E-01  1.23082E-01  5.80092E-02  4.51442E-03
  -3.42353E-02 -5.93568E-02 -7.71864E-02 -9.15481E-02 -1.01525E-01 -1.06388E-01 -1.07483E-01 -1.06495E-01 -1.04551E-01 -1.02452E-01
  -1.00919E-01 -1.00493E-01 -1.01128E-01 -1.02350E-01 -1.03801E-01 -1.05361E-01 -1.07011E-01 -1.08734E-01 -1.10443E-01 -1.12099E-01
  -1.13614E-01 -1.14934E-01 -1.16099E-01 -1.17189E-01 -1.18283E-01 -1.19538E-01 -1.21046E-01 -1.22635E-01 -1.24088E-01 -1.25263E-01
  -1.26090E-01 -1.26600E-01 -1.26970E-01 -1.27397E-01 -1.27997E-01 -1.28864E-01 -1.30200E-01 -1.31941E-01 -1.33733E-01 -1.35287E-01
  -1.36394E-01 -1.36914E-01 -1.36792E-01 -1.36101E-01 -1.35069E-01 -1.34023E-01 -1.33290E-01 -1.33194E-01 -1.34094E-01 -1.36254E-01
  -1.39519E-01 -1.43452E-01 -1.47650E-01 -1.52416E-01 -1.57746E-01 -1.61815E-01 -1.62888E-01 -1.60012E-01 -1.53138E-01 -1.42941E-01
  -1.30853E-01 -1.18819E-01 -1.08487E-01 -1.00840E-01 -9.63633E-02 -9.54147E-02 -9.84572E-02 -1.05625E-01 -1.16055E-01 -1.27824E-01
  -1.38606E-01 -1.47123E-01 -1.53257E-01 -1.57302E-01 -1.59996E-01 -1.63095E-01 -1.71319E-01 -1.93152E-01 -2.18540E-01 -2.29120E-01
  -2.12224E-01 -1.62694E-01 -8.23916E-02  1.94348E-02  1.29019E-01  2.36353E-01  3.34495E-01  4.16986E-01  4.76703E-01  5.02492E-01
   4.82934E-01  4.15841E-01  3.12260E-01  1.93946E-01  8.23500E-02 -1.01157E-02 -7.89442E-02 -1.22280E-01 -1.41643E-01 -1.42508E-01
  -1.29262E-01 -1.05258E-01 -7.56749E-02 -4.66475E-02 -2.37524E-02 -1.13266E-02 -1.10283E-02 -2.07762E-02 -3.63732E-02 -5.35977E-02
  -6.94112E-02 -8.22780E-02 -9.18051E-02 -9.85076E-02 -1.03283E-01 -1.06666E-01 -1.08857E-01 -1.10180E-01 -1.11068E-01 -1.12010E-01
  -1.13564E-01 -1.16177E-01 -1.19948E-01 -1.24635E-01 -1.29782E-01 -1.34832E-01 -1.39350E-01 -1.43162E-01 -1.46392E-01 -1.49384E-01
  -1.52583E-01 -1.56410E-01 -1.61161E-01 -1.66947E-01 -1.73799E-01 -1.80961E-01 -1.88323E-01 -1.96365E-01 -2.05443E-01 -2.16161E-01
  -2.29501E-01 -2.45604E-01 -2.62580E-01 -2.76436E-01 -2.83066E-01 -2.80099E-01 -2.67030E-01 -2.44580E-01 -2.15976E-01 -1.89145E-01
  -1.70888E-01 -1.64415E-01 -1.70362E-01 -1.87572E-01 -2.13068E-01 -2.42376E-01 -2.70503E-01 -2.92718E-01 -3.05580E-01 -3.07236E-01
  -2.96997E-01 -2.76241E-01 -2.49224E-01 -2.21843E-01 -1.99061E-01 -1.83113E-01 -1.73853E-01 -1.69976E-01 -1.69855E-01 -1.71292E-01
  -1.72267E-01 -1.72082E-01 -1.70924E-01 -1.69246E-01 -1.67586E-01 -1.66236E-01 -1.65075E-01 -1.63816E-01 -1.62121E-01 -1.59667E-01
  -1.55964E-01 -1.49734E-01 -1.40815E-01 -1.31955E-01 -1.26221E-01 -1.25529E-01 -1.30674E-01 -1.41746E-01 -1.56058E-01 -1.66418E-01
  -1.67154E-01 -1.57001E-01 -1.38108E-01 -1.14123E-01 -8.93224E-02 -6.95969E-02 -6.02738E-02 -6.30777E-02 -7.70478E-02 -9.95306E-02
  -1.26676E-01 -1.53584E-01 -1.74367E-01 -1.83754E-01 -1.78966E-01 -1.61294E-01 -1.35025E-01 -1.05264E-01 -7.72138E-02 -5.59895E-02
  -4.48101E-02 -4.34093E-02 -4.88713E-02 -5.77587E-02 -6.73572E-02 -7.54536E-02 -8.04859E-02 -8.23514E-02 -8.22308E-02 -8.15551E-02
  -8.13691E-02 -8.23254E-02 -8.47654E-02 -8.87751E-02 -9.42233E-02 -1.00836E-01 -1.08302E-01 -1.16327E-01 -1.24597E-01 -1.32789E-01
  -1.40616E-01 -1.47854E-01 -1.54367E-01 -1.60108E-01 -1.65082E-01 -1.69365E-01 -1.73080E-01 -1.76335E-01 -1.79185E-01 -1.81651E-01
  -1.83719E-01 -1.85329E-01 -1.86395E-01 -1.86849E-01 -1.86641E-01 -1.85756E-01 -1.84207E-01 -1.82033E-01 -1.79291E-01 -1.76047E-01
  -1.72351E-01 -1.68232E-01 -1.63701E-01 -1.58751E-01 -1.53363E-01 -1.47515E-01 -1.41176E-01 -1.34320E-01 -1.26925E-01 -1.18966E-01
  -1.10412E-01 -1.01227E-01 -9.13750E-02 -8.08149E-02 -6.94991E-02 -5.73762E-02 -4.43893E-02 -3.04748E-02 -1.55620E-02  4.26149E-04
   1.75723E-02  3.59607E-02  5.56685E-02  7.67410E-02  9.91246E-02  1.22451E-01  1.45192E-01  1.64415E-01  1.91582E-01  2.45725E-01
   3.30797E-01  4.39448E-01  5.58542E-01  6.72427E-01  7.64728E-01  8.13554E-01  8.01311E-01  7.36368E-01  6.39486E-01  5.32865E-01
   4.38198E-01  3.79920E-01  3.80825E-01  4.52211E-01  5.91790E-01  7.85875E-01  1.01633E+00  1.26571E+00  1.51190E+00  1.72923E+00
   1.90240E+00  2.03290E+00  2.13391E+00  2.22109E+00  2.30530E+00  2.39448E+00  2.49539E+00  2.60898E+00  2.73030E+00  2.85418E+00
   2.97712E+00  3.09653E+00  3.21014E+00  3.31595E+00  3.41208E+00  3.49688E+00  3.56884E+00  3.62673E+00  3.66954E+00  3.69656E+00
   3.70736E+00  3.70185E+00  3.68025E+00  3.64308E+00  3.59118E+00  3.52563E+00  3.44779E+00  3.35917E+00  3.26149E+00  3.15654E+00
   3.04620E+00  2.93236E+00  2.81690E+00  2.70164E+00  2.58831E+00  2.47853E+00  2.37380E+00  2.27545E+00  2.18468E+00  2.10251E+00
   2.02979E+00  1.96721E+00  1.91529E+00  1.87434E+00  1.84452E+00  1.82578E+00  1.81787E+00  1.82034E+00  1.83250E+00  1.85346E+00
   1.88210E+00  1.91707E+00  1.95682E+00  1.99962E+00  2.04361E+00  2.08680E+00  2.12719E+00  2.16275E+00  2.19158E+00  2.21191E+00
   2.22220E+00  2.22118E+00  2.20793E+00  2.18189E+00  2.14288E+00  2.09112E+00  2.02718E+00  1.95200E+00  1.86677E+00  1.77295E+00
   1.67212E+00  1.56598E+00  1.45624E+00  1.34456E+00  1.23253E+00  1.12155E+00  1.01290E+00  9.07611E-01  8.06548E-01  7.10350E-01
   6.19463E-01  5.34159E-01  4.54550E-01  3.80615E-01  3.12226E-01  2.49172E-01  1.91180E-01  1.37936E-01  8.91048E-02  4.43404E-02
   3.29969E-03 -3.43498E-02 -6.89237E-02 -1.00718E-01 -1.30004E-01 -1.57032E-01 -1.82027E-01 -2.05194E-01 -2.26713E-01 -2.46749E-01
  -2.65446E-01 -2.82934E-01 -2.99325E-01 -3.14724E-01 -3.29219E-01 -3.42891E-01 -3.55813E-01 -3.68047E-01 -3.79652E-01 -3.90678E-01
  -4.01171E-01 -4.11173E-01 -4.20721E-01 -4.29848E-01 -4.38586E-01 -4.46961E-01 -4.54999E-01 -4.62722E-01 -4.70152E-01 -4.77307E-01
  -4.84205E-01 -4.90863E-01 -4.97294E-01 -5.03513E-01 -5.09532E-01 -5.15363E-01 -5.21015E-01 -5.26501E-01 -5.31827E-01 -5.37004E-01
  -5.42038E-01 -5.46938E-01 -5.51711E-01 -5.56361E-01 -5.60897E-01 -5.65323E-01 -5.69645E-01 -5.73867E-01 -5.77994E-01 -5.82031E-01
  -5.85982E-01 -5.89850E-01 -5.93640E-01 -5.97354E-01 -6.00996E-01 -6.04569E-01 -6.08075E-01 -6.11518E-01 -6.14901E-01 -6.18224E-01
  -6.21492E-01 -6.24706E-01 -6.27867E-01 -6.30979E-01 -6.34043E-01 -6.37060E-01 -6.40033E-01 -6.42963E-01
 NY background values follow
    -5.751E-02   -5.888E-02   -6.024E-02   -6.160E-02   -6.297E-02   -6.433E-02   -6.569E-02   -6.706E-02   -6.842E-02   -6.978E-02
    -7.114E-02   -7.251E-02   -7.387E-02   -7.523E-02   -7.660E-02   -7.796E-02   -7.932E-02   -8.069E-02   -8.205E-02   -8.341E-02
    -8.478E-02   -8.614E-02   -8.750E-02   -8.887E-02   -9.023E-02   -9.159E-02   -9.296E-02   -9.432E-02   -9.568E-02   -9.705E-02
    -9.841E-02   -9.977E-02   -1.011E-01   -1.025E-01   -1.039E-01   -1.052E-01   -1.066E-01   -1.080E-01   -1.093E-01   -1.107E-01
    -1.120E-01   -1.134E-01   -1.148E-01   -1.161E-01   -1.175E-01   -1.189E-01   -1.202E-01   -1.216E-01   -1.229E-01   -1.243E-01
    -1.257E-01   -1.270E-01   -1.284E-01   -1.298E-01   -1.311E-01   -1.325E-01   -1.339E-01   -1.352E-01   -1.366E-01   -1.379E-01
    -1.393E-01   -1.407E-01   -1.420E-01   -1.434E-01   -1.448E-01   -1.461E-01   -1.475E-01   -1.488E-01   -1.502E-01   -1.516E-01
    -1.529E-01   -1.543E-01   -1.557E-01   -1.570E-01   -1.584E-01   -1.598E-01   -1.611E-01   -1.625E-01   -1.638E-01   -1.652E-01
    -1.666E-01   -1.679E-01   -1.693E-01   -1.707E-01   -1.720E-01   -1.734E-01   -1.748E-01   -1.761E-01   -1.775E-01   -1.788E-01
    -1.802E-01   -1.816E-01   -1.829E-01   -1.843E-01   -1.857E-01   -1.870E-01   -1.884E-01   -1.897E-01   -1.911E-01   -1.925E-01
    -1.938E-01   -1.952E-01   -1.966E-01   -1.979E-01   -1.993E-01   -2.007E-01   -2.020E-01   -2.034E-01   -2.047E-01   -2.061E-01
    -2.075E-01   -2.088E-01   -2.102E-01   -2.116E-01   -2.129E-01   -2.143E-01   -2.156E-01   -2.170E-01   -2.184E-01   -2.197E-01
    -2.211E-01   -2.225E-01   -2.238E-01   -2.252E-01   -2.266E-01   -2.279E-01   -2.293E-01   -2.306E-01   -2.320E-01   -2.334E-01
    -2.347E-01   -2.361E-01   -2.375E-01   -2.388E-01   -2.402E-01   -2.416E-01   -2.429E-01   -2.443E-01   -2.456E-01   -2.470E-01
    -2.484E-01   -2.497E-01   -2.511E-01   -2.525E-01   -2.538E-01   -2.552E-01   -2.566E-01   -2.579E-01   -2.593E-01   -2.606E-01
    -2.620E-01   -2.634E-01   -2.647E-01   -2.661E-01   -2.675E-01   -2.688E-01   -2.702E-01   -2.716E-01   -2.729E-01   -2.743E-01
    -2.756E-01   -2.770E-01   -2.784E-01   -2.797E-01   -2.811E-01   -2.825E-01   -2.838E-01   -2.852E-01   -2.865E-01   -2.879E-01
    -2.893E-01   -2.906E-01   -2.920E-01   -2.934E-01   -2.947E-01   -2.961E-01   -2.975E-01   -2.988E-01   -3.002E-01   -3.015E-01
    -3.029E-01   -3.043E-01   -3.056E-01   -3.070E-01   -3.084E-01   -3.097E-01   -3.111E-01   -3.125E-01   -3.138E-01   -3.152E-01
    -3.165E-01   -3.179E-01   -3.193E-01   -3.206E-01   -3.220E-01   -3.234E-01   -3.247E-01   -3.261E-01   -3.275E-01   -3.288E-01
    -3.302E-01   -3.315E-01   -3.329E-01   -3.343E-01   -3.356E-01   -3.370E-01   -3.384E-01   -3.397E-01   -3.411E-01   -3.425E-01
    -3.438E-01   -3.452E-01   -3.465E-01   -3.479E-01   -3.493E-01   -3.506E-01   -3.520E-01   -3.534E-01   -3.547E-01   -3.561E-01
    -3.575E-01   -3.588E-01   -3.602E-01   -3.615E-01   -3.629E-01   -3.643E-01   -3.656E-01   -3.670E-01   -3.684E-01   -3.697E-01
    -3.711E-01   -3.725E-01   -3.738E-01   -3.752E-01   -3.766E-01   -3.779E-01   -3.793E-01   -3.806E-01   -3.820E-01   -3.834E-01
    -3.847E-01   -3.861E-01   -3.875E-01   -3.888E-01   -3.902E-01   -3.916E-01   -3.929E-01   -3.943E-01   -3.956E-01   -3.970E-01
    -3.984E-01   -3.997E-01   -4.011E-01   -4.025E-01   -4.038E-01   -4.052E-01   -4.066E-01   -4.079E-01   -4.093E-01   -4.106E-01
    -4.120E-01   -4.134E-01   -4.147E-01   -4.161E-01   -4.175E-01   -4.188E-01   -4.202E-01   -4.216E-01   -4.229E-01   -4.243E-01
    -4.256E-01   -4.270E-01   -4.284E-01   -4.297E-01   -4.311E-01   -4.325E-01   -4.338E-01   -4.352E-01   -4.366E-01   -4.379E-01
    -4.393E-01   -4.407E-01   -4.420E-01   -4.434E-01   -4.447E-01   -4.461E-01   -4.475E-01   -4.488E-01   -4.502E-01   -4.516E-01
    -4.529E-01   -4.543E-01   -4.557E-01   -4.570E-01   -4.584E-01   -4.597E-01   -4.611E-01   -4.625E-01   -4.638E-01   -4.652E-01
    -4.666E-01   -4.679E-01   -4.693E-01   -4.707E-01   -4.720E-01   -4.734E-01   -4.748E-01   -4.761E-01   -4.775E-01   -4.788E-01
    -4.802E-01   -4.816E-01   -4.829E-01   -4.843E-01   -4.857E-01   -4.870E-01   -4.884E-01   -4.898E-01   -4.911E-01   -4.925E-01
    -4.938E-01   -4.952E-01   -4.966E-01   -4.979E-01   -4.993E-01   -5.007E-01   -5.020E-01   -5.034E-01   -5.048E-01   -5.061E-01
    -5.075E-01   -5.089E-01   -5.102E-01   -5.116E-01   -5.129E-01   -5.143E-01   -5.157E-01   -5.170E-01   -5.184E-01   -5.198E-01
    -5.211E-01   -5.225E-01   -5.239E-01   -5.252E-01   -5.266E-01   -5.279E-01   -5.293E-01   -5.307E-01   -5.320E-01   -5.334E-01
    -5.348E-01   -5.361E-01   -5.375E-01   -5.389E-01   -5.402E-01   -5.416E-01   -5.430E-01   -5.443E-01   -5.457E-01   -5.470E-01
    -5.484E-01   -5.498E-01   -5.511E-01   -5.525E-01   -5.539E-01   -5.552E-01   -5.566E-01   -5.580E-01   -5.593E-01   -5.607E-01
    -5.621E-01   -5.634E-01   -5.648E-01   -5.661E-01   -5.675E-01   -5.689E-01   -5.702E-01   -5.716E-01   -5.730E-01   -5.743E-01
    -5.757E-01   -5.771E-01   -5.784E-01   -5.798E-01   -5.811E-01   -5.825E-01   -5.839E-01   -5.852E-01   -5.866E-01   -5.880E-01
    -5.893E-01   -5.907E-01   -5.921E-01   -5.934E-01   -5.948E-01   -5.962E-01   -5.975E-01   -5.989E-01   -6.002E-01   -6.016E-01
    -6.030E-01   -6.043E-01   -6.057E-01   -6.071E-01   -6.084E-01   -6.098E-01   -6.112E-01   -6.125E-01   -6.139E-01   -6.153E-01
    -6.166E-01   -6.180E-01   -6.193E-01   -6.207E-01   -6.221E-01   -6.234E-01   -6.248E-01   -6.262E-01   -6.275E-01   -6.289E-01
    -6.303E-01   -6.316E-01   -6.330E-01   -6.344E-01   -6.357E-01   -6.371E-01   -6.384E-01   -6.398E-01   -6.412E-01   -6.425E-01
    -6.439E-01   -6.453E-01   -6.466E-01   -6.480E-01   -6.494E-01   -6.507E-01   -6.521E-01   -6.535E-01   -6.548E-01   -6.562E-01
    -6.575E-01   -6.589E-01   -6.603E-01   -6.616E-01   -6.630E-01   -6.644E-01   -6.657E-01   -6.671E-01   -6.685E-01   -6.698E-01
    -6.712E-01   -6.725E-01   -6.739E-01   -6.753E-01   -6.766E-01   -6.780E-01   -6.794E-01   -6.807E-01   -6.821E-01   -6.835E-01
    -6.848E-01   -6.862E-01   -6.876E-01   -6.889E-01   -6.903E-01   -6.916E-01   -6.930E-01   -6.944E-01   -6.957E-01   -6.971E-01
    -6.985E-01   -6.998E-01   -7.012E-01   -7.026E-01   -7.039E-01   -7.053E-01   -7.067E-01   -7.080E-01   -7.094E-01   -7.107E-01
    -7.121E-01   -7.135E-01   -7.148E-01   -7.162E-01   -7.176E-01   -7.189E-01   -7.203E-01   -7.217E-01   -7.230E-01   -7.244E-01
    -7.258E-01   -7.271E-01   -7.285E-01   -7.298E-01   -7.312E-01   -7.326E-01   -7.339E-01   -7.353E-01
 Ala      Conc. = 4.32E+01
