 LCModel (Version 6.3-1L) Copyright: S.W. Provencher.          Ref.: Magn. Reson. Med. 30:672-679 (1993).                
 Slice#2 Row#9 Col#10  PD_05_press_1_raw_act
 36 lines in following concentration table = NCONC+1
    Conc.  %SD /Cr+PCr  Metabolite                                         
   30.399 230% 2.3E-02 Ala                                                 
    0.000 999%   0.000 Asp                                                 
  256.753  66%   0.197 Cr                                                  
 1.04E+03  17%   0.803 PCr                                                 
    0.000 999%   0.000 GABA                                                
    0.000 999%   0.000 Glc                                                 
  695.427  21%   0.535 Gln                                                 
 1.55E+03  11%   1.195 Glu                                                 
  513.104   3%   0.395 GPC                                                 
    0.000 999%   0.000 PCh                                                 
  314.210  16%   0.242 GSH                                                 
 1.03E+03  17%   0.794 Ins                                                 
    0.000 999%   0.000 Lac                                                 
 2.19E+03   4%   1.686 NAA                                                 
  369.651  20%   0.284 NAAG                                                
  102.957  20% 7.9E-02 Scyllo                                              
    0.000 999%   0.000 Tau                                                 
  381.342  22%   0.293 -CrCH2                                              
  513.104   3%   0.395 GPC+PCh                                             
 2.56E+03   3%   1.971 NAA+NAAG                                            
 1.30E+03   3%   1.000 Cr+PCr                                              
 2.25E+03  10%   1.730 Glu+Gln                                             
   30.133 950% 2.3E-02 Lip13a                                              
   18.037 746% 1.4E-02 Lip13b                                              
    0.000 999%   0.000 Lip09                                               
 1.25E+03  15%   0.960 MM09                                                
   18.841 292% 1.4E-02 Lip20                                               
 2.84E+03  11%   2.186 MM20                                                
  396.610  32%   0.305 MM12                                                
  619.413  40%   0.476 MM14                                                
  916.553  24%   0.705 MM17                                                
   48.170 416% 3.7E-02 Lip13a+Lip13b                                       
 1.06E+03  31%   0.818 MM14+Lip13a+Lip13b+MM12                             
 1.25E+03  15%   0.960 MM09+Lip09                                          
 2.86E+03  11%   2.200 MM20+Lip20                                          
   6 lines in following misc. output table
  FWHM = 0.046 ppm    S/N =  18                                            
  Data shift = 0.015 ppm                                                   
  Ph: -41 deg     -16.7 deg/ppm                                            
  alphaB,S = 6.6E-01,   1.4E+02                                            
   14 spline knots.   Ns = 6(1)                                            
  ( 9) 2 infls.   ( 1) 1 extrs.                                            
  498 points on ppm-axis = NY
      4.000000     3.992357     3.984714     3.977070     3.969427     3.961784     3.954141     3.946497     3.938854     3.931211
      3.923568     3.915925     3.908281     3.900638     3.892995     3.885352     3.877708     3.870065     3.862422     3.854779
      3.847136     3.839492     3.831849     3.824206     3.816563     3.808919     3.801276     3.793633     3.785990     3.778347
      3.770703     3.763060     3.755417     3.747774     3.740130     3.732487     3.724844     3.717201     3.709558     3.701914
      3.694271     3.686628     3.678985     3.671341     3.663698     3.656055     3.648412     3.640769     3.633125     3.625482
      3.617839     3.610196     3.602552     3.594909     3.587266     3.579623     3.571980     3.564336     3.556693     3.549050
      3.541407     3.533763     3.526120     3.518477     3.510834     3.503191     3.495547     3.487904     3.480261     3.472618
      3.464974     3.457331     3.449688     3.442045     3.434402     3.426758     3.419115     3.411472     3.403829     3.396185
      3.388542     3.380899     3.373256     3.365613     3.357969     3.350326     3.342683     3.335040     3.327396     3.319753
      3.312110     3.304467     3.296824     3.289180     3.281537     3.273894     3.266251     3.258607     3.250964     3.243321
      3.235678     3.228034     3.220391     3.212748     3.205105     3.197462     3.189818     3.182175     3.174532     3.166889
      3.159245     3.151602     3.143959     3.136316     3.128673     3.121029     3.113386     3.105743     3.098100     3.090456
      3.082813     3.075170     3.067527     3.059884     3.052240     3.044597     3.036954     3.029311     3.021667     3.014024
      3.006381     2.998738     2.991095     2.983451     2.975808     2.968165     2.960522     2.952878     2.945235     2.937592
      2.929949     2.922306     2.914662     2.907019     2.899376     2.891733     2.884089     2.876446     2.868803     2.861160
      2.853517     2.845873     2.838230     2.830587     2.822944     2.815300     2.807657     2.800014     2.792371     2.784728
      2.777084     2.769441     2.761798     2.754155     2.746511     2.738868     2.731225     2.723582     2.715939     2.708295
      2.700652     2.693009     2.685366     2.677722     2.670079     2.662436     2.654793     2.647150     2.639506     2.631863
      2.624220     2.616577     2.608933     2.601290     2.593647     2.586004     2.578361     2.570717     2.563074     2.555431
      2.547788     2.540144     2.532501     2.524858     2.517215     2.509572     2.501928     2.494285     2.486642     2.478999
      2.471355     2.463712     2.456069     2.448426     2.440783     2.433139     2.425496     2.417853     2.410210     2.402566
      2.394923     2.387280     2.379637     2.371994     2.364350     2.356707     2.349064     2.341421     2.333777     2.326134
      2.318491     2.310848     2.303205     2.295561     2.287918     2.280275     2.272632     2.264988     2.257345     2.249702
      2.242059     2.234416     2.226772     2.219129     2.211486     2.203843     2.196199     2.188556     2.180913     2.173270
      2.165627     2.157983     2.150340     2.142697     2.135054     2.127410     2.119767     2.112124     2.104481     2.096838
      2.089194     2.081551     2.073908     2.066265     2.058621     2.050978     2.043335     2.035692     2.028049     2.020405
      2.012762     2.005119     1.997476     1.989833     1.982190     1.974546     1.966903     1.959260     1.951617     1.943974
      1.936331     1.928688     1.921045     1.913402     1.905759     1.898115     1.890472     1.882829     1.875186     1.867543
      1.859900     1.852257     1.844614     1.836971     1.829327     1.821684     1.814041     1.806398     1.798755     1.791112
      1.783469     1.775826     1.768183     1.760540     1.752896     1.745253     1.737610     1.729967     1.722324     1.714681
      1.707038     1.699395     1.691752     1.684108     1.676465     1.668822     1.661179     1.653536     1.645893     1.638250
      1.630607     1.622964     1.615321     1.607677     1.600034     1.592391     1.584748     1.577105     1.569462     1.561819
      1.554176     1.546533     1.538890     1.531246     1.523603     1.515960     1.508317     1.500674     1.493031     1.485388
      1.477745     1.470102     1.462458     1.454815     1.447172     1.439529     1.431886     1.424243     1.416600     1.408957
      1.401314     1.393671     1.386027     1.378384     1.370741     1.363098     1.355455     1.347812     1.340169     1.332526
      1.324883     1.317240     1.309596     1.301953     1.294310     1.286667     1.279024     1.271381     1.263738     1.256095
      1.248452     1.240808     1.233165     1.225522     1.217879     1.210236     1.202593     1.194950     1.187307     1.179664
      1.172021     1.164377     1.156734     1.149091     1.141448     1.133805     1.126162     1.118519     1.110876     1.103233
      1.095590     1.087946     1.080303     1.072660     1.065017     1.057374     1.049731     1.042088     1.034445     1.026802
      1.019158     1.011515     1.003872     0.996229     0.988586     0.980943     0.973300     0.965657     0.958014     0.950371
      0.942727     0.935084     0.927441     0.919798     0.912155     0.904512     0.896869     0.889226     0.881583     0.873940
      0.866296     0.858653     0.851010     0.843367     0.835724     0.828081     0.820438     0.812795     0.805152     0.797508
      0.789865     0.782222     0.774579     0.766936     0.759293     0.751650     0.744007     0.736364     0.728721     0.721077
      0.713434     0.705791     0.698148     0.690505     0.682862     0.675219     0.667576     0.659933     0.652290     0.644646
      0.637003     0.629360     0.621717     0.614074     0.606431     0.598788     0.591145     0.583502     0.575858     0.568215
      0.560572     0.552929     0.545286     0.537643     0.530000     0.522357     0.514714     0.507071     0.499427     0.491784
      0.484141     0.476498     0.468855     0.461212     0.453569     0.445925     0.438282     0.430639     0.422996     0.415353
      0.407710     0.400067     0.392424     0.384780     0.377137     0.369494     0.361851     0.354208     0.346565     0.338922
      0.331278     0.323635     0.315992     0.308349     0.300706     0.293063     0.285420     0.277777     0.270133     0.262490
      0.254847     0.247204     0.239561     0.231918     0.224275     0.216631     0.208988     0.201345
 NY phased data points follow
  -6.29227E+00 -5.83585E+00 -7.48742E+00 -7.27662E+00 -1.93551E+00  3.80804E+00  4.76420E+00  1.16269E+01  1.39286E+01  1.83783E+01
   1.86460E+01  2.08479E+01  1.59239E+01  1.44020E+01  5.96256E+00  5.16704E+00  2.13460E+00 -3.81255E-01 -2.47261E+00 -4.53299E+00
  -3.08647E+00 -1.75841E+00  1.43567E+00 -2.10415E-01  8.49743E-01 -3.73833E-02  1.78457E+00  4.17592E+00  2.60268E+00  2.06063E+00
   6.42684E+00  7.16539E+00  2.68963E+00  3.91714E+00  2.79780E+00  3.12735E+00  1.52880E+00  3.86808E+00  2.44041E+00 -6.60184E-01
   2.44605E+00  5.41686E+00  6.49218E+00  3.42668E+00  9.98740E+00  7.79526E+00  1.14399E+01  1.23899E+01  8.51363E+00  6.61361E+00
   5.98303E+00  4.74593E+00  6.54007E+00  3.58581E+00  4.86712E+00  3.67822E+00  3.35722E+00  3.03581E+00  5.19157E+00 -4.65963E-01
   1.82537E+00 -1.40048E+00 -3.64689E-01 -1.14119E+00 -5.25173E+00 -6.50984E+00 -5.31041E+00 -5.01854E+00 -2.09293E+00 -3.11539E+00
  -1.78099E+00 -1.76981E+00 -1.35180E-01 -2.60849E+00 -8.21306E-01 -1.05630E+00 -7.07607E-01 -1.58925E-01 -1.14701E+00  9.17554E-01
  -1.05878E+00  3.89016E+00  1.75597E+00  6.18888E-01  9.83814E-01 -9.00160E-01  3.21514E+00  3.18574E+00  2.79947E+00  4.15695E+00
   2.66556E+00  3.98260E+00  5.56599E+00  6.06515E+00  5.28718E+00  2.58374E+00  6.67634E+00  6.48556E+00  1.35855E+01  2.15119E+01
   3.20138E+01  4.11681E+01  4.77138E+01  4.88204E+01  4.45211E+01  3.56380E+01  2.77975E+01  1.73121E+01  1.53593E+01  9.77836E+00
   6.97815E+00  2.44065E+00  4.16224E+00  3.88680E+00  2.67314E+00  1.76971E+00  2.92840E-01  3.82598E+00  4.15273E+00  2.33143E+00
   4.45935E+00  4.28595E+00  9.13156E+00  1.71988E+01  2.55410E+01  3.58034E+01  4.65620E+01  5.05993E+01  4.83406E+01  3.97756E+01
   2.99129E+01  1.85486E+01  1.40992E+01  1.13513E+01  6.47102E+00  4.82871E+00  1.58900E+00 -1.24797E-01 -6.66858E-02  1.89591E+00
   2.73823E+00  1.30909E+00  2.88897E+00  2.04181E+00  4.02104E+00  2.69348E+00 -6.70289E-01  4.02650E+00  2.67392E+00  5.00972E+00
   2.16479E-01  5.75551E+00  6.32196E-01  2.65149E+00  8.93203E-01  3.52690E+00  6.34374E+00  1.14805E+00  1.66284E+00  4.13491E+00
  -3.31184E-01 -1.88770E+00 -1.89288E+00 -3.28402E+00  5.67440E-03  3.76184E-01 -1.64483E+00 -1.59275E+00 -8.13657E+00 -5.11870E+00
  -7.55112E+00 -6.95127E+00 -9.65580E+00 -8.80382E+00 -1.11430E+01 -1.16705E+01 -1.34350E+01 -1.16649E+01 -8.41041E+00 -5.27456E+00
  -1.02308E+01 -6.65128E+00 -8.41140E+00 -1.05007E+01 -7.89374E+00 -7.24941E+00 -6.43181E+00 -8.67903E+00 -5.69287E+00 -1.63087E+00
   1.31875E+00  3.82111E+00  3.68696E+00  2.15595E+00  1.12527E-01  3.47631E+00 -6.84589E-01 -2.86972E+00 -5.53199E+00 -4.61164E+00
   9.88781E-01  4.89954E+00  5.33667E+00  7.59545E+00  5.45993E+00  5.40416E+00  1.89833E+00 -1.66675E+00 -1.88298E+00 -2.36131E+00
  -1.70288E+00  2.17248E-01  3.66650E+00  8.13579E+00  1.08421E+01  1.47040E+01  1.81603E+01  1.47636E+01  8.59948E+00  4.79852E+00
   3.38482E+00 -1.49672E+00 -2.78896E+00  1.94452E-01  2.37627E+00  5.09188E+00  4.58711E+00  7.01519E+00  7.79834E+00  1.05001E+01
   1.25962E+01  9.98100E+00  9.07622E+00  9.51876E+00  8.40824E+00  1.26466E+01  8.09313E+00  1.27255E+01  1.12782E+01  1.09971E+01
   4.83883E+00  6.95436E+00  6.12019E+00  6.13273E+00  6.09456E+00  8.70438E+00  1.49743E+01  1.43922E+01  1.66008E+01  1.35922E+01
   1.87450E+01  1.75654E+01  2.08764E+01  2.81225E+01  3.31497E+01  3.91748E+01  4.62177E+01  5.34478E+01  7.24790E+01  8.93419E+01
   1.02496E+02  9.78093E+01  8.45036E+01  6.06944E+01  4.49428E+01  3.53339E+01  2.78958E+01  2.12036E+01  1.66754E+01  1.43230E+01
   9.09985E+00  1.02468E+01  1.00778E+01  7.40261E+00  7.93256E+00  7.91192E+00  9.56383E+00  9.63871E+00  1.03085E+01  1.01940E+01
   1.08711E+01  1.08432E+01  9.05797E+00  8.25340E+00  4.39355E+00  7.81244E+00  7.14343E+00  9.54413E+00  7.80709E+00  6.59146E+00
   9.82741E+00  9.99615E+00  8.28162E+00  1.11729E+01  8.53238E+00  8.72390E+00  6.49259E+00  7.63055E+00  7.61739E+00  8.82633E+00
   1.00955E+01  1.13977E+01  8.76918E+00  6.96237E+00  1.02952E+01  8.30426E+00  1.34019E+01  1.10277E+01  9.56700E+00  1.27217E+01
   1.41637E+01  1.11749E+01  1.04085E+01  1.09667E+01  1.10268E+01  1.12518E+01  7.79473E+00  1.14321E+01  1.06351E+01  1.03040E+01
   8.96462E+00  1.01339E+01  1.02475E+01  9.50421E+00  1.00028E+01  1.06845E+01  7.85498E+00  4.68952E+00  9.39905E+00  7.48179E+00
   7.72911E+00  6.13718E+00  1.06551E+01  1.23570E+01  7.51421E+00  1.07606E+01  9.43461E+00  8.45119E+00  8.63187E+00  1.00633E+01
   6.02410E+00  7.77385E+00  6.49337E+00  9.18975E+00  5.97914E+00  8.58922E+00  8.20982E+00  9.34456E+00  8.07893E+00  7.92176E+00
   7.55314E+00  8.94437E+00  8.05011E+00  1.02631E+01  1.05168E+01  9.35460E+00  8.03655E+00  8.74738E+00  7.34338E+00  6.85050E+00
   5.43817E+00  7.47750E+00  7.87951E+00  6.72422E+00  9.50540E+00  9.31576E+00  9.61426E+00  6.18945E+00  9.97835E+00  8.15598E+00
   1.07346E+01  9.34378E+00  1.07458E+01  1.05684E+01  5.60452E+00  8.25169E+00  7.76682E+00  8.62749E+00  7.77372E+00  6.63059E+00
   6.11004E+00  7.19370E+00  7.05258E+00  9.81767E+00  8.22103E+00  5.75546E+00  9.42973E+00  4.47984E+00  7.60810E+00  9.94106E+00
   8.33422E+00  8.04890E+00  6.60354E+00  9.17928E+00  1.10394E+01  1.07162E+01  1.24835E+01  1.25659E+01  1.36126E+01  1.37823E+01
   1.23315E+01  1.30493E+01  1.24673E+01  1.21903E+01  1.44986E+01  1.65661E+01  1.23612E+01  1.29864E+01  1.56278E+01  1.54274E+01
   1.46348E+01  1.28139E+01  1.61267E+01  1.22813E+01  1.39471E+01  1.27931E+01  1.28773E+01  1.09326E+01  1.40563E+01  7.80514E+00
   1.02085E+01  7.62356E+00  8.61538E+00  8.69528E+00  8.59130E+00  6.65306E+00  5.78273E+00  7.87339E+00  8.66122E+00  7.95293E+00
   9.11512E+00  6.91745E+00  1.17081E+01  7.31789E+00  5.93704E+00  8.61705E+00  8.90540E+00  4.20527E+00  7.53173E+00  7.39857E+00
   7.46035E+00  6.63021E+00  5.09731E+00  1.09457E+01  7.45017E+00  8.25218E+00  4.39607E+00  5.64859E+00  6.36277E+00  7.47622E+00
   5.86447E+00  6.04936E+00  7.27600E+00  7.06076E+00  6.51849E+00  6.58370E+00  7.47744E+00  7.49336E+00  5.06179E+00  7.63742E+00
   5.19908E+00  4.45645E+00  6.50821E+00  7.84967E+00  5.19216E+00  6.36122E+00  6.01966E+00  4.99284E+00  5.10660E+00  7.69420E+00
   1.64057E+00  6.44635E+00  5.99532E+00  4.69585E+00  5.41618E+00  6.32216E+00  4.94070E+00  6.66532E+00  4.42466E+00  2.48598E+00
   6.33490E+00  7.26301E+00  6.16492E+00  6.12605E+00  6.31415E+00  5.01796E+00  7.20413E+00  5.76447E+00  7.34062E+00  5.79173E+00
   6.03271E+00  5.54975E+00  6.60587E+00  6.29981E+00  4.46331E+00  7.76261E+00  4.44668E+00  7.13579E+00
 NY points of the fit to the data follow
  -4.33624E+00 -4.34985E+00 -4.17481E+00 -3.46732E+00 -1.58983E+00  1.25896E+00  5.17412E+00  1.00791E+01  1.52059E+01  1.91331E+01
   2.04972E+01  1.89466E+01  1.53784E+01  1.13787E+01  8.09347E+00  5.66446E+00  3.56550E+00  1.76481E+00  7.34019E-01  1.38804E-01
  -1.83448E-01 -4.09441E-01 -7.11900E-01 -1.08756E+00 -1.18478E+00 -9.22692E-01 -1.67242E-01  1.25132E+00  3.27194E+00  5.48466E+00
   7.24229E+00  8.12386E+00  8.05604E+00  7.15489E+00  5.63343E+00  3.80507E+00  1.82575E+00  8.40050E-02 -8.64897E-01 -1.03116E+00
  -4.52451E-01  7.67780E-01  2.38183E+00  4.18803E+00  6.06563E+00  7.82711E+00  9.00082E+00  9.00405E+00  7.72197E+00  5.66855E+00
   3.59288E+00  2.01383E+00  9.48005E-01  2.40342E-01 -9.86876E-02  6.21405E-02  6.11178E-01  1.28112E+00  1.87211E+00  2.17348E+00
   2.02101E+00  1.42023E+00  5.68364E-01 -2.14882E-01 -7.07355E-01 -8.47028E-01 -6.85209E-01 -3.18030E-01  1.36164E-01  5.99077E-01
   9.81137E-01  1.18832E+00  1.18034E+00  9.82541E-01  6.94367E-01  4.36757E-01  2.56323E-01  1.39662E-01  3.60471E-02 -2.97745E-02
  -2.86519E-02  1.84826E-01  6.41421E-01  1.24411E+00  2.03114E+00  2.91646E+00  3.59514E+00  3.74580E+00  3.28702E+00  2.46202E+00
   1.70545E+00  1.28107E+00  1.15008E+00  1.08369E+00  9.44584E-01  1.04298E+00  2.19648E+00  5.79649E+00  1.18934E+01  2.04149E+01
   3.11712E+01  4.21283E+01  4.96730E+01  5.07971E+01  4.52705E+01  3.57497E+01  2.60032E+01  1.83650E+01  1.27767E+01  8.05198E+00
   4.14241E+00  2.20371E+00  1.54804E+00  1.27370E+00  1.13457E+00  1.06223E+00  1.03269E+00  1.04268E+00  1.11901E+00  1.34179E+00
   2.04481E+00  4.64278E+00  9.80159E+00  1.69801E+01  2.63665E+01  3.70312E+01  4.59923E+01  4.98043E+01  4.69571E+01  3.90217E+01
   2.96085E+01  2.17532E+01  1.60250E+01  1.11616E+01  6.35066E+00  2.99448E+00  1.71343E+00  1.37537E+00  1.57390E+00  2.01628E+00
   2.43239E+00  2.68433E+00  2.72239E+00  2.54518E+00  2.24938E+00  1.93033E+00  1.61838E+00  1.32674E+00  1.02697E+00  7.30605E-01
   4.61023E-01  2.07912E-01 -2.29034E-04 -1.17354E-01 -1.26495E-01 -1.08743E-01 -1.75226E-01 -3.78081E-01 -7.94158E-01 -1.34855E+00
  -1.84523E+00 -2.09723E+00 -1.95783E+00 -1.54273E+00 -1.21426E+00 -1.29434E+00 -1.81591E+00 -2.51260E+00 -3.06542E+00 -3.41165E+00
  -3.70241E+00 -4.09902E+00 -4.59691E+00 -5.10001E+00 -5.52167E+00 -5.78355E+00 -5.74569E+00 -5.37258E+00 -4.92359E+00 -4.70012E+00
  -4.74668E+00 -4.87036E+00 -4.82539E+00 -4.48020E+00 -4.03571E+00 -3.62076E+00 -2.92107E+00 -1.70469E+00 -5.68722E-02  1.55927E+00
   2.57218E+00  2.82610E+00  2.43745E+00  1.73660E+00  1.11153E+00  7.36490E-01  6.67627E-01  1.01532E+00  1.84217E+00  3.05432E+00
   4.43485E+00  5.74543E+00  6.69098E+00  6.96897E+00  6.30156E+00  4.71336E+00  2.35378E+00 -3.67457E-01 -2.69009E+00 -3.86043E+00
  -3.61702E+00 -2.03587E+00  5.10006E-01  3.70865E+00  7.14848E+00  1.00613E+01  1.13529E+01  1.02585E+01  7.08978E+00  3.09979E+00
  -6.02513E-01 -3.36507E+00 -4.61606E+00 -3.96299E+00 -1.53985E+00  1.92181E+00  5.10098E+00  7.29168E+00  8.46732E+00  8.90397E+00
   8.88286E+00  8.61706E+00  8.40485E+00  8.57570E+00  9.22102E+00  1.01498E+01  1.10536E+01  1.16390E+01  1.16463E+01  1.09861E+01
   9.86001E+00  8.75761E+00  8.19682E+00  8.42728E+00  9.39051E+00  1.07681E+01  1.20865E+01  1.30780E+01  1.38505E+01  1.47936E+01
   1.63081E+01  1.83858E+01  2.11626E+01  2.47555E+01  2.99334E+01  3.82843E+01  4.81107E+01  5.98614E+01  7.45498E+01  8.93900E+01
   9.82745E+01  9.61770E+01  8.32912E+01  6.51895E+01  4.87779E+01  3.69597E+01  2.84168E+01  2.05838E+01  1.40850E+01  1.14854E+01
   1.05505E+01  9.99394E+00  9.66836E+00  9.52384E+00  9.40992E+00  9.23471E+00  8.98571E+00  8.69240E+00  8.40154E+00  8.15099E+00
   7.94060E+00  7.76095E+00  7.63007E+00  7.55401E+00  7.49786E+00  7.43939E+00  7.38832E+00  7.36313E+00  7.37787E+00  7.43504E+00
   7.53979E+00  7.69559E+00  7.88216E+00  8.07762E+00  8.27502E+00  8.47560E+00  8.68349E+00  8.90079E+00  9.12684E+00  9.36515E+00
   9.61600E+00  9.86859E+00  1.01090E+01  1.03258E+01  1.05119E+01  1.06636E+01  1.07762E+01  1.08464E+01  1.08763E+01  1.08676E+01
   1.08220E+01  1.07429E+01  1.06351E+01  1.05044E+01  1.03565E+01  1.01975E+01  1.00339E+01  9.87224E+00  9.71916E+00  9.58144E+00
   9.46769E+00  9.38851E+00  9.33380E+00  9.29081E+00  9.25147E+00  9.19141E+00  9.08119E+00  8.91251E+00  8.71033E+00  8.53388E+00
   8.43324E+00  8.41440E+00  8.46774E+00  8.58097E+00  8.73652E+00  8.90293E+00  9.02082E+00  9.05458E+00  9.01945E+00  8.95104E+00
   8.87537E+00  8.79473E+00  8.70058E+00  8.60628E+00  8.52740E+00  8.45988E+00  8.40210E+00  8.35452E+00  8.31761E+00  8.29167E+00
   8.27636E+00  8.27089E+00  8.27354E+00  8.28191E+00  8.29303E+00  8.30413E+00  8.31288E+00  8.31780E+00  8.31790E+00  8.31286E+00
   8.30272E+00  8.28807E+00  8.26959E+00  8.24794E+00  8.22325E+00  8.19546E+00  8.16423E+00  8.12956E+00  8.09154E+00  8.05060E+00
   8.00719E+00  7.96221E+00  7.91681E+00  7.87276E+00  7.83191E+00  7.79632E+00  7.76786E+00  7.74861E+00  7.74067E+00  7.74640E+00
   7.76793E+00  7.80742E+00  7.86673E+00  7.94793E+00  8.05300E+00  8.18407E+00  8.34284E+00  8.53088E+00  8.74924E+00  8.99887E+00
   9.28011E+00  9.59275E+00  9.93545E+00  1.03060E+01  1.07009E+01  1.11157E+01  1.15448E+01  1.19814E+01  1.24172E+01  1.28433E+01
   1.32500E+01  1.36275E+01  1.39660E+01  1.42563E+01  1.44898E+01  1.46594E+01  1.47598E+01  1.47878E+01  1.47423E+01  1.46244E+01
   1.44370E+01  1.41856E+01  1.38771E+01  1.35199E+01  1.31234E+01  1.26972E+01  1.22511E+01  1.17946E+01  1.13367E+01  1.08853E+01
   1.04472E+01  1.00277E+01  9.63113E+00  9.26048E+00  8.91764E+00  8.60353E+00  8.31797E+00  8.06019E+00  7.82886E+00  7.62249E+00
   7.43918E+00  7.27697E+00  7.13366E+00  7.00727E+00  6.89588E+00  6.79789E+00  6.71162E+00  6.63565E+00  6.56852E+00  6.50916E+00
   6.45656E+00  6.41002E+00  6.36867E+00  6.33189E+00  6.29896E+00  6.26950E+00  6.24309E+00  6.21950E+00  6.19827E+00  6.17914E+00
   6.16176E+00  6.14607E+00  6.13188E+00  6.11912E+00  6.10749E+00  6.09692E+00  6.08722E+00  6.07846E+00  6.07054E+00  6.06341E+00
   6.05687E+00  6.05090E+00  6.04543E+00  6.04057E+00  6.03621E+00  6.03234E+00  6.02876E+00  6.02555E+00  6.02266E+00  6.02020E+00
   6.01806E+00  6.01622E+00  6.01455E+00  6.01315E+00  6.01201E+00  6.01123E+00  6.01064E+00  6.01026E+00  6.00999E+00  6.00998E+00
   6.01018E+00  6.01067E+00  6.01130E+00  6.01209E+00  6.01300E+00  6.01418E+00  6.01557E+00  6.01721E+00  6.01896E+00  6.02089E+00
   6.02297E+00  6.02536E+00  6.02797E+00  6.03082E+00  6.03381E+00  6.03703E+00  6.04049E+00  6.04433E+00
 NY background values follow
    -6.558E+00   -6.487E+00   -6.416E+00   -6.346E+00   -6.275E+00   -6.204E+00   -6.133E+00   -6.062E+00   -5.992E+00   -5.921E+00
    -5.850E+00   -5.780E+00   -5.709E+00   -5.639E+00   -5.569E+00   -5.499E+00   -5.429E+00   -5.359E+00   -5.290E+00   -5.220E+00
    -5.151E+00   -5.082E+00   -5.014E+00   -4.945E+00   -4.877E+00   -4.809E+00   -4.742E+00   -4.675E+00   -4.608E+00   -4.541E+00
    -4.475E+00   -4.409E+00   -4.344E+00   -4.279E+00   -4.214E+00   -4.150E+00   -4.086E+00   -4.023E+00   -3.960E+00   -3.898E+00
    -3.836E+00   -3.775E+00   -3.714E+00   -3.654E+00   -3.595E+00   -3.535E+00   -3.477E+00   -3.419E+00   -3.362E+00   -3.305E+00
    -3.249E+00   -3.194E+00   -3.139E+00   -3.085E+00   -3.031E+00   -2.978E+00   -2.926E+00   -2.874E+00   -2.823E+00   -2.772E+00
    -2.723E+00   -2.673E+00   -2.625E+00   -2.577E+00   -2.530E+00   -2.483E+00   -2.437E+00   -2.392E+00   -2.348E+00   -2.304E+00
    -2.261E+00   -2.218E+00   -2.176E+00   -2.135E+00   -2.095E+00   -2.055E+00   -2.016E+00   -1.978E+00   -1.940E+00   -1.903E+00
    -1.867E+00   -1.831E+00   -1.797E+00   -1.763E+00   -1.729E+00   -1.697E+00   -1.665E+00   -1.634E+00   -1.603E+00   -1.574E+00
    -1.545E+00   -1.517E+00   -1.489E+00   -1.463E+00   -1.437E+00   -1.412E+00   -1.387E+00   -1.364E+00   -1.341E+00   -1.318E+00
    -1.297E+00   -1.276E+00   -1.256E+00   -1.236E+00   -1.218E+00   -1.199E+00   -1.182E+00   -1.165E+00   -1.149E+00   -1.133E+00
    -1.119E+00   -1.104E+00   -1.091E+00   -1.078E+00   -1.065E+00   -1.054E+00   -1.042E+00   -1.032E+00   -1.022E+00   -1.012E+00
    -1.004E+00   -9.954E-01   -9.877E-01   -9.806E-01   -9.741E-01   -9.681E-01   -9.626E-01   -9.577E-01   -9.533E-01   -9.495E-01
    -9.461E-01   -9.433E-01   -9.409E-01   -9.391E-01   -9.378E-01   -9.369E-01   -9.366E-01   -9.366E-01   -9.372E-01   -9.380E-01
    -9.392E-01   -9.407E-01   -9.425E-01   -9.444E-01   -9.465E-01   -9.487E-01   -9.510E-01   -9.533E-01   -9.556E-01   -9.579E-01
    -9.600E-01   -9.620E-01   -9.638E-01   -9.654E-01   -9.667E-01   -9.677E-01   -9.684E-01   -9.686E-01   -9.684E-01   -9.677E-01
    -9.665E-01   -9.647E-01   -9.623E-01   -9.592E-01   -9.555E-01   -9.510E-01   -9.457E-01   -9.396E-01   -9.326E-01   -9.247E-01
    -9.158E-01   -9.059E-01   -8.950E-01   -8.830E-01   -8.699E-01   -8.555E-01   -8.400E-01   -8.232E-01   -8.051E-01   -7.857E-01
    -7.649E-01   -7.426E-01   -7.189E-01   -6.938E-01   -6.673E-01   -6.395E-01   -6.104E-01   -5.800E-01   -5.483E-01   -5.155E-01
    -4.815E-01   -4.464E-01   -4.103E-01   -3.731E-01   -3.348E-01   -2.957E-01   -2.555E-01   -2.145E-01   -1.727E-01   -1.300E-01
    -8.655E-02   -4.235E-02    2.560E-03    4.813E-02    9.434E-02    1.411E-01    1.885E-01    2.364E-01    2.847E-01    3.335E-01
     3.827E-01    4.323E-01    4.822E-01    5.324E-01    5.828E-01    6.335E-01    6.844E-01    7.354E-01    7.865E-01    8.377E-01
     8.889E-01    9.401E-01    9.912E-01    1.042E+00    1.093E+00    1.144E+00    1.195E+00    1.245E+00    1.295E+00    1.345E+00
     1.395E+00    1.444E+00    1.494E+00    1.543E+00    1.591E+00    1.640E+00    1.688E+00    1.736E+00    1.783E+00    1.831E+00
     1.878E+00    1.925E+00    1.971E+00    2.018E+00    2.064E+00    2.109E+00    2.155E+00    2.200E+00    2.244E+00    2.289E+00
     2.333E+00    2.377E+00    2.420E+00    2.463E+00    2.506E+00    2.549E+00    2.591E+00    2.633E+00    2.674E+00    2.715E+00
     2.756E+00    2.796E+00    2.836E+00    2.876E+00    2.915E+00    2.954E+00    2.993E+00    3.031E+00    3.069E+00    3.106E+00
     3.143E+00    3.180E+00    3.216E+00    3.252E+00    3.287E+00    3.322E+00    3.357E+00    3.391E+00    3.425E+00    3.458E+00
     3.491E+00    3.523E+00    3.556E+00    3.587E+00    3.619E+00    3.650E+00    3.680E+00    3.710E+00    3.740E+00    3.770E+00
     3.798E+00    3.827E+00    3.855E+00    3.883E+00    3.910E+00    3.937E+00    3.964E+00    3.990E+00    4.016E+00    4.041E+00
     4.066E+00    4.090E+00    4.114E+00    4.138E+00    4.161E+00    4.184E+00    4.207E+00    4.229E+00    4.251E+00    4.272E+00
     4.293E+00    4.313E+00    4.333E+00    4.353E+00    4.372E+00    4.391E+00    4.410E+00    4.428E+00    4.445E+00    4.463E+00
     4.479E+00    4.496E+00    4.512E+00    4.528E+00    4.543E+00    4.558E+00    4.573E+00    4.588E+00    4.602E+00    4.615E+00
     4.629E+00    4.642E+00    4.655E+00    4.668E+00    4.680E+00    4.692E+00    4.704E+00    4.715E+00    4.727E+00    4.738E+00
     4.748E+00    4.759E+00    4.769E+00    4.780E+00    4.790E+00    4.799E+00    4.809E+00    4.818E+00    4.828E+00    4.837E+00
     4.846E+00    4.855E+00    4.863E+00    4.872E+00    4.880E+00    4.889E+00    4.897E+00    4.905E+00    4.913E+00    4.921E+00
     4.929E+00    4.936E+00    4.944E+00    4.952E+00    4.959E+00    4.967E+00    4.974E+00    4.982E+00    4.989E+00    4.997E+00
     5.004E+00    5.011E+00    5.019E+00    5.026E+00    5.033E+00    5.041E+00    5.048E+00    5.055E+00    5.062E+00    5.070E+00
     5.077E+00    5.084E+00    5.091E+00    5.099E+00    5.106E+00    5.113E+00    5.121E+00    5.128E+00    5.135E+00    5.143E+00
     5.150E+00    5.158E+00    5.166E+00    5.173E+00    5.181E+00    5.189E+00    5.196E+00    5.204E+00    5.212E+00    5.220E+00
     5.228E+00    5.237E+00    5.245E+00    5.253E+00    5.262E+00    5.270E+00    5.279E+00    5.288E+00    5.296E+00    5.305E+00
     5.314E+00    5.324E+00    5.333E+00    5.342E+00    5.351E+00    5.361E+00    5.370E+00    5.380E+00    5.389E+00    5.399E+00
     5.408E+00    5.418E+00    5.428E+00    5.437E+00    5.447E+00    5.457E+00    5.466E+00    5.476E+00    5.486E+00    5.495E+00
     5.505E+00    5.515E+00    5.524E+00    5.534E+00    5.543E+00    5.553E+00    5.562E+00    5.571E+00    5.581E+00    5.590E+00
     5.599E+00    5.608E+00    5.617E+00    5.626E+00    5.634E+00    5.643E+00    5.651E+00    5.660E+00    5.668E+00    5.676E+00
     5.684E+00    5.692E+00    5.700E+00    5.707E+00    5.714E+00    5.722E+00    5.729E+00    5.736E+00    5.743E+00    5.749E+00
     5.756E+00    5.762E+00    5.769E+00    5.775E+00    5.781E+00    5.787E+00    5.793E+00    5.799E+00    5.805E+00    5.811E+00
     5.816E+00    5.822E+00    5.828E+00    5.833E+00    5.839E+00    5.844E+00    5.849E+00    5.855E+00    5.860E+00    5.865E+00
     5.871E+00    5.876E+00    5.881E+00    5.887E+00    5.892E+00    5.897E+00    5.902E+00    5.908E+00    5.913E+00    5.918E+00
     5.924E+00    5.929E+00    5.934E+00    5.940E+00    5.946E+00    5.951E+00    5.957E+00    5.963E+00
 Ala      Conc. = 3.04E+01
