 LCModel (Version 6.3-1L) Copyright: S.W. Provencher.          Ref.: Magn. Reson. Med. 30:672-679 (1993).                
 Slice#2 Row#8 Col#13  PD_05_press_1_raw_act
 36 lines in following concentration table = NCONC+1
    Conc.  %SD /Cr+PCr  Metabolite                                         
   25.059  87%   3.227 Ala                                                 
   11.818  90%   1.522 Asp                                                 
    7.764 148%   1.000 Cr                                                  
    0.000 999%   0.000 PCr                                                 
    6.680  95%   0.860 GABA                                                
    7.143  90%   0.920 Glc                                                 
   11.557 363%   1.488 Gln                                                 
   42.525 108%   5.477 Glu                                                 
    0.000 999%   0.000 GPC                                                 
    8.613  50%   1.109 PCh                                                 
   32.638  48%   4.204 GSH                                                 
    0.000 999%   0.000 Ins                                                 
    0.000 999%   0.000 Lac                                                 
  159.307  12%  20.518 NAA                                                 
   36.040  54%   4.642 NAAG                                                
    1.823 112%   0.235 Scyllo                                              
   12.676  83%   1.633 Tau                                                 
    1.064 253%   0.137 -CrCH2                                              
    8.613  50%   1.109 GPC+PCh                                             
  195.347  12%  25.159 NAA+NAAG                                            
    7.764 148%   1.000 Cr+PCr                                              
   54.081 108%   6.965 Glu+Gln                                             
 1.05E+04  12% 1.3E+03 Lip13a                                              
    0.000 999%   0.000 Lip13b                                              
 2.86E+03  18% 368.277 Lip09                                               
  803.019  26% 103.423 MM09                                                
  138.279 152%  17.809 Lip20                                               
  272.389  73%  35.082 MM20                                                
    0.000 999%   0.000 MM12                                                
  873.932  57% 112.556 MM14                                                
 2.08E+03  21% 267.433 MM17                                                
 1.05E+04  12% 1.3E+03 Lip13a+Lip13b                                       
 1.13E+04   9% 1.5E+03 MM14+Lip13a+Lip13b+MM12                             
 3.66E+03  13% 471.700 MM09+Lip09                                          
  410.668  39%  52.891 MM20+Lip20                                          
   6 lines in following misc. output table
  FWHM = 0.038 ppm    S/N =  14                                            
  Data shift = 0.000 ppm                                                   
  Ph: -99 deg     -37.0 deg/ppm                                            
  alphaB,S = 1.1E+00,   3.6E+01                                            
   14 spline knots.   Ns = 5(1)                                            
  ( 9) 2 infls.   ( 8) 1 extrs.                                            
  498 points on ppm-axis = NY
      4.000000     3.992357     3.984714     3.977070     3.969427     3.961784     3.954141     3.946497     3.938854     3.931211
      3.923568     3.915925     3.908281     3.900638     3.892995     3.885352     3.877708     3.870065     3.862422     3.854779
      3.847136     3.839492     3.831849     3.824206     3.816563     3.808919     3.801276     3.793633     3.785990     3.778347
      3.770703     3.763060     3.755417     3.747774     3.740130     3.732487     3.724844     3.717201     3.709558     3.701914
      3.694271     3.686628     3.678985     3.671341     3.663698     3.656055     3.648412     3.640769     3.633125     3.625482
      3.617839     3.610196     3.602552     3.594909     3.587266     3.579623     3.571980     3.564336     3.556693     3.549050
      3.541407     3.533763     3.526120     3.518477     3.510834     3.503191     3.495547     3.487904     3.480261     3.472618
      3.464974     3.457331     3.449688     3.442045     3.434402     3.426758     3.419115     3.411472     3.403829     3.396185
      3.388542     3.380899     3.373256     3.365613     3.357969     3.350326     3.342683     3.335040     3.327396     3.319753
      3.312110     3.304467     3.296824     3.289180     3.281537     3.273894     3.266251     3.258607     3.250964     3.243321
      3.235678     3.228034     3.220391     3.212748     3.205105     3.197462     3.189818     3.182175     3.174532     3.166889
      3.159245     3.151602     3.143959     3.136316     3.128673     3.121029     3.113386     3.105743     3.098100     3.090456
      3.082813     3.075170     3.067527     3.059884     3.052240     3.044597     3.036954     3.029311     3.021667     3.014024
      3.006381     2.998738     2.991095     2.983451     2.975808     2.968165     2.960522     2.952878     2.945235     2.937592
      2.929949     2.922306     2.914662     2.907019     2.899376     2.891733     2.884089     2.876446     2.868803     2.861160
      2.853517     2.845873     2.838230     2.830587     2.822944     2.815300     2.807657     2.800014     2.792371     2.784728
      2.777084     2.769441     2.761798     2.754155     2.746511     2.738868     2.731225     2.723582     2.715939     2.708295
      2.700652     2.693009     2.685366     2.677722     2.670079     2.662436     2.654793     2.647150     2.639506     2.631863
      2.624220     2.616577     2.608933     2.601290     2.593647     2.586004     2.578361     2.570717     2.563074     2.555431
      2.547788     2.540144     2.532501     2.524858     2.517215     2.509572     2.501928     2.494285     2.486642     2.478999
      2.471355     2.463712     2.456069     2.448426     2.440783     2.433139     2.425496     2.417853     2.410210     2.402566
      2.394923     2.387280     2.379637     2.371994     2.364350     2.356707     2.349064     2.341421     2.333777     2.326134
      2.318491     2.310848     2.303205     2.295561     2.287918     2.280275     2.272632     2.264988     2.257345     2.249702
      2.242059     2.234416     2.226772     2.219129     2.211486     2.203843     2.196199     2.188556     2.180913     2.173270
      2.165627     2.157983     2.150340     2.142697     2.135054     2.127410     2.119767     2.112124     2.104481     2.096838
      2.089194     2.081551     2.073908     2.066265     2.058621     2.050978     2.043335     2.035692     2.028049     2.020405
      2.012762     2.005119     1.997476     1.989833     1.982190     1.974546     1.966903     1.959260     1.951617     1.943974
      1.936331     1.928688     1.921045     1.913402     1.905759     1.898115     1.890472     1.882829     1.875186     1.867543
      1.859900     1.852257     1.844614     1.836971     1.829327     1.821684     1.814041     1.806398     1.798755     1.791112
      1.783469     1.775826     1.768183     1.760540     1.752896     1.745253     1.737610     1.729967     1.722324     1.714681
      1.707038     1.699395     1.691752     1.684108     1.676465     1.668822     1.661179     1.653536     1.645893     1.638250
      1.630607     1.622964     1.615321     1.607677     1.600034     1.592391     1.584748     1.577105     1.569462     1.561819
      1.554176     1.546533     1.538890     1.531246     1.523603     1.515960     1.508317     1.500674     1.493031     1.485388
      1.477745     1.470102     1.462458     1.454815     1.447172     1.439529     1.431886     1.424243     1.416600     1.408957
      1.401314     1.393671     1.386027     1.378384     1.370741     1.363098     1.355455     1.347812     1.340169     1.332526
      1.324883     1.317240     1.309596     1.301953     1.294310     1.286667     1.279024     1.271381     1.263738     1.256095
      1.248452     1.240808     1.233165     1.225522     1.217879     1.210236     1.202593     1.194950     1.187307     1.179664
      1.172021     1.164377     1.156734     1.149091     1.141448     1.133805     1.126162     1.118519     1.110876     1.103233
      1.095590     1.087946     1.080303     1.072660     1.065017     1.057374     1.049731     1.042088     1.034445     1.026802
      1.019158     1.011515     1.003872     0.996229     0.988586     0.980943     0.973300     0.965657     0.958014     0.950371
      0.942727     0.935084     0.927441     0.919798     0.912155     0.904512     0.896869     0.889226     0.881583     0.873940
      0.866296     0.858653     0.851010     0.843367     0.835724     0.828081     0.820438     0.812795     0.805152     0.797508
      0.789865     0.782222     0.774579     0.766936     0.759293     0.751650     0.744007     0.736364     0.728721     0.721077
      0.713434     0.705791     0.698148     0.690505     0.682862     0.675219     0.667576     0.659933     0.652290     0.644646
      0.637003     0.629360     0.621717     0.614074     0.606431     0.598788     0.591145     0.583502     0.575858     0.568215
      0.560572     0.552929     0.545286     0.537643     0.530000     0.522357     0.514714     0.507071     0.499427     0.491784
      0.484141     0.476498     0.468855     0.461212     0.453569     0.445925     0.438282     0.430639     0.422996     0.415353
      0.407710     0.400067     0.392424     0.384780     0.377137     0.369494     0.361851     0.354208     0.346565     0.338922
      0.331278     0.323635     0.315992     0.308349     0.300706     0.293063     0.285420     0.277777     0.270133     0.262490
      0.254847     0.247204     0.239561     0.231918     0.224275     0.216631     0.208988     0.201345
 NY phased data points follow
   2.00945E+00  4.57008E-01  2.59578E+00  3.27623E+00  1.05167E+00  1.57381E+00  1.52348E+00  2.43415E+00  2.55628E-01  3.34038E+00
   2.28445E+00  8.59111E-01  2.29649E+00  3.33496E+00  2.49854E+00  3.31740E+00  3.65367E+00  2.50946E+00  3.92514E+00  1.26073E+00
   1.17853E+00  2.21401E+00  2.36168E+00  2.18324E+00  2.39192E+00  2.82382E+00  1.62442E+00  3.10922E+00  2.73473E+00  3.49255E+00
   4.91014E+00  3.51871E+00  4.25799E+00  2.49387E+00  1.51241E+00  3.71519E+00  2.78378E+00  3.72604E+00  3.52274E+00  2.71661E+00
   4.72317E+00  3.75402E+00  2.64245E+00  2.86226E+00  2.03049E+00  2.26489E+00  3.21735E+00  2.79674E+00  1.94356E+00  2.60031E+00
   3.56736E+00  2.79544E+00  3.33360E+00  3.67420E+00  3.81586E+00  4.05260E+00  2.90494E+00  4.46555E+00  3.70793E+00  4.65002E+00
   5.27428E+00  2.51420E+00  4.83991E+00  3.05191E+00  4.59846E+00  4.99418E+00  4.29364E+00  3.46950E+00  4.40460E+00  3.71471E+00
   3.42334E+00  4.50552E+00  3.68457E+00  3.32034E+00  5.37092E+00  4.64409E+00  5.41499E+00  4.56390E+00  2.83101E+00  4.88619E+00
   4.13024E+00  4.32432E+00  4.91415E+00  4.19869E+00  4.51889E+00  3.78140E+00  3.96150E+00  2.69135E+00  4.50969E+00  4.15845E+00
   6.51029E+00  3.09936E+00  4.23654E+00  3.09300E+00  5.74935E+00  6.19969E+00  5.15431E+00  3.13797E+00  5.23394E+00  4.59071E+00
   4.51372E+00  5.01803E+00  6.69183E+00  4.87095E+00  6.72281E+00  5.69101E+00  4.61957E+00  4.10023E+00  4.04256E+00  4.27579E+00
   3.78251E+00  6.17460E+00  4.62053E+00  5.68062E+00  3.88314E+00  5.67202E+00  5.12147E+00  4.56131E+00  3.80162E+00  5.32528E+00
   3.91583E+00  6.32172E+00  4.59815E+00  5.33900E+00  7.27358E+00  5.13358E+00  5.78013E+00  5.96411E+00  6.39087E+00  5.45089E+00
   5.42845E+00  6.24354E+00  5.14135E+00  5.17128E+00  5.99067E+00  4.66959E+00  5.96002E+00  5.21303E+00  6.09340E+00  6.23303E+00
   5.27608E+00  5.19015E+00  6.59009E+00  6.24709E+00  5.95882E+00  7.80435E+00  4.88072E+00  6.41267E+00  5.56250E+00  4.03232E+00
   5.34933E+00  6.54848E+00  5.46885E+00  4.56343E+00  6.10567E+00  6.97917E+00  5.58396E+00  5.91126E+00  6.09875E+00  7.32173E+00
   6.36688E+00  6.40969E+00  7.75262E+00  6.42728E+00  6.15063E+00  8.24727E+00  6.26030E+00  6.34471E+00  6.74817E+00  6.60679E+00
   5.00999E+00  7.96957E+00  5.26542E+00  6.13871E+00  7.61309E+00  6.65608E+00  5.38222E+00  6.21987E+00  6.01180E+00  6.70276E+00
   6.51674E+00  6.36715E+00  7.15566E+00  7.83926E+00  3.40325E+00  6.20610E+00  8.26657E+00  7.47854E+00  6.77635E+00  6.18294E+00
   8.07763E+00  6.62952E+00  7.10001E+00  6.61437E+00  6.79978E+00  6.09308E+00  6.37110E+00  6.14570E+00  9.11135E+00  7.95781E+00
   7.90412E+00  8.62119E+00  5.66260E+00  8.26789E+00  8.43355E+00  7.31540E+00  9.68491E+00  8.11260E+00  8.64039E+00  7.20085E+00
   7.83114E+00  8.29033E+00  8.15646E+00  9.20682E+00  8.76377E+00  8.05084E+00  1.01961E+01  8.35325E+00  6.18539E+00  1.00117E+01
   9.11137E+00  8.11580E+00  7.36149E+00  9.68311E+00  9.37273E+00  7.50661E+00  9.59972E+00  1.02174E+01  9.72130E+00  8.68667E+00
   8.20553E+00  8.16319E+00  1.09023E+01  8.45181E+00  9.54506E+00  1.04071E+01  9.36914E+00  9.47144E+00  1.03802E+01  9.52983E+00
   1.11322E+01  8.34723E+00  1.07371E+01  1.02317E+01  1.05340E+01  1.06600E+01  1.19944E+01  1.10821E+01  1.27596E+01  1.10008E+01
   1.38404E+01  1.16645E+01  1.26235E+01  1.25195E+01  1.42221E+01  1.52543E+01  1.51714E+01  1.61807E+01  1.97237E+01  1.95691E+01
   1.95677E+01  1.76117E+01  1.52781E+01  1.60951E+01  1.21690E+01  1.10723E+01  9.26386E+00  1.33135E+01  1.30788E+01  1.31079E+01
   1.37054E+01  1.38765E+01  1.36419E+01  1.28805E+01  1.37304E+01  1.34881E+01  1.54317E+01  1.40267E+01  1.36901E+01  1.50675E+01
   1.35395E+01  1.42692E+01  1.43489E+01  1.44562E+01  1.52384E+01  1.64566E+01  1.52201E+01  1.57328E+01  1.59835E+01  1.67327E+01
   1.69421E+01  1.71295E+01  1.78306E+01  1.79549E+01  1.76474E+01  1.86758E+01  1.91260E+01  1.79499E+01  2.04780E+01  1.94363E+01
   2.11852E+01  2.05044E+01  2.05699E+01  2.24727E+01  2.32374E+01  2.28689E+01  2.08119E+01  2.29960E+01  2.26861E+01  2.30611E+01
   2.28934E+01  2.36458E+01  2.28080E+01  2.49034E+01  2.38242E+01  2.46532E+01  2.50270E+01  2.61750E+01  2.56892E+01  2.58569E+01
   2.62475E+01  2.82080E+01  2.73313E+01  2.84464E+01  2.71739E+01  2.55505E+01  2.76787E+01  2.95231E+01  2.88527E+01  2.68140E+01
   2.83547E+01  3.08185E+01  3.01761E+01  3.01860E+01  3.13748E+01  3.20644E+01  3.28529E+01  3.27668E+01  3.36360E+01  3.53099E+01
   3.56441E+01  3.65475E+01  3.61695E+01  3.64667E+01  3.82817E+01  3.88063E+01  3.89493E+01  3.94990E+01  4.10588E+01  3.91676E+01
   4.01715E+01  3.84358E+01  3.91885E+01  3.99791E+01  3.99538E+01  3.95869E+01  3.80409E+01  3.62625E+01  3.82839E+01  3.90722E+01
   3.76035E+01  3.71512E+01  3.57134E+01  3.54216E+01  3.62765E+01  3.45068E+01  3.45130E+01  3.41715E+01  3.26024E+01  3.39524E+01
   3.21500E+01  3.32401E+01  3.09697E+01  2.98316E+01  3.01029E+01  2.96345E+01  2.81239E+01  3.06609E+01  2.95795E+01  2.97134E+01
   3.00386E+01  2.91198E+01  2.86753E+01  2.88518E+01  2.72848E+01  3.06390E+01  3.14176E+01  2.92486E+01  2.99257E+01  2.89893E+01
   2.83620E+01  2.76940E+01  2.92747E+01  2.69643E+01  2.66765E+01  2.70355E+01  2.76061E+01  2.74320E+01  2.82953E+01  2.80363E+01
   2.84494E+01  2.76303E+01  2.51370E+01  2.59440E+01  2.69538E+01  2.59384E+01  2.57153E+01  2.40618E+01  2.37375E+01  2.37673E+01
   2.37338E+01  2.45830E+01  2.45236E+01  2.41179E+01  2.26369E+01  2.25154E+01  2.18917E+01  2.12016E+01  2.28406E+01  2.04705E+01
   1.95854E+01  2.00314E+01  1.95034E+01  1.89172E+01  1.88023E+01  1.96643E+01  1.78197E+01  1.91547E+01  1.84964E+01  1.88373E+01
   1.75594E+01  1.82367E+01  1.67045E+01  1.54981E+01  1.71682E+01  1.45813E+01  1.50400E+01  1.46622E+01  1.49617E+01  1.49840E+01
   1.49702E+01  1.30640E+01  1.27150E+01  1.44807E+01  1.37361E+01  1.39532E+01  1.46524E+01  1.22046E+01  1.33538E+01  1.22793E+01
   1.23377E+01  1.26722E+01  1.18191E+01  1.22143E+01  1.24667E+01  1.26070E+01  1.01519E+01  9.87999E+00  1.14396E+01  1.20674E+01
   1.05620E+01  1.00242E+01  1.09358E+01  1.24122E+01  1.04317E+01  9.92541E+00  1.00760E+01  9.72916E+00  1.12288E+01  9.61425E+00
   1.02187E+01  1.23361E+01  8.47400E+00  1.00856E+01  8.41793E+00  7.46171E+00  9.35743E+00  8.68414E+00  8.31264E+00  8.25139E+00
   9.86407E+00  9.37998E+00  8.26495E+00  9.53699E+00  7.44676E+00  7.80473E+00  8.95877E+00  7.20295E+00  7.75585E+00  6.74040E+00
   6.38736E+00  7.32260E+00  6.63570E+00  7.77468E+00  6.26593E+00  5.83248E+00  7.06893E+00  8.06838E+00
 NY points of the fit to the data follow
   1.86933E+00  1.90306E+00  1.93816E+00  1.96971E+00  1.99300E+00  2.01087E+00  2.04209E+00  2.10202E+00  2.18382E+00  2.26989E+00
   2.33890E+00  2.37898E+00  2.38867E+00  2.37027E+00  2.33262E+00  2.29542E+00  2.28732E+00  2.32364E+00  2.38874E+00  2.46002E+00
   2.53514E+00  2.60305E+00  2.64646E+00  2.65202E+00  2.64530E+00  2.72229E+00  2.92107E+00  3.20392E+00  3.49591E+00  3.70812E+00
   3.78168E+00  3.70933E+00  3.51389E+00  3.24035E+00  2.97719E+00  2.83163E+00  2.82125E+00  2.85461E+00  2.90033E+00  2.96899E+00
   3.03648E+00  3.07983E+00  3.10153E+00  3.11472E+00  3.12604E+00  3.14274E+00  3.16682E+00  3.19298E+00  3.22151E+00  3.25142E+00
   3.28315E+00  3.31512E+00  3.34576E+00  3.37345E+00  3.39756E+00  3.41918E+00  3.43978E+00  3.46059E+00  3.48436E+00  3.51163E+00
   3.54105E+00  3.57332E+00  3.60825E+00  3.64214E+00  3.67417E+00  3.70198E+00  3.72364E+00  3.74049E+00  3.75552E+00  3.77252E+00
   3.80033E+00  3.84614E+00  3.90419E+00  3.96151E+00  4.00481E+00  4.02620E+00  4.02455E+00  4.01340E+00  4.00694E+00  4.01329E+00
   4.04050E+00  4.09832E+00  4.17631E+00  4.25271E+00  4.31450E+00  4.35148E+00  4.36272E+00  4.35899E+00  4.34949E+00  4.33492E+00
   4.31921E+00  4.31225E+00  4.31964E+00  4.33862E+00  4.37406E+00  4.42843E+00  4.49760E+00  4.58289E+00  4.72461E+00  4.96846E+00
   5.27069E+00  5.55551E+00  5.73519E+00  5.76014E+00  5.63998E+00  5.42309E+00  5.16536E+00  4.93234E+00  4.79911E+00  4.79809E+00
   4.85930E+00  4.89705E+00  4.92598E+00  4.95738E+00  4.99207E+00  5.02421E+00  5.05266E+00  5.07858E+00  5.10322E+00  5.13025E+00
   5.16573E+00  5.21797E+00  5.30827E+00  5.43958E+00  5.58674E+00  5.71715E+00  5.80388E+00  5.84090E+00  5.84452E+00  5.83925E+00
   5.82666E+00  5.80045E+00  5.75921E+00  5.69836E+00  5.61232E+00  5.53247E+00  5.50280E+00  5.54752E+00  5.66100E+00  5.81476E+00
   5.95730E+00  6.04697E+00  6.08253E+00  6.07752E+00  6.05267E+00  6.03097E+00  6.02329E+00  6.02864E+00  6.04206E+00  6.04999E+00
   6.05270E+00  6.05613E+00  6.06661E+00  6.08918E+00  6.12810E+00  6.17405E+00  6.19996E+00  6.19316E+00  6.16199E+00  6.12818E+00
   6.12460E+00  6.16264E+00  6.22991E+00  6.30095E+00  6.35209E+00  6.36562E+00  6.33770E+00  6.28972E+00  6.25716E+00  6.25749E+00
   6.28223E+00  6.29980E+00  6.28275E+00  6.25675E+00  6.25210E+00  6.28100E+00  6.33118E+00  6.38470E+00  6.42958E+00  6.46901E+00
   6.50715E+00  6.53678E+00  6.55325E+00  6.58193E+00  6.65062E+00  6.75775E+00  6.90255E+00  7.07693E+00  7.26602E+00  7.43712E+00
   7.55368E+00  7.59028E+00  7.55194E+00  7.46068E+00  7.36935E+00  7.31566E+00  7.31260E+00  7.36628E+00  7.46703E+00  7.60214E+00
   7.75485E+00  7.90976E+00  8.03447E+00  8.09584E+00  8.08359E+00  8.02413E+00  7.94010E+00  7.85081E+00  7.77919E+00  7.75884E+00
   7.81116E+00  7.93939E+00  8.12622E+00  8.33392E+00  8.51533E+00  8.62885E+00  8.66339E+00  8.62768E+00  8.53838E+00  8.44506E+00
   8.42395E+00  8.50962E+00  8.68440E+00  8.89293E+00  9.09944E+00  9.27709E+00  9.39266E+00  9.42761E+00  9.40608E+00  9.38664E+00
   9.41846E+00  9.51241E+00  9.66347E+00  9.85870E+00  1.00592E+01  1.02200E+01  1.03050E+01  1.03041E+01  1.02481E+01  1.01909E+01
   1.01761E+01  1.02375E+01  1.03871E+01  1.06117E+01  1.08614E+01  1.10812E+01  1.12502E+01  1.13683E+01  1.14484E+01  1.15228E+01
   1.16649E+01  1.19903E+01  1.24897E+01  1.30602E+01  1.36362E+01  1.44625E+01  1.58002E+01  1.73717E+01  1.87311E+01  1.93781E+01
   1.90711E+01  1.79691E+01  1.64076E+01  1.46419E+01  1.30537E+01  1.21411E+01  1.20750E+01  1.23416E+01  1.24482E+01  1.25183E+01
   1.26040E+01  1.27049E+01  1.28168E+01  1.29334E+01  1.30485E+01  1.31619E+01  1.32777E+01  1.34032E+01  1.35451E+01  1.37083E+01
   1.38945E+01  1.41019E+01  1.43264E+01  1.45653E+01  1.48186E+01  1.50861E+01  1.53673E+01  1.56644E+01  1.59811E+01  1.63185E+01
   1.66750E+01  1.70480E+01  1.74348E+01  1.78315E+01  1.82344E+01  1.86411E+01  1.90497E+01  1.94599E+01  1.98710E+01  2.02794E+01
   2.06809E+01  2.10718E+01  2.14482E+01  2.18066E+01  2.21438E+01  2.24585E+01  2.27506E+01  2.30203E+01  2.32683E+01  2.34960E+01
   2.37057E+01  2.39002E+01  2.40831E+01  2.42585E+01  2.44312E+01  2.46059E+01  2.47880E+01  2.49826E+01  2.51952E+01  2.54315E+01
   2.56986E+01  2.60083E+01  2.63769E+01  2.67798E+01  2.71696E+01  2.75153E+01  2.78101E+01  2.80777E+01  2.83576E+01  2.86832E+01
   2.91027E+01  2.96696E+01  3.03882E+01  3.12002E+01  3.20067E+01  3.27577E+01  3.34417E+01  3.40515E+01  3.45908E+01  3.50760E+01
   3.55473E+01  3.60448E+01  3.65527E+01  3.70336E+01  3.74822E+01  3.78948E+01  3.82673E+01  3.85955E+01  3.88752E+01  3.91030E+01
   3.92757E+01  3.93907E+01  3.94458E+01  3.94397E+01  3.93719E+01  3.92423E+01  3.90522E+01  3.88033E+01  3.84983E+01  3.81408E+01
   3.77350E+01  3.72859E+01  3.67991E+01  3.62808E+01  3.57376E+01  3.51762E+01  3.46037E+01  3.40273E+01  3.34541E+01  3.28910E+01
   3.23447E+01  3.18215E+01  3.13274E+01  3.08677E+01  3.04469E+01  3.00688E+01  2.97363E+01  2.94512E+01  2.92143E+01  2.90250E+01
   2.88816E+01  2.87810E+01  2.87190E+01  2.86900E+01  2.86877E+01  2.87048E+01  2.87334E+01  2.87656E+01  2.87933E+01  2.88091E+01
   2.88061E+01  2.87787E+01  2.87224E+01  2.86343E+01  2.85128E+01  2.83579E+01  2.81710E+01  2.79546E+01  2.77123E+01  2.74482E+01
   2.71666E+01  2.68721E+01  2.65688E+01  2.62606E+01  2.59504E+01  2.56406E+01  2.53327E+01  2.50275E+01  2.47251E+01  2.44249E+01
   2.41259E+01  2.38269E+01  2.35264E+01  2.32229E+01  2.29151E+01  2.26017E+01  2.22820E+01  2.19552E+01  2.16212E+01  2.12800E+01
   2.09320E+01  2.05780E+01  2.02188E+01  1.98556E+01  1.94896E+01  1.91222E+01  1.87548E+01  1.83888E+01  1.80255E+01  1.76662E+01
   1.73121E+01  1.69643E+01  1.66236E+01  1.62909E+01  1.59669E+01  1.56521E+01  1.53468E+01  1.50514E+01  1.47660E+01  1.44906E+01
   1.42253E+01  1.39700E+01  1.37244E+01  1.34884E+01  1.32616E+01  1.30439E+01  1.28348E+01  1.26340E+01  1.24412E+01  1.22561E+01
   1.20781E+01  1.19071E+01  1.17426E+01  1.15843E+01  1.14319E+01  1.12850E+01  1.11434E+01  1.10068E+01  1.08748E+01  1.07473E+01
   1.06241E+01  1.05047E+01  1.03891E+01  1.02771E+01  1.01684E+01  1.00628E+01  9.96021E+00  9.86045E+00  9.76336E+00  9.66879E+00
   9.57661E+00  9.48670E+00  9.39893E+00  9.31321E+00  9.22942E+00  9.14747E+00  9.06726E+00  8.98871E+00  8.91175E+00  8.83630E+00
   8.76229E+00  8.68965E+00  8.61832E+00  8.54824E+00  8.47937E+00  8.41164E+00  8.34502E+00  8.27946E+00  8.21491E+00  8.15135E+00
   8.08872E+00  8.02701E+00  7.96617E+00  7.90618E+00  7.84701E+00  7.78863E+00  7.73103E+00  7.67417E+00
 NY background values follow
     1.646E+00    1.674E+00    1.701E+00    1.728E+00    1.755E+00    1.782E+00    1.809E+00    1.836E+00    1.863E+00    1.891E+00
     1.918E+00    1.945E+00    1.972E+00    1.999E+00    2.026E+00    2.053E+00    2.081E+00    2.108E+00    2.135E+00    2.162E+00
     2.189E+00    2.216E+00    2.243E+00    2.270E+00    2.296E+00    2.323E+00    2.350E+00    2.377E+00    2.404E+00    2.430E+00
     2.457E+00    2.483E+00    2.510E+00    2.536E+00    2.562E+00    2.589E+00    2.615E+00    2.641E+00    2.667E+00    2.693E+00
     2.719E+00    2.744E+00    2.770E+00    2.796E+00    2.821E+00    2.846E+00    2.872E+00    2.897E+00    2.922E+00    2.947E+00
     2.972E+00    2.996E+00    3.021E+00    3.046E+00    3.070E+00    3.094E+00    3.119E+00    3.143E+00    3.167E+00    3.191E+00
     3.215E+00    3.238E+00    3.262E+00    3.286E+00    3.309E+00    3.333E+00    3.356E+00    3.379E+00    3.402E+00    3.425E+00
     3.448E+00    3.471E+00    3.494E+00    3.517E+00    3.539E+00    3.562E+00    3.584E+00    3.607E+00    3.629E+00    3.651E+00
     3.673E+00    3.695E+00    3.717E+00    3.739E+00    3.761E+00    3.783E+00    3.804E+00    3.826E+00    3.847E+00    3.869E+00
     3.890E+00    3.912E+00    3.933E+00    3.954E+00    3.975E+00    3.996E+00    4.017E+00    4.038E+00    4.059E+00    4.080E+00
     4.101E+00    4.122E+00    4.142E+00    4.163E+00    4.184E+00    4.204E+00    4.225E+00    4.246E+00    4.266E+00    4.287E+00
     4.308E+00    4.328E+00    4.349E+00    4.369E+00    4.390E+00    4.411E+00    4.431E+00    4.452E+00    4.473E+00    4.493E+00
     4.514E+00    4.535E+00    4.556E+00    4.576E+00    4.597E+00    4.618E+00    4.639E+00    4.660E+00    4.681E+00    4.703E+00
     4.724E+00    4.745E+00    4.766E+00    4.788E+00    4.809E+00    4.831E+00    4.853E+00    4.874E+00    4.896E+00    4.918E+00
     4.940E+00    4.962E+00    4.984E+00    5.007E+00    5.029E+00    5.051E+00    5.074E+00    5.096E+00    5.119E+00    5.142E+00
     5.165E+00    5.188E+00    5.211E+00    5.234E+00    5.257E+00    5.280E+00    5.304E+00    5.327E+00    5.351E+00    5.374E+00
     5.398E+00    5.422E+00    5.446E+00    5.469E+00    5.493E+00    5.518E+00    5.542E+00    5.566E+00    5.590E+00    5.615E+00
     5.639E+00    5.664E+00    5.689E+00    5.713E+00    5.738E+00    5.763E+00    5.788E+00    5.813E+00    5.838E+00    5.864E+00
     5.889E+00    5.914E+00    5.940E+00    5.965E+00    5.991E+00    6.017E+00    6.042E+00    6.068E+00    6.094E+00    6.120E+00
     6.146E+00    6.173E+00    6.199E+00    6.225E+00    6.251E+00    6.278E+00    6.304E+00    6.331E+00    6.357E+00    6.384E+00
     6.411E+00    6.438E+00    6.465E+00    6.491E+00    6.518E+00    6.545E+00    6.572E+00    6.600E+00    6.627E+00    6.654E+00
     6.681E+00    6.709E+00    6.736E+00    6.763E+00    6.791E+00    6.818E+00    6.846E+00    6.874E+00    6.901E+00    6.929E+00
     6.957E+00    6.984E+00    7.012E+00    7.040E+00    7.068E+00    7.096E+00    7.124E+00    7.152E+00    7.180E+00    7.208E+00
     7.236E+00    7.264E+00    7.292E+00    7.320E+00    7.348E+00    7.376E+00    7.404E+00    7.431E+00    7.459E+00    7.487E+00
     7.515E+00    7.543E+00    7.570E+00    7.598E+00    7.625E+00    7.653E+00    7.680E+00    7.707E+00    7.734E+00    7.761E+00
     7.788E+00    7.815E+00    7.842E+00    7.868E+00    7.894E+00    7.921E+00    7.947E+00    7.972E+00    7.998E+00    8.024E+00
     8.049E+00    8.074E+00    8.099E+00    8.124E+00    8.148E+00    8.173E+00    8.197E+00    8.221E+00    8.244E+00    8.268E+00
     8.291E+00    8.314E+00    8.336E+00    8.359E+00    8.381E+00    8.402E+00    8.424E+00    8.445E+00    8.466E+00    8.487E+00
     8.508E+00    8.528E+00    8.548E+00    8.568E+00    8.587E+00    8.606E+00    8.625E+00    8.644E+00    8.662E+00    8.680E+00
     8.698E+00    8.716E+00    8.733E+00    8.750E+00    8.767E+00    8.783E+00    8.799E+00    8.815E+00    8.831E+00    8.846E+00
     8.862E+00    8.876E+00    8.891E+00    8.905E+00    8.919E+00    8.933E+00    8.947E+00    8.960E+00    8.973E+00    8.986E+00
     8.998E+00    9.010E+00    9.022E+00    9.034E+00    9.045E+00    9.056E+00    9.067E+00    9.077E+00    9.088E+00    9.097E+00
     9.107E+00    9.117E+00    9.126E+00    9.134E+00    9.143E+00    9.151E+00    9.159E+00    9.167E+00    9.175E+00    9.182E+00
     9.189E+00    9.195E+00    9.202E+00    9.208E+00    9.214E+00    9.219E+00    9.224E+00    9.229E+00    9.234E+00    9.239E+00
     9.243E+00    9.247E+00    9.250E+00    9.254E+00    9.257E+00    9.260E+00    9.262E+00    9.264E+00    9.266E+00    9.268E+00
     9.270E+00    9.271E+00    9.272E+00    9.272E+00    9.273E+00    9.273E+00    9.273E+00    9.272E+00    9.271E+00    9.270E+00
     9.269E+00    9.268E+00    9.266E+00    9.264E+00    9.261E+00    9.259E+00    9.256E+00    9.253E+00    9.249E+00    9.246E+00
     9.242E+00    9.237E+00    9.233E+00    9.228E+00    9.223E+00    9.218E+00    9.212E+00    9.206E+00    9.200E+00    9.194E+00
     9.187E+00    9.180E+00    9.173E+00    9.166E+00    9.158E+00    9.150E+00    9.142E+00    9.134E+00    9.125E+00    9.116E+00
     9.107E+00    9.097E+00    9.087E+00    9.077E+00    9.067E+00    9.056E+00    9.045E+00    9.034E+00    9.023E+00    9.011E+00
     8.999E+00    8.987E+00    8.975E+00    8.962E+00    8.949E+00    8.936E+00    8.923E+00    8.909E+00    8.895E+00    8.881E+00
     8.866E+00    8.852E+00    8.837E+00    8.821E+00    8.806E+00    8.790E+00    8.774E+00    8.758E+00    8.741E+00    8.724E+00
     8.707E+00    8.689E+00    8.672E+00    8.654E+00    8.635E+00    8.617E+00    8.598E+00    8.579E+00    8.559E+00    8.540E+00
     8.520E+00    8.500E+00    8.479E+00    8.458E+00    8.437E+00    8.416E+00    8.394E+00    8.372E+00    8.349E+00    8.327E+00
     8.304E+00    8.281E+00    8.257E+00    8.233E+00    8.209E+00    8.185E+00    8.160E+00    8.135E+00    8.109E+00    8.084E+00
     8.058E+00    8.031E+00    8.005E+00    7.978E+00    7.951E+00    7.923E+00    7.895E+00    7.867E+00    7.839E+00    7.810E+00
     7.781E+00    7.752E+00    7.722E+00    7.693E+00    7.663E+00    7.632E+00    7.602E+00    7.571E+00    7.541E+00    7.510E+00
     7.479E+00    7.447E+00    7.416E+00    7.384E+00    7.352E+00    7.320E+00    7.288E+00    7.256E+00    7.223E+00    7.191E+00
     7.158E+00    7.125E+00    7.092E+00    7.059E+00    7.026E+00    6.993E+00    6.960E+00    6.927E+00    6.893E+00    6.860E+00
     6.827E+00    6.793E+00    6.760E+00    6.726E+00    6.693E+00    6.659E+00    6.626E+00    6.593E+00
 Ala      Conc. = 2.51E+01
