 LCModel (Version 6.3-1L) Copyright: S.W. Provencher.          Ref.: Magn. Reson. Med. 30:672-679 (1993).                
 Slice#3 Row#14 Col#10  PD_05_press_1_raw_act
 36 lines in following concentration table = NCONC+1
    Conc.  %SD /Cr+PCr  Metabolite                                         
   28.103  53%   1.012 Ala                                                 
    2.386  37% 8.6E-02 Asp                                                 
    0.000 999%   0.000 Cr                                                  
   27.761  30%   1.000 PCr                                                 
    1.422  37% 5.1E-02 GABA                                                
    1.426  37% 5.1E-02 Glc                                                 
   23.832 115%   0.858 Gln                                                 
    6.628 445%   0.239 Glu                                                 
    0.000 999%   0.000 GPC                                                 
    0.000 999%   0.000 PCh                                                 
    0.000 999%   0.000 GSH                                                 
    0.000 999%   0.000 Ins                                                 
   18.785  81%   0.677 Lac                                                 
    0.000 999%   0.000 NAA                                                 
   19.790  48%   0.713 NAAG                                                
    0.475  37% 1.7E-02 Scyllo                                              
    2.369  37% 8.5E-02 Tau                                                 
    2.732  48% 9.8E-02 -CrCH2                                              
    0.000 999%   0.000 GPC+PCh                                             
   19.790  48%   0.713 NAA+NAAG                                            
   27.761  30%   1.000 Cr+PCr                                              
   30.461 123%   1.097 Glu+Gln                                             
  532.877  17%  19.195 Lip13a                                              
    0.000 999%   0.000 Lip13b                                              
  140.691  17%   5.068 Lip09                                               
   10.894 322%   0.392 MM09                                                
   79.856  18%   2.877 Lip20                                               
   16.342 322%   0.589 MM20                                                
    3.268 322%   0.118 MM12                                                
    8.178 322%   0.295 MM14                                                
    4.087 322%   0.147 MM17                                                
  532.877  17%  19.195 Lip13a+Lip13b                                       
  544.324  14%  19.607 MM14+Lip13a+Lip13b+MM12                             
  151.585  21%   5.460 MM09+Lip09                                          
   96.199  50%   3.465 MM20+Lip20                                          
   6 lines in following misc. output table
  FWHM = 0.038 ppm    S/N =   1                                            
  Data shift = 0.000 ppm                                                   
  Ph:-142 deg       0.3 deg/ppm                                            
  alphaB,S = 8.5E+01,   2.6E+01                                            
   14 spline knots.   Ns = 5(1)                                            
  ( 3) 2 infls.   ( 2) 1 extrs.                                            
  498 points on ppm-axis = NY
      4.000000     3.992357     3.984714     3.977070     3.969427     3.961784     3.954141     3.946497     3.938854     3.931211
      3.923568     3.915925     3.908281     3.900638     3.892995     3.885352     3.877708     3.870065     3.862422     3.854779
      3.847136     3.839492     3.831849     3.824206     3.816563     3.808919     3.801276     3.793633     3.785990     3.778347
      3.770703     3.763060     3.755417     3.747774     3.740130     3.732487     3.724844     3.717201     3.709558     3.701914
      3.694271     3.686628     3.678985     3.671341     3.663698     3.656055     3.648412     3.640769     3.633125     3.625482
      3.617839     3.610196     3.602552     3.594909     3.587266     3.579623     3.571980     3.564336     3.556693     3.549050
      3.541407     3.533763     3.526120     3.518477     3.510834     3.503191     3.495547     3.487904     3.480261     3.472618
      3.464974     3.457331     3.449688     3.442045     3.434402     3.426758     3.419115     3.411472     3.403829     3.396185
      3.388542     3.380899     3.373256     3.365613     3.357969     3.350326     3.342683     3.335040     3.327396     3.319753
      3.312110     3.304467     3.296824     3.289180     3.281537     3.273894     3.266251     3.258607     3.250964     3.243321
      3.235678     3.228034     3.220391     3.212748     3.205105     3.197462     3.189818     3.182175     3.174532     3.166889
      3.159245     3.151602     3.143959     3.136316     3.128673     3.121029     3.113386     3.105743     3.098100     3.090456
      3.082813     3.075170     3.067527     3.059884     3.052240     3.044597     3.036954     3.029311     3.021667     3.014024
      3.006381     2.998738     2.991095     2.983451     2.975808     2.968165     2.960522     2.952878     2.945235     2.937592
      2.929949     2.922306     2.914662     2.907019     2.899376     2.891733     2.884089     2.876446     2.868803     2.861160
      2.853517     2.845873     2.838230     2.830587     2.822944     2.815300     2.807657     2.800014     2.792371     2.784728
      2.777084     2.769441     2.761798     2.754155     2.746511     2.738868     2.731225     2.723582     2.715939     2.708295
      2.700652     2.693009     2.685366     2.677722     2.670079     2.662436     2.654793     2.647150     2.639506     2.631863
      2.624220     2.616577     2.608933     2.601290     2.593647     2.586004     2.578361     2.570717     2.563074     2.555431
      2.547788     2.540144     2.532501     2.524858     2.517215     2.509572     2.501928     2.494285     2.486642     2.478999
      2.471355     2.463712     2.456069     2.448426     2.440783     2.433139     2.425496     2.417853     2.410210     2.402566
      2.394923     2.387280     2.379637     2.371994     2.364350     2.356707     2.349064     2.341421     2.333777     2.326134
      2.318491     2.310848     2.303205     2.295561     2.287918     2.280275     2.272632     2.264988     2.257345     2.249702
      2.242059     2.234416     2.226772     2.219129     2.211486     2.203843     2.196199     2.188556     2.180913     2.173270
      2.165627     2.157983     2.150340     2.142697     2.135054     2.127410     2.119767     2.112124     2.104481     2.096838
      2.089194     2.081551     2.073908     2.066265     2.058621     2.050978     2.043335     2.035692     2.028049     2.020405
      2.012762     2.005119     1.997476     1.989833     1.982190     1.974546     1.966903     1.959260     1.951617     1.943974
      1.936331     1.928688     1.921045     1.913402     1.905759     1.898115     1.890472     1.882829     1.875186     1.867543
      1.859900     1.852257     1.844614     1.836971     1.829327     1.821684     1.814041     1.806398     1.798755     1.791112
      1.783469     1.775826     1.768183     1.760540     1.752896     1.745253     1.737610     1.729967     1.722324     1.714681
      1.707038     1.699395     1.691752     1.684108     1.676465     1.668822     1.661179     1.653536     1.645893     1.638250
      1.630607     1.622964     1.615321     1.607677     1.600034     1.592391     1.584748     1.577105     1.569462     1.561819
      1.554176     1.546533     1.538890     1.531246     1.523603     1.515960     1.508317     1.500674     1.493031     1.485388
      1.477745     1.470102     1.462458     1.454815     1.447172     1.439529     1.431886     1.424243     1.416600     1.408957
      1.401314     1.393671     1.386027     1.378384     1.370741     1.363098     1.355455     1.347812     1.340169     1.332526
      1.324883     1.317240     1.309596     1.301953     1.294310     1.286667     1.279024     1.271381     1.263738     1.256095
      1.248452     1.240808     1.233165     1.225522     1.217879     1.210236     1.202593     1.194950     1.187307     1.179664
      1.172021     1.164377     1.156734     1.149091     1.141448     1.133805     1.126162     1.118519     1.110876     1.103233
      1.095590     1.087946     1.080303     1.072660     1.065017     1.057374     1.049731     1.042088     1.034445     1.026802
      1.019158     1.011515     1.003872     0.996229     0.988586     0.980943     0.973300     0.965657     0.958014     0.950371
      0.942727     0.935084     0.927441     0.919798     0.912155     0.904512     0.896869     0.889226     0.881583     0.873940
      0.866296     0.858653     0.851010     0.843367     0.835724     0.828081     0.820438     0.812795     0.805152     0.797508
      0.789865     0.782222     0.774579     0.766936     0.759293     0.751650     0.744007     0.736364     0.728721     0.721077
      0.713434     0.705791     0.698148     0.690505     0.682862     0.675219     0.667576     0.659933     0.652290     0.644646
      0.637003     0.629360     0.621717     0.614074     0.606431     0.598788     0.591145     0.583502     0.575858     0.568215
      0.560572     0.552929     0.545286     0.537643     0.530000     0.522357     0.514714     0.507071     0.499427     0.491784
      0.484141     0.476498     0.468855     0.461212     0.453569     0.445925     0.438282     0.430639     0.422996     0.415353
      0.407710     0.400067     0.392424     0.384780     0.377137     0.369494     0.361851     0.354208     0.346565     0.338922
      0.331278     0.323635     0.315992     0.308349     0.300706     0.293063     0.285420     0.277777     0.270133     0.262490
      0.254847     0.247204     0.239561     0.231918     0.224275     0.216631     0.208988     0.201345
 NY phased data points follow
  -6.61447E-01 -1.83523E+00 -3.07872E+00 -2.31910E+00 -1.86221E+00 -2.54061E+00 -1.61131E+00 -2.50388E+00 -1.76760E+00 -1.74738E+00
  -1.99445E+00 -3.55011E-01 -6.30591E-01 -4.70643E-01 -1.87372E+00 -1.95135E+00 -7.98209E-01 -7.80177E-01 -8.09049E-01 -1.15208E+00
  -2.24104E+00 -1.24153E+00 -1.92947E+00 -1.87375E+00 -9.69095E-01  2.40270E-04 -1.45973E+00 -1.40997E+00 -4.56380E-01 -8.19856E-01
  -1.62656E+00 -2.72385E+00 -1.36982E+00 -2.02610E+00 -1.26890E+00 -1.62478E+00 -5.18624E-01 -1.40402E+00 -1.83038E+00 -2.24560E+00
  -2.29827E+00 -2.27140E+00  6.63712E-01 -9.60582E-01 -1.74231E+00 -2.14996E-02 -1.53020E+00 -8.41810E-01  2.46364E-01 -1.75653E-01
  -1.41408E+00  1.64508E-01 -1.90167E+00 -3.88478E-01 -1.23903E+00 -7.06722E-01  2.75744E-01 -1.18538E+00  2.40179E-01 -1.16880E+00
   9.52179E-01  1.14432E-01 -1.64769E+00  2.45483E-01 -1.27816E+00 -6.38033E-02 -1.92278E+00 -8.70699E-01 -1.02236E+00 -1.54010E+00
  -1.89094E-01 -5.14521E-01  1.31188E-01 -1.19688E+00 -2.42265E-01 -4.71992E-01 -1.01069E+00 -2.14087E-01 -1.08916E+00  4.81757E-01
  -1.48275E+00 -5.53205E-02  9.52837E-01 -6.56668E-01 -1.53248E+00 -4.50027E-01 -6.65466E-01 -5.78391E-01  5.58176E-01  6.16089E-02
  -5.31364E-01 -8.34459E-01 -3.74750E-02 -4.58788E-01 -5.97851E-01 -4.76349E-01 -4.58930E-01 -1.77738E+00 -2.46477E-01 -4.25360E-01
  -5.90168E-01  4.40951E-01 -8.29303E-02 -7.65259E-02  6.69762E-01  6.57631E-03  4.49806E-01 -1.18955E-01 -7.94550E-02 -9.00414E-01
   6.40567E-02 -1.72075E-01 -1.80971E-01 -6.20861E-01  1.07784E-02  2.18919E-01 -9.37959E-02 -1.54024E-02  1.57761E-01 -4.45584E-01
  -7.59129E-01 -2.54252E-01 -2.89728E+00 -1.69409E+00 -1.29796E+00 -1.61445E+00 -5.47001E-01  1.26268E+00  5.23636E-01  9.07089E-01
   1.95898E-01 -1.55313E+00 -1.07018E-01 -3.87863E-01 -1.25950E+00 -5.33463E-01 -4.57948E-01 -8.49758E-01 -5.65606E-01 -2.51544E-01
  -4.10034E-01 -4.42807E-01 -3.58474E-01 -6.82776E-01 -7.97062E-01  1.70385E-01 -6.82937E-01 -2.61751E-01  8.18385E-02 -3.71505E-01
  -2.01735E-01 -2.44211E-01 -1.11842E+00  1.18140E-01  4.32677E-02  1.58369E+00  6.76568E-01  3.37818E-01  1.89137E-01 -5.28984E-01
  -4.83263E-02  3.47039E-01  2.01095E-01  4.61021E-01 -6.21906E-01 -5.33299E-02 -1.17272E-01  4.65689E-01  5.87735E-01 -1.05056E+00
   1.33079E+00  3.54846E-01  1.71352E+00  2.27201E-01  3.55888E-01  3.44706E-01 -6.46268E-02  4.31110E-01 -2.95575E-01  4.12877E-01
   7.44405E-01  4.36797E-01  1.23015E+00  8.72634E-01 -1.97130E-01 -2.42189E-01  7.73715E-01 -9.32744E-02  6.23406E-01  9.46303E-01
   2.21618E+00  2.62306E+00  6.01127E-01  1.19028E+00  1.93441E+00  1.38636E+00  3.89295E-01  1.52068E+00  3.88785E-01  4.27512E-01
  -7.38780E-01  2.34863E+00  1.43503E+00  5.22188E-01  1.62715E-01  1.77280E+00  1.74623E+00  1.45760E+00  1.62942E-01  1.09748E+00
  -2.16339E-01 -7.94638E-02  4.86525E-01  6.98416E-01 -4.97082E-02  1.85846E+00  1.24077E+00  9.75846E-01  1.23588E+00  1.05509E+00
   9.37264E-01  4.91878E-01  1.35926E+00  5.87337E-01  1.12051E+00  3.02354E-01  8.18519E-02  1.25040E+00  1.27780E+00  1.60722E+00
   1.14034E+00 -3.82298E-01 -4.99934E-01  9.26415E-01  1.50595E+00  6.25864E-01 -7.57860E-01  2.07714E+00  7.18614E-01  1.21105E+00
   4.32101E-02  8.41644E-01  5.36278E-01  1.20186E+00  8.34203E-01  1.34302E+00  1.51162E+00  9.00935E-01  4.53333E-01  6.36760E-01
   8.01864E-01  1.07476E+00  1.19362E-01 -7.84484E-02  1.34109E-01  2.98654E-01 -1.31967E+00  1.83857E+00 -7.31560E-01 -5.68518E-01
  -5.80348E-01  2.37015E+00  2.78450E+00  2.43031E+00  1.13324E+00  1.40737E-01  3.76596E-01  9.83642E-01  3.50512E-01  4.85477E-01
   4.06232E-01  5.49016E-01  8.23478E-01  6.41507E-01  1.75014E-02  8.28560E-01  9.86404E-02  1.04406E+00  6.64817E-01 -3.66305E-01
   1.12803E+00  1.25941E+00  9.52911E-01  4.81148E-02  2.21368E+00  1.32372E+00  1.37211E+00  7.49327E-01  1.52027E-01  1.16525E+00
   3.97029E-01 -2.06280E-02  2.43315E+00  1.44988E-01  1.49197E+00  3.43715E-01  7.35075E-01  1.16372E+00  1.02886E+00  2.56012E+00
   1.03073E+00  1.67647E+00  1.14808E-02  1.31046E+00  4.60167E-01  1.38575E+00  8.86009E-01  1.60717E+00  8.78555E-01  1.49849E+00
   1.67030E+00  1.25116E+00  1.37783E+00  2.30886E+00  1.23291E+00  1.38504E+00  1.11590E+00  3.16877E-01  2.02891E+00  6.93736E-01
   1.18758E+00  1.13629E+00  2.19050E+00  2.27775E+00  2.10179E+00  1.70914E+00  1.77627E+00  7.80665E-01  6.28369E-01  2.38662E+00
   1.75538E+00  1.21445E+00  2.79829E+00  1.67995E+00  2.47468E+00  2.73409E-01  6.73543E-01  8.41398E-02 -4.46844E-01 -1.98840E-01
  -8.72841E-01 -7.35028E-01  1.55842E-01  9.76693E-01  4.66768E-01  2.33720E+00  1.28828E+00  1.77302E+00  1.38284E+00  2.47009E-01
   2.81172E+00  3.33740E-01  1.75814E+00  1.69700E+00  2.21325E+00  1.52785E-01 -1.15600E-01  7.35021E-02  4.00108E-01 -2.58345E-01
   4.55152E-01 -1.50102E+00 -1.08919E+00  4.17647E-01 -7.63917E-02 -6.35053E-02 -1.18789E+00 -8.64014E-01 -2.28525E+00 -2.48064E-01
  -2.03850E+00 -8.10543E-01  1.70465E-01 -5.65081E-01 -5.29087E-01 -1.75221E+00 -3.00931E-01 -1.62745E-01 -1.47824E+00 -2.08903E+00
   2.01329E-01  7.08792E-01 -2.61705E-01  4.52560E-01 -4.86412E-01  6.83615E-02  2.17140E-01 -9.23373E-01 -6.45077E-01 -6.42033E-01
  -8.24505E-01  9.20760E-02  1.20397E-01 -5.04452E-01  1.19707E+00 -5.50772E-01 -2.69260E-02  4.98323E-01 -5.94294E-02 -2.79982E-01
   3.11562E-01  4.43080E-01  1.39968E-01 -8.11525E-01 -3.21578E-01 -4.63574E-01 -6.77125E-01 -5.18329E-01 -2.07992E-01 -2.98741E-01
  -6.35497E-01 -3.98189E-01 -3.99337E-01 -6.10077E-01  3.93415E-01 -7.91937E-01  1.14219E+00 -3.44309E-01 -1.46733E+00 -2.30198E-02
  -1.89457E-01  4.51050E-01  5.03278E-01 -9.90853E-01  7.55008E-01  6.28033E-02  9.18595E-01 -2.13219E-01  5.52697E-01 -1.46287E+00
  -3.69272E-01 -5.91217E-01  4.40853E-01  1.14380E+00  5.80324E-01  1.95317E-01 -3.36200E-01 -5.09386E-01 -7.39437E-01 -1.73524E-01
   4.28903E-01  3.79494E-02 -2.79690E-01  1.86809E-01 -1.16805E+00 -1.91990E-02 -4.94889E-01  1.06854E+00  1.34981E-03  1.24040E-01
   1.01992E+00 -7.88761E-01 -9.27683E-01  1.49615E+00 -2.19775E-02  6.54036E-02 -1.85215E-01  2.12485E-01 -1.73645E-01 -2.09873E-01
   1.34449E+00 -2.20486E-02 -8.92478E-01  3.86357E-01 -1.05632E+00 -1.31160E+00 -4.87147E-03 -1.05051E-01  8.09656E-03  6.96879E-01
   3.08035E-02 -9.02633E-01  9.80083E-02 -9.51329E-01  2.00572E-01  2.60035E-01  3.00849E-01 -4.39927E-01 -3.16859E-01 -1.11822E+00
   3.31560E-01 -4.33950E-01  1.52717E-01  3.50064E-01 -1.13986E+00 -1.74658E-01 -9.54519E-01 -4.50970E-01  5.52964E-01  7.01292E-01
   5.29155E-01 -1.06782E+00  4.70792E-01  1.08732E+00  6.05294E-01  9.77283E-02 -6.70678E-01  7.16630E-01
 NY points of the fit to the data follow
  -1.40868E+00 -1.43743E+00 -1.52427E+00 -1.74151E+00 -1.97664E+00 -2.10563E+00 -2.09169E+00 -1.95253E+00 -1.73369E+00 -1.50106E+00
  -1.31146E+00 -1.19241E+00 -1.14649E+00 -1.15047E+00 -1.16536E+00 -1.16180E+00 -1.15973E+00 -1.17221E+00 -1.19746E+00 -1.23375E+00
  -1.28057E+00 -1.30601E+00 -1.27471E+00 -1.19215E+00 -1.08637E+00 -9.87939E-01 -9.24843E-01 -9.22187E-01 -9.75676E-01 -1.06813E+00
  -1.16099E+00 -1.21519E+00 -1.20962E+00 -1.15675E+00 -1.09273E+00 -1.03911E+00 -9.98366E-01 -9.74856E-01 -9.68027E-01 -9.69114E-01
  -9.71102E-01 -9.68727E-01 -9.62128E-01 -9.53341E-01 -9.45318E-01 -9.38192E-01 -9.28846E-01 -9.17779E-01 -9.07735E-01 -8.98240E-01
  -8.88665E-01 -8.78956E-01 -8.68933E-01 -8.58368E-01 -8.47587E-01 -8.37015E-01 -8.26908E-01 -8.17191E-01 -8.07806E-01 -7.98723E-01
  -7.89943E-01 -7.81779E-01 -7.74221E-01 -7.65861E-01 -7.56849E-01 -7.46630E-01 -7.34751E-01 -7.22323E-01 -7.10631E-01 -7.00039E-01
  -6.92782E-01 -6.90349E-01 -6.88911E-01 -6.84154E-01 -6.74164E-01 -6.58915E-01 -6.40151E-01 -6.22169E-01 -6.07984E-01 -5.97859E-01
  -5.91858E-01 -5.93405E-01 -6.00256E-01 -6.03865E-01 -5.99895E-01 -5.87847E-01 -5.69664E-01 -5.49136E-01 -5.28780E-01 -5.08698E-01
  -4.89520E-01 -4.72679E-01 -4.58680E-01 -4.47919E-01 -4.42263E-01 -4.39725E-01 -4.36689E-01 -4.31498E-01 -4.22477E-01 -4.08885E-01
  -3.93152E-01 -3.77941E-01 -3.64230E-01 -3.53254E-01 -3.44465E-01 -3.35931E-01 -3.26180E-01 -3.15334E-01 -3.03527E-01 -2.90831E-01
  -2.77846E-01 -2.64976E-01 -2.52134E-01 -2.39251E-01 -2.26079E-01 -2.11663E-01 -1.96115E-01 -1.80207E-01 -1.64692E-01 -1.57876E-01
  -2.35806E-01 -5.52825E-01 -9.91711E-01 -1.34851E+00 -1.51071E+00 -1.45376E+00 -1.21539E+00 -8.85751E-01 -5.63383E-01 -3.15324E-01
  -1.76686E-01 -1.45899E-01 -1.68827E-01 -1.73479E-01 -1.63219E-01 -1.52447E-01 -1.43217E-01 -1.34371E-01 -1.24845E-01 -1.15110E-01
  -1.06114E-01 -9.90572E-02 -9.39180E-02 -8.90853E-02 -8.36802E-02 -7.75443E-02 -7.06980E-02 -6.35253E-02 -5.64075E-02 -4.71312E-02
  -3.31769E-02 -1.76694E-02 -4.50874E-03  3.20125E-03  2.79662E-03 -6.11099E-04 -3.96937E-04  5.92179E-03  1.82374E-02  3.54496E-02
   5.52346E-02  7.42430E-02  8.95448E-02  1.01347E-01  1.12338E-01  1.27979E-01  1.47847E-01  1.63522E-01  1.71721E-01  1.74115E-01
   1.76335E-01  1.85619E-01  2.01551E-01  2.20798E-01  2.40691E-01  2.59293E-01  2.75474E-01  2.90782E-01  3.09869E-01  3.28430E-01
   3.39802E-01  3.43595E-01  3.41659E-01  3.36575E-01  3.33245E-01  3.34859E-01  3.41097E-01  3.48119E-01  3.55307E-01  3.69623E-01
   3.91854E-01  4.24552E-01  4.68464E-01  5.15998E-01  5.57444E-01  5.82353E-01  5.81959E-01  5.51312E-01  4.99035E-01  4.46260E-01
   4.02636E-01  3.73331E-01  3.68243E-01  3.92201E-01  4.52191E-01  5.65757E-01  7.08333E-01  8.22750E-01  8.78649E-01  8.73776E-01
   8.17983E-01  7.28117E-01  6.34783E-01  5.65723E-01  5.33440E-01  5.37890E-01  5.67182E-01  6.05482E-01  6.45588E-01  6.80528E-01
   6.99428E-01  6.99639E-01  6.84332E-01  6.62581E-01  6.42310E-01  6.27070E-01  6.23028E-01  6.32735E-01  6.51019E-01  6.68899E-01
   6.81211E-01  7.01603E-01  7.32447E-01  7.61856E-01  7.77724E-01  7.70911E-01  7.34282E-01  6.80177E-01  6.45928E-01  6.43853E-01
   6.71313E-01  7.24548E-01  7.91347E-01  8.50248E-01  8.92987E-01  9.20284E-01  9.30762E-01  9.27649E-01  9.20644E-01  9.19096E-01
   9.09762E-01  7.78474E-01  4.88423E-01  1.58196E-01 -9.59886E-02 -2.13566E-01 -1.83756E-01 -3.99044E-02  1.56341E-01  3.46269E-01
   4.88723E-01  5.61390E-01  5.73690E-01  5.75732E-01  5.93584E-01  6.19063E-01  6.46795E-01  6.73179E-01  6.96310E-01  7.15212E-01
   7.29544E-01  7.40408E-01  7.52406E-01  7.69375E-01  7.92025E-01  8.18502E-01  8.46516E-01  8.73703E-01  8.97684E-01  9.16382E-01
   9.30870E-01  9.42799E-01  9.54174E-01  9.66860E-01  9.81269E-01  9.97351E-01  1.01579E+00  1.03498E+00  1.05214E+00  1.06608E+00
   1.07723E+00  1.08680E+00  1.09565E+00  1.10485E+00  1.11585E+00  1.12935E+00  1.14442E+00  1.15976E+00  1.17399E+00  1.18675E+00
   1.19827E+00  1.20891E+00  1.21914E+00  1.22944E+00  1.24021E+00  1.25163E+00  1.26344E+00  1.27545E+00  1.28764E+00  1.30000E+00
   1.31254E+00  1.32526E+00  1.33813E+00  1.35108E+00  1.36401E+00  1.37676E+00  1.38911E+00  1.40069E+00  1.41087E+00  1.41843E+00
   1.42056E+00  1.40787E+00  1.33869E+00  1.17231E+00  1.00928E+00  9.44043E-01  1.00324E+00  1.17147E+00  1.41425E+00  1.70058E+00
   2.00488E+00  2.19896E+00  2.20036E+00  2.03681E+00  1.79444E+00  1.55982E+00  1.37622E+00  1.26616E+00  1.22755E+00  1.24046E+00
   1.27186E+00  1.27545E+00  1.19278E+00  1.02341E+00  8.54221E-01  7.45461E-01  7.14119E-01  7.51654E-01  8.38822E-01  9.60796E-01
   1.06162E+00  1.05104E+00  9.09465E-01  6.73865E-01  4.07822E-01  1.67062E-01 -2.58163E-02 -1.63591E-01 -2.52204E-01 -3.06105E-01
  -3.46899E-01 -3.95804E-01 -4.52334E-01 -5.01800E-01 -5.41413E-01 -5.71077E-01 -5.90868E-01 -6.01042E-01 -6.02057E-01 -5.94541E-01
  -5.79258E-01 -5.57062E-01 -5.28875E-01 -4.95654E-01 -4.58362E-01 -4.17935E-01 -3.75265E-01 -3.31177E-01 -2.86439E-01 -2.41748E-01
  -1.97740E-01 -1.54974E-01 -1.13951E-01 -7.51114E-02 -3.88559E-02 -5.54652E-03  2.44845E-02  5.09437E-02  7.35643E-02  9.21122E-02
   1.06376E-01  1.16182E-01  1.21400E-01  1.21959E-01  1.17850E-01  1.09134E-01  9.59446E-02  7.85065E-02  5.71292E-02  3.22214E-02
   4.26990E-03 -2.61611E-02 -5.84523E-02 -9.19312E-02 -1.25901E-01 -1.59654E-01 -1.92506E-01 -2.23812E-01 -2.52993E-01 -2.79541E-01
  -3.03042E-01 -3.23178E-01 -3.39742E-01 -3.52632E-01 -3.61850E-01 -3.67481E-01 -3.69692E-01 -3.68713E-01 -3.64834E-01 -3.58374E-01
  -3.49679E-01 -3.39092E-01 -3.26958E-01 -3.13605E-01 -2.99345E-01 -2.84462E-01 -2.69208E-01 -2.53798E-01 -2.38421E-01 -2.23232E-01
  -2.08366E-01 -1.93922E-01 -1.79979E-01 -1.66590E-01 -1.53799E-01 -1.41630E-01 -1.30101E-01 -1.19215E-01 -1.08968E-01 -9.93468E-02
  -9.03415E-02 -8.19353E-02 -7.41131E-02 -6.68514E-02 -6.01299E-02 -5.39247E-02 -4.82190E-02 -4.29922E-02 -3.82266E-02 -3.38991E-02
  -2.99918E-02 -2.64860E-02 -2.33692E-02 -2.06248E-02 -1.82389E-02 -1.61935E-02 -1.44766E-02 -1.30745E-02 -1.19795E-02 -1.11783E-02
  -1.06608E-02 -1.04139E-02 -1.04301E-02 -1.07007E-02 -1.12202E-02 -1.19779E-02 -1.29664E-02 -1.41759E-02 -1.56025E-02 -1.72394E-02
  -1.90827E-02 -2.11235E-02 -2.33567E-02 -2.57752E-02 -2.83775E-02 -3.11577E-02 -3.41128E-02 -3.72348E-02 -4.05205E-02 -4.39649E-02
  -4.75672E-02 -5.13221E-02 -5.52267E-02 -5.92743E-02 -6.34632E-02 -6.77892E-02 -7.22516E-02 -7.68451E-02 -8.15670E-02 -8.64111E-02
  -9.13764E-02 -9.64590E-02 -1.01657E-01 -1.06966E-01 -1.12380E-01 -1.17896E-01 -1.23510E-01 -1.29218E-01
 NY background values follow
    -1.285E+00   -1.278E+00   -1.270E+00   -1.262E+00   -1.254E+00   -1.246E+00   -1.238E+00   -1.230E+00   -1.222E+00   -1.214E+00
    -1.206E+00   -1.198E+00   -1.190E+00   -1.182E+00   -1.174E+00   -1.165E+00   -1.157E+00   -1.149E+00   -1.141E+00   -1.133E+00
    -1.124E+00   -1.116E+00   -1.108E+00   -1.100E+00   -1.091E+00   -1.083E+00   -1.075E+00   -1.066E+00   -1.058E+00   -1.049E+00
    -1.041E+00   -1.032E+00   -1.024E+00   -1.016E+00   -1.007E+00   -9.986E-01   -9.900E-01   -9.815E-01   -9.730E-01   -9.644E-01
    -9.559E-01   -9.473E-01   -9.387E-01   -9.301E-01   -9.214E-01   -9.128E-01   -9.042E-01   -8.955E-01   -8.869E-01   -8.782E-01
    -8.695E-01   -8.608E-01   -8.521E-01   -8.434E-01   -8.346E-01   -8.259E-01   -8.172E-01   -8.084E-01   -7.997E-01   -7.909E-01
    -7.821E-01   -7.733E-01   -7.645E-01   -7.558E-01   -7.470E-01   -7.381E-01   -7.293E-01   -7.205E-01   -7.117E-01   -7.029E-01
    -6.940E-01   -6.852E-01   -6.764E-01   -6.675E-01   -6.587E-01   -6.498E-01   -6.410E-01   -6.321E-01   -6.233E-01   -6.144E-01
    -6.055E-01   -5.967E-01   -5.878E-01   -5.789E-01   -5.701E-01   -5.612E-01   -5.524E-01   -5.435E-01   -5.346E-01   -5.258E-01
    -5.169E-01   -5.081E-01   -4.992E-01   -4.903E-01   -4.815E-01   -4.726E-01   -4.638E-01   -4.550E-01   -4.461E-01   -4.373E-01
    -4.285E-01   -4.196E-01   -4.108E-01   -4.020E-01   -3.932E-01   -3.844E-01   -3.756E-01   -3.668E-01   -3.580E-01   -3.493E-01
    -3.405E-01   -3.317E-01   -3.230E-01   -3.142E-01   -3.055E-01   -2.968E-01   -2.881E-01   -2.794E-01   -2.707E-01   -2.620E-01
    -2.533E-01   -2.446E-01   -2.360E-01   -2.273E-01   -2.187E-01   -2.101E-01   -2.015E-01   -1.929E-01   -1.843E-01   -1.757E-01
    -1.671E-01   -1.586E-01   -1.501E-01   -1.415E-01   -1.330E-01   -1.246E-01   -1.161E-01   -1.076E-01   -9.918E-02   -9.075E-02
    -8.234E-02   -7.395E-02   -6.557E-02   -5.721E-02   -4.886E-02   -4.054E-02   -3.223E-02   -2.394E-02   -1.566E-02   -7.409E-03
     8.268E-04    9.043E-03    1.724E-02    2.542E-02    3.357E-02    4.171E-02    4.983E-02    5.792E-02    6.600E-02    7.405E-02
     8.208E-02    9.009E-02    9.808E-02    1.060E-01    1.140E-01    1.219E-01    1.298E-01    1.377E-01    1.455E-01    1.533E-01
     1.611E-01    1.689E-01    1.767E-01    1.844E-01    1.921E-01    1.998E-01    2.074E-01    2.150E-01    2.226E-01    2.302E-01
     2.378E-01    2.453E-01    2.528E-01    2.602E-01    2.676E-01    2.750E-01    2.824E-01    2.898E-01    2.971E-01    3.044E-01
     3.116E-01    3.188E-01    3.260E-01    3.332E-01    3.403E-01    3.475E-01    3.545E-01    3.616E-01    3.686E-01    3.756E-01
     3.825E-01    3.894E-01    3.963E-01    4.031E-01    4.100E-01    4.167E-01    4.235E-01    4.302E-01    4.369E-01    4.435E-01
     4.501E-01    4.567E-01    4.633E-01    4.698E-01    4.762E-01    4.827E-01    4.891E-01    4.954E-01    5.017E-01    5.080E-01
     5.143E-01    5.205E-01    5.267E-01    5.328E-01    5.389E-01    5.450E-01    5.510E-01    5.570E-01    5.629E-01    5.688E-01
     5.747E-01    5.805E-01    5.863E-01    5.920E-01    5.977E-01    6.034E-01    6.090E-01    6.146E-01    6.202E-01    6.257E-01
     6.311E-01    6.365E-01    6.419E-01    6.472E-01    6.525E-01    6.578E-01    6.630E-01    6.681E-01    6.733E-01    6.783E-01
     6.834E-01    6.883E-01    6.933E-01    6.982E-01    7.030E-01    7.078E-01    7.126E-01    7.173E-01    7.220E-01    7.266E-01
     7.312E-01    7.357E-01    7.402E-01    7.447E-01    7.490E-01    7.534E-01    7.577E-01    7.619E-01    7.661E-01    7.703E-01
     7.744E-01    7.785E-01    7.825E-01    7.864E-01    7.904E-01    7.942E-01    7.980E-01    8.018E-01    8.055E-01    8.092E-01
     8.128E-01    8.164E-01    8.199E-01    8.234E-01    8.268E-01    8.302E-01    8.335E-01    8.367E-01    8.400E-01    8.431E-01
     8.462E-01    8.493E-01    8.523E-01    8.552E-01    8.581E-01    8.610E-01    8.638E-01    8.665E-01    8.692E-01    8.719E-01
     8.745E-01    8.770E-01    8.795E-01    8.819E-01    8.843E-01    8.866E-01    8.888E-01    8.910E-01    8.932E-01    8.953E-01
     8.973E-01    8.993E-01    9.013E-01    9.031E-01    9.050E-01    9.067E-01    9.084E-01    9.101E-01    9.117E-01    9.132E-01
     9.147E-01    9.162E-01    9.175E-01    9.188E-01    9.201E-01    9.213E-01    9.225E-01    9.235E-01    9.246E-01    9.256E-01
     9.265E-01    9.273E-01    9.281E-01    9.289E-01    9.296E-01    9.302E-01    9.308E-01    9.313E-01    9.317E-01    9.321E-01
     9.324E-01    9.327E-01    9.329E-01    9.331E-01    9.332E-01    9.332E-01    9.332E-01    9.331E-01    9.330E-01    9.328E-01
     9.325E-01    9.322E-01    9.318E-01    9.314E-01    9.309E-01    9.303E-01    9.297E-01    9.290E-01    9.283E-01    9.274E-01
     9.266E-01    9.257E-01    9.247E-01    9.236E-01    9.225E-01    9.213E-01    9.201E-01    9.188E-01    9.174E-01    9.160E-01
     9.145E-01    9.130E-01    9.114E-01    9.097E-01    9.080E-01    9.062E-01    9.044E-01    9.024E-01    9.005E-01    8.984E-01
     8.963E-01    8.942E-01    8.919E-01    8.896E-01    8.873E-01    8.849E-01    8.824E-01    8.799E-01    8.773E-01    8.746E-01
     8.719E-01    8.691E-01    8.662E-01    8.633E-01    8.603E-01    8.573E-01    8.541E-01    8.510E-01    8.477E-01    8.444E-01
     8.411E-01    8.376E-01    8.342E-01    8.306E-01    8.270E-01    8.233E-01    8.196E-01    8.157E-01    8.119E-01    8.079E-01
     8.039E-01    7.999E-01    7.957E-01    7.915E-01    7.873E-01    7.830E-01    7.786E-01    7.741E-01    7.696E-01    7.650E-01
     7.604E-01    7.557E-01    7.509E-01    7.461E-01    7.412E-01    7.362E-01    7.312E-01    7.261E-01    7.210E-01    7.158E-01
     7.105E-01    7.051E-01    6.997E-01    6.942E-01    6.887E-01    6.831E-01    6.774E-01    6.717E-01    6.659E-01    6.601E-01
     6.541E-01    6.481E-01    6.421E-01    6.360E-01    6.298E-01    6.236E-01    6.173E-01    6.109E-01    6.045E-01    5.980E-01
     5.914E-01    5.848E-01    5.781E-01    5.713E-01    5.645E-01    5.576E-01    5.507E-01    5.437E-01    5.366E-01    5.295E-01
     5.223E-01    5.150E-01    5.077E-01    5.003E-01    4.928E-01    4.853E-01    4.778E-01    4.701E-01    4.624E-01    4.546E-01
     4.468E-01    4.389E-01    4.310E-01    4.230E-01    4.149E-01    4.067E-01    3.985E-01    3.903E-01    3.819E-01    3.735E-01
     3.651E-01    3.566E-01    3.480E-01    3.393E-01    3.306E-01    3.219E-01    3.130E-01    3.041E-01    2.952E-01    2.862E-01
     2.771E-01    2.680E-01    2.588E-01    2.495E-01    2.402E-01    2.308E-01    2.214E-01    2.119E-01
 Ala      Conc. = 2.81E+01
