 LCModel (Version 6.3-1L) Copyright: S.W. Provencher.          Ref.: Magn. Reson. Med. 30:672-679 (1993).                
 Slice#1 Row#13 Col#12  PD_05_press_1_raw_act
 36 lines in following concentration table = NCONC+1
    Conc.  %SD /Cr+PCr  Metabolite                                         
   17.969 133%   0.000 Ala                                                 
    1.612 184%   0.000 Asp                                                 
    0.000 999%   0.000 Cr                                                  
    0.000 999%   0.000 PCr                                                 
    0.891 200%   0.000 GABA                                                
    0.911 196%   0.000 Glc                                                 
    0.000 999%   0.000 Gln                                                 
    0.000 999%   0.000 Glu                                                 
    0.000 999%   0.000 GPC                                                 
    0.000 999%   0.000 PCh                                                 
   20.987  78%   0.000 GSH                                                 
    0.000 999%   0.000 Ins                                                 
    0.000 999%   0.000 Lac                                                 
    0.000 999%   0.000 NAA                                                 
   29.570  48%   0.000 NAAG                                                
    0.225 263%   0.000 Scyllo                                              
    1.379 215%   0.000 Tau                                                 
    0.271 999%   0.000 -CrCH2                                              
    0.000 999%   0.000 GPC+PCh                                             
   29.570  48%   0.000 NAA+NAAG                                            
    0.000 999%   0.000 Cr+PCr                                              
    0.000 999%   0.000 Glu+Gln                                             
  276.280  30%   0.000 Lip13a                                              
    0.000 999%   0.000 Lip13b                                              
   73.767  30%   0.000 Lip09                                               
   50.156  74%   0.000 MM09                                                
   41.442  30%   0.000 Lip20                                               
   45.853 133%   0.000 MM20                                                
   28.203  90%   0.000 MM12                                                
    0.000 999%   0.000 MM14                                                
   40.307 100%   0.000 MM17                                                
  276.280  30%   0.000 Lip13a+Lip13b                                       
  304.483  25%   0.000 MM14+Lip13a+Lip13b+MM12                             
  123.923  26%   0.000 MM09+Lip09                                          
   87.295  69%   0.000 MM20+Lip20                                          
   6 lines in following misc. output table
  FWHM = 0.046 ppm    S/N =   1                                            
  Data shift = 0.054 ppm                                                   
  Ph:  52 deg     -12.5 deg/ppm                                            
  alphaB,S = 8.5E+01,   2.6E+01                                            
   14 spline knots.   Ns = 5(1)                                            
   2 inflections.     1 extrema                                            
  498 points on ppm-axis = NY
      4.000000     3.992357     3.984714     3.977070     3.969427     3.961784     3.954141     3.946497     3.938854     3.931211
      3.923568     3.915925     3.908281     3.900638     3.892995     3.885352     3.877708     3.870065     3.862422     3.854779
      3.847136     3.839492     3.831849     3.824206     3.816563     3.808919     3.801276     3.793633     3.785990     3.778347
      3.770703     3.763060     3.755417     3.747774     3.740130     3.732487     3.724844     3.717201     3.709558     3.701914
      3.694271     3.686628     3.678985     3.671341     3.663698     3.656055     3.648412     3.640769     3.633125     3.625482
      3.617839     3.610196     3.602552     3.594909     3.587266     3.579623     3.571980     3.564336     3.556693     3.549050
      3.541407     3.533763     3.526120     3.518477     3.510834     3.503191     3.495547     3.487904     3.480261     3.472618
      3.464974     3.457331     3.449688     3.442045     3.434402     3.426758     3.419115     3.411472     3.403829     3.396185
      3.388542     3.380899     3.373256     3.365613     3.357969     3.350326     3.342683     3.335040     3.327396     3.319753
      3.312110     3.304467     3.296824     3.289180     3.281537     3.273894     3.266251     3.258607     3.250964     3.243321
      3.235678     3.228034     3.220391     3.212748     3.205105     3.197462     3.189818     3.182175     3.174532     3.166889
      3.159245     3.151602     3.143959     3.136316     3.128673     3.121029     3.113386     3.105743     3.098100     3.090456
      3.082813     3.075170     3.067527     3.059884     3.052240     3.044597     3.036954     3.029311     3.021667     3.014024
      3.006381     2.998738     2.991095     2.983451     2.975808     2.968165     2.960522     2.952878     2.945235     2.937592
      2.929949     2.922306     2.914662     2.907019     2.899376     2.891733     2.884089     2.876446     2.868803     2.861160
      2.853517     2.845873     2.838230     2.830587     2.822944     2.815300     2.807657     2.800014     2.792371     2.784728
      2.777084     2.769441     2.761798     2.754155     2.746511     2.738868     2.731225     2.723582     2.715939     2.708295
      2.700652     2.693009     2.685366     2.677722     2.670079     2.662436     2.654793     2.647150     2.639506     2.631863
      2.624220     2.616577     2.608933     2.601290     2.593647     2.586004     2.578361     2.570717     2.563074     2.555431
      2.547788     2.540144     2.532501     2.524858     2.517215     2.509572     2.501928     2.494285     2.486642     2.478999
      2.471355     2.463712     2.456069     2.448426     2.440783     2.433139     2.425496     2.417853     2.410210     2.402566
      2.394923     2.387280     2.379637     2.371994     2.364350     2.356707     2.349064     2.341421     2.333777     2.326134
      2.318491     2.310848     2.303205     2.295561     2.287918     2.280275     2.272632     2.264988     2.257345     2.249702
      2.242059     2.234416     2.226772     2.219129     2.211486     2.203843     2.196199     2.188556     2.180913     2.173270
      2.165627     2.157983     2.150340     2.142697     2.135054     2.127410     2.119767     2.112124     2.104481     2.096838
      2.089194     2.081551     2.073908     2.066265     2.058621     2.050978     2.043335     2.035692     2.028049     2.020405
      2.012762     2.005119     1.997476     1.989833     1.982190     1.974546     1.966903     1.959260     1.951617     1.943974
      1.936331     1.928688     1.921045     1.913402     1.905759     1.898115     1.890472     1.882829     1.875186     1.867543
      1.859900     1.852257     1.844614     1.836971     1.829327     1.821684     1.814041     1.806398     1.798755     1.791112
      1.783469     1.775826     1.768183     1.760540     1.752896     1.745253     1.737610     1.729967     1.722324     1.714681
      1.707038     1.699395     1.691752     1.684108     1.676465     1.668822     1.661179     1.653536     1.645893     1.638250
      1.630607     1.622964     1.615321     1.607677     1.600034     1.592391     1.584748     1.577105     1.569462     1.561819
      1.554176     1.546533     1.538890     1.531246     1.523603     1.515960     1.508317     1.500674     1.493031     1.485388
      1.477745     1.470102     1.462458     1.454815     1.447172     1.439529     1.431886     1.424243     1.416600     1.408957
      1.401314     1.393671     1.386027     1.378384     1.370741     1.363098     1.355455     1.347812     1.340169     1.332526
      1.324883     1.317240     1.309596     1.301953     1.294310     1.286667     1.279024     1.271381     1.263738     1.256095
      1.248452     1.240808     1.233165     1.225522     1.217879     1.210236     1.202593     1.194950     1.187307     1.179664
      1.172021     1.164377     1.156734     1.149091     1.141448     1.133805     1.126162     1.118519     1.110876     1.103233
      1.095590     1.087946     1.080303     1.072660     1.065017     1.057374     1.049731     1.042088     1.034445     1.026802
      1.019158     1.011515     1.003872     0.996229     0.988586     0.980943     0.973300     0.965657     0.958014     0.950371
      0.942727     0.935084     0.927441     0.919798     0.912155     0.904512     0.896869     0.889226     0.881583     0.873940
      0.866296     0.858653     0.851010     0.843367     0.835724     0.828081     0.820438     0.812795     0.805152     0.797508
      0.789865     0.782222     0.774579     0.766936     0.759293     0.751650     0.744007     0.736364     0.728721     0.721077
      0.713434     0.705791     0.698148     0.690505     0.682862     0.675219     0.667576     0.659933     0.652290     0.644646
      0.637003     0.629360     0.621717     0.614074     0.606431     0.598788     0.591145     0.583502     0.575858     0.568215
      0.560572     0.552929     0.545286     0.537643     0.530000     0.522357     0.514714     0.507071     0.499427     0.491784
      0.484141     0.476498     0.468855     0.461212     0.453569     0.445925     0.438282     0.430639     0.422996     0.415353
      0.407710     0.400067     0.392424     0.384780     0.377137     0.369494     0.361851     0.354208     0.346565     0.338922
      0.331278     0.323635     0.315992     0.308349     0.300706     0.293063     0.285420     0.277777     0.270133     0.262490
      0.254847     0.247204     0.239561     0.231918     0.224275     0.216631     0.208988     0.201345
 NY phased data points follow
   2.98099E-01 -1.10886E+00 -7.28510E-01  3.72508E-01  2.82094E-01  4.43281E-01  4.40926E-01 -2.09142E-01 -5.31612E-01 -2.16509E-01
   5.41074E-01 -1.06215E+00 -2.64303E+00 -4.56796E-01 -1.20281E+00  2.65335E-01  1.40732E+00  1.07524E+00  3.09147E-01 -1.16590E-01
  -1.29967E+00  9.02442E-02 -1.54040E+00  5.68435E-01  9.70202E-01 -1.28707E-01  5.59261E-01  3.23059E-01 -3.50783E-01  1.31598E+00
   1.29988E+00 -1.39476E-01 -1.29252E+00  1.89514E+00 -4.91528E-01 -5.15732E-01  3.51839E-01  2.11848E-01 -1.22574E-01  1.19376E+00
   1.26594E+00 -8.23896E-01 -1.64309E+00 -5.83907E-01 -6.56340E-01  7.72787E-01 -5.02284E-01  6.17697E-01  8.20645E-02 -3.43155E-01
  -8.69646E-02  4.43336E-01 -1.81272E+00  8.34949E-01 -1.35382E+00  1.15392E+00  6.58808E-01 -9.94964E-01 -4.17024E-01 -2.38291E+00
  -1.54821E-01  1.16227E+00 -1.54833E+00 -1.24412E+00 -1.52092E+00  1.59457E+00  6.43717E-01 -9.95121E-01  1.92428E-01 -5.12768E-01
  -8.14314E-01 -5.09016E-01 -1.13895E+00 -1.13189E+00  5.02272E-01 -3.77806E-01  1.43035E+00  4.94247E-02  1.09357E+00 -5.79767E-01
  -7.82712E-01 -2.37662E+00 -1.43307E+00 -4.34040E-01 -7.56809E-01 -1.05280E-03 -1.95513E-01 -1.90791E+00  2.43316E-01 -9.40159E-01
   3.62171E-01 -1.02211E+00  6.58424E-01 -1.05996E+00 -1.38491E+00  7.97172E-01 -6.11404E-01 -4.76450E-02  3.64894E-01 -1.02544E+00
   8.01899E-02  7.68052E-01  3.16708E-01 -7.41397E-01 -1.46410E+00 -1.28743E-01  4.61857E-01  1.67089E-01 -1.65293E-01 -3.18783E-01
  -1.74947E+00  5.48527E-01 -2.81094E-02 -2.98822E-01 -6.61897E-01  8.04741E-01 -1.10024E+00 -2.05098E-01 -5.79918E-01 -7.65093E-01
   4.26329E-01  9.73258E-02  5.42856E-01  1.64466E+00 -2.58966E-01  1.84101E+00 -1.13707E+00 -7.59827E-01  3.14234E-02 -2.09798E-01
  -3.01933E+00 -2.97422E-01 -1.68052E+00 -1.75505E+00 -1.25387E+00  1.21512E+00  1.16869E-01  2.01383E-01  2.08357E+00  7.14806E-01
  -2.09621E+00 -2.93978E-01  4.19022E-01 -1.43563E+00 -3.93692E-01 -3.15637E-01  5.31824E-01 -7.98915E-01  4.30200E-01 -6.70642E-01
   6.49969E-01  1.47362E+00 -7.24815E-01 -4.88943E-01  2.50904E-02 -6.14676E-01  7.57515E-01 -5.00748E-01 -1.02958E+00 -7.69406E-01
  -1.25800E+00  1.18888E+00 -3.14344E-01 -1.22289E+00 -2.15843E+00 -5.36779E-01  3.17154E-01 -2.05330E-01  1.46455E+00  2.03663E+00
  -5.91573E-01 -9.92316E-02 -1.50192E-01 -1.69076E+00 -2.01761E-01 -9.00932E-01 -6.14844E-01  5.65701E-01  1.12656E+00 -9.07494E-01
  -1.11741E+00  6.00456E-01  5.71023E-01 -1.31931E-01 -3.64493E-01 -3.92329E-01 -6.63766E-01  4.14430E-01  1.44688E+00 -3.28656E-02
  -3.76128E-01 -4.93930E-01  6.62044E-01 -1.09079E+00 -2.51386E-02  3.88920E-01 -4.15180E-01 -1.94278E-03 -1.36973E+00 -1.04827E+00
   5.66872E-02  7.58841E-01  2.69614E-01 -1.13698E+00  7.56521E-01 -7.03114E-01 -2.18538E-01 -2.88742E-02  1.03030E+00 -4.38074E-01
   2.75235E-01  4.55137E-01 -6.92013E-02 -2.13098E+00  1.61487E+00  1.19157E+00  5.83784E-01 -5.76532E-01 -2.58006E-01 -1.76469E+00
  -5.85154E-01  1.12336E+00  2.07080E-01 -1.97786E-01  1.36905E+00  2.79498E-01 -3.20682E-01  7.42604E-01 -5.84820E-01  1.45026E-01
  -1.28794E+00 -6.00950E-01  1.83176E-01 -5.61688E-01 -3.25062E-01  3.38650E-01  2.14345E+00  1.75199E+00 -4.79892E-01  6.69538E-01
  -8.48031E-02  5.25100E-02  1.92075E-01 -7.27300E-01 -6.08635E-02  2.93207E-01  1.22182E+00  6.86437E-01  8.77100E-01 -6.54739E-01
   1.28170E-01  1.92341E+00 -6.59445E-01  4.10512E-02  1.92290E+00  1.99267E+00  1.28428E+00  6.06027E-01  2.38844E+00 -1.21331E+00
   2.05095E+00 -2.09771E+00 -1.96946E+00 -1.17700E+00 -2.26547E-01  4.49771E-02  2.85698E-01  7.03418E-01  8.44430E-01  2.73527E-01
  -5.67687E-01 -1.00414E+00  5.64595E-01  9.49722E-01  4.44559E-01  6.89787E-01 -2.19754E-01 -6.89990E-01  2.00880E+00  2.12092E+00
   1.24325E+00 -9.31289E-01  5.09582E-01  1.13755E+00 -9.03443E-01 -7.83788E-01 -6.73801E-01  5.84403E-01 -3.73429E-01 -4.21528E-01
  -4.37793E-01  2.68975E-02 -3.71137E-01  7.61947E-01  6.75942E-01  1.17753E+00  1.01865E-01  5.00437E-01 -1.11995E+00  9.07209E-01
  -6.29462E-01 -4.22727E-01  6.25559E-01  1.52465E+00  6.67211E-01  9.79235E-01  1.53798E-01  6.36368E-01 -4.75610E-01  3.80585E-01
  -5.98050E-01  1.23771E+00  7.48729E-02 -2.38474E-01  2.79570E-01 -9.04987E-01  2.02208E+00 -1.16710E+00 -4.46427E-01  3.62499E-01
  -3.38284E-02 -9.04475E-01 -3.68066E-01  8.67834E-01 -3.95165E-01 -1.56315E+00  2.60019E-01  2.37902E-01  1.05959E-01  4.74026E-01
   1.80953E-01 -1.30552E+00 -4.05393E-01 -5.04071E-01  1.12640E-01  7.49802E-01  4.43955E-01  1.76432E+00 -2.80017E-02  6.74598E-01
   1.21531E+00  1.04862E+00  7.48576E-01  5.08204E-01  9.86555E-01  2.32870E-01  4.86436E-01  1.79226E+00 -5.76045E-01 -3.86003E-01
   1.26374E+00  1.05215E+00  1.59559E+00  3.70286E-01 -7.58128E-01  1.42583E-01 -6.14011E-01  2.08275E+00  3.28552E-01 -2.91028E-01
   1.69302E-01  1.25025E+00  6.46107E-01  1.14647E+00  9.49318E-01  1.06019E+00  4.08960E-01  1.42375E+00  9.18021E-01  8.44963E-01
   2.38380E+00  2.73934E+00  4.36531E-01  3.26726E+00  2.14794E+00  2.25452E+00  3.24222E+00  1.79477E+00  7.89796E-01  7.64746E-01
   5.56759E-01  6.46658E-01  1.00284E+00  9.93776E-01 -4.79549E-01  5.78823E-01  1.83580E+00  1.09023E+00  1.47363E+00 -5.39025E-01
   9.75274E-01  1.57028E+00 -4.63506E-01  8.04750E-01 -1.20325E-01  2.86744E+00  1.35728E+00  7.18610E-01 -3.73056E-01 -2.08748E-01
   6.04005E-01  6.78759E-01  1.32175E+00  4.42928E-01  1.23566E+00  1.03396E+00  2.56342E+00  1.47639E-01  1.26517E+00 -1.15473E+00
  -4.96162E-01  1.74364E+00  4.47557E-01 -5.03531E-01  5.40001E-01  1.90135E-01  5.92139E-01  3.08687E-01 -1.82639E+00  2.33990E-01
  -3.26267E-01  1.16705E+00  4.19273E-01 -1.88355E-01  7.79346E-01  8.92671E-02  1.61814E-01  5.13566E-01  6.29607E-01 -3.47683E-01
  -4.70535E-01  6.84012E-01  5.93849E-01 -1.60201E+00 -6.99041E-01  2.36229E+00 -5.35745E-01  5.82714E-01  1.73966E-01  1.36779E-01
  -1.07866E-01  1.70826E-01 -8.02716E-01  2.87577E-01 -9.30897E-01  2.41821E+00 -7.86207E-01  5.74155E-01 -2.01896E+00  3.54522E-01
   3.68042E-02 -3.32079E-01 -4.07808E-01 -7.78176E-01  1.16266E+00  3.05480E-02 -1.33121E+00 -7.82590E-02  3.35783E-02  1.01307E+00
   1.70148E-02 -2.00474E-01  1.47813E+00  2.76353E-01 -2.68784E-01 -7.96771E-01  2.36504E+00 -1.85967E+00  4.58677E-01  3.71871E-01
   6.03494E-01 -1.02251E+00 -1.71089E+00 -1.87555E+00 -6.44268E-01 -6.29829E-01 -1.55750E+00  1.47102E+00 -3.74737E-01 -4.58689E-01
  -1.09953E+00  2.23929E+00 -1.03011E-02 -1.78970E+00 -2.21373E-02  1.95009E-01 -3.76543E-02  1.82524E-01  4.54167E-01 -4.14180E-01
  -1.10810E+00 -9.51080E-01  1.14995E+00  4.08161E-01 -1.20100E+00 -1.08702E+00 -1.79304E-01 -1.21381E+00
 NY points of the fit to the data follow
  -2.03760E-01 -2.03198E-01 -2.02489E-01 -2.02213E-01 -2.03062E-01 -2.05029E-01 -2.07533E-01 -2.09711E-01 -2.10959E-01 -2.10948E-01
  -2.09673E-01 -2.07383E-01 -2.05097E-01 -2.04953E-01 -2.07051E-01 -2.09747E-01 -2.10470E-01 -2.06141E-01 -1.95685E-01 -1.82857E-01
  -1.69300E-01 -1.59458E-01 -1.58459E-01 -1.65233E-01 -1.64552E-01 -1.15128E-01 -1.48215E-02  1.08245E-01  2.26272E-01  3.10101E-01
   3.34686E-01  2.95026E-01  2.05548E-01  8.88883E-02 -2.64380E-02 -1.12231E-01 -1.54562E-01 -1.68056E-01 -1.74878E-01 -1.81871E-01
  -1.88090E-01 -1.93769E-01 -1.98858E-01 -2.01410E-01 -2.00591E-01 -1.97917E-01 -1.95450E-01 -1.94223E-01 -1.93770E-01 -1.93471E-01
  -1.93155E-01 -1.92833E-01 -1.92611E-01 -1.92612E-01 -1.92805E-01 -1.93061E-01 -1.93264E-01 -1.93372E-01 -1.93343E-01 -1.93142E-01
  -1.92744E-01 -1.92064E-01 -1.91086E-01 -1.90092E-01 -1.89152E-01 -1.88495E-01 -1.88312E-01 -1.88504E-01 -1.88896E-01 -1.89298E-01
  -1.89001E-01 -1.87365E-01 -1.84723E-01 -1.81782E-01 -1.79391E-01 -1.78324E-01 -1.78903E-01 -1.80660E-01 -1.82797E-01 -1.84586E-01
  -1.85265E-01 -1.83619E-01 -1.79598E-01 -1.74651E-01 -1.70133E-01 -1.67087E-01 -1.66073E-01 -1.66888E-01 -1.69079E-01 -1.72332E-01
  -1.76172E-01 -1.79868E-01 -1.82651E-01 -1.83975E-01 -1.83580E-01 -1.81823E-01 -1.79099E-01 -1.75816E-01 -1.72769E-01 -1.70736E-01
  -1.69866E-01 -1.69910E-01 -1.70384E-01 -1.70511E-01 -1.69824E-01 -1.68287E-01 -1.66285E-01 -1.64169E-01 -1.62094E-01 -1.60147E-01
  -1.58285E-01 -1.56302E-01 -1.53991E-01 -1.51134E-01 -1.47897E-01 -1.45446E-01 -1.44255E-01 -1.44221E-01 -1.44997E-01 -1.45399E-01
  -1.43567E-01 -1.39028E-01 -1.32038E-01 -1.23226E-01 -1.13657E-01 -1.04245E-01 -9.50470E-02 -8.41535E-02 -6.62259E-02 -3.85838E-02
  -1.09887E-02  4.72076E-03  2.03640E-05 -2.95309E-02 -7.70672E-02 -1.26991E-01 -1.63420E-01 -1.72400E-01 -1.51523E-01 -1.06912E-01
  -5.28158E-02 -7.42042E-03  1.75834E-02  2.09213E-02  8.21464E-03 -1.22090E-02 -3.25115E-02 -4.83071E-02 -5.90428E-02 -6.90844E-02
  -8.21052E-02 -9.65203E-02 -1.09297E-01 -1.17026E-01 -1.16652E-01 -1.09827E-01 -1.00345E-01 -9.19666E-02 -8.78116E-02 -8.97639E-02
  -9.80244E-02 -1.10687E-01 -1.23918E-01 -1.34879E-01 -1.43252E-01 -1.51031E-01 -1.58267E-01 -1.62542E-01 -1.62004E-01 -1.56209E-01
  -1.48383E-01 -1.43107E-01 -1.42003E-01 -1.45423E-01 -1.52682E-01 -1.62355E-01 -1.72873E-01 -1.82850E-01 -1.91629E-01 -1.96322E-01
  -1.98117E-01 -1.98554E-01 -1.96867E-01 -1.91756E-01 -1.81823E-01 -1.64062E-01 -1.35667E-01 -9.63382E-02 -5.25366E-02 -1.49596E-02
   7.87277E-03  7.87210E-03 -2.09913E-02 -7.71835E-02 -1.43185E-01 -1.97874E-01 -2.26798E-01 -2.23581E-01 -1.92443E-01 -1.46774E-01
  -1.01124E-01 -6.53272E-02 -4.50906E-02 -4.24810E-02 -5.44037E-02 -7.05867E-02 -8.31679E-02 -9.05401E-02 -9.29889E-02 -9.12900E-02
  -8.69023E-02 -8.08663E-02 -7.41145E-02 -6.74406E-02 -6.12686E-02 -5.55272E-02 -4.92103E-02 -4.14903E-02 -3.23835E-02 -2.22947E-02
  -1.17534E-02 -9.83867E-04  1.01598E-02  2.07467E-02  3.01784E-02  3.72763E-02  3.64469E-02  2.43056E-02  5.26927E-03 -1.31506E-02
  -2.10794E-02 -9.89260E-03  2.44698E-02  7.80045E-02  1.34572E-01  1.76512E-01  1.90522E-01  1.68723E-01  1.16469E-01  5.15391E-02
  -4.04446E-03 -3.10279E-02 -2.12121E-02  2.18611E-02  8.47117E-02  1.49488E-01  2.02083E-01  2.36092E-01  2.52273E-01  2.58789E-01
   2.87586E-01  4.10373E-01  6.24364E-01  8.75737E-01  1.10598E+00  1.25530E+00  1.28364E+00  1.18900E+00  9.98889E-01  7.56470E-01
   5.14395E-01  3.25540E-01  2.19714E-01  1.73817E-01  1.49583E-01  1.30403E-01  1.13491E-01  9.92768E-02  8.82204E-02  8.03698E-02
   7.54636E-02  7.20169E-02  6.73355E-02  5.96606E-02  4.85105E-02  3.46518E-02  1.99390E-02  6.85036E-03 -2.13929E-03 -5.81758E-03
  -4.74019E-03  1.99925E-05  6.39124E-03  1.22045E-02  1.66165E-02  1.95904E-02  2.14286E-02  2.36651E-02  2.78770E-02  3.52115E-02
   4.59823E-02  5.94551E-02  7.45334E-02  8.99537E-02  1.04219E-01  1.16622E-01  1.27171E-01  1.36435E-01  1.45471E-01  1.54854E-01
   1.64456E-01  1.73851E-01  1.82508E-01  1.89837E-01  1.95259E-01  1.98394E-01  1.99341E-01  1.98451E-01  1.96039E-01  1.92398E-01
   1.87830E-01  1.82650E-01  1.77199E-01  1.71849E-01  1.67003E-01  1.63099E-01  1.60613E-01  1.60097E-01  1.62264E-01  1.68174E-01
   1.79754E-01  2.01572E-01  2.41998E-01  2.89510E-01  3.19620E-01  3.19068E-01  2.81344E-01  2.08873E-01  1.13686E-01  1.14494E-02
  -6.85369E-02 -9.07445E-02 -4.47398E-02  6.12559E-02  1.99404E-01  3.35808E-01  4.49320E-01  5.30894E-01  5.78164E-01  5.95308E-01
   5.94331E-01  5.93747E-01  6.06843E-01  6.32226E-01  6.64313E-01  7.00068E-01  7.37867E-01  7.76585E-01  8.15307E-01  8.53216E-01
   8.89558E-01  9.23620E-01  9.54741E-01  9.82312E-01  1.00579E+00  1.02472E+00  1.03872E+00  1.04753E+00  1.05097E+00  1.04902E+00
   1.04173E+00  1.02930E+00  1.01199E+00  9.90203E-01  9.64389E-01  9.35082E-01  9.02860E-01  8.68336E-01  8.32137E-01  7.94894E-01
   7.57222E-01  7.19714E-01  6.82925E-01  6.47371E-01  6.13518E-01  5.81787E-01  5.52551E-01  5.26138E-01  5.02831E-01  4.82872E-01
   4.66469E-01  4.53798E-01  4.45002E-01  4.40194E-01  4.39451E-01  4.42812E-01  4.50273E-01  4.61777E-01  4.77202E-01  4.96352E-01
   5.18947E-01  5.44613E-01  5.72875E-01  6.03162E-01  6.34801E-01  6.67033E-01  6.99024E-01  7.29893E-01  7.58738E-01  7.84668E-01
   8.06839E-01  8.24487E-01  8.36965E-01  8.43771E-01  8.44572E-01  8.39218E-01  8.27743E-01  8.10365E-01  7.87471E-01  7.59597E-01
   7.27397E-01  6.91608E-01  6.53020E-01  6.12436E-01  5.70646E-01  5.28394E-01  4.86357E-01  4.45127E-01  4.05201E-01  3.66977E-01
   3.30756E-01  2.96745E-01  2.65069E-01  2.35774E-01  2.08847E-01  1.84227E-01  1.61813E-01  1.41479E-01  1.23081E-01  1.06467E-01
   9.14814E-02  7.79715E-02  6.57921E-02  5.48059E-02  4.48859E-02  3.59155E-02  2.77903E-02  2.04168E-02  1.37119E-02  7.60158E-03
   2.02009E-03 -3.09028E-03 -7.77970E-03 -1.20919E-02 -1.60655E-02 -1.97349E-02 -2.31303E-02 -2.62782E-02 -2.92017E-02 -3.19211E-02
  -3.44545E-02 -3.68187E-02 -3.90283E-02 -4.10961E-02 -4.30331E-02 -4.48494E-02 -4.65545E-02 -4.81572E-02 -4.96653E-02 -5.10855E-02
  -5.24236E-02 -5.36853E-02 -5.48760E-02 -5.60009E-02 -5.70640E-02 -5.80692E-02 -5.90196E-02 -5.99187E-02 -6.07701E-02 -6.15768E-02
  -6.23411E-02 -6.30652E-02 -6.37512E-02 -6.44014E-02 -6.50180E-02 -6.56028E-02 -6.61574E-02 -6.66828E-02 -6.71807E-02 -6.76527E-02
  -6.81004E-02 -6.85247E-02 -6.89265E-02 -6.93067E-02 -6.96664E-02 -7.00069E-02 -7.03291E-02 -7.06335E-02 -7.09207E-02 -7.11914E-02
  -7.14465E-02 -7.16868E-02 -7.19129E-02 -7.21251E-02 -7.23236E-02 -7.25092E-02 -7.26823E-02 -7.28437E-02
 NY background values follow
    -2.160E-01   -2.157E-01   -2.155E-01   -2.152E-01   -2.150E-01   -2.147E-01   -2.145E-01   -2.143E-01   -2.140E-01   -2.138E-01
    -2.135E-01   -2.133E-01   -2.131E-01   -2.128E-01   -2.126E-01   -2.123E-01   -2.121E-01   -2.119E-01   -2.116E-01   -2.114E-01
    -2.111E-01   -2.109E-01   -2.106E-01   -2.104E-01   -2.102E-01   -2.099E-01   -2.097E-01   -2.094E-01   -2.092E-01   -2.090E-01
    -2.087E-01   -2.085E-01   -2.082E-01   -2.080E-01   -2.078E-01   -2.075E-01   -2.073E-01   -2.070E-01   -2.068E-01   -2.066E-01
    -2.063E-01   -2.061E-01   -2.058E-01   -2.056E-01   -2.053E-01   -2.051E-01   -2.049E-01   -2.046E-01   -2.044E-01   -2.041E-01
    -2.039E-01   -2.037E-01   -2.034E-01   -2.032E-01   -2.029E-01   -2.027E-01   -2.025E-01   -2.022E-01   -2.020E-01   -2.017E-01
    -2.015E-01   -2.012E-01   -2.010E-01   -2.008E-01   -2.005E-01   -2.003E-01   -2.000E-01   -1.998E-01   -1.996E-01   -1.993E-01
    -1.991E-01   -1.988E-01   -1.986E-01   -1.984E-01   -1.981E-01   -1.979E-01   -1.976E-01   -1.974E-01   -1.972E-01   -1.969E-01
    -1.967E-01   -1.964E-01   -1.962E-01   -1.959E-01   -1.957E-01   -1.955E-01   -1.952E-01   -1.950E-01   -1.947E-01   -1.945E-01
    -1.943E-01   -1.940E-01   -1.938E-01   -1.935E-01   -1.933E-01   -1.931E-01   -1.928E-01   -1.926E-01   -1.923E-01   -1.921E-01
    -1.919E-01   -1.916E-01   -1.914E-01   -1.911E-01   -1.909E-01   -1.906E-01   -1.904E-01   -1.902E-01   -1.899E-01   -1.897E-01
    -1.894E-01   -1.892E-01   -1.890E-01   -1.887E-01   -1.885E-01   -1.882E-01   -1.880E-01   -1.878E-01   -1.875E-01   -1.873E-01
    -1.870E-01   -1.868E-01   -1.865E-01   -1.863E-01   -1.861E-01   -1.858E-01   -1.856E-01   -1.853E-01   -1.851E-01   -1.849E-01
    -1.846E-01   -1.844E-01   -1.841E-01   -1.839E-01   -1.837E-01   -1.834E-01   -1.832E-01   -1.829E-01   -1.827E-01   -1.825E-01
    -1.822E-01   -1.820E-01   -1.817E-01   -1.815E-01   -1.812E-01   -1.810E-01   -1.808E-01   -1.805E-01   -1.803E-01   -1.800E-01
    -1.798E-01   -1.796E-01   -1.793E-01   -1.791E-01   -1.788E-01   -1.786E-01   -1.784E-01   -1.781E-01   -1.779E-01   -1.776E-01
    -1.774E-01   -1.771E-01   -1.769E-01   -1.767E-01   -1.764E-01   -1.762E-01   -1.759E-01   -1.757E-01   -1.755E-01   -1.752E-01
    -1.750E-01   -1.747E-01   -1.745E-01   -1.743E-01   -1.740E-01   -1.738E-01   -1.735E-01   -1.733E-01   -1.731E-01   -1.728E-01
    -1.726E-01   -1.723E-01   -1.721E-01   -1.718E-01   -1.716E-01   -1.714E-01   -1.711E-01   -1.709E-01   -1.706E-01   -1.704E-01
    -1.702E-01   -1.699E-01   -1.697E-01   -1.694E-01   -1.692E-01   -1.690E-01   -1.687E-01   -1.685E-01   -1.682E-01   -1.680E-01
    -1.677E-01   -1.675E-01   -1.673E-01   -1.670E-01   -1.668E-01   -1.665E-01   -1.663E-01   -1.661E-01   -1.658E-01   -1.656E-01
    -1.653E-01   -1.651E-01   -1.649E-01   -1.646E-01   -1.644E-01   -1.641E-01   -1.639E-01   -1.637E-01   -1.634E-01   -1.632E-01
    -1.629E-01   -1.627E-01   -1.624E-01   -1.622E-01   -1.620E-01   -1.617E-01   -1.615E-01   -1.612E-01   -1.610E-01   -1.608E-01
    -1.605E-01   -1.603E-01   -1.600E-01   -1.598E-01   -1.596E-01   -1.593E-01   -1.591E-01   -1.588E-01   -1.586E-01   -1.583E-01
    -1.581E-01   -1.579E-01   -1.576E-01   -1.574E-01   -1.571E-01   -1.569E-01   -1.567E-01   -1.564E-01   -1.562E-01   -1.559E-01
    -1.557E-01   -1.555E-01   -1.552E-01   -1.550E-01   -1.547E-01   -1.545E-01   -1.543E-01   -1.540E-01   -1.538E-01   -1.535E-01
    -1.533E-01   -1.530E-01   -1.528E-01   -1.526E-01   -1.523E-01   -1.521E-01   -1.518E-01   -1.516E-01   -1.514E-01   -1.511E-01
    -1.509E-01   -1.506E-01   -1.504E-01   -1.502E-01   -1.499E-01   -1.497E-01   -1.494E-01   -1.492E-01   -1.489E-01   -1.487E-01
    -1.485E-01   -1.482E-01   -1.480E-01   -1.477E-01   -1.475E-01   -1.473E-01   -1.470E-01   -1.468E-01   -1.465E-01   -1.463E-01
    -1.461E-01   -1.458E-01   -1.456E-01   -1.453E-01   -1.451E-01   -1.449E-01   -1.446E-01   -1.444E-01   -1.441E-01   -1.439E-01
    -1.436E-01   -1.434E-01   -1.432E-01   -1.429E-01   -1.427E-01   -1.424E-01   -1.422E-01   -1.420E-01   -1.417E-01   -1.415E-01
    -1.412E-01   -1.410E-01   -1.408E-01   -1.405E-01   -1.403E-01   -1.400E-01   -1.398E-01   -1.396E-01   -1.393E-01   -1.391E-01
    -1.388E-01   -1.386E-01   -1.383E-01   -1.381E-01   -1.379E-01   -1.376E-01   -1.374E-01   -1.371E-01   -1.369E-01   -1.367E-01
    -1.364E-01   -1.362E-01   -1.359E-01   -1.357E-01   -1.355E-01   -1.352E-01   -1.350E-01   -1.347E-01   -1.345E-01   -1.342E-01
    -1.340E-01   -1.338E-01   -1.335E-01   -1.333E-01   -1.330E-01   -1.328E-01   -1.326E-01   -1.323E-01   -1.321E-01   -1.318E-01
    -1.316E-01   -1.314E-01   -1.311E-01   -1.309E-01   -1.306E-01   -1.304E-01   -1.302E-01   -1.299E-01   -1.297E-01   -1.294E-01
    -1.292E-01   -1.289E-01   -1.287E-01   -1.285E-01   -1.282E-01   -1.280E-01   -1.277E-01   -1.275E-01   -1.273E-01   -1.270E-01
    -1.268E-01   -1.265E-01   -1.263E-01   -1.261E-01   -1.258E-01   -1.256E-01   -1.253E-01   -1.251E-01   -1.249E-01   -1.246E-01
    -1.244E-01   -1.241E-01   -1.239E-01   -1.236E-01   -1.234E-01   -1.232E-01   -1.229E-01   -1.227E-01   -1.224E-01   -1.222E-01
    -1.220E-01   -1.217E-01   -1.215E-01   -1.212E-01   -1.210E-01   -1.208E-01   -1.205E-01   -1.203E-01   -1.200E-01   -1.198E-01
    -1.196E-01   -1.193E-01   -1.191E-01   -1.188E-01   -1.186E-01   -1.183E-01   -1.181E-01   -1.179E-01   -1.176E-01   -1.174E-01
    -1.171E-01   -1.169E-01   -1.167E-01   -1.164E-01   -1.162E-01   -1.159E-01   -1.157E-01   -1.155E-01   -1.152E-01   -1.150E-01
    -1.147E-01   -1.145E-01   -1.143E-01   -1.140E-01   -1.138E-01   -1.135E-01   -1.133E-01   -1.130E-01   -1.128E-01   -1.126E-01
    -1.123E-01   -1.121E-01   -1.118E-01   -1.116E-01   -1.114E-01   -1.111E-01   -1.109E-01   -1.106E-01   -1.104E-01   -1.102E-01
    -1.099E-01   -1.097E-01   -1.094E-01   -1.092E-01   -1.090E-01   -1.087E-01   -1.085E-01   -1.082E-01   -1.080E-01   -1.077E-01
    -1.075E-01   -1.073E-01   -1.070E-01   -1.068E-01   -1.065E-01   -1.063E-01   -1.061E-01   -1.058E-01   -1.056E-01   -1.053E-01
    -1.051E-01   -1.049E-01   -1.046E-01   -1.044E-01   -1.041E-01   -1.039E-01   -1.037E-01   -1.034E-01   -1.032E-01   -1.029E-01
    -1.027E-01   -1.024E-01   -1.022E-01   -1.020E-01   -1.017E-01   -1.015E-01   -1.012E-01   -1.010E-01   -1.008E-01   -1.005E-01
    -1.003E-01   -1.000E-01   -9.980E-02   -9.955E-02   -9.931E-02   -9.907E-02   -9.883E-02   -9.859E-02   -9.835E-02   -9.811E-02
    -9.787E-02   -9.763E-02   -9.739E-02   -9.715E-02   -9.690E-02   -9.666E-02   -9.642E-02   -9.618E-02
 Ala      Conc. = 1.80E+01
