 LCModel (Version 6.3-1L) Copyright: S.W. Provencher.          Ref.: Magn. Reson. Med. 30:672-679 (1993).                
 Slice#3 Row#11 Col#13  PD_05_press_1_raw_act
 36 lines in following concentration table = NCONC+1
    Conc.  %SD /Cr+PCr  Metabolite                                         
   55.782  54%   2.465 Ala                                                 
    3.650  55%   0.161 Asp                                                 
    0.000 999%   0.000 Cr                                                  
   22.627  52%   1.000 PCr                                                 
    2.166  56% 9.6E-02 GABA                                                
    2.193  55% 9.7E-02 Glc                                                 
   15.622 329%   0.690 Gln                                                 
   12.424 463%   0.549 Glu                                                 
    9.045  49%   0.400 GPC                                                 
    0.000 999%   0.000 PCh                                                 
    0.000 999%   0.000 GSH                                                 
   39.710 144%   1.755 Ins                                                 
  177.501  24%   7.845 Lac                                                 
   19.814  76%   0.876 NAA                                                 
    3.354 440%   0.148 NAAG                                                
    0.727  55% 3.2E-02 Scyllo                                              
    3.672  55%   0.162 Tau                                                 
    2.229  84% 9.9E-02 -CrCH2                                              
    9.045  49%   0.400 GPC+PCh                                             
   23.168  68%   1.024 NAA+NAAG                                            
   22.627  52%   1.000 Cr+PCr                                              
   28.046 290%   1.239 Glu+Gln                                             
 1.70E+04   6% 749.502 Lip13a                                              
    0.000 999%   0.000 Lip13b                                              
 1.81E+03  29%  79.780 Lip09                                               
    0.000 999%   0.000 MM09                                                
    0.000 999%   0.000 Lip20                                               
    0.000 999%   0.000 MM20                                                
   17.859 999%   0.789 MM12                                                
 3.87E+03  18% 170.843+MM14                                                
 1.60E+03  27%  70.844 MM17                                                
 1.70E+04   6% 749.502 Lip13a+Lip13b                                       
 2.08E+04   4% 921.134 MM14+Lip13a+Lip13b+MM12                             
 1.81E+03  29%  79.780 MM09+Lip09                                          
    0.000 999%   0.000 MM20+Lip20                                          
   6 lines in following misc. output table
  FWHM = 0.046 ppm    S/N =  46                                            
  Data shift = 0.008 ppm                                                   
  Ph:  -4 deg     -21.5 deg/ppm                                            
  alphaB,S = 3.2E-01,   9.9E+00                                            
   14 spline knots.   Ns = 5(1)                                            
  ( 3) 2 infls.   ( 3) 1 extrs.                                            
  498 points on ppm-axis = NY
      4.000000     3.992357     3.984714     3.977070     3.969427     3.961784     3.954141     3.946497     3.938854     3.931211
      3.923568     3.915925     3.908281     3.900638     3.892995     3.885352     3.877708     3.870065     3.862422     3.854779
      3.847136     3.839492     3.831849     3.824206     3.816563     3.808919     3.801276     3.793633     3.785990     3.778347
      3.770703     3.763060     3.755417     3.747774     3.740130     3.732487     3.724844     3.717201     3.709558     3.701914
      3.694271     3.686628     3.678985     3.671341     3.663698     3.656055     3.648412     3.640769     3.633125     3.625482
      3.617839     3.610196     3.602552     3.594909     3.587266     3.579623     3.571980     3.564336     3.556693     3.549050
      3.541407     3.533763     3.526120     3.518477     3.510834     3.503191     3.495547     3.487904     3.480261     3.472618
      3.464974     3.457331     3.449688     3.442045     3.434402     3.426758     3.419115     3.411472     3.403829     3.396185
      3.388542     3.380899     3.373256     3.365613     3.357969     3.350326     3.342683     3.335040     3.327396     3.319753
      3.312110     3.304467     3.296824     3.289180     3.281537     3.273894     3.266251     3.258607     3.250964     3.243321
      3.235678     3.228034     3.220391     3.212748     3.205105     3.197462     3.189818     3.182175     3.174532     3.166889
      3.159245     3.151602     3.143959     3.136316     3.128673     3.121029     3.113386     3.105743     3.098100     3.090456
      3.082813     3.075170     3.067527     3.059884     3.052240     3.044597     3.036954     3.029311     3.021667     3.014024
      3.006381     2.998738     2.991095     2.983451     2.975808     2.968165     2.960522     2.952878     2.945235     2.937592
      2.929949     2.922306     2.914662     2.907019     2.899376     2.891733     2.884089     2.876446     2.868803     2.861160
      2.853517     2.845873     2.838230     2.830587     2.822944     2.815300     2.807657     2.800014     2.792371     2.784728
      2.777084     2.769441     2.761798     2.754155     2.746511     2.738868     2.731225     2.723582     2.715939     2.708295
      2.700652     2.693009     2.685366     2.677722     2.670079     2.662436     2.654793     2.647150     2.639506     2.631863
      2.624220     2.616577     2.608933     2.601290     2.593647     2.586004     2.578361     2.570717     2.563074     2.555431
      2.547788     2.540144     2.532501     2.524858     2.517215     2.509572     2.501928     2.494285     2.486642     2.478999
      2.471355     2.463712     2.456069     2.448426     2.440783     2.433139     2.425496     2.417853     2.410210     2.402566
      2.394923     2.387280     2.379637     2.371994     2.364350     2.356707     2.349064     2.341421     2.333777     2.326134
      2.318491     2.310848     2.303205     2.295561     2.287918     2.280275     2.272632     2.264988     2.257345     2.249702
      2.242059     2.234416     2.226772     2.219129     2.211486     2.203843     2.196199     2.188556     2.180913     2.173270
      2.165627     2.157983     2.150340     2.142697     2.135054     2.127410     2.119767     2.112124     2.104481     2.096838
      2.089194     2.081551     2.073908     2.066265     2.058621     2.050978     2.043335     2.035692     2.028049     2.020405
      2.012762     2.005119     1.997476     1.989833     1.982190     1.974546     1.966903     1.959260     1.951617     1.943974
      1.936331     1.928688     1.921045     1.913402     1.905759     1.898115     1.890472     1.882829     1.875186     1.867543
      1.859900     1.852257     1.844614     1.836971     1.829327     1.821684     1.814041     1.806398     1.798755     1.791112
      1.783469     1.775826     1.768183     1.760540     1.752896     1.745253     1.737610     1.729967     1.722324     1.714681
      1.707038     1.699395     1.691752     1.684108     1.676465     1.668822     1.661179     1.653536     1.645893     1.638250
      1.630607     1.622964     1.615321     1.607677     1.600034     1.592391     1.584748     1.577105     1.569462     1.561819
      1.554176     1.546533     1.538890     1.531246     1.523603     1.515960     1.508317     1.500674     1.493031     1.485388
      1.477745     1.470102     1.462458     1.454815     1.447172     1.439529     1.431886     1.424243     1.416600     1.408957
      1.401314     1.393671     1.386027     1.378384     1.370741     1.363098     1.355455     1.347812     1.340169     1.332526
      1.324883     1.317240     1.309596     1.301953     1.294310     1.286667     1.279024     1.271381     1.263738     1.256095
      1.248452     1.240808     1.233165     1.225522     1.217879     1.210236     1.202593     1.194950     1.187307     1.179664
      1.172021     1.164377     1.156734     1.149091     1.141448     1.133805     1.126162     1.118519     1.110876     1.103233
      1.095590     1.087946     1.080303     1.072660     1.065017     1.057374     1.049731     1.042088     1.034445     1.026802
      1.019158     1.011515     1.003872     0.996229     0.988586     0.980943     0.973300     0.965657     0.958014     0.950371
      0.942727     0.935084     0.927441     0.919798     0.912155     0.904512     0.896869     0.889226     0.881583     0.873940
      0.866296     0.858653     0.851010     0.843367     0.835724     0.828081     0.820438     0.812795     0.805152     0.797508
      0.789865     0.782222     0.774579     0.766936     0.759293     0.751650     0.744007     0.736364     0.728721     0.721077
      0.713434     0.705791     0.698148     0.690505     0.682862     0.675219     0.667576     0.659933     0.652290     0.644646
      0.637003     0.629360     0.621717     0.614074     0.606431     0.598788     0.591145     0.583502     0.575858     0.568215
      0.560572     0.552929     0.545286     0.537643     0.530000     0.522357     0.514714     0.507071     0.499427     0.491784
      0.484141     0.476498     0.468855     0.461212     0.453569     0.445925     0.438282     0.430639     0.422996     0.415353
      0.407710     0.400067     0.392424     0.384780     0.377137     0.369494     0.361851     0.354208     0.346565     0.338922
      0.331278     0.323635     0.315992     0.308349     0.300706     0.293063     0.285420     0.277777     0.270133     0.262490
      0.254847     0.247204     0.239561     0.231918     0.224275     0.216631     0.208988     0.201345
 NY phased data points follow
   3.05191E+00  1.23233E+00  2.84808E+00  2.02460E+00  1.05197E+00  2.42511E+00  2.07930E+00  2.35724E+00  2.73547E+00  1.69727E+00
   2.84151E+00  2.62461E+00  1.53858E+00  1.50998E+00  2.66464E+00  3.22704E+00  2.37273E+00  1.70565E+00  1.95375E+00  1.53445E+00
   3.37245E+00  1.61501E+00  1.23691E+00  2.06305E-01 -1.69038E-01  2.16987E+00  1.95788E+00  4.70072E-01  5.65620E-01  1.87083E+00
   2.56116E+00  1.79687E+00  2.12606E+00  1.10705E+00  6.11722E-01 -2.12044E-01  1.72209E+00  1.02724E+00  9.50889E-01  1.56297E+00
   1.04113E+00  1.18517E+00  2.17025E+00  1.16036E+00  1.20716E+00  1.59652E+00  8.18796E-01  1.99796E+00  8.81536E-01  1.03347E+00
   7.20586E-01  8.69664E-01  1.47760E+00  1.76215E+00  2.06275E+00  1.20562E+00  6.05276E-01  2.00876E+00  1.02552E+00  7.09519E-01
   1.00115E+00 -2.57910E-01  1.27798E+00  2.00000E+00  1.39241E+00  5.03656E-01  4.58631E-01  1.50329E+00  1.17224E+00  1.57491E+00
   2.12439E+00  1.76429E+00  2.04396E+00  9.52654E-01  1.41564E+00  2.01304E+00  1.31706E+00  1.55934E-01  1.21370E+00 -3.35910E-01
  -2.51854E-01  8.30561E-01  1.15729E+00  1.97877E+00  1.13870E+00  8.58756E-01  1.54345E+00  2.25017E+00  1.84139E+00 -1.13527E-01
  -1.44848E-01  3.52482E-01  3.92270E-01  1.02361E+00  6.58700E-01  4.81021E-01  3.53401E-01  1.01883E+00 -4.08812E-01 -6.05722E-02
  -1.26895E+00  1.69986E+00  3.45923E-01  1.49104E+00  2.25964E+00  1.06007E+00  1.29962E+00  2.26627E+00  1.68171E-01  9.39914E-01
   5.74369E-01  4.53674E-01  9.92523E-01  1.00673E-01 -4.20319E-01 -5.61887E-01 -1.73707E-01  1.44888E+00  2.26368E-01 -9.81045E-01
  -3.85214E-02  5.23833E-01 -5.16804E-02 -3.73955E-01 -7.27294E-01  6.25059E-01  8.82075E-01 -7.77674E-02  3.40402E-01 -2.24436E-01
   8.41614E-01  1.05062E+00  5.98066E-01 -3.25487E-02 -4.04454E-01 -2.03925E-01 -4.28860E-01  5.25375E-01 -2.82025E-01 -6.68623E-01
   5.83116E-02  3.57672E-01  7.73884E-01 -2.55474E-01  8.11565E-01  1.74870E-01 -3.08236E-01  2.67568E-02 -4.46845E-01  6.66909E-01
  -4.63047E-01 -3.85103E-01 -3.60342E-01 -1.08325E+00 -5.73976E-01 -1.33634E+00 -8.98357E-02 -8.10935E-01 -1.38409E-01 -6.24636E-01
  -8.76463E-01  9.47606E-01 -9.92022E-01 -4.88709E-01 -6.09843E-01 -8.70415E-01 -1.61316E+00 -1.48384E-01 -9.31717E-01 -4.23062E-01
  -6.07784E-02 -1.92858E+00 -1.21006E+00 -4.73447E-01 -1.01879E+00 -1.89184E+00 -1.67177E+00 -1.00459E+00 -1.30219E+00 -2.07596E+00
  -2.21912E-04 -1.85274E+00 -1.27325E+00 -1.58694E+00 -3.09110E-01 -2.29154E+00 -1.43142E+00 -1.07832E+00 -8.05646E-01 -2.03803E+00
  -1.60963E+00 -1.15061E+00 -2.86499E+00 -1.09719E+00 -1.56909E+00 -1.44992E+00 -9.44498E-01 -2.50209E+00 -1.10774E+00 -1.95847E+00
  -7.57195E-01 -1.86392E+00 -1.23472E+00 -1.42629E+00 -2.84732E+00 -2.01145E+00 -1.92351E+00 -5.46026E-01 -4.96253E-01 -2.08919E+00
  -2.10562E+00 -2.49929E+00 -1.26321E+00 -2.47107E+00 -2.02109E+00 -2.27852E+00 -1.73896E+00 -2.26204E+00 -2.43444E+00 -1.94513E+00
  -2.34522E+00 -2.62717E+00 -1.96125E+00 -3.41022E+00 -2.75605E+00 -1.12258E+00 -1.97275E+00 -1.71924E+00 -2.70474E+00 -1.02493E+00
  -2.35024E+00 -1.49607E+00 -2.54300E+00 -1.66899E-01 -1.96256E+00 -1.34094E+00 -2.39510E+00 -2.17917E+00 -6.95574E-01 -1.58282E+00
  -1.76596E+00 -1.82776E+00 -1.13216E+00 -9.25153E-01 -4.92627E-01 -2.07063E+00 -2.50735E-01 -2.35874E+00 -9.33657E-01 -5.86945E-01
  -2.00617E+00 -1.98527E+00  2.15195E-01 -4.79832E-01  7.14934E-01  5.23629E-01 -1.39343E+00  1.58889E+00  1.22789E+00  2.38055E+00
   1.67084E+00  2.73245E+00  2.05129E+00  3.01983E+00  2.34540E+00  2.58164E+00  3.40466E+00  2.59173E+00  2.41561E+00  2.97915E+00
   2.94674E+00  3.83246E+00  3.51853E+00  4.34184E+00  4.22941E+00  3.99238E+00  5.77851E+00  5.76337E+00  6.59688E+00  6.30787E+00
   6.43221E+00  7.39230E+00  7.63585E+00  7.45152E+00  8.69016E+00  9.52326E+00  9.12316E+00  8.40592E+00  1.01958E+01  1.00266E+01
   9.82749E+00  1.06440E+01  1.00190E+01  1.16292E+01  1.24699E+01  1.21983E+01  1.38915E+01  1.42065E+01  1.52716E+01  1.55904E+01
   1.56488E+01  1.68407E+01  1.67443E+01  1.82399E+01  1.85599E+01  2.07347E+01  2.01890E+01  1.98940E+01  2.31872E+01  2.29761E+01
   2.45422E+01  2.41192E+01  2.57174E+01  2.73533E+01  2.92016E+01  2.94426E+01  2.96465E+01  3.06469E+01  3.17100E+01  3.28594E+01
   3.32811E+01  3.51611E+01  3.69476E+01  3.80979E+01  3.85648E+01  4.06023E+01  4.08247E+01  4.19910E+01  4.43798E+01  4.58816E+01
   4.73307E+01  4.86589E+01  4.88070E+01  4.96529E+01  5.10567E+01  5.29490E+01  5.51360E+01  5.57108E+01  5.83471E+01  5.88244E+01
   5.95165E+01  6.10113E+01  6.17205E+01  6.45505E+01  6.70490E+01  6.86787E+01  6.95776E+01  6.99777E+01  7.33359E+01  7.65742E+01
   7.71270E+01  7.94870E+01  8.08167E+01  8.44344E+01  8.64849E+01  8.74142E+01  8.94487E+01  9.13358E+01  9.32818E+01  9.59397E+01
   9.68612E+01  9.96778E+01  9.91880E+01  9.85531E+01  9.85235E+01  9.85962E+01  9.65483E+01  9.36853E+01  9.17621E+01  8.87828E+01
   8.33098E+01  7.93095E+01  7.53555E+01  7.14916E+01  6.86998E+01  6.37619E+01  6.13616E+01  5.74585E+01  5.43169E+01  5.19057E+01
   4.82935E+01  4.63661E+01  4.36243E+01  4.27293E+01  4.07820E+01  4.03497E+01  3.76459E+01  3.75344E+01  3.44810E+01  3.38440E+01
   3.28885E+01  3.21187E+01  3.10640E+01  3.10445E+01  2.98477E+01  2.94219E+01  2.95746E+01  2.94061E+01  2.85746E+01  2.61745E+01
   2.62921E+01  2.68581E+01  2.48658E+01  2.68682E+01  2.57966E+01  2.53301E+01  2.38828E+01  2.41944E+01  2.58237E+01  2.48518E+01
   2.38498E+01  2.43833E+01  2.47761E+01  2.32023E+01  2.21167E+01  2.19126E+01  2.24413E+01  2.20996E+01  2.22812E+01  2.08965E+01
   2.11158E+01  2.05030E+01  1.95231E+01  1.96168E+01  1.71017E+01  1.82698E+01  1.88836E+01  1.77441E+01  1.68556E+01  1.70380E+01
   1.73311E+01  1.69487E+01  1.65086E+01  1.43479E+01  1.48086E+01  1.53245E+01  1.45011E+01  1.47958E+01  1.36581E+01  1.25152E+01
   1.30530E+01  1.26107E+01  1.27945E+01  1.25609E+01  1.17195E+01  1.11881E+01  1.15207E+01  9.59302E+00  1.16934E+01  1.12076E+01
   1.05523E+01  1.12201E+01  9.76375E+00  9.93025E+00  9.48921E+00  1.04498E+01  1.07291E+01  9.76080E+00  8.11153E+00  9.23505E+00
   9.95528E+00  9.17206E+00  7.69072E+00  7.62101E+00  8.17316E+00  8.35527E+00  7.28419E+00  8.48840E+00  8.43438E+00  6.81328E+00
   6.92641E+00  8.55368E+00  8.67603E+00  6.99906E+00  7.40755E+00  7.80989E+00  6.54931E+00  7.39911E+00  7.97468E+00  7.87169E+00
   7.06253E+00  7.34917E+00  7.68916E+00  5.75972E+00  6.92772E+00  5.91132E+00  6.97558E+00  6.33781E+00  6.21590E+00  5.72532E+00
   7.42788E+00  5.50902E+00  6.29242E+00  5.17373E+00  5.76854E+00  6.22461E+00  5.51200E+00  6.24940E+00
 NY points of the fit to the data follow
   2.47980E+00  2.33298E+00  2.17841E+00  1.99447E+00  1.82386E+00  1.81136E+00  1.95212E+00  2.01684E+00  2.01193E+00  2.03070E+00
   2.08072E+00  2.12512E+00  2.18275E+00  2.28368E+00  2.33617E+00  2.20338E+00  2.00473E+00  1.90497E+00  1.83691E+00  1.78737E+00
   1.76706E+00  1.76362E+00  1.73132E+00  1.67363E+00  1.65234E+00  1.65437E+00  1.64243E+00  1.60555E+00  1.56710E+00  1.54867E+00
   1.49118E+00  1.35137E+00  1.24603E+00  1.23085E+00  1.25998E+00  1.30151E+00  1.34712E+00  1.41274E+00  1.48255E+00  1.48031E+00
   1.40568E+00  1.32669E+00  1.27641E+00  1.26241E+00  1.25774E+00  1.23519E+00  1.22790E+00  1.25765E+00  1.28824E+00  1.31065E+00
   1.34632E+00  1.40657E+00  1.45583E+00  1.42778E+00  1.30923E+00  1.19138E+00  1.13695E+00  1.12668E+00  1.12409E+00  1.12244E+00
   1.12395E+00  1.12502E+00  1.12401E+00  1.13107E+00  1.15250E+00  1.15672E+00  1.12735E+00  1.08257E+00  1.04065E+00  1.01973E+00
   1.01090E+00  1.01187E+00  1.02577E+00  1.03746E+00  1.03741E+00  1.03090E+00  1.03007E+00  1.03001E+00  1.00885E+00  9.85465E-01
   9.70427E-01  9.52095E-01  9.31505E-01  9.09802E-01  8.78481E-01  8.44177E-01  8.21652E-01  8.04969E-01  7.80848E-01  7.51370E-01
   7.21176E-01  6.78137E-01  6.16921E-01  5.70378E-01  5.50328E-01  5.40831E-01  5.23253E-01  5.01830E-01  5.33856E-01  6.87510E-01
   8.06987E-01  7.90399E-01  7.60188E-01  8.23291E-01  9.19299E-01  1.00667E+00  1.16497E+00  1.37025E+00  1.33359E+00  9.44151E-01
   6.51903E-01  5.29458E-01  4.52705E-01  3.95111E-01  3.44045E-01  2.98478E-01  2.55744E-01  2.14266E-01  1.73187E-01  1.30519E-01
   8.51601E-02  4.34263E-02  4.43324E-02  1.51162E-01  2.62668E-01  2.62388E-01  2.34426E-01  2.85445E-01  3.72652E-01  4.47567E-01
   5.63043E-01  7.30688E-01  7.40497E-01  4.32141E-01  1.38619E-01  1.76120E-02 -4.92884E-02 -9.93025E-02 -1.40890E-01 -1.75746E-01
  -2.03564E-01 -2.27071E-01 -2.49968E-01 -2.70923E-01 -2.90856E-01 -3.12142E-01 -3.33416E-01 -3.53244E-01 -3.69798E-01 -3.84645E-01
  -4.00959E-01 -4.19757E-01 -4.40794E-01 -4.60358E-01 -4.77029E-01 -4.93507E-01 -5.11990E-01 -5.34003E-01 -5.56587E-01 -5.75814E-01
  -5.92263E-01 -6.08511E-01 -6.28106E-01 -6.51567E-01 -6.77924E-01 -7.04939E-01 -7.26925E-01 -7.40733E-01 -7.53028E-01 -7.70493E-01
  -7.95723E-01 -8.29295E-01 -8.62897E-01 -8.94028E-01 -9.21137E-01 -9.45840E-01 -9.74191E-01 -1.00920E+00 -1.04644E+00 -1.08152E+00
  -1.11556E+00 -1.14701E+00 -1.17336E+00 -1.20400E+00 -1.24513E+00 -1.28529E+00 -1.32192E+00 -1.35288E+00 -1.38162E+00 -1.41553E+00
  -1.45811E+00 -1.50361E+00 -1.54103E+00 -1.57082E+00 -1.60724E+00 -1.65414E+00 -1.70079E+00 -1.74346E+00 -1.78049E+00 -1.81151E+00
  -1.83844E+00 -1.86296E+00 -1.88522E+00 -1.91153E+00 -1.93779E+00 -1.96231E+00 -1.99867E+00 -2.04024E+00 -2.07399E+00 -2.11202E+00
  -2.16600E+00 -2.22022E+00 -2.25555E+00 -2.28460E+00 -2.31431E+00 -2.30552E+00 -2.24450E+00 -2.20324E+00 -2.20083E+00 -2.19292E+00
  -2.17776E+00 -2.17980E+00 -2.20828E+00 -2.22565E+00 -2.21927E+00 -2.20290E+00 -2.18062E+00 -2.14101E+00 -2.07330E+00 -1.99878E+00
  -1.94469E+00 -1.90693E+00 -1.87190E+00 -1.83100E+00 -1.77575E+00 -1.71275E+00 -1.64470E+00 -1.56395E+00 -1.48073E+00 -1.41199E+00
  -1.34190E+00 -1.24517E+00 -1.12499E+00 -1.01587E+00 -9.16669E-01 -8.19590E-01 -7.32472E-01 -6.51748E-01 -5.46839E-01 -4.08284E-01
  -2.70849E-01 -1.22794E-01  5.01845E-02  2.22390E-01  3.79991E-01  5.67901E-01  8.51286E-01  1.17880E+00  1.40754E+00  1.57912E+00
   1.81213E+00  2.07544E+00  2.28858E+00  2.53278E+00  2.85681E+00  3.11687E+00  3.11612E+00  3.03218E+00  3.14681E+00  3.34232E+00
   3.55981E+00  3.79375E+00  4.03965E+00  4.29231E+00  4.55402E+00  4.82626E+00  5.10868E+00  5.39932E+00  5.69797E+00  6.00313E+00
   6.31434E+00  6.63349E+00  6.96219E+00  7.30206E+00  7.65411E+00  8.01896E+00  8.39812E+00  8.79298E+00  9.20393E+00  9.63235E+00
   1.00799E+01  1.05478E+01  1.10374E+01  1.15516E+01  1.20920E+01  1.26598E+01  1.32566E+01  1.38834E+01  1.45400E+01  1.52266E+01
   1.59436E+01  1.66895E+01  1.74624E+01  1.82600E+01  1.90797E+01  1.99186E+01  2.07728E+01  2.16388E+01  2.25135E+01  2.33942E+01
   2.42792E+01  2.51678E+01  2.60604E+01  2.69588E+01  2.78663E+01  2.87875E+01  2.97285E+01  3.06963E+01  3.16989E+01  3.27452E+01
   3.38460E+01  3.50184E+01  3.62881E+01  3.76269E+01  3.88769E+01  4.00712E+01  4.13829E+01  4.28033E+01  4.41825E+01  4.54957E+01
   4.68195E+01  4.81779E+01  4.93517E+01  5.03430E+01  5.15958E+01  5.30517E+01  5.44929E+01  5.58758E+01  5.72920E+01  5.88554E+01
   6.03846E+01  6.15644E+01  6.26907E+01  6.41103E+01  6.58548E+01  6.77854E+01  6.94025E+01  7.08881E+01  7.28050E+01  7.50971E+01
   7.73024E+01  7.94175E+01  8.17854E+01  8.43056E+01  8.59787E+01  8.71312E+01  8.93487E+01  9.21212E+01  9.45586E+01  9.65856E+01
   9.84928E+01  1.00230E+02  1.00758E+02  9.96135E+01  9.81040E+01  9.64511E+01  9.44707E+01  9.21271E+01  8.94400E+01  8.64513E+01
   8.32146E+01  7.97892E+01  7.62368E+01  7.26186E+01  6.89925E+01  6.54114E+01  6.19217E+01  5.85625E+01  5.53650E+01  5.23532E+01
   4.95435E+01  4.69455E+01  4.45628E+01  4.23936E+01  4.04322E+01  3.86698E+01  3.70948E+01  3.56943E+01  3.44543E+01  3.33602E+01
   3.23976E+01  3.15527E+01  3.08119E+01  3.01625E+01  2.95924E+01  2.90904E+01  2.86464E+01  2.82508E+01  2.78950E+01  2.75708E+01
   2.72708E+01  2.69885E+01  2.67178E+01  2.64533E+01  2.61902E+01  2.59243E+01  2.56519E+01  2.53700E+01  2.50762E+01  2.47690E+01
   2.44470E+01  2.41096E+01  2.37567E+01  2.33887E+01  2.30064E+01  2.26110E+01  2.22040E+01  2.17869E+01  2.13617E+01  2.09305E+01
   2.04952E+01  2.00580E+01  1.96207E+01  1.91852E+01  1.87533E+01  1.83266E+01  1.79065E+01  1.74942E+01  1.70906E+01  1.66966E+01
   1.63129E+01  1.59399E+01  1.55779E+01  1.52270E+01  1.48873E+01  1.45588E+01  1.42412E+01  1.39345E+01  1.36383E+01  1.33522E+01
   1.30760E+01  1.28094E+01  1.25519E+01  1.23033E+01  1.20630E+01  1.18309E+01  1.16066E+01  1.13898E+01  1.11802E+01  1.09775E+01
   1.07815E+01  1.05919E+01  1.04086E+01  1.02313E+01  1.00597E+01  9.89357E+00  9.73260E+00  9.57654E+00  9.42519E+00  9.27831E+00
   9.13571E+00  8.99714E+00  8.86244E+00  8.73144E+00  8.60399E+00  8.47994E+00  8.35912E+00  8.24138E+00  8.12659E+00  8.01464E+00
   7.90544E+00  7.79884E+00  7.69474E+00  7.59301E+00  7.49357E+00  7.39634E+00  7.30124E+00  7.20816E+00  7.11701E+00  7.02769E+00
   6.94017E+00  6.85436E+00  6.77019E+00  6.68758E+00  6.60644E+00  6.52672E+00  6.44838E+00  6.37135E+00  6.29556E+00  6.22093E+00
   6.14742E+00  6.07498E+00  6.00356E+00  5.93312E+00  5.86357E+00  5.79486E+00  5.72695E+00  5.65981E+00
 NY background values follow
     5.738E+00    5.707E+00    5.677E+00    5.647E+00    5.618E+00    5.588E+00    5.559E+00    5.530E+00    5.502E+00    5.474E+00
     5.446E+00    5.419E+00    5.391E+00    5.365E+00    5.338E+00    5.312E+00    5.286E+00    5.260E+00    5.235E+00    5.210E+00
     5.186E+00    5.162E+00    5.138E+00    5.115E+00    5.092E+00    5.069E+00    5.047E+00    5.025E+00    5.003E+00    4.982E+00
     4.961E+00    4.941E+00    4.921E+00    4.901E+00    4.882E+00    4.863E+00    4.845E+00    4.826E+00    4.809E+00    4.792E+00
     4.775E+00    4.758E+00    4.742E+00    4.727E+00    4.712E+00    4.697E+00    4.683E+00    4.669E+00    4.655E+00    4.642E+00
     4.629E+00    4.617E+00    4.605E+00    4.593E+00    4.581E+00    4.570E+00    4.559E+00    4.548E+00    4.537E+00    4.526E+00
     4.516E+00    4.505E+00    4.495E+00    4.485E+00    4.475E+00    4.464E+00    4.454E+00    4.444E+00    4.434E+00    4.423E+00
     4.413E+00    4.402E+00    4.391E+00    4.380E+00    4.369E+00    4.357E+00    4.346E+00    4.334E+00    4.321E+00    4.309E+00
     4.296E+00    4.282E+00    4.269E+00    4.254E+00    4.240E+00    4.224E+00    4.209E+00    4.192E+00    4.176E+00    4.158E+00
     4.140E+00    4.121E+00    4.102E+00    4.082E+00    4.061E+00    4.040E+00    4.019E+00    3.996E+00    3.973E+00    3.950E+00
     3.926E+00    3.902E+00    3.878E+00    3.853E+00    3.827E+00    3.802E+00    3.776E+00    3.750E+00    3.723E+00    3.696E+00
     3.669E+00    3.642E+00    3.615E+00    3.587E+00    3.559E+00    3.532E+00    3.504E+00    3.476E+00    3.448E+00    3.421E+00
     3.393E+00    3.365E+00    3.338E+00    3.310E+00    3.283E+00    3.256E+00    3.229E+00    3.202E+00    3.176E+00    3.149E+00
     3.124E+00    3.098E+00    3.073E+00    3.048E+00    3.024E+00    3.000E+00    2.977E+00    2.954E+00    2.931E+00    2.909E+00
     2.888E+00    2.866E+00    2.845E+00    2.824E+00    2.804E+00    2.783E+00    2.763E+00    2.743E+00    2.723E+00    2.703E+00
     2.682E+00    2.662E+00    2.642E+00    2.622E+00    2.601E+00    2.580E+00    2.559E+00    2.538E+00    2.516E+00    2.494E+00
     2.471E+00    2.448E+00    2.425E+00    2.401E+00    2.376E+00    2.351E+00    2.325E+00    2.299E+00    2.271E+00    2.243E+00
     2.214E+00    2.184E+00    2.154E+00    2.122E+00    2.089E+00    2.055E+00    2.021E+00    1.985E+00    1.947E+00    1.909E+00
     1.869E+00    1.829E+00    1.786E+00    1.743E+00    1.698E+00    1.653E+00    1.606E+00    1.559E+00    1.512E+00    1.463E+00
     1.414E+00    1.365E+00    1.316E+00    1.266E+00    1.217E+00    1.168E+00    1.119E+00    1.070E+00    1.021E+00    9.737E-01
     9.266E-01    8.802E-01    8.348E-01    7.904E-01    7.471E-01    7.051E-01    6.644E-01    6.251E-01    5.875E-01    5.516E-01
     5.174E-01    4.852E-01    4.550E-01    4.270E-01    4.013E-01    3.780E-01    3.571E-01    3.389E-01    3.235E-01    3.108E-01
     3.012E-01    2.947E-01    2.914E-01    2.914E-01    2.948E-01    3.018E-01    3.125E-01    3.270E-01    3.453E-01    3.674E-01
     3.933E-01    4.230E-01    4.566E-01    4.941E-01    5.353E-01    5.805E-01    6.295E-01    6.824E-01    7.392E-01    7.999E-01
     8.645E-01    9.331E-01    1.006E+00    1.082E+00    1.162E+00    1.246E+00    1.335E+00    1.427E+00    1.523E+00    1.623E+00
     1.727E+00    1.835E+00    1.948E+00    2.064E+00    2.184E+00    2.308E+00    2.436E+00    2.568E+00    2.705E+00    2.845E+00
     2.989E+00    3.138E+00    3.290E+00    3.447E+00    3.607E+00    3.772E+00    3.941E+00    4.114E+00    4.291E+00    4.472E+00
     4.657E+00    4.846E+00    5.039E+00    5.237E+00    5.438E+00    5.642E+00    5.851E+00    6.062E+00    6.276E+00    6.493E+00
     6.713E+00    6.935E+00    7.159E+00    7.385E+00    7.613E+00    7.843E+00    8.074E+00    8.307E+00    8.541E+00    8.775E+00
     9.010E+00    9.246E+00    9.482E+00    9.718E+00    9.954E+00    1.019E+01    1.042E+01    1.066E+01    1.089E+01    1.113E+01
     1.136E+01    1.159E+01    1.182E+01    1.204E+01    1.227E+01    1.249E+01    1.271E+01    1.292E+01    1.314E+01    1.335E+01
     1.356E+01    1.376E+01    1.396E+01    1.416E+01    1.435E+01    1.454E+01    1.473E+01    1.491E+01    1.508E+01    1.525E+01
     1.542E+01    1.558E+01    1.574E+01    1.589E+01    1.604E+01    1.618E+01    1.632E+01    1.646E+01    1.659E+01    1.672E+01
     1.684E+01    1.696E+01    1.708E+01    1.719E+01    1.729E+01    1.740E+01    1.750E+01    1.759E+01    1.769E+01    1.777E+01
     1.786E+01    1.794E+01    1.802E+01    1.809E+01    1.816E+01    1.823E+01    1.829E+01    1.836E+01    1.841E+01    1.847E+01
     1.852E+01    1.857E+01    1.861E+01    1.865E+01    1.869E+01    1.873E+01    1.876E+01    1.879E+01    1.882E+01    1.884E+01
     1.886E+01    1.888E+01    1.890E+01    1.891E+01    1.893E+01    1.893E+01    1.894E+01    1.894E+01    1.895E+01    1.894E+01
     1.894E+01    1.893E+01    1.892E+01    1.891E+01    1.890E+01    1.888E+01    1.886E+01    1.884E+01    1.881E+01    1.879E+01
     1.876E+01    1.872E+01    1.869E+01    1.865E+01    1.861E+01    1.857E+01    1.852E+01    1.847E+01    1.842E+01    1.837E+01
     1.831E+01    1.826E+01    1.819E+01    1.813E+01    1.807E+01    1.800E+01    1.793E+01    1.785E+01    1.777E+01    1.770E+01
     1.761E+01    1.753E+01    1.744E+01    1.735E+01    1.726E+01    1.717E+01    1.707E+01    1.697E+01    1.687E+01    1.676E+01
     1.666E+01    1.655E+01    1.644E+01    1.632E+01    1.621E+01    1.609E+01    1.597E+01    1.585E+01    1.573E+01    1.561E+01
     1.549E+01    1.536E+01    1.523E+01    1.511E+01    1.498E+01    1.485E+01    1.472E+01    1.459E+01    1.446E+01    1.433E+01
     1.419E+01    1.406E+01    1.393E+01    1.380E+01    1.367E+01    1.354E+01    1.340E+01    1.327E+01    1.314E+01    1.301E+01
     1.288E+01    1.276E+01    1.263E+01    1.250E+01    1.238E+01    1.225E+01    1.213E+01    1.201E+01    1.189E+01    1.177E+01
     1.165E+01    1.154E+01    1.143E+01    1.132E+01    1.121E+01    1.110E+01    1.099E+01    1.089E+01    1.079E+01    1.069E+01
     1.059E+01    1.049E+01    1.040E+01    1.030E+01    1.021E+01    1.012E+01    1.003E+01    9.944E+00    9.858E+00    9.773E+00
     9.689E+00    9.607E+00    9.525E+00    9.445E+00    9.367E+00    9.289E+00    9.212E+00    9.137E+00    9.062E+00    8.989E+00
     8.916E+00    8.845E+00    8.774E+00    8.704E+00    8.635E+00    8.567E+00    8.500E+00    8.433E+00    8.367E+00    8.301E+00
     8.236E+00    8.172E+00    8.108E+00    8.045E+00    7.982E+00    7.920E+00    7.858E+00    7.796E+00
 Ala      Conc. = 5.58E+01
