 LCModel (Version 6.3-1L) Copyright: S.W. Provencher.          Ref.: Magn. Reson. Med. 30:672-679 (1993).                
 Slice#2 Row#7 Col#5  PD_05_press_1_raw_act
 36 lines in following concentration table = NCONC+1
    Conc.  %SD /Cr+PCr  Metabolite                                         
   36.542 200% 2.8E-02 Ala                                                 
    0.000 999%   0.000 Asp                                                 
  613.829  26%   0.469 Cr                                                  
  696.153  24%   0.531 PCr                                                 
    0.000 999%   0.000 GABA                                                
   23.658 567% 1.8E-02 Glc                                                 
  511.875  29%   0.391 Gln                                                 
 1.76E+03  10%   1.347 Glu                                                 
  497.368   4%   0.380 GPC                                                 
    0.000 999%   0.000 PCh                                                 
  347.580  16%   0.265 GSH                                                 
  757.561  25%   0.578 Ins                                                 
    0.000 999%   0.000 Lac                                                 
 2.15E+03   4%   1.643 NAA                                                 
  519.584  15%   0.397 NAAG                                                
   66.312  32% 5.1E-02 Scyllo                                              
  265.791  67%   0.203 Tau                                                 
  209.696  44%   0.160 -CrCH2                                              
  497.368   4%   0.380 GPC+PCh                                             
 2.67E+03   3%   2.040 NAA+NAAG                                            
 1.31E+03   4%   1.000 Cr+PCr                                              
 2.28E+03  10%   1.738 Glu+Gln                                             
  892.244  55%   0.681 Lip13a                                              
    0.000 999%   0.000 Lip13b                                              
   56.264 375% 4.3E-02 Lip09                                               
 1.22E+03  21%   0.933 MM09                                                
  101.019 136% 7.7E-02 Lip20                                               
 2.36E+03  16%   1.799 MM20                                                
  448.605  35%   0.342 MM12                                                
 1.37E+03  26%   1.047 MM14                                                
  840.745  28%   0.642 MM17                                                
  892.244  55%   0.681 Lip13a+Lip13b                                       
 2.71E+03  17%   2.071 MM14+Lip13a+Lip13b+MM12                             
 1.28E+03  17%   0.976 MM09+Lip09                                          
 2.46E+03  15%   1.876 MM20+Lip20                                          
   6 lines in following misc. output table
  FWHM = 0.038 ppm    S/N =  17                                            
  Data shift = 0.015 ppm                                                   
  Ph: -36 deg      -7.7 deg/ppm                                            
  alphaB,S = 9.2E-01,   1.0E+02                                            
   14 spline knots.   Ns = 6(1)                                            
  (12) 4 infls.   ( 7) 1 extrs.                                            
  498 points on ppm-axis = NY
      4.000000     3.992357     3.984714     3.977070     3.969427     3.961784     3.954141     3.946497     3.938854     3.931211
      3.923568     3.915925     3.908281     3.900638     3.892995     3.885352     3.877708     3.870065     3.862422     3.854779
      3.847136     3.839492     3.831849     3.824206     3.816563     3.808919     3.801276     3.793633     3.785990     3.778347
      3.770703     3.763060     3.755417     3.747774     3.740130     3.732487     3.724844     3.717201     3.709558     3.701914
      3.694271     3.686628     3.678985     3.671341     3.663698     3.656055     3.648412     3.640769     3.633125     3.625482
      3.617839     3.610196     3.602552     3.594909     3.587266     3.579623     3.571980     3.564336     3.556693     3.549050
      3.541407     3.533763     3.526120     3.518477     3.510834     3.503191     3.495547     3.487904     3.480261     3.472618
      3.464974     3.457331     3.449688     3.442045     3.434402     3.426758     3.419115     3.411472     3.403829     3.396185
      3.388542     3.380899     3.373256     3.365613     3.357969     3.350326     3.342683     3.335040     3.327396     3.319753
      3.312110     3.304467     3.296824     3.289180     3.281537     3.273894     3.266251     3.258607     3.250964     3.243321
      3.235678     3.228034     3.220391     3.212748     3.205105     3.197462     3.189818     3.182175     3.174532     3.166889
      3.159245     3.151602     3.143959     3.136316     3.128673     3.121029     3.113386     3.105743     3.098100     3.090456
      3.082813     3.075170     3.067527     3.059884     3.052240     3.044597     3.036954     3.029311     3.021667     3.014024
      3.006381     2.998738     2.991095     2.983451     2.975808     2.968165     2.960522     2.952878     2.945235     2.937592
      2.929949     2.922306     2.914662     2.907019     2.899376     2.891733     2.884089     2.876446     2.868803     2.861160
      2.853517     2.845873     2.838230     2.830587     2.822944     2.815300     2.807657     2.800014     2.792371     2.784728
      2.777084     2.769441     2.761798     2.754155     2.746511     2.738868     2.731225     2.723582     2.715939     2.708295
      2.700652     2.693009     2.685366     2.677722     2.670079     2.662436     2.654793     2.647150     2.639506     2.631863
      2.624220     2.616577     2.608933     2.601290     2.593647     2.586004     2.578361     2.570717     2.563074     2.555431
      2.547788     2.540144     2.532501     2.524858     2.517215     2.509572     2.501928     2.494285     2.486642     2.478999
      2.471355     2.463712     2.456069     2.448426     2.440783     2.433139     2.425496     2.417853     2.410210     2.402566
      2.394923     2.387280     2.379637     2.371994     2.364350     2.356707     2.349064     2.341421     2.333777     2.326134
      2.318491     2.310848     2.303205     2.295561     2.287918     2.280275     2.272632     2.264988     2.257345     2.249702
      2.242059     2.234416     2.226772     2.219129     2.211486     2.203843     2.196199     2.188556     2.180913     2.173270
      2.165627     2.157983     2.150340     2.142697     2.135054     2.127410     2.119767     2.112124     2.104481     2.096838
      2.089194     2.081551     2.073908     2.066265     2.058621     2.050978     2.043335     2.035692     2.028049     2.020405
      2.012762     2.005119     1.997476     1.989833     1.982190     1.974546     1.966903     1.959260     1.951617     1.943974
      1.936331     1.928688     1.921045     1.913402     1.905759     1.898115     1.890472     1.882829     1.875186     1.867543
      1.859900     1.852257     1.844614     1.836971     1.829327     1.821684     1.814041     1.806398     1.798755     1.791112
      1.783469     1.775826     1.768183     1.760540     1.752896     1.745253     1.737610     1.729967     1.722324     1.714681
      1.707038     1.699395     1.691752     1.684108     1.676465     1.668822     1.661179     1.653536     1.645893     1.638250
      1.630607     1.622964     1.615321     1.607677     1.600034     1.592391     1.584748     1.577105     1.569462     1.561819
      1.554176     1.546533     1.538890     1.531246     1.523603     1.515960     1.508317     1.500674     1.493031     1.485388
      1.477745     1.470102     1.462458     1.454815     1.447172     1.439529     1.431886     1.424243     1.416600     1.408957
      1.401314     1.393671     1.386027     1.378384     1.370741     1.363098     1.355455     1.347812     1.340169     1.332526
      1.324883     1.317240     1.309596     1.301953     1.294310     1.286667     1.279024     1.271381     1.263738     1.256095
      1.248452     1.240808     1.233165     1.225522     1.217879     1.210236     1.202593     1.194950     1.187307     1.179664
      1.172021     1.164377     1.156734     1.149091     1.141448     1.133805     1.126162     1.118519     1.110876     1.103233
      1.095590     1.087946     1.080303     1.072660     1.065017     1.057374     1.049731     1.042088     1.034445     1.026802
      1.019158     1.011515     1.003872     0.996229     0.988586     0.980943     0.973300     0.965657     0.958014     0.950371
      0.942727     0.935084     0.927441     0.919798     0.912155     0.904512     0.896869     0.889226     0.881583     0.873940
      0.866296     0.858653     0.851010     0.843367     0.835724     0.828081     0.820438     0.812795     0.805152     0.797508
      0.789865     0.782222     0.774579     0.766936     0.759293     0.751650     0.744007     0.736364     0.728721     0.721077
      0.713434     0.705791     0.698148     0.690505     0.682862     0.675219     0.667576     0.659933     0.652290     0.644646
      0.637003     0.629360     0.621717     0.614074     0.606431     0.598788     0.591145     0.583502     0.575858     0.568215
      0.560572     0.552929     0.545286     0.537643     0.530000     0.522357     0.514714     0.507071     0.499427     0.491784
      0.484141     0.476498     0.468855     0.461212     0.453569     0.445925     0.438282     0.430639     0.422996     0.415353
      0.407710     0.400067     0.392424     0.384780     0.377137     0.369494     0.361851     0.354208     0.346565     0.338922
      0.331278     0.323635     0.315992     0.308349     0.300706     0.293063     0.285420     0.277777     0.270133     0.262490
      0.254847     0.247204     0.239561     0.231918     0.224275     0.216631     0.208988     0.201345
 NY phased data points follow
  -5.98170E+01 -5.26192E+01 -5.46117E+01 -4.83470E+01 -4.62079E+01 -4.07902E+01 -3.82352E+01 -3.29737E+01 -2.55260E+01 -2.10776E+01
  -1.75409E+01 -1.70923E+01 -2.00720E+01 -2.76346E+01 -3.27346E+01 -3.83311E+01 -3.94362E+01 -4.06302E+01 -4.29562E+01 -4.17981E+01
  -4.24678E+01 -3.93100E+01 -3.95690E+01 -4.22581E+01 -3.45876E+01 -3.35813E+01 -3.67237E+01 -3.45891E+01 -3.71687E+01 -3.01162E+01
  -3.38390E+01 -3.03304E+01 -2.73592E+01 -2.97015E+01 -3.44471E+01 -3.75467E+01 -3.52005E+01 -3.40776E+01 -3.29452E+01 -2.78303E+01
  -3.05448E+01 -2.92523E+01 -2.73329E+01 -2.77377E+01 -3.01409E+01 -2.33650E+01 -2.63897E+01 -2.37055E+01 -2.34526E+01 -2.70573E+01
  -2.79595E+01 -3.12278E+01 -2.97863E+01 -3.10830E+01 -3.31245E+01 -3.09850E+01 -3.00295E+01 -2.83179E+01 -2.79327E+01 -2.75553E+01
  -2.87302E+01 -3.14791E+01 -3.16558E+01 -3.20488E+01 -3.20477E+01 -3.06134E+01 -3.19793E+01 -3.11977E+01 -3.10557E+01 -2.93632E+01
  -2.78524E+01 -3.01840E+01 -2.72484E+01 -2.73114E+01 -2.69113E+01 -2.65746E+01 -2.27600E+01 -2.64296E+01 -2.64894E+01 -2.74237E+01
  -2.69618E+01 -2.18105E+01 -2.36907E+01 -2.22251E+01 -2.53854E+01 -2.00665E+01 -2.21910E+01 -2.15922E+01 -2.58735E+01 -2.20758E+01
  -2.26718E+01 -1.80427E+01 -2.30169E+01 -2.08706E+01 -2.09635E+01 -1.67713E+01 -1.69208E+01 -1.20853E+01 -8.77023E+00  2.29688E+00
   1.25861E+01  2.30741E+01  3.03524E+01  2.80384E+01  1.68089E+01  1.27704E+01  1.88086E+00 -2.52758E+00 -7.42923E+00 -1.30499E+01
  -1.75125E+01 -1.52858E+01 -1.61260E+01 -2.00344E+01 -1.88138E+01 -1.71877E+01 -1.64881E+01 -1.76430E+01 -1.47159E+01 -1.53717E+01
  -1.23523E+01 -1.25672E+01 -1.06213E+01 -1.16200E+00  5.37858E+00  2.15793E+01  2.98188E+01  3.41434E+01  2.70107E+01  1.72943E+01
   4.51132E+00 -6.78472E-01 -9.10910E+00 -4.24129E+00 -1.11170E+01 -1.69098E+01 -1.79979E+01 -1.84663E+01 -1.57803E+01 -1.50297E+01
  -1.79995E+01 -9.41491E+00 -1.78273E+01 -1.87257E+01 -1.82081E+01 -1.11118E+01 -1.60850E+01 -1.65557E+01 -1.29026E+01 -2.05592E+01
  -1.84478E+01 -1.62966E+01 -1.94461E+01 -1.96328E+01 -1.81151E+01 -1.65928E+01 -1.85325E+01 -1.75492E+01 -1.57064E+01 -1.52737E+01
  -2.29945E+01 -1.91746E+01 -2.20396E+01 -1.94337E+01 -1.73111E+01 -1.76039E+01 -1.71578E+01 -1.80218E+01 -2.35283E+01 -2.04732E+01
  -2.10890E+01 -2.28233E+01 -2.21287E+01 -2.81093E+01 -2.77593E+01 -2.86303E+01 -2.51238E+01 -2.46379E+01 -2.15569E+01 -2.26901E+01
  -2.22400E+01 -2.78702E+01 -2.65147E+01 -2.56748E+01 -2.40846E+01 -1.99356E+01 -1.90138E+01 -1.67053E+01 -1.20227E+01 -1.06021E+01
  -9.26486E+00 -1.14039E+01 -1.23399E+01 -6.21409E+00 -8.67278E+00 -1.17950E+01 -1.31495E+01 -9.67766E+00 -1.30371E+01 -1.52947E+01
  -1.53340E+01 -1.05523E+01 -1.12952E+01 -7.81270E+00 -4.41978E+00 -1.12382E+01 -1.42577E+01 -1.24327E+01 -1.38878E+01 -1.96876E+01
  -1.77787E+01 -1.66068E+01 -1.48595E+01 -6.14291E+00 -6.79606E-01  3.43039E+00  5.64008E+00  7.82495E-01 -5.10773E+00 -7.88765E+00
  -9.01194E+00 -1.79476E+01 -1.85540E+01 -1.54592E+01 -1.34339E+01 -7.24888E+00 -5.01806E+00 -3.83222E+00 -2.36918E+00 -1.97229E+00
  -2.13928E+00 -3.77267E+00 -2.23294E+00 -2.62200E+00 -5.80118E+00 -6.84190E-01 -2.03119E+00 -2.60532E-01 -2.43952E+00 -6.04303E+00
  -3.14352E+00 -5.67080E+00 -7.93971E+00 -5.72618E+00 -1.05826E+00  1.32809E+00  3.00375E+00  4.15498E+00  4.48872E+00  1.03160E-01
   4.48588E+00  6.49227E+00  1.16408E+01  2.22496E+01  2.95417E+01  3.08322E+01  3.81841E+01  5.02106E+01  6.95308E+01  8.42169E+01
   9.59300E+01  8.46775E+01  6.18194E+01  4.33273E+01  3.22257E+01  2.23623E+01  1.32948E+01  4.94011E+00  1.37326E+00  3.15447E+00
   2.22340E+00 -4.95999E-01 -1.99018E+00  4.37780E+00  1.19610E+00 -3.87969E+00 -4.44866E+00 -5.21699E+00 -2.64932E+00 -2.17439E-01
  -4.08471E+00 -3.04318E+00 -1.03601E+00 -1.54160E+00 -9.83840E-01 -2.14407E+00 -4.74899E+00 -4.99806E+00 -5.56389E+00 -1.28220E+00
  -4.18309E+00 -5.74991E-01 -8.39310E-01 -3.91615E-01 -1.06611E+00  1.33067E+00  1.86270E-02  1.07735E+00  3.69555E-02 -1.23584E+00
  -3.75494E+00  4.00600E-01  1.84785E+00  6.65375E-02  1.67197E+00  2.33837E+00  2.11957E+00  2.97661E+00  3.16025E+00  5.16056E+00
   3.61060E+00  1.91296E+00  9.75812E-01  7.08487E+00  2.53925E+00  7.29911E+00  6.44237E+00  2.32676E+00  4.52999E+00  1.80595E+00
   3.20684E+00  3.85102E+00  2.56761E+00  3.08223E+00 -2.42295E-01  2.73990E+00  1.30327E+00  1.64378E+00 -8.97718E-01  1.96409E+00
   2.59411E+00  5.96772E+00  4.51504E+00  6.84028E+00  4.43713E+00  9.22340E+00  6.13146E+00  7.65367E+00  9.22004E+00  6.49595E+00
   6.78317E+00  4.77919E+00  4.90756E+00  4.66920E+00  7.57934E+00  8.27676E+00  1.11164E+01  7.20724E+00  1.12216E+01  1.35452E+01
   5.54659E+00  5.31991E+00  7.86798E+00  8.83557E+00  8.87559E+00  8.05074E+00  5.39896E+00  2.18165E+00  2.96705E+00  4.55688E+00
   2.65584E+00  1.71247E+00  6.18356E+00  2.70686E+00  1.72434E+00  1.41809E+00  4.85426E+00  4.34893E+00  7.47664E+00  6.97891E+00
   7.18298E+00  1.01001E+01  7.40977E+00  9.56885E+00  4.13369E+00  5.54377E+00  3.19110E+00  4.45657E+00  3.79793E+00  1.74908E+00
   3.69009E+00 -1.59241E+00  3.05416E+00  1.47762E-01  2.12770E+00  5.77187E+00 -1.52873E+00  2.28321E+00  1.51804E+00  4.06274E+00
   7.93210E-01  3.33331E+00  6.00468E+00  5.17912E+00  3.74522E+00  6.15040E+00  4.97725E+00  9.40635E+00  8.57611E+00  6.98897E+00
   6.52120E+00  6.18532E+00  1.09499E+01  8.21887E+00  8.49393E+00  8.92184E+00  7.45517E+00  8.45071E+00  6.59778E+00  5.11691E+00
   9.93754E+00  4.24280E+00  7.94887E+00  4.52458E+00  6.84100E+00  4.36676E+00  3.93152E+00  1.04266E+00  4.76250E+00 -8.03955E-01
   1.14521E+00  1.24086E+00  8.00702E-01  4.61148E+00  2.80622E+00  2.19456E+00 -1.24117E-01 -3.41304E-01  1.56621E+00 -1.37583E+00
   2.26366E+00  1.93023E+00  7.83837E-01  1.62207E+00 -2.06193E+00  7.42447E-01 -1.29065E+00 -2.23174E+00  3.36199E+00 -6.71323E-02
  -2.36527E+00  1.92726E+00 -2.02775E+00 -1.29045E+00 -1.81064E+00  1.78133E+00 -6.84937E+00  1.64874E+00 -1.92015E+00  1.37654E+00
   1.81251E-01 -2.68202E+00 -6.19787E-01  8.43675E-01  8.78238E-01  6.17662E-01 -3.12552E-01 -4.56221E+00 -2.31462E+00 -3.04170E+00
  -1.25171E+00 -1.04777E-01 -4.93097E-01  1.28737E+00  8.46799E-01 -2.73978E+00 -2.09021E+00 -6.53105E-01  1.49646E-01  5.59964E-01
  -1.30523E+00  3.28670E+00 -7.90729E-01  1.05054E+00  3.65866E-01  3.06712E-01  1.01622E+00 -3.60207E-01 -3.30003E+00 -1.63267E+00
   1.83107E+00  2.03499E+00 -1.42408E+00 -1.78490E-01  2.25773E+00  2.04049E+00  6.02086E-01 -1.52625E+00 -1.59373E+00  4.91940E+00
   1.02139E+00  6.02138E-01  6.68338E-01 -4.37191E+00 -1.55364E+00 -1.33693E+00 -4.03030E+00 -5.77103E-01
 NY points of the fit to the data follow
  -4.98173E+01 -4.93684E+01 -4.86977E+01 -4.76158E+01 -4.57058E+01 -4.27059E+01 -3.81960E+01 -3.22486E+01 -2.56074E+01 -2.00443E+01
  -1.75650E+01 -1.88880E+01 -2.29243E+01 -2.76435E+01 -3.15470E+01 -3.43876E+01 -3.66375E+01 -3.85326E+01 -3.98408E+01 -4.04657E+01
  -4.05097E+01 -4.03776E+01 -4.02312E+01 -3.99719E+01 -3.94044E+01 -3.86169E+01 -3.74382E+01 -3.57210E+01 -3.36543E+01 -3.16363E+01
  -3.01111E+01 -2.91655E+01 -2.88084E+01 -2.92548E+01 -3.06417E+01 -3.27061E+01 -3.48998E+01 -3.64363E+01 -3.68449E+01 -3.63619E+01
  -3.52486E+01 -3.38204E+01 -3.23429E+01 -3.07924E+01 -2.90775E+01 -2.73346E+01 -2.61129E+01 -2.59721E+01 -2.68957E+01 -2.83150E+01
  -2.96433E+01 -3.05906E+01 -3.12054E+01 -3.15661E+01 -3.16422E+01 -3.13710E+01 -3.07919E+01 -3.00441E+01 -2.92876E+01 -2.87514E+01
  -2.85992E+01 -2.87974E+01 -2.91497E+01 -2.93793E+01 -2.93615E+01 -2.91256E+01 -2.87603E+01 -2.83518E+01 -2.79370E+01 -2.74739E+01
  -2.69401E+01 -2.64011E+01 -2.59048E+01 -2.54928E+01 -2.52334E+01 -2.52173E+01 -2.54766E+01 -2.58602E+01 -2.61499E+01 -2.61398E+01
  -2.56975E+01 -2.49293E+01 -2.40226E+01 -2.30195E+01 -2.20772E+01 -2.15494E+01 -2.16697E+01 -2.23053E+01 -2.30019E+01 -2.33712E+01
  -2.33734E+01 -2.32518E+01 -2.31745E+01 -2.30475E+01 -2.26250E+01 -2.16889E+01 -1.97166E+01 -1.55717E+01 -8.94950E+00  7.23733E-01
   1.29948E+01  2.46444E+01  3.09405E+01  2.89909E+01  2.04803E+01  1.00692E+01  1.34331E+00 -4.94626E+00 -9.83657E+00 -1.41930E+01
  -1.75759E+01 -1.90772E+01 -1.94968E+01 -1.96035E+01 -1.95939E+01 -1.95273E+01 -1.94090E+01 -1.92420E+01 -1.89896E+01 -1.85575E+01
  -1.76301E+01 -1.50317E+01 -9.97845E+00 -2.14551E+00  8.88969E+00  2.11904E+01  3.03443E+01  3.21785E+01  2.62674E+01  1.65273E+01
   7.44289E+00  6.94889E-01 -4.54449E+00 -9.53081E+00 -1.42749E+01 -1.72409E+01 -1.80854E+01 -1.79284E+01 -1.72941E+01 -1.65664E+01
  -1.60193E+01 -1.57490E+01 -1.57464E+01 -1.59216E+01 -1.61445E+01 -1.63557E+01 -1.65577E+01 -1.67511E+01 -1.69680E+01 -1.71867E+01
  -1.74038E+01 -1.76189E+01 -1.77749E+01 -1.77941E+01 -1.76434E+01 -1.74209E+01 -1.72983E+01 -1.74301E+01 -1.79146E+01 -1.85873E+01
  -1.91105E+01 -1.91716E+01 -1.87022E+01 -1.80635E+01 -1.77722E+01 -1.80725E+01 -1.87817E+01 -1.94606E+01 -1.98160E+01 -1.99180E+01
  -1.99995E+01 -2.02686E+01 -2.07507E+01 -2.13314E+01 -2.17903E+01 -2.18950E+01 -2.15260E+01 -2.08690E+01 -2.03981E+01 -2.03583E+01
  -2.05113E+01 -2.04691E+01 -2.00696E+01 -1.94880E+01 -1.90220E+01 -1.85524E+01 -1.75701E+01 -1.58711E+01 -1.37740E+01 -1.19890E+01
  -1.10947E+01 -1.11011E+01 -1.17059E+01 -1.24964E+01 -1.31475E+01 -1.35493E+01 -1.36256E+01 -1.32738E+01 -1.24881E+01 -1.13486E+01
  -9.96694E+00 -8.50825E+00 -7.26327E+00 -6.55764E+00 -6.84445E+00 -8.26898E+00 -1.05761E+01 -1.33179E+01 -1.57995E+01 -1.73007E+01
  -1.73659E+01 -1.57821E+01 -1.28047E+01 -8.74422E+00 -4.38557E+00 -1.13463E+00 -3.86217E-01 -2.55819E+00 -6.80089E+00 -1.16389E+01
  -1.59702E+01 -1.90201E+01 -1.99122E+01 -1.81871E+01 -1.44431E+01 -1.01087E+01 -6.68754E+00 -4.58204E+00 -3.52666E+00 -3.13438E+00
  -3.12757E+00 -3.23374E+00 -3.12652E+00 -2.66096E+00 -2.00915E+00 -1.43509E+00 -1.06937E+00 -1.07949E+00 -1.54411E+00 -2.36813E+00
  -3.31538E+00 -3.97215E+00 -3.88393E+00 -2.88835E+00 -1.32593E+00  2.39247E-01  1.36293E+00  1.97341E+00  2.34637E+00  3.05393E+00
   4.79081E+00  7.82475E+00  1.25429E+01  1.85483E+01  2.53596E+01  3.31960E+01  4.16564E+01  5.36725E+01  7.01172E+01  8.56167E+01
   9.15293E+01  8.32660E+01  6.51974E+01  4.63432E+01  3.21692E+01  2.23074E+01  1.43517E+01  6.95169E+00  1.47405E+00 -5.09128E-01
  -1.18120E+00 -1.50138E+00 -1.58280E+00 -1.51934E+00 -1.50375E+00 -1.62531E+00 -1.84528E+00 -2.08200E+00 -2.28762E+00 -2.44705E+00
  -2.56623E+00 -2.64244E+00 -2.66322E+00 -2.65015E+00 -2.65058E+00 -2.67205E+00 -2.69064E+00 -2.68235E+00 -2.62662E+00 -2.51142E+00
  -2.32906E+00 -2.08899E+00 -1.82832E+00 -1.57082E+00 -1.31490E+00 -1.05374E+00 -7.80305E-01 -4.87945E-01 -1.69695E-01  1.82647E-01
   5.64470E-01  9.56468E-01  1.34074E+00  1.70485E+00  2.04050E+00  2.34129E+00  2.59997E+00  2.81140E+00  2.97639E+00  3.09454E+00
   3.16646E+00  3.19537E+00  3.18686E+00  3.14779E+00  3.08602E+00  3.01032E+00  2.93008E+00  2.85543E+00  2.79668E+00  2.76438E+00
   2.77094E+00  2.83045E+00  2.93781E+00  3.08530E+00  3.25297E+00  3.39379E+00  3.46668E+00  3.47605E+00  3.48101E+00  3.56385E+00
   3.75977E+00  4.05711E+00  4.44965E+00  4.92909E+00  5.45876E+00  5.96555E+00  6.36582E+00  6.64329E+00  6.84112E+00  6.99873E+00
   7.12846E+00  7.22271E+00  7.27547E+00  7.30413E+00  7.32146E+00  7.32197E+00  7.30405E+00  7.26852E+00  7.21672E+00  7.15033E+00
   7.07118E+00  6.98116E+00  6.88168E+00  6.77359E+00  6.65718E+00  6.53262E+00  6.40002E+00  6.25951E+00  6.11081E+00  5.95351E+00
   5.78716E+00  5.61178E+00  5.42776E+00  5.23581E+00  5.03667E+00  4.83130E+00  4.62099E+00  4.40767E+00  4.19358E+00  3.98112E+00
   3.77256E+00  3.57034E+00  3.37707E+00  3.19565E+00  3.02893E+00  2.87959E+00  2.74999E+00  2.64251E+00  2.55959E+00  2.50376E+00
   2.47725E+00  2.48203E+00  2.51976E+00  2.59209E+00  2.70053E+00  2.84639E+00  3.03026E+00  3.25210E+00  3.51110E+00  3.80586E+00
   4.13406E+00  4.49231E+00  4.87573E+00  5.27818E+00  5.69235E+00  6.11002E+00  6.52202E+00  6.91842E+00  7.28869E+00  7.62236E+00
   7.90950E+00  8.14129E+00  8.31017E+00  8.41016E+00  8.43715E+00  8.38935E+00  8.26742E+00  8.07441E+00  7.81533E+00  7.49694E+00
   7.12735E+00  6.71595E+00  6.27281E+00  5.80824E+00  5.33208E+00  4.85346E+00  4.38059E+00  3.92072E+00  3.47989E+00  3.06279E+00
   2.67261E+00  2.31134E+00  1.97991E+00  1.67854E+00  1.40667E+00  1.16309E+00  9.45956E-01  7.53261E-01  5.82904E-01  4.32928E-01
   3.01287E-01  1.85967E-01  8.49268E-02 -3.56169E-03 -8.10029E-02 -1.48608E-01 -2.07609E-01 -2.59126E-01 -3.04240E-01 -3.43704E-01
  -3.78134E-01 -4.07989E-01 -4.33856E-01 -4.56259E-01 -4.75694E-01 -4.92393E-01 -5.06562E-01 -5.18366E-01 -5.28147E-01 -5.36167E-01
  -5.42647E-01 -5.47588E-01 -5.51058E-01 -5.53144E-01 -5.54102E-01 -5.54066E-01 -5.53124E-01 -5.51203E-01 -5.48364E-01 -5.44696E-01
  -5.40410E-01 -5.35544E-01 -5.30102E-01 -5.23985E-01 -5.17276E-01 -5.10072E-01 -5.02538E-01 -4.94644E-01 -4.86358E-01 -4.77598E-01
  -4.68481E-01 -4.59093E-01 -4.49544E-01 -4.39742E-01 -4.29648E-01 -4.19221E-01 -4.08612E-01 -3.97890E-01 -3.87107E-01 -3.76139E-01
  -3.64967E-01 -3.53595E-01 -3.42182E-01 -3.30753E-01 -3.19305E-01 -3.07705E-01 -2.95974E-01 -2.84154E-01 -2.72391E-01 -2.60657E-01
  -2.48913E-01 -2.37039E-01 -2.25101E-01 -2.13157E-01 -2.01313E-01 -1.89485E-01 -1.77615E-01 -1.65609E-01
 NY background values follow
    -5.237E+01   -5.202E+01   -5.167E+01   -5.132E+01   -5.097E+01   -5.062E+01   -5.027E+01   -4.992E+01   -4.957E+01   -4.922E+01
    -4.887E+01   -4.852E+01   -4.818E+01   -4.783E+01   -4.748E+01   -4.714E+01   -4.679E+01   -4.645E+01   -4.610E+01   -4.576E+01
    -4.542E+01   -4.508E+01   -4.474E+01   -4.440E+01   -4.406E+01   -4.372E+01   -4.339E+01   -4.305E+01   -4.272E+01   -4.239E+01
    -4.206E+01   -4.173E+01   -4.140E+01   -4.107E+01   -4.074E+01   -4.042E+01   -4.010E+01   -3.978E+01   -3.946E+01   -3.914E+01
    -3.882E+01   -3.851E+01   -3.820E+01   -3.789E+01   -3.758E+01   -3.727E+01   -3.697E+01   -3.666E+01   -3.636E+01   -3.606E+01
    -3.577E+01   -3.547E+01   -3.518E+01   -3.489E+01   -3.460E+01   -3.431E+01   -3.403E+01   -3.375E+01   -3.347E+01   -3.319E+01
    -3.292E+01   -3.264E+01   -3.237E+01   -3.211E+01   -3.184E+01   -3.158E+01   -3.131E+01   -3.106E+01   -3.080E+01   -3.055E+01
    -3.029E+01   -3.005E+01   -2.980E+01   -2.956E+01   -2.931E+01   -2.908E+01   -2.884E+01   -2.861E+01   -2.838E+01   -2.815E+01
    -2.792E+01   -2.770E+01   -2.748E+01   -2.726E+01   -2.705E+01   -2.684E+01   -2.663E+01   -2.642E+01   -2.622E+01   -2.602E+01
    -2.582E+01   -2.563E+01   -2.544E+01   -2.525E+01   -2.506E+01   -2.488E+01   -2.470E+01   -2.452E+01   -2.435E+01   -2.418E+01
    -2.401E+01   -2.384E+01   -2.368E+01   -2.352E+01   -2.336E+01   -2.320E+01   -2.305E+01   -2.290E+01   -2.275E+01   -2.260E+01
    -2.246E+01   -2.232E+01   -2.218E+01   -2.205E+01   -2.191E+01   -2.178E+01   -2.165E+01   -2.153E+01   -2.140E+01   -2.128E+01
    -2.116E+01   -2.104E+01   -2.093E+01   -2.081E+01   -2.070E+01   -2.059E+01   -2.049E+01   -2.038E+01   -2.028E+01   -2.018E+01
    -2.008E+01   -1.998E+01   -1.989E+01   -1.979E+01   -1.970E+01   -1.961E+01   -1.952E+01   -1.944E+01   -1.935E+01   -1.927E+01
    -1.919E+01   -1.911E+01   -1.903E+01   -1.896E+01   -1.888E+01   -1.880E+01   -1.873E+01   -1.866E+01   -1.859E+01   -1.852E+01
    -1.845E+01   -1.838E+01   -1.831E+01   -1.824E+01   -1.817E+01   -1.810E+01   -1.804E+01   -1.797E+01   -1.790E+01   -1.783E+01
    -1.777E+01   -1.770E+01   -1.763E+01   -1.756E+01   -1.750E+01   -1.743E+01   -1.736E+01   -1.729E+01   -1.722E+01   -1.715E+01
    -1.707E+01   -1.700E+01   -1.693E+01   -1.685E+01   -1.677E+01   -1.670E+01   -1.662E+01   -1.653E+01   -1.645E+01   -1.637E+01
    -1.628E+01   -1.620E+01   -1.611E+01   -1.602E+01   -1.592E+01   -1.583E+01   -1.573E+01   -1.564E+01   -1.554E+01   -1.544E+01
    -1.534E+01   -1.523E+01   -1.513E+01   -1.502E+01   -1.492E+01   -1.481E+01   -1.470E+01   -1.459E+01   -1.448E+01   -1.437E+01
    -1.426E+01   -1.415E+01   -1.403E+01   -1.392E+01   -1.381E+01   -1.369E+01   -1.358E+01   -1.346E+01   -1.335E+01   -1.323E+01
    -1.311E+01   -1.300E+01   -1.288E+01   -1.276E+01   -1.265E+01   -1.253E+01   -1.242E+01   -1.230E+01   -1.218E+01   -1.207E+01
    -1.195E+01   -1.184E+01   -1.173E+01   -1.161E+01   -1.150E+01   -1.139E+01   -1.128E+01   -1.117E+01   -1.106E+01   -1.095E+01
    -1.084E+01   -1.073E+01   -1.062E+01   -1.052E+01   -1.041E+01   -1.031E+01   -1.021E+01   -1.010E+01   -1.000E+01   -9.899E+00
    -9.798E+00   -9.697E+00   -9.598E+00   -9.499E+00   -9.401E+00   -9.303E+00   -9.206E+00   -9.110E+00   -9.015E+00   -8.920E+00
    -8.825E+00   -8.732E+00   -8.639E+00   -8.546E+00   -8.454E+00   -8.363E+00   -8.272E+00   -8.182E+00   -8.093E+00   -8.004E+00
    -7.915E+00   -7.827E+00   -7.740E+00   -7.653E+00   -7.567E+00   -7.481E+00   -7.396E+00   -7.311E+00   -7.227E+00   -7.144E+00
    -7.060E+00   -6.978E+00   -6.895E+00   -6.814E+00   -6.732E+00   -6.652E+00   -6.571E+00   -6.491E+00   -6.412E+00   -6.333E+00
    -6.255E+00   -6.177E+00   -6.100E+00   -6.023E+00   -5.947E+00   -5.872E+00   -5.797E+00   -5.722E+00   -5.648E+00   -5.575E+00
    -5.502E+00   -5.430E+00   -5.358E+00   -5.287E+00   -5.216E+00   -5.146E+00   -5.077E+00   -5.008E+00   -4.940E+00   -4.873E+00
    -4.806E+00   -4.740E+00   -4.674E+00   -4.609E+00   -4.545E+00   -4.481E+00   -4.418E+00   -4.356E+00   -4.294E+00   -4.233E+00
    -4.173E+00   -4.113E+00   -4.054E+00   -3.996E+00   -3.939E+00   -3.882E+00   -3.825E+00   -3.770E+00   -3.715E+00   -3.661E+00
    -3.608E+00   -3.555E+00   -3.503E+00   -3.452E+00   -3.402E+00   -3.352E+00   -3.303E+00   -3.255E+00   -3.207E+00   -3.160E+00
    -3.114E+00   -3.069E+00   -3.024E+00   -2.980E+00   -2.937E+00   -2.894E+00   -2.852E+00   -2.811E+00   -2.771E+00   -2.731E+00
    -2.692E+00   -2.654E+00   -2.617E+00   -2.580E+00   -2.544E+00   -2.509E+00   -2.474E+00   -2.440E+00   -2.407E+00   -2.375E+00
    -2.343E+00   -2.312E+00   -2.282E+00   -2.253E+00   -2.224E+00   -2.196E+00   -2.169E+00   -2.142E+00   -2.117E+00   -2.092E+00
    -2.067E+00   -2.044E+00   -2.021E+00   -1.999E+00   -1.978E+00   -1.957E+00   -1.937E+00   -1.918E+00   -1.899E+00   -1.881E+00
    -1.863E+00   -1.846E+00   -1.830E+00   -1.814E+00   -1.799E+00   -1.784E+00   -1.770E+00   -1.756E+00   -1.742E+00   -1.729E+00
    -1.717E+00   -1.704E+00   -1.692E+00   -1.681E+00   -1.670E+00   -1.659E+00   -1.648E+00   -1.638E+00   -1.627E+00   -1.617E+00
    -1.608E+00   -1.598E+00   -1.589E+00   -1.580E+00   -1.571E+00   -1.562E+00   -1.553E+00   -1.544E+00   -1.535E+00   -1.526E+00
    -1.518E+00   -1.509E+00   -1.500E+00   -1.491E+00   -1.482E+00   -1.473E+00   -1.464E+00   -1.455E+00   -1.446E+00   -1.436E+00
    -1.427E+00   -1.417E+00   -1.407E+00   -1.397E+00   -1.387E+00   -1.377E+00   -1.367E+00   -1.356E+00   -1.345E+00   -1.335E+00
    -1.324E+00   -1.313E+00   -1.302E+00   -1.290E+00   -1.279E+00   -1.267E+00   -1.256E+00   -1.244E+00   -1.232E+00   -1.220E+00
    -1.208E+00   -1.195E+00   -1.183E+00   -1.170E+00   -1.158E+00   -1.145E+00   -1.132E+00   -1.119E+00   -1.106E+00   -1.092E+00
    -1.079E+00   -1.066E+00   -1.052E+00   -1.038E+00   -1.024E+00   -1.010E+00   -9.960E-01   -9.817E-01   -9.673E-01   -9.528E-01
    -9.382E-01   -9.235E-01   -9.086E-01   -8.937E-01   -8.786E-01   -8.634E-01   -8.481E-01   -8.328E-01   -8.173E-01   -8.018E-01
    -7.862E-01   -7.705E-01   -7.548E-01   -7.391E-01   -7.233E-01   -7.074E-01   -6.916E-01   -6.757E-01   -6.598E-01   -6.439E-01
    -6.280E-01   -6.121E-01   -5.962E-01   -5.804E-01   -5.646E-01   -5.488E-01   -5.330E-01   -5.173E-01   -5.016E-01   -4.860E-01
    -4.705E-01   -4.551E-01   -4.397E-01   -4.244E-01   -4.092E-01   -3.941E-01   -3.791E-01   -3.643E-01   -3.495E-01   -3.349E-01
    -3.205E-01   -3.061E-01   -2.919E-01   -2.779E-01   -2.641E-01   -2.504E-01   -2.368E-01   -2.235E-01
 Ala      Conc. = 3.65E+01
