 LCModel (Version 6.3-1L) Copyright: S.W. Provencher.          Ref.: Magn. Reson. Med. 30:672-679 (1993).                
 Slice#1 Row#14 Col#12  PD_05_press_1_raw_act
 36 lines in following concentration table = NCONC+1
    Conc.  %SD /Cr+PCr  Metabolite                                         
    7.412  94%   1.188 Ala                                                 
    0.805 350%   0.129 Asp                                                 
    0.000 999%   0.000 Cr                                                  
    6.238  82%   1.000 PCr                                                 
    0.666 252%   0.107 GABA                                                
    0.735 231%   0.118 Glc                                                 
    0.000 999%   0.000 Gln                                                 
    0.000 999%   0.000 Glu                                                 
    2.564  80%   0.411 GPC                                                 
    0.000 999%   0.000 PCh                                                 
    7.147  87%   1.146 GSH                                                 
    0.000 999%   0.000 Ins                                                 
    0.000 999%   0.000 Lac                                                 
    9.614  73%   1.541 NAA                                                 
    0.000 999%   0.000 NAAG                                                
    0.176 312% 2.8E-02 Scyllo                                              
    1.044 268%   0.167 Tau                                                 
    0.763 362%   0.122 -CrCH2                                              
    2.564  80%   0.411 GPC+PCh                                             
    9.614  73%   1.541 NAA+NAAG                                            
    6.238  82%   1.000 Cr+PCr                                              
    0.000 999%   0.000 Glu+Gln                                             
  328.219  23%  52.618 Lip13a                                              
    0.000 999%   0.000 Lip13b                                              
   88.022  24%  14.111 Lip09                                               
   32.806  94%   5.259 MM09                                                
   48.718  25%   7.810 Lip20                                               
   49.203  94%   7.888 MM20                                                
    9.841  94%   1.578 MM12                                                
   24.618  94%   3.947 MM14                                                
   12.301  94%   1.972 MM17                                                
  328.219  23%  52.618 Lip13a+Lip13b                                       
  362.679  17%  58.143 MM14+Lip13a+Lip13b+MM12                             
  120.827  20%  19.370 MM09+Lip09                                          
   97.921  41%  15.698 MM20+Lip20                                          
   6 lines in following misc. output table
  FWHM = 0.031 ppm    S/N =   1                                            
  Data shift = 0.008 ppm                                                   
  Ph:  29 deg     -54.3 deg/ppm                                            
  alphaB,S = 8.5E+01,   3.2E+00                                            
   14 spline knots.   Ns = 5(1)                                            
   2 inflections.     2 extrema                                            
  498 points on ppm-axis = NY
      4.000000     3.992357     3.984714     3.977070     3.969427     3.961784     3.954141     3.946497     3.938854     3.931211
      3.923568     3.915925     3.908281     3.900638     3.892995     3.885352     3.877708     3.870065     3.862422     3.854779
      3.847136     3.839492     3.831849     3.824206     3.816563     3.808919     3.801276     3.793633     3.785990     3.778347
      3.770703     3.763060     3.755417     3.747774     3.740130     3.732487     3.724844     3.717201     3.709558     3.701914
      3.694271     3.686628     3.678985     3.671341     3.663698     3.656055     3.648412     3.640769     3.633125     3.625482
      3.617839     3.610196     3.602552     3.594909     3.587266     3.579623     3.571980     3.564336     3.556693     3.549050
      3.541407     3.533763     3.526120     3.518477     3.510834     3.503191     3.495547     3.487904     3.480261     3.472618
      3.464974     3.457331     3.449688     3.442045     3.434402     3.426758     3.419115     3.411472     3.403829     3.396185
      3.388542     3.380899     3.373256     3.365613     3.357969     3.350326     3.342683     3.335040     3.327396     3.319753
      3.312110     3.304467     3.296824     3.289180     3.281537     3.273894     3.266251     3.258607     3.250964     3.243321
      3.235678     3.228034     3.220391     3.212748     3.205105     3.197462     3.189818     3.182175     3.174532     3.166889
      3.159245     3.151602     3.143959     3.136316     3.128673     3.121029     3.113386     3.105743     3.098100     3.090456
      3.082813     3.075170     3.067527     3.059884     3.052240     3.044597     3.036954     3.029311     3.021667     3.014024
      3.006381     2.998738     2.991095     2.983451     2.975808     2.968165     2.960522     2.952878     2.945235     2.937592
      2.929949     2.922306     2.914662     2.907019     2.899376     2.891733     2.884089     2.876446     2.868803     2.861160
      2.853517     2.845873     2.838230     2.830587     2.822944     2.815300     2.807657     2.800014     2.792371     2.784728
      2.777084     2.769441     2.761798     2.754155     2.746511     2.738868     2.731225     2.723582     2.715939     2.708295
      2.700652     2.693009     2.685366     2.677722     2.670079     2.662436     2.654793     2.647150     2.639506     2.631863
      2.624220     2.616577     2.608933     2.601290     2.593647     2.586004     2.578361     2.570717     2.563074     2.555431
      2.547788     2.540144     2.532501     2.524858     2.517215     2.509572     2.501928     2.494285     2.486642     2.478999
      2.471355     2.463712     2.456069     2.448426     2.440783     2.433139     2.425496     2.417853     2.410210     2.402566
      2.394923     2.387280     2.379637     2.371994     2.364350     2.356707     2.349064     2.341421     2.333777     2.326134
      2.318491     2.310848     2.303205     2.295561     2.287918     2.280275     2.272632     2.264988     2.257345     2.249702
      2.242059     2.234416     2.226772     2.219129     2.211486     2.203843     2.196199     2.188556     2.180913     2.173270
      2.165627     2.157983     2.150340     2.142697     2.135054     2.127410     2.119767     2.112124     2.104481     2.096838
      2.089194     2.081551     2.073908     2.066265     2.058621     2.050978     2.043335     2.035692     2.028049     2.020405
      2.012762     2.005119     1.997476     1.989833     1.982190     1.974546     1.966903     1.959260     1.951617     1.943974
      1.936331     1.928688     1.921045     1.913402     1.905759     1.898115     1.890472     1.882829     1.875186     1.867543
      1.859900     1.852257     1.844614     1.836971     1.829327     1.821684     1.814041     1.806398     1.798755     1.791112
      1.783469     1.775826     1.768183     1.760540     1.752896     1.745253     1.737610     1.729967     1.722324     1.714681
      1.707038     1.699395     1.691752     1.684108     1.676465     1.668822     1.661179     1.653536     1.645893     1.638250
      1.630607     1.622964     1.615321     1.607677     1.600034     1.592391     1.584748     1.577105     1.569462     1.561819
      1.554176     1.546533     1.538890     1.531246     1.523603     1.515960     1.508317     1.500674     1.493031     1.485388
      1.477745     1.470102     1.462458     1.454815     1.447172     1.439529     1.431886     1.424243     1.416600     1.408957
      1.401314     1.393671     1.386027     1.378384     1.370741     1.363098     1.355455     1.347812     1.340169     1.332526
      1.324883     1.317240     1.309596     1.301953     1.294310     1.286667     1.279024     1.271381     1.263738     1.256095
      1.248452     1.240808     1.233165     1.225522     1.217879     1.210236     1.202593     1.194950     1.187307     1.179664
      1.172021     1.164377     1.156734     1.149091     1.141448     1.133805     1.126162     1.118519     1.110876     1.103233
      1.095590     1.087946     1.080303     1.072660     1.065017     1.057374     1.049731     1.042088     1.034445     1.026802
      1.019158     1.011515     1.003872     0.996229     0.988586     0.980943     0.973300     0.965657     0.958014     0.950371
      0.942727     0.935084     0.927441     0.919798     0.912155     0.904512     0.896869     0.889226     0.881583     0.873940
      0.866296     0.858653     0.851010     0.843367     0.835724     0.828081     0.820438     0.812795     0.805152     0.797508
      0.789865     0.782222     0.774579     0.766936     0.759293     0.751650     0.744007     0.736364     0.728721     0.721077
      0.713434     0.705791     0.698148     0.690505     0.682862     0.675219     0.667576     0.659933     0.652290     0.644646
      0.637003     0.629360     0.621717     0.614074     0.606431     0.598788     0.591145     0.583502     0.575858     0.568215
      0.560572     0.552929     0.545286     0.537643     0.530000     0.522357     0.514714     0.507071     0.499427     0.491784
      0.484141     0.476498     0.468855     0.461212     0.453569     0.445925     0.438282     0.430639     0.422996     0.415353
      0.407710     0.400067     0.392424     0.384780     0.377137     0.369494     0.361851     0.354208     0.346565     0.338922
      0.331278     0.323635     0.315992     0.308349     0.300706     0.293063     0.285420     0.277777     0.270133     0.262490
      0.254847     0.247204     0.239561     0.231918     0.224275     0.216631     0.208988     0.201345
 NY phased data points follow
  -7.83987E-01 -1.01849E+00 -3.36338E-01 -1.35480E+00 -6.05506E-01 -4.63959E-01 -6.86193E-01 -4.20547E-01 -3.26926E-01 -1.03202E+00
  -7.27296E-02 -3.75755E-01  4.71876E-01 -3.31927E-01 -4.96138E-01 -2.96984E-01 -1.85998E+00 -2.03549E+00 -9.58299E-01 -8.46190E-01
  -1.29743E+00  5.29655E-01 -2.10034E-01  1.01716E+00 -7.88725E-01  2.55828E-01  2.80829E-01 -2.10386E+00 -1.21502E+00 -1.85393E-01
  -1.33312E+00 -6.28750E-01 -4.99962E-01 -3.00849E-01 -8.47014E-02  1.12941E-01 -3.62359E-02 -7.66894E-01  1.46627E-01 -3.76663E-01
   5.55719E-01 -6.93232E-01 -2.45415E-01 -5.31126E-01  9.06258E-02  6.23322E-01 -2.54702E-01 -5.03138E-01 -4.65494E-01 -1.55940E-01
  -1.52461E+00 -1.52038E+00 -1.90760E-01  3.46130E-02 -1.69492E-01  4.38276E-01  5.06799E-01 -1.47733E+00  7.15390E-01 -8.86845E-01
  -3.15049E-01  8.87422E-01 -1.53687E+00  5.74008E-01 -1.06998E+00 -7.30081E-02  3.93142E-01 -9.58037E-01 -5.12577E-01 -1.08884E+00
  -4.80412E-01  8.74998E-01 -1.17039E+00  2.73614E-01 -1.44072E+00 -1.23326E-03 -7.68543E-01 -1.20366E+00 -1.21285E+00  4.87156E-01
  -2.89084E-01 -3.90025E-01  1.03914E-01 -8.74784E-01  1.05836E-01 -9.00832E-01 -4.97850E-02 -1.66643E+00  9.32456E-01 -1.67764E-01
  -8.76035E-01 -1.37186E+00 -4.29280E-01 -7.86121E-01 -5.70630E-01 -4.77513E-01 -1.54370E+00 -1.09095E+00 -3.23481E-01 -1.17552E+00
  -5.91165E-01 -2.11213E-01 -2.50846E-01 -2.76646E-01  1.00253E-01  1.25068E+00 -1.58452E-02  1.13589E-02  3.61824E-01 -6.34179E-01
   4.42519E-01 -3.83596E-01 -6.63718E-01  7.55363E-01 -3.82626E-01 -1.22681E+00  2.27225E-01  6.19869E-01  6.98835E-01 -2.84411E-01
   7.22656E-01 -7.54064E-01 -1.17722E+00 -1.76589E-01 -2.10832E+00 -2.29419E-01  2.73445E-01 -7.71049E-01 -6.98433E-01 -1.06723E-01
  -1.03229E-01  1.49284E+00 -1.32721E-01  8.41770E-01  9.09843E-01  1.24333E+00 -4.45645E-01  1.15031E-01 -2.19030E+00 -5.43361E-01
  -1.40168E+00  1.63876E-01 -1.27036E+00  1.37849E-01  6.35485E-01 -6.58752E-01  4.04652E-01  1.29742E-01 -1.66339E+00 -1.13985E+00
  -1.61238E-01 -5.03987E-01 -1.68146E+00  3.90261E-01  7.67224E-01 -8.60263E-01  3.00587E-01 -1.21961E+00  2.05280E-01 -1.83903E-01
   3.37849E-01 -4.66385E-01  7.31892E-01 -1.30123E+00 -5.71501E-02  1.59780E-02 -4.92308E-01 -1.50866E-01 -9.84564E-01 -1.74741E+00
  -6.01424E-01  3.36361E-01 -1.41848E-01 -9.59583E-01  6.14135E-01  1.01285E+00 -2.47610E-01  6.95881E-01 -7.17836E-01  3.44763E-01
  -6.67608E-02  1.96143E-01  2.45646E-01  4.31525E-02  1.69286E+00 -2.53288E+00 -1.03854E-01  8.82875E-01 -4.08419E-01 -1.03059E-01
  -1.24230E-02 -2.43273E-01 -1.26148E+00 -2.13590E-01  2.97163E-01 -1.60085E+00 -1.06620E-01  3.43810E-01 -3.79563E-01 -1.08655E+00
  -2.38077E-01 -2.01866E-01 -7.47542E-01  3.37998E-01 -1.01990E-01 -5.19160E-01 -5.07768E-01 -5.81602E-01 -1.09553E+00 -1.53786E+00
   1.00936E+00  2.75422E-01  1.36119E+00  8.40266E-02  6.89440E-01 -6.97785E-01 -2.44618E-01  1.43247E+00 -6.12161E-01 -5.15203E-01
  -5.79638E-01  1.56969E+00  5.64617E-01  1.19901E+00 -9.81789E-01 -1.22519E+00  1.11391E+00  7.01204E-01 -4.59468E-01  8.39261E-01
   3.57735E-01  2.54455E-01  2.57165E-01  6.72016E-01  8.51427E-01 -1.23919E-01  6.97954E-02 -7.20154E-01  3.72791E-01 -5.22251E-01
  -1.61825E+00 -1.13315E-01  8.02289E-01 -2.21635E-02 -7.51556E-01 -1.26381E+00 -7.24662E-01  3.48898E-01  1.09408E+00 -2.12931E-01
  -1.02554E+00  4.35045E-01 -5.28884E-01  4.67552E-01  1.23533E-01 -2.65353E+00  4.93460E-01 -7.73776E-01 -1.18077E+00 -1.32154E+00
   6.92947E-01  5.44332E-01  2.03527E-01  1.29905E+00  1.01443E+00  5.25546E-01  9.08934E-01 -3.23784E-01  1.06333E-01  1.19783E+00
   7.05501E-01  1.02003E+00  6.34058E-01 -4.56858E-01  3.45245E-01  3.35032E-01 -1.20789E-01 -2.96296E-01 -4.61698E-01 -2.50873E-01
   5.12892E-01 -8.38812E-01 -4.97212E-01 -1.13960E+00 -8.73369E-01 -7.00923E-01  4.91903E-01 -1.00454E+00 -2.24786E-01 -8.35484E-02
   6.03804E-01 -4.47002E-01 -9.23856E-01 -4.71677E-01 -1.41456E+00  9.03257E-01  1.60862E-01  4.01896E-01  6.83045E-03  8.24145E-02
  -2.36190E-01  6.39904E-01  3.22462E-01  4.31089E-01 -7.18499E-01  4.02977E-01 -4.63578E-01  1.93150E-01  2.75732E-01  4.39290E-01
  -6.78815E-01  3.97753E-01  2.00265E-01  4.80161E-01 -1.12925E-01 -4.86358E-01 -1.09481E-01  4.97177E-01  4.60418E-01  9.84231E-01
   1.05314E+00  7.44147E-01  2.38933E+00  1.44272E+00  9.69565E-01  1.78337E+00  1.00202E+00  1.99168E+00  1.51046E+00  1.83224E+00
   1.43511E+00  2.07965E+00  1.60294E+00  8.13679E-01  6.29237E-01  1.64389E+00  2.69274E+00  2.27330E+00  3.34354E+00  1.80127E+00
   1.71517E+00  3.13961E+00  1.32703E+00  1.19603E+00  1.23091E+00  1.50900E+00  1.51922E+00 -2.19471E-01  9.12029E-01  8.74872E-01
   1.83719E+00  6.47799E-01  1.36247E+00  1.13856E+00  2.73763E-01  1.18540E+00  9.12662E-01  1.22982E+00  6.67145E-01  4.19119E-02
   1.17535E+00  1.88657E+00  1.16547E-01  7.93472E-01  1.58857E+00  6.47603E-01 -5.63031E-01 -5.07041E-02  2.63898E-01  2.28787E+00
   1.02264E+00  9.52789E-01  4.47397E-01 -7.44506E-01  1.30491E+00 -5.25437E-01  1.04778E+00  1.83083E-01  1.37084E+00  1.48102E+00
   5.75950E-01 -3.30288E-02  8.03186E-01  1.54005E+00  1.13114E-01 -1.24766E-01 -2.52538E-01  1.66588E+00  2.11759E+00  1.34191E+00
   1.78326E+00  1.59284E+00  8.51575E-01  1.87137E+00  2.05814E+00  6.14354E-01 -1.00013E-01  9.78094E-01  1.56896E+00  8.66544E-01
   2.92385E+00  1.79292E+00  2.19493E+00  8.29967E-01  5.52537E-01  1.52337E+00 -1.67569E-01  1.09462E+00  1.32934E+00  1.35191E+00
  -4.02935E-01  9.90953E-01  2.00508E+00  2.23076E+00  2.31454E+00  5.78578E-01 -1.09533E-01  1.87528E+00  2.95208E-01 -1.60522E-01
   5.95556E-01  3.38772E-01  1.89651E+00  9.88765E-01 -2.23141E-01  1.14748E+00  1.68057E+00 -4.02273E-01  6.87625E-01  4.31672E-01
   1.22074E-01  8.42653E-02  5.99785E-01 -1.39486E-01  6.53604E-01  1.29450E+00  3.73315E-01  4.50107E-01  2.56211E-01  7.50235E-01
  -7.95547E-01  9.68290E-01  1.58788E-01 -1.75457E-01 -2.37079E-01  1.11163E+00  4.06165E-01  3.66472E-01  1.94418E+00  1.22887E+00
  -5.18628E-01  2.38118E-01  9.25901E-01  1.77196E+00  8.71085E-01 -1.10006E-01  1.44667E+00 -8.72366E-01  1.07404E+00 -5.10297E-01
  -2.07207E-01  1.39291E-01  1.22428E+00  7.36281E-01 -9.37254E-01  9.49512E-01 -3.11428E-01  3.74245E-02  1.57018E+00  2.22695E-01
   2.86191E-01  2.43539E-01  8.82560E-01  2.04168E-01 -7.08894E-01  1.30795E-01  9.43714E-01  1.34315E+00  5.06870E-01 -9.46979E-03
   4.89169E-01  3.78411E-01  4.24152E-02  9.79961E-01  1.23514E+00  5.67776E-02 -1.45433E-01  1.61229E+00  1.51664E+00  7.93153E-01
  -1.54150E-02  9.71499E-01  2.34912E-02 -1.31623E-01 -2.01821E-01  6.61890E-01 -1.77736E-01 -8.10646E-01
 NY points of the fit to the data follow
  -6.06230E-01 -6.09449E-01 -6.15270E-01 -6.30376E-01 -6.82763E-01 -7.59424E-01 -8.03097E-01 -7.63377E-01 -6.37942E-01 -4.76140E-01
  -3.27289E-01 -2.22605E-01 -1.84542E-01 -2.17996E-01 -3.12078E-01 -4.29695E-01 -5.02048E-01 -5.31002E-01 -5.53733E-01 -5.67917E-01
  -5.70477E-01 -5.54097E-01 -5.19362E-01 -4.78603E-01 -4.64741E-01 -5.44724E-01 -7.01872E-01 -8.31468E-01 -8.41737E-01 -7.13199E-01
  -5.07777E-01 -2.91315E-01 -1.08270E-01 -2.00750E-02 -6.02501E-02 -2.04946E-01 -3.77157E-01 -4.60915E-01 -4.66727E-01 -4.72700E-01
  -4.76957E-01 -4.75216E-01 -4.77344E-01 -4.87534E-01 -4.94840E-01 -4.92816E-01 -4.85884E-01 -4.83466E-01 -4.87364E-01 -4.88148E-01
  -4.81628E-01 -4.73620E-01 -4.66126E-01 -4.55230E-01 -4.45811E-01 -4.44508E-01 -4.49103E-01 -4.52670E-01 -4.54955E-01 -4.56696E-01
  -4.58625E-01 -4.60478E-01 -4.61118E-01 -4.59795E-01 -4.57191E-01 -4.53432E-01 -4.48769E-01 -4.43985E-01 -4.40252E-01 -4.38742E-01
  -4.40889E-01 -4.46673E-01 -4.52366E-01 -4.52551E-01 -4.44442E-01 -4.31020E-01 -4.16054E-01 -4.05068E-01 -4.01350E-01 -4.04447E-01
  -4.12588E-01 -4.25674E-01 -4.37762E-01 -4.40864E-01 -4.32916E-01 -4.15950E-01 -3.96530E-01 -3.81057E-01 -3.71102E-01 -3.65187E-01
  -3.63301E-01 -3.66698E-01 -3.74644E-01 -3.82657E-01 -3.91702E-01 -4.03760E-01 -4.20639E-01 -4.72996E-01 -6.18765E-01 -7.83785E-01
  -8.42619E-01 -7.04584E-01 -4.10226E-01 -7.69051E-02  2.06354E-01  3.85426E-01  4.17686E-01  2.91415E-01  4.67053E-02 -1.93834E-01
  -2.89826E-01 -3.09792E-01 -3.15380E-01 -3.17389E-01 -3.17852E-01 -3.14468E-01 -3.07864E-01 -3.00429E-01 -2.95064E-01 -2.94643E-01
  -3.03814E-01 -3.42266E-01 -4.59857E-01 -6.10855E-01 -6.88462E-01 -6.05409E-01 -3.76267E-01 -9.86175E-02  1.41278E-01  2.91319E-01
   3.30798E-01  2.71037E-01  1.45254E-01  1.76710E-02 -2.18979E-02 -3.28883E-02 -8.40776E-02 -1.80157E-01 -2.88800E-01 -3.71210E-01
  -3.91088E-01 -3.39017E-01 -2.52976E-01 -1.71361E-01 -1.13920E-01 -9.31335E-02 -1.02864E-01 -1.23289E-01 -1.44070E-01 -1.51491E-01
  -1.52006E-01 -1.52041E-01 -1.55340E-01 -1.62348E-01 -1.71293E-01 -1.77631E-01 -1.74785E-01 -1.64274E-01 -1.53308E-01 -1.49152E-01
  -1.56107E-01 -1.69294E-01 -1.81631E-01 -1.86690E-01 -1.82449E-01 -1.72575E-01 -1.60398E-01 -1.50523E-01 -1.50133E-01 -1.58244E-01
  -1.67697E-01 -1.70609E-01 -1.63446E-01 -1.58175E-01 -1.63280E-01 -1.76337E-01 -1.87428E-01 -1.91657E-01 -1.91883E-01 -1.92526E-01
  -1.90929E-01 -1.82547E-01 -1.69661E-01 -1.64655E-01 -1.77087E-01 -2.04352E-01 -2.42556E-01 -2.81422E-01 -3.06438E-01 -2.98933E-01
  -2.50729E-01 -1.71402E-01 -8.44932E-02 -7.78976E-03  3.34561E-02  2.08185E-02 -4.25915E-02 -1.28289E-01 -2.00064E-01 -2.41915E-01
  -2.52605E-01 -2.34585E-01 -1.90157E-01 -1.31201E-01 -8.01683E-02 -5.90027E-02 -5.40247E-02 -4.92889E-02 -4.22718E-02 -3.57444E-02
  -3.09705E-02 -2.79059E-02 -3.07913E-02 -3.92326E-02 -4.99595E-02 -5.86230E-02 -6.05758E-02 -5.40371E-02 -4.02413E-02 -2.34886E-02
  -1.00170E-02  1.46461E-03  1.40351E-02  2.87626E-02  4.48571E-02  6.18922E-02  8.35566E-02  1.12266E-01  1.36648E-01  1.40998E-01
   1.18404E-01  7.71269E-02  2.99243E-02 -1.27702E-02 -2.58809E-02  1.47595E-02  1.09649E-01  2.26697E-01  3.19086E-01  3.58981E-01
   3.48003E-01  2.90056E-01  2.00389E-01  1.12106E-01  6.65559E-02  8.36352E-02  1.38623E-01  2.05872E-01  2.72999E-01  3.29239E-01
   3.61544E-01  3.61918E-01  3.38999E-01  3.10099E-01  2.67268E-01  1.42497E-01 -8.78877E-02 -2.82010E-01 -2.83675E-01 -3.25200E-02
   3.65379E-01  7.65138E-01  1.07439E+00  1.22706E+00  1.17925E+00  9.41745E-01  5.99158E-01  3.42813E-01  2.60759E-01  2.30403E-01
   2.10073E-01  1.93676E-01  1.79915E-01  1.68906E-01  1.61132E-01  1.56592E-01  1.54085E-01  1.52062E-01  1.50131E-01  1.47966E-01
   1.45076E-01  1.41361E-01  1.37180E-01  1.33650E-01  1.31724E-01  1.31372E-01  1.32478E-01  1.35167E-01  1.39106E-01  1.43858E-01
   1.49036E-01  1.54331E-01  1.59824E-01  1.65734E-01  1.72013E-01  1.78562E-01  1.85457E-01  1.92747E-01  2.00321E-01  2.08092E-01
   2.16041E-01  2.24032E-01  2.32003E-01  2.39892E-01  2.47653E-01  2.55255E-01  2.62705E-01  2.70040E-01  2.77316E-01  2.84601E-01
   2.91977E-01  2.99536E-01  3.07375E-01  3.15587E-01  3.24239E-01  3.33374E-01  3.42972E-01  3.52888E-01  3.62731E-01  3.71535E-01
   3.76699E-01  3.70215E-01  3.46796E-01  3.56894E-01  4.45399E-01  6.09547E-01  7.89473E-01  9.20122E-01  9.80435E-01  9.72029E-01
   8.62856E-01  6.52192E-01  4.11413E-01  2.61820E-01  2.87631E-01  4.24012E-01  6.06951E-01  8.12266E-01  1.00692E+00  1.15197E+00
   1.21481E+00  1.19430E+00  1.16598E+00  1.16942E+00  1.18673E+00  1.20911E+00  1.23305E+00  1.25673E+00  1.27899E+00  1.29902E+00
   1.31618E+00  1.32999E+00  1.34007E+00  1.34613E+00  1.34798E+00  1.34553E+00  1.33877E+00  1.32779E+00  1.31276E+00  1.29392E+00
   1.27158E+00  1.24613E+00  1.21796E+00  1.18755E+00  1.15536E+00  1.12186E+00  1.08755E+00  1.05288E+00  1.01829E+00  9.84213E-01
   9.51026E-01  9.19079E-01  8.88685E-01  8.60122E-01  8.33639E-01  8.09455E-01  7.87762E-01  7.68733E-01  7.52525E-01  7.39285E-01
   7.29156E-01  7.22273E-01  7.18768E-01  7.18765E-01  7.22382E-01  7.29722E-01  7.40864E-01  7.55852E-01  7.74679E-01  7.97274E-01
   8.23489E-01  8.53081E-01  8.85701E-01  9.20883E-01  9.58040E-01  9.96466E-01  1.03535E+00  1.07380E+00  1.11083E+00  1.14546E+00
   1.17669E+00  1.20357E+00  1.22525E+00  1.24102E+00  1.25032E+00  1.25278E+00  1.24826E+00  1.23683E+00  1.21877E+00  1.19456E+00
   1.16484E+00  1.13040E+00  1.09213E+00  1.05093E+00  1.00777E+00  9.63551E-01  9.19126E-01  8.75259E-01  8.32608E-01  7.91714E-01
   7.52998E-01  7.16758E-01  6.83185E-01  6.52369E-01  6.24321E-01  5.98981E-01  5.76238E-01  5.55940E-01  5.37911E-01  5.21963E-01
   5.07905E-01  4.95546E-01  4.84706E-01  4.75213E-01  4.66911E-01  4.59658E-01  4.53330E-01  4.47814E-01  4.43013E-01  4.38838E-01
   4.35215E-01  4.32079E-01  4.29376E-01  4.27057E-01  4.25077E-01  4.23400E-01  4.21995E-01  4.20834E-01  4.19895E-01  4.19156E-01
   4.18596E-01  4.18200E-01  4.17953E-01  4.17844E-01  4.17861E-01  4.17992E-01  4.18229E-01  4.18564E-01  4.18989E-01  4.19500E-01
   4.20090E-01  4.20751E-01  4.21479E-01  4.22270E-01  4.23120E-01  4.24026E-01  4.24984E-01  4.25990E-01  4.27040E-01  4.28134E-01
   4.29269E-01  4.30442E-01  4.31652E-01  4.32894E-01  4.34168E-01  4.35473E-01  4.36809E-01  4.38171E-01  4.39560E-01  4.40972E-01
   4.42407E-01  4.43866E-01  4.45348E-01  4.46849E-01  4.48369E-01  4.49906E-01  4.51462E-01  4.53036E-01  4.54627E-01  4.56233E-01
   4.57852E-01  4.59486E-01  4.61134E-01  4.62796E-01  4.64471E-01  4.66157E-01  4.67853E-01  4.69561E-01
 NY background values follow
    -6.043E-01   -6.022E-01   -6.001E-01   -5.980E-01   -5.959E-01   -5.937E-01   -5.916E-01   -5.895E-01   -5.874E-01   -5.853E-01
    -5.832E-01   -5.811E-01   -5.790E-01   -5.768E-01   -5.747E-01   -5.726E-01   -5.705E-01   -5.684E-01   -5.663E-01   -5.642E-01
    -5.621E-01   -5.599E-01   -5.578E-01   -5.557E-01   -5.536E-01   -5.515E-01   -5.494E-01   -5.473E-01   -5.452E-01   -5.430E-01
    -5.409E-01   -5.388E-01   -5.367E-01   -5.346E-01   -5.325E-01   -5.304E-01   -5.283E-01   -5.261E-01   -5.240E-01   -5.219E-01
    -5.198E-01   -5.177E-01   -5.156E-01   -5.135E-01   -5.114E-01   -5.092E-01   -5.071E-01   -5.050E-01   -5.029E-01   -5.008E-01
    -4.987E-01   -4.966E-01   -4.945E-01   -4.923E-01   -4.902E-01   -4.881E-01   -4.860E-01   -4.839E-01   -4.818E-01   -4.797E-01
    -4.776E-01   -4.755E-01   -4.733E-01   -4.712E-01   -4.691E-01   -4.670E-01   -4.649E-01   -4.628E-01   -4.607E-01   -4.586E-01
    -4.564E-01   -4.543E-01   -4.522E-01   -4.501E-01   -4.480E-01   -4.459E-01   -4.438E-01   -4.417E-01   -4.395E-01   -4.374E-01
    -4.353E-01   -4.332E-01   -4.311E-01   -4.290E-01   -4.269E-01   -4.248E-01   -4.226E-01   -4.205E-01   -4.184E-01   -4.163E-01
    -4.142E-01   -4.121E-01   -4.100E-01   -4.079E-01   -4.057E-01   -4.036E-01   -4.015E-01   -3.994E-01   -3.973E-01   -3.952E-01
    -3.931E-01   -3.910E-01   -3.888E-01   -3.867E-01   -3.846E-01   -3.825E-01   -3.804E-01   -3.783E-01   -3.762E-01   -3.741E-01
    -3.719E-01   -3.698E-01   -3.677E-01   -3.656E-01   -3.635E-01   -3.614E-01   -3.593E-01   -3.572E-01   -3.550E-01   -3.529E-01
    -3.508E-01   -3.487E-01   -3.466E-01   -3.445E-01   -3.424E-01   -3.403E-01   -3.381E-01   -3.360E-01   -3.339E-01   -3.318E-01
    -3.297E-01   -3.276E-01   -3.255E-01   -3.234E-01   -3.212E-01   -3.191E-01   -3.170E-01   -3.149E-01   -3.128E-01   -3.107E-01
    -3.086E-01   -3.065E-01   -3.043E-01   -3.022E-01   -3.001E-01   -2.980E-01   -2.959E-01   -2.938E-01   -2.917E-01   -2.896E-01
    -2.874E-01   -2.853E-01   -2.832E-01   -2.811E-01   -2.790E-01   -2.769E-01   -2.748E-01   -2.727E-01   -2.705E-01   -2.684E-01
    -2.663E-01   -2.642E-01   -2.621E-01   -2.600E-01   -2.579E-01   -2.558E-01   -2.536E-01   -2.515E-01   -2.494E-01   -2.473E-01
    -2.452E-01   -2.431E-01   -2.410E-01   -2.389E-01   -2.367E-01   -2.346E-01   -2.325E-01   -2.304E-01   -2.283E-01   -2.262E-01
    -2.241E-01   -2.220E-01   -2.198E-01   -2.177E-01   -2.156E-01   -2.135E-01   -2.114E-01   -2.093E-01   -2.072E-01   -2.051E-01
    -2.029E-01   -2.008E-01   -1.987E-01   -1.966E-01   -1.945E-01   -1.924E-01   -1.903E-01   -1.882E-01   -1.860E-01   -1.839E-01
    -1.818E-01   -1.797E-01   -1.776E-01   -1.755E-01   -1.734E-01   -1.713E-01   -1.691E-01   -1.670E-01   -1.649E-01   -1.628E-01
    -1.607E-01   -1.586E-01   -1.565E-01   -1.544E-01   -1.522E-01   -1.501E-01   -1.480E-01   -1.459E-01   -1.438E-01   -1.417E-01
    -1.396E-01   -1.375E-01   -1.353E-01   -1.332E-01   -1.311E-01   -1.290E-01   -1.269E-01   -1.248E-01   -1.227E-01   -1.206E-01
    -1.184E-01   -1.163E-01   -1.142E-01   -1.121E-01   -1.100E-01   -1.079E-01   -1.058E-01   -1.037E-01   -1.015E-01   -9.943E-02
    -9.732E-02   -9.521E-02   -9.310E-02   -9.098E-02   -8.887E-02   -8.676E-02   -8.465E-02   -8.253E-02   -8.042E-02   -7.831E-02
    -7.619E-02   -7.408E-02   -7.197E-02   -6.986E-02   -6.774E-02   -6.563E-02   -6.352E-02   -6.141E-02   -5.929E-02   -5.718E-02
    -5.507E-02   -5.296E-02   -5.084E-02   -4.873E-02   -4.662E-02   -4.451E-02   -4.239E-02   -4.028E-02   -3.817E-02   -3.606E-02
    -3.394E-02   -3.183E-02   -2.972E-02   -2.761E-02   -2.549E-02   -2.338E-02   -2.127E-02   -1.916E-02   -1.704E-02   -1.493E-02
    -1.282E-02   -1.071E-02   -8.593E-03   -6.480E-03   -4.368E-03   -2.255E-03   -1.428E-04    1.970E-03    4.082E-03    6.195E-03
     8.308E-03    1.042E-02    1.253E-02    1.465E-02    1.676E-02    1.887E-02    2.098E-02    2.310E-02    2.521E-02    2.732E-02
     2.943E-02    3.155E-02    3.366E-02    3.577E-02    3.788E-02    4.000E-02    4.211E-02    4.422E-02    4.633E-02    4.845E-02
     5.056E-02    5.267E-02    5.478E-02    5.690E-02    5.901E-02    6.112E-02    6.323E-02    6.535E-02    6.746E-02    6.957E-02
     7.169E-02    7.380E-02    7.591E-02    7.802E-02    8.014E-02    8.225E-02    8.436E-02    8.647E-02    8.859E-02    9.070E-02
     9.281E-02    9.492E-02    9.704E-02    9.915E-02    1.013E-01    1.034E-01    1.055E-01    1.076E-01    1.097E-01    1.118E-01
     1.139E-01    1.160E-01    1.182E-01    1.203E-01    1.224E-01    1.245E-01    1.266E-01    1.287E-01    1.308E-01    1.329E-01
     1.351E-01    1.372E-01    1.393E-01    1.414E-01    1.435E-01    1.456E-01    1.477E-01    1.499E-01    1.520E-01    1.541E-01
     1.562E-01    1.583E-01    1.604E-01    1.625E-01    1.646E-01    1.668E-01    1.689E-01    1.710E-01    1.731E-01    1.752E-01
     1.773E-01    1.794E-01    1.815E-01    1.837E-01    1.858E-01    1.879E-01    1.900E-01    1.921E-01    1.942E-01    1.963E-01
     1.984E-01    2.006E-01    2.027E-01    2.048E-01    2.069E-01    2.090E-01    2.111E-01    2.132E-01    2.153E-01    2.175E-01
     2.196E-01    2.217E-01    2.238E-01    2.259E-01    2.280E-01    2.301E-01    2.322E-01    2.344E-01    2.365E-01    2.386E-01
     2.407E-01    2.428E-01    2.449E-01    2.470E-01    2.491E-01    2.513E-01    2.534E-01    2.555E-01    2.576E-01    2.597E-01
     2.618E-01    2.639E-01    2.660E-01    2.682E-01    2.703E-01    2.724E-01    2.745E-01    2.766E-01    2.787E-01    2.808E-01
     2.829E-01    2.851E-01    2.872E-01    2.893E-01    2.914E-01    2.935E-01    2.956E-01    2.977E-01    2.998E-01    3.020E-01
     3.041E-01    3.062E-01    3.083E-01    3.104E-01    3.125E-01    3.146E-01    3.167E-01    3.189E-01    3.210E-01    3.231E-01
     3.252E-01    3.273E-01    3.294E-01    3.315E-01    3.336E-01    3.358E-01    3.379E-01    3.400E-01    3.421E-01    3.442E-01
     3.463E-01    3.484E-01    3.505E-01    3.527E-01    3.548E-01    3.569E-01    3.590E-01    3.611E-01    3.632E-01    3.653E-01
     3.674E-01    3.696E-01    3.717E-01    3.738E-01    3.759E-01    3.780E-01    3.801E-01    3.822E-01    3.843E-01    3.865E-01
     3.886E-01    3.907E-01    3.928E-01    3.949E-01    3.970E-01    3.991E-01    4.012E-01    4.034E-01    4.055E-01    4.076E-01
     4.097E-01    4.118E-01    4.139E-01    4.160E-01    4.181E-01    4.203E-01    4.224E-01    4.245E-01    4.266E-01    4.287E-01
     4.308E-01    4.329E-01    4.350E-01    4.372E-01    4.393E-01    4.414E-01    4.435E-01    4.456E-01
 Ala      Conc. = 7.41E+00
