 LCModel (Version 6.3-1L) Copyright: S.W. Provencher.          Ref.: Magn. Reson. Med. 30:672-679 (1993).                
 Slice#1 Row#13 Col#6  PD_05_press_1_raw_act
 36 lines in following concentration table = NCONC+1
    Conc.  %SD /Cr+PCr  Metabolite                                         
  144.396  51%   0.411 Ala                                                 
    0.000 999%   0.000 Asp                                                 
  241.199  59%   0.687 Cr                                                  
  110.132 129%   0.313 PCr                                                 
   31.049 168% 8.8E-02 GABA                                                
   19.984 255% 5.7E-02 Glc                                                 
  300.763  57%   0.856 Gln                                                 
  367.222  53%   1.045 Glu                                                 
  109.800  68%   0.313 GPC                                                 
   16.669 454% 4.7E-02 PCh                                                 
  185.743  24%   0.529 GSH                                                 
  549.008  29%   1.563 Ins                                                 
  130.049  66%   0.370 Lac                                                 
  736.878   5%   2.097 NAA                                                 
    0.000 999%   0.000 NAAG                                                
   42.721  29%   0.122 Scyllo                                              
  143.633  55%   0.409 Tau                                                 
  423.275  15%   1.205 -CrCH2                                              
  126.470   9%   0.360 GPC+PCh                                             
  736.878   5%   2.097 NAA+NAAG                                            
  351.331   8%   1.000 Cr+PCr                                              
  667.986  47%   1.901 Glu+Gln                                             
  186.402  75%   0.531 Lip13a                                              
    0.000 999%   0.000 Lip13b                                              
   19.864 269% 5.7E-02 Lip09                                               
  374.392  22%   1.066 MM09                                                
   32.997 102% 9.4E-02 Lip20                                               
  681.303  21%   1.939 MM20                                                
  117.604  37%   0.335 MM12                                                
  481.286  21%   1.370 MM14                                                
  185.929  41%   0.529 MM17                                                
  186.402  75%   0.531 Lip13a+Lip13b                                       
  785.292  20%   2.235 MM14+Lip13a+Lip13b+MM12                             
  394.256  20%   1.122 MM09+Lip09                                          
  714.301  20%   2.033 MM20+Lip20                                          
   6 lines in following misc. output table
  FWHM = 0.069 ppm    S/N =   7                                            
  Data shift = 0.015 ppm                                                   
  Ph: -46 deg     -10.4 deg/ppm                                            
  alphaB,S = 9.5E-01,   1.0E+02                                            
   14 spline knots.   Ns = 9(1)                                            
  (16) 4 infls.   (13) 1 extrs.                                            
  498 points on ppm-axis = NY
      4.000000     3.992357     3.984714     3.977070     3.969427     3.961784     3.954141     3.946497     3.938854     3.931211
      3.923568     3.915925     3.908281     3.900638     3.892995     3.885352     3.877708     3.870065     3.862422     3.854779
      3.847136     3.839492     3.831849     3.824206     3.816563     3.808919     3.801276     3.793633     3.785990     3.778347
      3.770703     3.763060     3.755417     3.747774     3.740130     3.732487     3.724844     3.717201     3.709558     3.701914
      3.694271     3.686628     3.678985     3.671341     3.663698     3.656055     3.648412     3.640769     3.633125     3.625482
      3.617839     3.610196     3.602552     3.594909     3.587266     3.579623     3.571980     3.564336     3.556693     3.549050
      3.541407     3.533763     3.526120     3.518477     3.510834     3.503191     3.495547     3.487904     3.480261     3.472618
      3.464974     3.457331     3.449688     3.442045     3.434402     3.426758     3.419115     3.411472     3.403829     3.396185
      3.388542     3.380899     3.373256     3.365613     3.357969     3.350326     3.342683     3.335040     3.327396     3.319753
      3.312110     3.304467     3.296824     3.289180     3.281537     3.273894     3.266251     3.258607     3.250964     3.243321
      3.235678     3.228034     3.220391     3.212748     3.205105     3.197462     3.189818     3.182175     3.174532     3.166889
      3.159245     3.151602     3.143959     3.136316     3.128673     3.121029     3.113386     3.105743     3.098100     3.090456
      3.082813     3.075170     3.067527     3.059884     3.052240     3.044597     3.036954     3.029311     3.021667     3.014024
      3.006381     2.998738     2.991095     2.983451     2.975808     2.968165     2.960522     2.952878     2.945235     2.937592
      2.929949     2.922306     2.914662     2.907019     2.899376     2.891733     2.884089     2.876446     2.868803     2.861160
      2.853517     2.845873     2.838230     2.830587     2.822944     2.815300     2.807657     2.800014     2.792371     2.784728
      2.777084     2.769441     2.761798     2.754155     2.746511     2.738868     2.731225     2.723582     2.715939     2.708295
      2.700652     2.693009     2.685366     2.677722     2.670079     2.662436     2.654793     2.647150     2.639506     2.631863
      2.624220     2.616577     2.608933     2.601290     2.593647     2.586004     2.578361     2.570717     2.563074     2.555431
      2.547788     2.540144     2.532501     2.524858     2.517215     2.509572     2.501928     2.494285     2.486642     2.478999
      2.471355     2.463712     2.456069     2.448426     2.440783     2.433139     2.425496     2.417853     2.410210     2.402566
      2.394923     2.387280     2.379637     2.371994     2.364350     2.356707     2.349064     2.341421     2.333777     2.326134
      2.318491     2.310848     2.303205     2.295561     2.287918     2.280275     2.272632     2.264988     2.257345     2.249702
      2.242059     2.234416     2.226772     2.219129     2.211486     2.203843     2.196199     2.188556     2.180913     2.173270
      2.165627     2.157983     2.150340     2.142697     2.135054     2.127410     2.119767     2.112124     2.104481     2.096838
      2.089194     2.081551     2.073908     2.066265     2.058621     2.050978     2.043335     2.035692     2.028049     2.020405
      2.012762     2.005119     1.997476     1.989833     1.982190     1.974546     1.966903     1.959260     1.951617     1.943974
      1.936331     1.928688     1.921045     1.913402     1.905759     1.898115     1.890472     1.882829     1.875186     1.867543
      1.859900     1.852257     1.844614     1.836971     1.829327     1.821684     1.814041     1.806398     1.798755     1.791112
      1.783469     1.775826     1.768183     1.760540     1.752896     1.745253     1.737610     1.729967     1.722324     1.714681
      1.707038     1.699395     1.691752     1.684108     1.676465     1.668822     1.661179     1.653536     1.645893     1.638250
      1.630607     1.622964     1.615321     1.607677     1.600034     1.592391     1.584748     1.577105     1.569462     1.561819
      1.554176     1.546533     1.538890     1.531246     1.523603     1.515960     1.508317     1.500674     1.493031     1.485388
      1.477745     1.470102     1.462458     1.454815     1.447172     1.439529     1.431886     1.424243     1.416600     1.408957
      1.401314     1.393671     1.386027     1.378384     1.370741     1.363098     1.355455     1.347812     1.340169     1.332526
      1.324883     1.317240     1.309596     1.301953     1.294310     1.286667     1.279024     1.271381     1.263738     1.256095
      1.248452     1.240808     1.233165     1.225522     1.217879     1.210236     1.202593     1.194950     1.187307     1.179664
      1.172021     1.164377     1.156734     1.149091     1.141448     1.133805     1.126162     1.118519     1.110876     1.103233
      1.095590     1.087946     1.080303     1.072660     1.065017     1.057374     1.049731     1.042088     1.034445     1.026802
      1.019158     1.011515     1.003872     0.996229     0.988586     0.980943     0.973300     0.965657     0.958014     0.950371
      0.942727     0.935084     0.927441     0.919798     0.912155     0.904512     0.896869     0.889226     0.881583     0.873940
      0.866296     0.858653     0.851010     0.843367     0.835724     0.828081     0.820438     0.812795     0.805152     0.797508
      0.789865     0.782222     0.774579     0.766936     0.759293     0.751650     0.744007     0.736364     0.728721     0.721077
      0.713434     0.705791     0.698148     0.690505     0.682862     0.675219     0.667576     0.659933     0.652290     0.644646
      0.637003     0.629360     0.621717     0.614074     0.606431     0.598788     0.591145     0.583502     0.575858     0.568215
      0.560572     0.552929     0.545286     0.537643     0.530000     0.522357     0.514714     0.507071     0.499427     0.491784
      0.484141     0.476498     0.468855     0.461212     0.453569     0.445925     0.438282     0.430639     0.422996     0.415353
      0.407710     0.400067     0.392424     0.384780     0.377137     0.369494     0.361851     0.354208     0.346565     0.338922
      0.331278     0.323635     0.315992     0.308349     0.300706     0.293063     0.285420     0.277777     0.270133     0.262490
      0.254847     0.247204     0.239561     0.231918     0.224275     0.216631     0.208988     0.201345
 NY phased data points follow
  -4.54798E+01 -4.31891E+01 -4.31516E+01 -4.05997E+01 -3.99761E+01 -3.99356E+01 -4.02184E+01 -3.87469E+01 -3.75557E+01 -3.75476E+01
  -3.75661E+01 -3.57228E+01 -3.50868E+01 -3.61817E+01 -3.43963E+01 -3.60814E+01 -3.41312E+01 -3.47224E+01 -3.55701E+01 -3.49877E+01
  -3.54257E+01 -3.25361E+01 -3.21782E+01 -3.06556E+01 -3.04174E+01 -2.87994E+01 -3.14564E+01 -3.27909E+01 -3.21514E+01 -2.91872E+01
  -2.59201E+01 -2.77006E+01 -3.15947E+01 -2.67686E+01 -2.87925E+01 -2.60945E+01 -2.58762E+01 -2.66822E+01 -2.77777E+01 -2.75946E+01
  -2.69230E+01 -2.64953E+01 -2.51006E+01 -2.44591E+01 -2.43834E+01 -2.45227E+01 -2.34795E+01 -2.52601E+01 -2.45343E+01 -2.35499E+01
  -2.47273E+01 -2.58615E+01 -2.41498E+01 -2.26947E+01 -2.65951E+01 -2.53009E+01 -2.59698E+01 -2.20206E+01 -2.39031E+01 -2.20579E+01
  -2.43662E+01 -2.34652E+01 -2.43604E+01 -2.30037E+01 -2.23509E+01 -2.33952E+01 -2.32066E+01 -2.22845E+01 -2.27076E+01 -2.32346E+01
  -2.20540E+01 -2.19081E+01 -1.99620E+01 -1.97120E+01 -1.98536E+01 -2.17182E+01 -2.05936E+01 -2.26856E+01 -1.98760E+01 -1.83328E+01
  -1.98022E+01 -2.00886E+01 -1.67384E+01 -1.89441E+01 -1.72829E+01 -1.94488E+01 -1.56036E+01 -1.88001E+01 -1.93698E+01 -1.89145E+01
  -1.66213E+01 -1.52048E+01 -1.86992E+01 -1.72415E+01 -1.47788E+01 -1.31252E+01 -1.42884E+01 -1.21833E+01 -1.25816E+01 -1.21512E+01
  -8.58943E+00 -1.16260E+01 -6.93509E+00 -1.17838E+01 -8.91129E+00 -6.74685E+00 -1.05814E+01 -9.74814E+00 -1.14620E+01 -1.42359E+01
  -1.25164E+01 -1.38527E+01 -1.51900E+01 -1.22731E+01 -1.50614E+01 -1.30389E+01 -1.45707E+01 -1.16251E+01 -1.21990E+01 -1.20437E+01
  -9.84327E+00 -9.51849E+00 -1.06639E+01 -7.53736E+00 -5.76903E+00 -4.89529E+00 -6.07268E+00 -3.36212E+00 -5.68023E+00 -4.01458E+00
  -6.79221E+00 -7.12887E+00 -1.06590E+01 -8.62369E+00 -1.10472E+01 -1.06973E+01 -1.42151E+01 -1.02374E+01 -1.04276E+01 -1.15014E+01
  -1.05911E+01 -9.89232E+00 -1.00960E+01 -1.19420E+01 -1.00602E+01 -1.01745E+01 -1.10409E+01 -1.13178E+01 -1.19936E+01 -1.18164E+01
  -9.83691E+00 -1.11667E+01 -1.19971E+01 -1.15702E+01 -1.27721E+01 -1.14873E+01 -1.21299E+01 -9.78821E+00 -9.77951E+00 -9.37038E+00
  -1.09534E+01 -1.02002E+01 -1.04381E+01 -1.05348E+01 -1.06574E+01 -8.26231E+00 -1.10975E+01 -1.33153E+01 -1.18479E+01 -1.21223E+01
  -1.46634E+01 -1.18160E+01 -1.37346E+01 -1.17374E+01 -1.33497E+01 -1.15834E+01 -1.16981E+01 -1.42156E+01 -1.33113E+01 -1.20999E+01
  -1.19711E+01 -9.94674E+00 -1.16101E+01 -1.04121E+01 -1.26015E+01 -8.63299E+00 -9.31320E+00 -1.04254E+01 -9.64587E+00 -1.09098E+01
  -7.45581E+00 -1.04022E+01 -8.22734E+00 -8.70794E+00 -1.02947E+01 -1.07195E+01 -1.04409E+01 -1.01786E+01 -6.60414E+00 -1.29264E+01
  -9.15859E+00 -9.81769E+00 -8.85385E+00 -7.21160E+00 -1.00467E+01 -7.17041E+00 -6.14192E+00 -9.17658E+00 -9.20082E+00 -9.20826E+00
  -7.96657E+00 -9.38092E+00 -7.58559E+00 -6.16027E+00 -6.02609E+00 -6.27689E+00 -5.00109E+00 -6.95976E+00 -6.57581E+00 -6.13537E+00
  -6.76868E+00 -8.79886E+00 -7.42683E+00 -6.13316E+00 -4.66206E+00 -5.60953E+00 -7.16605E+00 -6.26868E+00 -3.78741E+00 -3.85851E+00
  -5.93227E+00 -3.31213E+00 -3.25693E+00 -4.99385E+00 -5.38862E+00 -3.41011E+00 -5.33531E+00 -4.62464E+00 -3.78220E+00 -5.02706E+00
  -4.35227E+00 -5.85941E+00 -6.97501E+00 -5.04612E+00 -7.76049E+00 -2.54068E+00 -2.93820E+00 -8.62447E-01 -3.82173E+00 -1.68019E+00
   1.16952E-01 -2.98935E+00  1.17539E+00  1.59727E+00  3.10637E+00  3.06872E+00  9.27036E+00  1.12931E+01  1.31589E+01  1.26066E+01
   1.58438E+01  1.64105E+01  1.32429E+01  1.08503E+01  6.04605E+00  2.95081E+00  1.74668E+00 -1.22607E+00 -1.41944E+00 -3.95424E+00
  -2.39616E+00 -1.56897E+00 -6.37432E+00 -4.83915E+00 -5.40920E+00 -4.28830E+00 -4.85231E+00 -4.55164E+00 -2.87575E+00 -2.82595E+00
  -5.88305E+00 -5.01215E+00 -3.85890E+00 -2.42817E+00 -4.61072E+00 -4.94073E+00 -5.60914E+00 -3.55098E+00 -4.90592E+00 -5.29252E+00
  -4.93645E+00 -2.17965E+00 -5.09825E+00 -7.13419E+00 -5.99503E+00 -4.55797E+00 -4.27572E+00 -3.89428E+00 -1.84792E+00 -2.27714E+00
  -2.69064E+00 -2.99655E+00 -4.94809E+00 -1.07851E+00 -3.03275E+00 -3.05439E+00 -3.63995E+00 -1.07462E+00 -2.53731E+00 -2.60760E+00
  -3.58246E+00 -1.36151E+00 -5.12092E+00 -3.85232E+00 -2.77590E+00 -3.42468E+00 -1.37465E+00 -3.03983E+00 -3.76162E+00 -1.20051E+00
  -1.52689E+00 -3.22066E+00 -4.36597E+00 -2.42280E+00 -1.92116E+00 -2.55253E+00 -3.19069E+00 -2.81346E+00 -1.84758E+00 -4.11922E+00
  -5.28250E-01 -1.93935E+00 -2.12234E+00 -1.52116E+00  7.41096E-01 -4.39815E-02  1.69605E+00  2.47495E+00  5.44498E-01 -2.80728E+00
   1.98651E+00  2.80642E+00 -2.39686E-01 -9.67700E-01 -1.23114E+00 -1.64849E+00  5.53968E-01 -4.07538E-01 -2.14704E+00 -1.42465E+00
  -3.59883E+00 -2.10937E-01 -3.09833E+00 -7.29775E-01 -2.20508E+00 -1.50795E+00 -2.91178E+00 -2.22653E+00 -1.82679E+00 -1.21644E+00
  -2.74423E+00 -2.19757E+00 -1.76828E+00 -2.22799E-01 -2.00275E+00  2.09467E-01 -1.32629E+00 -2.36295E-01 -2.34887E+00 -1.91460E+00
  -1.46863E+00 -4.43360E+00 -2.70458E+00 -1.47961E+00 -3.24740E+00 -3.58478E+00 -1.79536E+00 -8.11724E-01 -1.36795E+00 -3.01364E+00
  -4.28350E+00 -2.47037E+00 -2.96387E+00 -4.86615E+00 -2.17574E+00 -4.41797E+00 -3.37451E+00 -2.16760E+00 -3.68721E+00 -1.29322E+00
  -2.48635E+00 -2.51599E+00 -1.46265E+00 -1.73805E+00  2.01703E-01 -2.47773E-01 -9.41943E-01 -2.24951E+00 -1.12134E+00 -6.02309E-01
  -9.57024E-01 -1.64765E+00  3.55612E-02 -7.04797E-01 -2.26338E+00 -1.35741E+00 -4.00395E-01 -1.63078E-01 -2.79796E-01 -6.45493E-01
  -1.59170E+00 -5.60017E-01 -2.82783E+00 -3.07016E+00 -1.21472E+00 -1.07472E+00 -4.06849E+00 -7.89713E-01 -1.99742E+00 -2.48201E+00
  -2.45748E+00 -1.42497E-01 -9.02529E-01 -1.96245E+00 -1.15918E+00 -3.66296E-01 -4.57047E+00 -3.56032E+00 -4.96732E+00 -4.09970E+00
  -3.74848E-01 -2.59629E+00 -1.61973E+00 -3.22374E+00 -4.16180E-01 -2.66284E+00 -3.86178E+00 -2.61735E+00 -1.18607E+00 -6.75729E-01
  -1.95419E+00 -1.03396E+00 -2.64819E+00 -3.34627E+00 -3.11346E+00 -9.68222E-01 -1.64575E+00 -2.33579E+00 -1.50207E+00 -1.63459E+00
  -2.63354E+00 -3.84316E+00 -1.03420E+00 -5.91084E-01 -1.50218E+00 -1.56857E+00 -2.60519E+00 -3.80494E+00 -1.63246E+00 -6.09132E-01
  -3.14923E+00 -2.63473E+00 -2.52745E+00 -3.97492E+00 -3.24965E-01 -1.67386E+00 -2.81550E+00 -2.65371E+00 -2.71500E+00 -1.51733E+00
  -2.41697E+00 -9.83323E-01 -3.59554E+00 -3.26824E+00 -1.04325E+00 -3.02367E+00 -2.63606E+00 -6.64640E-01 -2.15251E+00 -2.05588E+00
  -2.66590E+00 -2.65114E+00  1.95347E-01 -1.14466E+00 -1.11225E+00  1.45165E-01 -1.62592E+00 -6.10477E-01 -4.93812E+00  1.84216E-01
  -9.78670E-01 -1.32110E+00  7.37979E-02 -1.15602E+00 -3.65417E-01 -5.12140E-01 -9.81863E-01 -1.33613E+00
 NY points of the fit to the data follow
  -3.98856E+01 -4.02287E+01 -4.01078E+01 -3.98889E+01 -3.98811E+01 -3.99616E+01 -3.98564E+01 -3.94869E+01 -3.89122E+01 -3.81180E+01
  -3.70894E+01 -3.59676E+01 -3.50168E+01 -3.44086E+01 -3.41089E+01 -3.39780E+01 -3.38708E+01 -3.37617E+01 -3.36268E+01 -3.35452E+01
  -3.34799E+01 -3.31721E+01 -3.26549E+01 -3.21353E+01 -3.16473E+01 -3.11145E+01 -3.05082E+01 -2.98706E+01 -2.92076E+01 -2.85185E+01
  -2.78970E+01 -2.74573E+01 -2.72945E+01 -2.73972E+01 -2.76726E+01 -2.80295E+01 -2.83722E+01 -2.85483E+01 -2.84257E+01 -2.80857E+01
  -2.77252E+01 -2.73393E+01 -2.68613E+01 -2.62923E+01 -2.57066E+01 -2.51911E+01 -2.47879E+01 -2.45382E+01 -2.45026E+01 -2.46748E+01
  -2.49371E+01 -2.51590E+01 -2.52699E+01 -2.52608E+01 -2.51462E+01 -2.49409E+01 -2.46826E+01 -2.43899E+01 -2.40590E+01 -2.37341E+01
  -2.34574E+01 -2.32689E+01 -2.31462E+01 -2.30308E+01 -2.29005E+01 -2.27431E+01 -2.25151E+01 -2.21974E+01 -2.18619E+01 -2.15661E+01
  -2.13064E+01 -2.10680E+01 -2.08469E+01 -2.06440E+01 -2.04730E+01 -2.03404E+01 -2.02319E+01 -2.00705E+01 -1.98490E+01 -1.96825E+01
  -1.95487E+01 -1.93631E+01 -1.90893E+01 -1.87712E+01 -1.84925E+01 -1.82972E+01 -1.81806E+01 -1.81255E+01 -1.81509E+01 -1.82135E+01
  -1.82335E+01 -1.81922E+01 -1.80781E+01 -1.77164E+01 -1.67521E+01 -1.55386E+01 -1.45307E+01 -1.36498E+01 -1.26059E+01 -1.13496E+01
  -1.00950E+01 -9.04386E+00 -8.27438E+00 -7.90780E+00 -8.11032E+00 -8.90316E+00 -1.00932E+01 -1.13559E+01 -1.24568E+01 -1.33132E+01
  -1.39323E+01 -1.43746E+01 -1.47000E+01 -1.49356E+01 -1.49888E+01 -1.49067E+01 -1.47321E+01 -1.42738E+01 -1.32133E+01 -1.20033E+01
  -1.10251E+01 -1.01343E+01 -9.05075E+00 -7.75588E+00 -6.46337E+00 -5.35578E+00 -4.57389E+00 -4.29870E+00 -4.65849E+00 -5.60080E+00
  -6.88009E+00 -8.17680E+00 -9.29611E+00 -1.01766E+01 -1.08689E+01 -1.14253E+01 -1.18680E+01 -1.21719E+01 -1.22100E+01 -1.20727E+01
  -1.18681E+01 -1.16567E+01 -1.14884E+01 -1.13886E+01 -1.13502E+01 -1.13449E+01 -1.13605E+01 -1.13809E+01 -1.13928E+01 -1.13984E+01
  -1.14006E+01 -1.13975E+01 -1.14173E+01 -1.14489E+01 -1.14574E+01 -1.14287E+01 -1.13642E+01 -1.13060E+01 -1.12931E+01 -1.13028E+01
  -1.13034E+01 -1.12838E+01 -1.12481E+01 -1.12001E+01 -1.11451E+01 -1.11053E+01 -1.11155E+01 -1.11934E+01 -1.13165E+01 -1.14017E+01
  -1.14310E+01 -1.14414E+01 -1.14849E+01 -1.15507E+01 -1.15767E+01 -1.15529E+01 -1.15093E+01 -1.14629E+01 -1.14212E+01 -1.13606E+01
  -1.12495E+01 -1.11023E+01 -1.09304E+01 -1.07285E+01 -1.04967E+01 -1.02497E+01 -9.98261E+00 -9.69760E+00 -9.40370E+00 -9.13956E+00
  -8.91963E+00 -8.74718E+00 -8.64164E+00 -8.61002E+00 -8.62105E+00 -8.59933E+00 -8.49541E+00 -8.31620E+00 -8.09792E+00 -7.85518E+00
  -7.60866E+00 -7.46117E+00 -7.38975E+00 -7.35464E+00 -7.43034E+00 -7.65233E+00 -7.93827E+00 -8.15138E+00 -8.27713E+00 -8.36450E+00
  -8.34638E+00 -8.14016E+00 -7.77871E+00 -7.40278E+00 -7.11295E+00 -6.88046E+00 -6.69646E+00 -6.65228E+00 -6.77861E+00 -6.99204E+00
  -7.16954E+00 -7.26400E+00 -7.26327E+00 -7.14578E+00 -6.88819E+00 -6.52799E+00 -6.17942E+00 -5.93288E+00 -5.74787E+00 -5.56748E+00
  -5.42394E+00 -5.33726E+00 -5.24385E+00 -5.10925E+00 -4.99636E+00 -4.90166E+00 -4.78613E+00 -4.65199E+00 -4.55931E+00 -4.54065E+00
  -4.58306E+00 -4.64465E+00 -4.68349E+00 -4.66827E+00 -4.55653E+00 -4.33626E+00 -4.03993E+00 -3.72981E+00 -3.42496E+00 -3.10806E+00
  -2.66799E+00 -1.46809E+00  8.96052E-01  3.17800E+00  4.84206E+00  6.39294E+00  8.35040E+00  1.05657E+01  1.25326E+01  1.39699E+01
   1.47314E+01  1.44617E+01  1.29070E+01  1.02580E+01  7.11054E+00  4.13134E+00  1.67346E+00 -2.20188E-01 -1.63027E+00 -2.68368E+00
  -3.52713E+00 -4.13398E+00 -4.34087E+00 -4.39964E+00 -4.42377E+00 -4.43718E+00 -4.45223E+00 -4.47656E+00 -4.50711E+00 -4.53975E+00
  -4.57001E+00 -4.59221E+00 -4.60265E+00 -4.60109E+00 -4.58758E+00 -4.56178E+00 -4.52590E+00 -4.48185E+00 -4.43120E+00 -4.37466E+00
  -4.31294E+00 -4.24585E+00 -4.17453E+00 -4.09882E+00 -4.01915E+00 -3.93608E+00 -3.85098E+00 -3.76467E+00 -3.67892E+00 -3.59517E+00
  -3.51524E+00 -3.44012E+00 -3.37137E+00 -3.30971E+00 -3.25585E+00 -3.20970E+00 -3.17116E+00 -3.13912E+00 -3.11252E+00 -3.08932E+00
  -3.06753E+00 -3.04422E+00 -3.01654E+00 -2.98056E+00 -2.93190E+00 -2.86379E+00 -2.76511E+00 -2.60971E+00 -2.38834E+00 -2.22341E+00
  -2.14978E+00 -2.09617E+00 -2.02289E+00 -1.96802E+00 -1.99715E+00 -2.11881E+00 -2.21277E+00 -2.26293E+00 -2.35036E+00 -2.46265E+00
  -2.49407E+00 -2.35292E+00 -2.04455E+00 -1.63110E+00 -1.16028E+00 -6.77539E-01 -2.45553E-01  9.67611E-02  3.72590E-01  5.13156E-01
   4.68984E-01  3.27881E-01  1.72791E-01  6.38341E-03 -2.29167E-01 -5.67495E-01 -8.85807E-01 -1.15249E+00 -1.45727E+00 -1.80249E+00
  -2.09283E+00 -2.23242E+00 -2.20741E+00 -2.06584E+00 -1.85352E+00 -1.61603E+00 -1.41637E+00 -1.30729E+00 -1.29198E+00 -1.35293E+00
  -1.46866E+00 -1.60366E+00 -1.73784E+00 -1.86305E+00 -1.98045E+00 -2.09978E+00 -2.20305E+00 -2.28202E+00 -2.34798E+00 -2.40548E+00
  -2.45652E+00 -2.50155E+00 -2.54096E+00 -2.57440E+00 -2.60183E+00 -2.62267E+00 -2.63671E+00 -2.64326E+00 -2.64208E+00 -2.63249E+00
  -2.61424E+00 -2.58670E+00 -2.54967E+00 -2.50256E+00 -2.44531E+00 -2.37751E+00 -2.29933E+00 -2.21065E+00 -2.11198E+00 -2.00366E+00
  -1.88674E+00 -1.76217E+00 -1.63165E+00 -1.49682E+00 -1.36005E+00 -1.22360E+00 -1.09041E+00 -9.63180E-01 -8.45082E-01 -7.38824E-01
  -6.47359E-01 -5.72946E-01 -5.17846E-01 -4.83391E-01 -4.70715E-01 -4.79885E-01 -5.10712E-01 -5.61956E-01 -6.32192E-01 -7.19078E-01
  -8.20259E-01 -9.32690E-01 -1.05358E+00 -1.17974E+00 -1.30845E+00 -1.43682E+00 -1.56262E+00 -1.68356E+00 -1.79818E+00 -1.90497E+00
  -2.00324E+00 -2.09222E+00 -2.17186E+00 -2.24201E+00 -2.30310E+00 -2.35537E+00 -2.39956E+00 -2.43608E+00 -2.46578E+00 -2.48912E+00
  -2.50696E+00 -2.51973E+00 -2.52819E+00 -2.53268E+00 -2.53385E+00 -2.53196E+00 -2.52756E+00 -2.52081E+00 -2.51216E+00 -2.50168E+00
  -2.48977E+00 -2.47642E+00 -2.46199E+00 -2.44644E+00 -2.43006E+00 -2.41276E+00 -2.39482E+00 -2.37615E+00 -2.35699E+00 -2.33723E+00
  -2.31708E+00 -2.29642E+00 -2.27547E+00 -2.25409E+00 -2.23250E+00 -2.21052E+00 -2.18837E+00 -2.16587E+00 -2.14323E+00 -2.12030E+00
  -2.09726E+00 -2.07394E+00 -2.05053E+00 -2.02686E+00 -2.00312E+00 -1.97915E+00 -1.95513E+00 -1.93087E+00 -1.90657E+00 -1.88206E+00
  -1.85752E+00 -1.83277E+00 -1.80800E+00 -1.78302E+00 -1.75802E+00 -1.73282E+00 -1.70761E+00 -1.68222E+00 -1.65680E+00 -1.63119E+00
  -1.60556E+00 -1.57975E+00 -1.55392E+00 -1.52791E+00 -1.50187E+00 -1.47564E+00 -1.44938E+00 -1.42294E+00 -1.39647E+00 -1.36979E+00
  -1.34306E+00 -1.31613E+00 -1.28914E+00 -1.26194E+00 -1.23466E+00 -1.20713E+00 -1.17951E+00 -1.15161E+00
 NY background values follow
    -3.996E+01   -3.970E+01   -3.945E+01   -3.920E+01   -3.895E+01   -3.869E+01   -3.844E+01   -3.819E+01   -3.793E+01   -3.768E+01
    -3.743E+01   -3.718E+01   -3.692E+01   -3.667E+01   -3.642E+01   -3.617E+01   -3.592E+01   -3.566E+01   -3.541E+01   -3.516E+01
    -3.491E+01   -3.466E+01   -3.441E+01   -3.416E+01   -3.392E+01   -3.367E+01   -3.342E+01   -3.317E+01   -3.293E+01   -3.268E+01
    -3.243E+01   -3.219E+01   -3.194E+01   -3.170E+01   -3.146E+01   -3.122E+01   -3.097E+01   -3.073E+01   -3.049E+01   -3.025E+01
    -3.001E+01   -2.978E+01   -2.954E+01   -2.930E+01   -2.907E+01   -2.884E+01   -2.860E+01   -2.837E+01   -2.814E+01   -2.791E+01
    -2.768E+01   -2.745E+01   -2.723E+01   -2.700E+01   -2.677E+01   -2.655E+01   -2.633E+01   -2.611E+01   -2.589E+01   -2.567E+01
    -2.545E+01   -2.523E+01   -2.502E+01   -2.480E+01   -2.459E+01   -2.438E+01   -2.417E+01   -2.396E+01   -2.375E+01   -2.354E+01
    -2.334E+01   -2.313E+01   -2.293E+01   -2.273E+01   -2.253E+01   -2.233E+01   -2.213E+01   -2.194E+01   -2.174E+01   -2.155E+01
    -2.136E+01   -2.117E+01   -2.098E+01   -2.079E+01   -2.061E+01   -2.042E+01   -2.024E+01   -2.006E+01   -1.988E+01   -1.971E+01
    -1.953E+01   -1.936E+01   -1.918E+01   -1.901E+01   -1.884E+01   -1.867E+01   -1.851E+01   -1.834E+01   -1.818E+01   -1.802E+01
    -1.786E+01   -1.770E+01   -1.755E+01   -1.739E+01   -1.724E+01   -1.709E+01   -1.694E+01   -1.679E+01   -1.665E+01   -1.650E+01
    -1.636E+01   -1.622E+01   -1.608E+01   -1.594E+01   -1.580E+01   -1.567E+01   -1.553E+01   -1.540E+01   -1.527E+01   -1.515E+01
    -1.502E+01   -1.489E+01   -1.477E+01   -1.465E+01   -1.453E+01   -1.441E+01   -1.429E+01   -1.418E+01   -1.407E+01   -1.395E+01
    -1.384E+01   -1.374E+01   -1.363E+01   -1.352E+01   -1.342E+01   -1.332E+01   -1.322E+01   -1.312E+01   -1.302E+01   -1.293E+01
    -1.283E+01   -1.274E+01   -1.265E+01   -1.256E+01   -1.247E+01   -1.238E+01   -1.230E+01   -1.221E+01   -1.213E+01   -1.205E+01
    -1.197E+01   -1.189E+01   -1.181E+01   -1.173E+01   -1.166E+01   -1.158E+01   -1.151E+01   -1.144E+01   -1.136E+01   -1.129E+01
    -1.122E+01   -1.115E+01   -1.109E+01   -1.102E+01   -1.095E+01   -1.089E+01   -1.082E+01   -1.075E+01   -1.069E+01   -1.063E+01
    -1.056E+01   -1.050E+01   -1.044E+01   -1.038E+01   -1.032E+01   -1.026E+01   -1.020E+01   -1.014E+01   -1.008E+01   -1.002E+01
    -9.960E+00   -9.901E+00   -9.843E+00   -9.785E+00   -9.727E+00   -9.669E+00   -9.611E+00   -9.554E+00   -9.497E+00   -9.440E+00
    -9.383E+00   -9.327E+00   -9.271E+00   -9.215E+00   -9.159E+00   -9.103E+00   -9.048E+00   -8.993E+00   -8.938E+00   -8.884E+00
    -8.830E+00   -8.776E+00   -8.722E+00   -8.669E+00   -8.616E+00   -8.563E+00   -8.510E+00   -8.458E+00   -8.406E+00   -8.354E+00
    -8.303E+00   -8.251E+00   -8.201E+00   -8.150E+00   -8.100E+00   -8.050E+00   -8.000E+00   -7.951E+00   -7.902E+00   -7.853E+00
    -7.805E+00   -7.757E+00   -7.709E+00   -7.661E+00   -7.614E+00   -7.568E+00   -7.521E+00   -7.475E+00   -7.429E+00   -7.384E+00
    -7.339E+00   -7.294E+00   -7.250E+00   -7.206E+00   -7.162E+00   -7.119E+00   -7.075E+00   -7.033E+00   -6.990E+00   -6.948E+00
    -6.906E+00   -6.865E+00   -6.824E+00   -6.783E+00   -6.743E+00   -6.703E+00   -6.663E+00   -6.623E+00   -6.584E+00   -6.545E+00
    -6.507E+00   -6.468E+00   -6.431E+00   -6.393E+00   -6.356E+00   -6.319E+00   -6.282E+00   -6.246E+00   -6.210E+00   -6.174E+00
    -6.139E+00   -6.104E+00   -6.069E+00   -6.034E+00   -6.000E+00   -5.966E+00   -5.933E+00   -5.899E+00   -5.867E+00   -5.834E+00
    -5.802E+00   -5.769E+00   -5.738E+00   -5.706E+00   -5.675E+00   -5.644E+00   -5.614E+00   -5.583E+00   -5.553E+00   -5.524E+00
    -5.494E+00   -5.465E+00   -5.436E+00   -5.408E+00   -5.379E+00   -5.351E+00   -5.324E+00   -5.296E+00   -5.269E+00   -5.242E+00
    -5.215E+00   -5.189E+00   -5.163E+00   -5.137E+00   -5.112E+00   -5.086E+00   -5.061E+00   -5.036E+00   -5.012E+00   -4.988E+00
    -4.964E+00   -4.940E+00   -4.916E+00   -4.893E+00   -4.870E+00   -4.847E+00   -4.825E+00   -4.803E+00   -4.781E+00   -4.759E+00
    -4.737E+00   -4.716E+00   -4.695E+00   -4.674E+00   -4.654E+00   -4.633E+00   -4.613E+00   -4.593E+00   -4.574E+00   -4.554E+00
    -4.535E+00   -4.516E+00   -4.497E+00   -4.478E+00   -4.460E+00   -4.442E+00   -4.424E+00   -4.406E+00   -4.388E+00   -4.371E+00
    -4.354E+00   -4.337E+00   -4.320E+00   -4.303E+00   -4.286E+00   -4.270E+00   -4.254E+00   -4.237E+00   -4.221E+00   -4.206E+00
    -4.190E+00   -4.174E+00   -4.159E+00   -4.143E+00   -4.128E+00   -4.113E+00   -4.098E+00   -4.083E+00   -4.068E+00   -4.054E+00
    -4.039E+00   -4.025E+00   -4.010E+00   -3.996E+00   -3.982E+00   -3.968E+00   -3.953E+00   -3.939E+00   -3.925E+00   -3.912E+00
    -3.898E+00   -3.884E+00   -3.870E+00   -3.856E+00   -3.843E+00   -3.829E+00   -3.815E+00   -3.802E+00   -3.788E+00   -3.774E+00
    -3.761E+00   -3.747E+00   -3.734E+00   -3.720E+00   -3.706E+00   -3.692E+00   -3.679E+00   -3.665E+00   -3.651E+00   -3.637E+00
    -3.623E+00   -3.609E+00   -3.595E+00   -3.580E+00   -3.566E+00   -3.551E+00   -3.537E+00   -3.522E+00   -3.507E+00   -3.492E+00
    -3.477E+00   -3.462E+00   -3.446E+00   -3.431E+00   -3.415E+00   -3.399E+00   -3.383E+00   -3.367E+00   -3.350E+00   -3.334E+00
    -3.317E+00   -3.300E+00   -3.283E+00   -3.265E+00   -3.247E+00   -3.229E+00   -3.211E+00   -3.193E+00   -3.174E+00   -3.155E+00
    -3.136E+00   -3.116E+00   -3.097E+00   -3.077E+00   -3.057E+00   -3.036E+00   -3.016E+00   -2.995E+00   -2.974E+00   -2.953E+00
    -2.932E+00   -2.910E+00   -2.889E+00   -2.867E+00   -2.845E+00   -2.822E+00   -2.800E+00   -2.778E+00   -2.755E+00   -2.732E+00
    -2.709E+00   -2.686E+00   -2.663E+00   -2.639E+00   -2.616E+00   -2.592E+00   -2.569E+00   -2.545E+00   -2.521E+00   -2.497E+00
    -2.473E+00   -2.449E+00   -2.424E+00   -2.400E+00   -2.376E+00   -2.351E+00   -2.327E+00   -2.302E+00   -2.277E+00   -2.253E+00
    -2.228E+00   -2.203E+00   -2.178E+00   -2.154E+00   -2.129E+00   -2.104E+00   -2.079E+00   -2.054E+00   -2.029E+00   -2.004E+00
    -1.979E+00   -1.954E+00   -1.929E+00   -1.904E+00   -1.878E+00   -1.853E+00   -1.828E+00   -1.803E+00   -1.777E+00   -1.752E+00
    -1.727E+00   -1.701E+00   -1.676E+00   -1.650E+00   -1.625E+00   -1.599E+00   -1.574E+00   -1.548E+00   -1.522E+00   -1.497E+00
    -1.471E+00   -1.445E+00   -1.419E+00   -1.393E+00   -1.367E+00   -1.341E+00   -1.315E+00   -1.289E+00   -1.263E+00   -1.237E+00
    -1.211E+00   -1.185E+00   -1.158E+00   -1.132E+00   -1.106E+00   -1.079E+00   -1.053E+00   -1.026E+00
 Ala      Conc. = 1.44E+02
