 LCModel (Version 6.3-1L) Copyright: S.W. Provencher.          Ref.: Magn. Reson. Med. 30:672-679 (1993).                
 Slice#2 Row#8 Col#7  PD_05_press_1_raw_act
 36 lines in following concentration table = NCONC+1
    Conc.  %SD /Cr+PCr  Metabolite                                         
  252.978  48%   0.181 Ala                                                 
  262.463  91%   0.188 Asp                                                 
    0.000 999%   0.000 Cr                                                  
 1.40E+03   5%   1.000 PCr                                                 
    0.000 999%   0.000 GABA                                                
  128.009 124% 9.2E-02 Glc                                                 
  882.494  26%   0.632 Gln                                                 
 1.57E+03  17%   1.123 Glu                                                 
  561.726  38%   0.402 GPC                                                 
    5.959 999% 4.3E-03 PCh                                                 
  467.246  18%   0.334 GSH                                                 
 1.13E+03  25%   0.807 Ins                                                 
  142.226  91%   0.102 Lac                                                 
 2.39E+03   4%   1.710 NAA                                                 
    0.000 999%   0.000 NAAG                                                
  139.572  22%   0.100 Scyllo                                              
  547.115  42%   0.392 Tau                                                 
  156.888  76%   0.112 -CrCH2                                              
  567.684   5%   0.406 GPC+PCh                                             
 2.39E+03   4%   1.710 NAA+NAAG                                            
 1.40E+03   5%   1.000 Cr+PCr                                              
 2.45E+03  15%   1.754 Glu+Gln                                             
 7.16E+03  13%   5.124 Lip13a                                              
    0.000 999%   0.000 Lip13b                                              
 1.76E+03  16%   1.260 Lip09                                               
  121.991 252% 8.7E-02 MM09                                                
 1.08E+03  16%   0.776 Lip20                                               
 1.39E+03  32%   0.998 MM20                                                
  149.556 124%   0.107 MM12                                                
 2.07E+03  34%   1.481 MM14                                                
  985.555  32%   0.705 MM17                                                
 7.16E+03  13%   5.124 Lip13a+Lip13b                                       
 9.38E+03   5%   6.712 MM14+Lip13a+Lip13b+MM12                             
 1.88E+03  14%   1.347 MM09+Lip09                                          
 2.48E+03  17%   1.774 MM20+Lip20                                          
   6 lines in following misc. output table
  FWHM = 0.046 ppm    S/N =  11                                            
  Data shift = 0.008 ppm                                                   
  Ph: -83 deg     -29.2 deg/ppm                                            
  alphaB,S = 1.6E+00,   1.1E+02                                            
   14 spline knots.   Ns = 6(1)                                            
  ( 6) 4 infls.   ( 1) 1 extrs.                                            
  498 points on ppm-axis = NY
      4.000000     3.992357     3.984714     3.977070     3.969427     3.961784     3.954141     3.946497     3.938854     3.931211
      3.923568     3.915925     3.908281     3.900638     3.892995     3.885352     3.877708     3.870065     3.862422     3.854779
      3.847136     3.839492     3.831849     3.824206     3.816563     3.808919     3.801276     3.793633     3.785990     3.778347
      3.770703     3.763060     3.755417     3.747774     3.740130     3.732487     3.724844     3.717201     3.709558     3.701914
      3.694271     3.686628     3.678985     3.671341     3.663698     3.656055     3.648412     3.640769     3.633125     3.625482
      3.617839     3.610196     3.602552     3.594909     3.587266     3.579623     3.571980     3.564336     3.556693     3.549050
      3.541407     3.533763     3.526120     3.518477     3.510834     3.503191     3.495547     3.487904     3.480261     3.472618
      3.464974     3.457331     3.449688     3.442045     3.434402     3.426758     3.419115     3.411472     3.403829     3.396185
      3.388542     3.380899     3.373256     3.365613     3.357969     3.350326     3.342683     3.335040     3.327396     3.319753
      3.312110     3.304467     3.296824     3.289180     3.281537     3.273894     3.266251     3.258607     3.250964     3.243321
      3.235678     3.228034     3.220391     3.212748     3.205105     3.197462     3.189818     3.182175     3.174532     3.166889
      3.159245     3.151602     3.143959     3.136316     3.128673     3.121029     3.113386     3.105743     3.098100     3.090456
      3.082813     3.075170     3.067527     3.059884     3.052240     3.044597     3.036954     3.029311     3.021667     3.014024
      3.006381     2.998738     2.991095     2.983451     2.975808     2.968165     2.960522     2.952878     2.945235     2.937592
      2.929949     2.922306     2.914662     2.907019     2.899376     2.891733     2.884089     2.876446     2.868803     2.861160
      2.853517     2.845873     2.838230     2.830587     2.822944     2.815300     2.807657     2.800014     2.792371     2.784728
      2.777084     2.769441     2.761798     2.754155     2.746511     2.738868     2.731225     2.723582     2.715939     2.708295
      2.700652     2.693009     2.685366     2.677722     2.670079     2.662436     2.654793     2.647150     2.639506     2.631863
      2.624220     2.616577     2.608933     2.601290     2.593647     2.586004     2.578361     2.570717     2.563074     2.555431
      2.547788     2.540144     2.532501     2.524858     2.517215     2.509572     2.501928     2.494285     2.486642     2.478999
      2.471355     2.463712     2.456069     2.448426     2.440783     2.433139     2.425496     2.417853     2.410210     2.402566
      2.394923     2.387280     2.379637     2.371994     2.364350     2.356707     2.349064     2.341421     2.333777     2.326134
      2.318491     2.310848     2.303205     2.295561     2.287918     2.280275     2.272632     2.264988     2.257345     2.249702
      2.242059     2.234416     2.226772     2.219129     2.211486     2.203843     2.196199     2.188556     2.180913     2.173270
      2.165627     2.157983     2.150340     2.142697     2.135054     2.127410     2.119767     2.112124     2.104481     2.096838
      2.089194     2.081551     2.073908     2.066265     2.058621     2.050978     2.043335     2.035692     2.028049     2.020405
      2.012762     2.005119     1.997476     1.989833     1.982190     1.974546     1.966903     1.959260     1.951617     1.943974
      1.936331     1.928688     1.921045     1.913402     1.905759     1.898115     1.890472     1.882829     1.875186     1.867543
      1.859900     1.852257     1.844614     1.836971     1.829327     1.821684     1.814041     1.806398     1.798755     1.791112
      1.783469     1.775826     1.768183     1.760540     1.752896     1.745253     1.737610     1.729967     1.722324     1.714681
      1.707038     1.699395     1.691752     1.684108     1.676465     1.668822     1.661179     1.653536     1.645893     1.638250
      1.630607     1.622964     1.615321     1.607677     1.600034     1.592391     1.584748     1.577105     1.569462     1.561819
      1.554176     1.546533     1.538890     1.531246     1.523603     1.515960     1.508317     1.500674     1.493031     1.485388
      1.477745     1.470102     1.462458     1.454815     1.447172     1.439529     1.431886     1.424243     1.416600     1.408957
      1.401314     1.393671     1.386027     1.378384     1.370741     1.363098     1.355455     1.347812     1.340169     1.332526
      1.324883     1.317240     1.309596     1.301953     1.294310     1.286667     1.279024     1.271381     1.263738     1.256095
      1.248452     1.240808     1.233165     1.225522     1.217879     1.210236     1.202593     1.194950     1.187307     1.179664
      1.172021     1.164377     1.156734     1.149091     1.141448     1.133805     1.126162     1.118519     1.110876     1.103233
      1.095590     1.087946     1.080303     1.072660     1.065017     1.057374     1.049731     1.042088     1.034445     1.026802
      1.019158     1.011515     1.003872     0.996229     0.988586     0.980943     0.973300     0.965657     0.958014     0.950371
      0.942727     0.935084     0.927441     0.919798     0.912155     0.904512     0.896869     0.889226     0.881583     0.873940
      0.866296     0.858653     0.851010     0.843367     0.835724     0.828081     0.820438     0.812795     0.805152     0.797508
      0.789865     0.782222     0.774579     0.766936     0.759293     0.751650     0.744007     0.736364     0.728721     0.721077
      0.713434     0.705791     0.698148     0.690505     0.682862     0.675219     0.667576     0.659933     0.652290     0.644646
      0.637003     0.629360     0.621717     0.614074     0.606431     0.598788     0.591145     0.583502     0.575858     0.568215
      0.560572     0.552929     0.545286     0.537643     0.530000     0.522357     0.514714     0.507071     0.499427     0.491784
      0.484141     0.476498     0.468855     0.461212     0.453569     0.445925     0.438282     0.430639     0.422996     0.415353
      0.407710     0.400067     0.392424     0.384780     0.377137     0.369494     0.361851     0.354208     0.346565     0.338922
      0.331278     0.323635     0.315992     0.308349     0.300706     0.293063     0.285420     0.277777     0.270133     0.262490
      0.254847     0.247204     0.239561     0.231918     0.224275     0.216631     0.208988     0.201345
 NY phased data points follow
  -2.88453E+01 -2.99797E+01 -2.92231E+01 -2.69228E+01 -1.94103E+01 -1.36109E+01 -6.55408E+00  1.96624E+00  6.44194E+00  1.30117E+01
   6.09409E+00  3.59703E+00  3.23335E+00 -7.95243E+00 -1.11180E+01 -1.92312E+01 -2.38933E+01 -1.78860E+01 -2.21005E+01 -2.11463E+01
  -2.59051E+01 -1.65745E+01 -1.93567E+01 -1.86354E+01 -2.21261E+01 -1.85466E+01 -1.68013E+01 -8.61591E+00 -1.06309E+01 -9.62366E+00
  -7.76374E+00 -3.21867E+00 -4.47256E+00 -1.14145E+01 -1.04798E+01 -1.72349E+01 -1.14109E+01 -1.30823E+01 -1.44048E+01 -7.81802E+00
  -1.06173E+01 -1.14254E+01 -8.78717E+00 -1.37216E+01 -9.78740E+00 -7.33535E+00  1.48258E-01 -7.13251E-01 -2.59111E+00 -3.56676E+00
  -6.59887E+00 -1.32978E+01 -1.11563E+01 -1.43741E+01 -1.62381E+01 -1.01257E+01 -1.16332E+01 -1.06907E+01 -1.30367E+01 -1.03084E+01
  -1.01643E+01 -1.52487E+01 -1.42238E+01 -1.04055E+01 -1.58071E+01 -1.22065E+01 -1.32350E+01 -1.07377E+01 -1.31231E+01 -1.49546E+01
  -1.50093E+01 -1.30703E+01 -9.76905E+00 -3.42810E+00 -4.87864E+00 -1.05473E+01 -8.73376E+00 -9.87457E+00 -2.13244E+00 -8.27381E+00
  -1.44514E+01 -9.41620E+00 -6.05675E+00 -9.14895E+00  3.35373E+00 -2.18787E+00 -3.47278E+00 -8.12755E+00 -3.86799E+00  2.48582E-01
   4.99993E-01 -2.18710E+00 -4.44338E+00  2.63365E+00 -1.12973E+00 -4.29537E-01 -3.34153E-01  5.77155E-02  6.72915E+00  9.48308E+00
   3.06156E+01  4.23738E+01  5.47904E+01  5.59723E+01  3.97088E+01  3.34913E+01  2.67963E+01  1.24748E+01  1.09950E+01  7.23536E+00
   3.09453E+00  6.30150E-01  3.24366E+00 -7.23080E-01  8.77962E-01 -3.00062E+00  5.37624E-01  2.03654E+00 -1.07440E+00  1.77976E+00
  -3.11965E+00 -1.14495E+00 -1.34225E+00  6.65490E+00  1.73208E+01  3.76970E+01  4.81976E+01  5.82354E+01  4.50066E+01  3.36201E+01
   2.30917E+01  2.09066E+01  1.80072E+01  9.26454E+00  2.80367E+00 -1.09670E+00 -2.84528E+00 -8.81140E-01  1.04943E+00 -7.14201E+00
  -3.23225E-01 -2.78820E+00 -1.86343E+00 -1.00480E+00 -2.68642E+00  1.34474E+00 -5.62272E-02  4.41876E+00  2.17146E+00 -2.14963E-01
   7.51071E-01  2.23892E+00 -1.90365E+00  4.71215E+00 -7.86535E+00  3.55037E-01  5.16505E+00 -2.70398E+00 -2.60262E+00  6.59439E-01
  -4.21685E+00 -3.53894E+00 -4.18777E+00 -8.13875E+00  5.35895E+00  4.90184E+00  1.95589E+00  7.07993E-01  4.66251E+00 -3.22934E+00
  -2.71910E-01 -5.96690E+00 -1.46666E+00 -3.62993E+00 -6.71112E+00 -8.64235E+00 -8.99768E+00 -6.06654E+00 -6.61018E+00 -6.77906E+00
  -1.11682E+01 -7.60107E+00 -5.18741E+00 -5.44307E+00 -6.67586E+00  3.21889E+00 -7.84736E-01 -8.86438E-01  4.16706E+00  3.07285E+00
   4.11799E+00  5.18720E+00  1.38093E+01  8.89634E+00  6.37656E+00  8.75772E+00  6.27344E+00  5.75293E+00 -5.04016E-01  7.37725E+00
   6.66499E+00  6.60348E+00  1.18971E+01  1.08926E+01  1.32839E+01  1.03363E+01  7.76043E+00  9.22677E+00  1.62463E+00  5.79396E+00
  -4.52485E-01  8.10711E-01  3.71009E-01  7.04149E+00  1.68874E+01  2.47680E+01  2.66855E+01  2.31517E+01  2.02124E+01  1.39314E+01
   1.33489E+01  4.03416E+00  2.87487E+00  7.92500E+00  7.10781E+00  1.44131E+01  1.57655E+01  1.84624E+01  1.73696E+01  1.77815E+01
   1.84198E+01  1.42672E+01  1.34963E+01  1.94724E+01  1.18808E+01  2.01649E+01  1.72556E+01  1.37810E+01  1.37485E+01  1.49188E+01
   1.43875E+01  1.28664E+01  1.18278E+01  1.20623E+01  1.73916E+01  1.66708E+01  1.49426E+01  1.68920E+01  2.06489E+01  1.90323E+01
   2.06591E+01  2.01065E+01  2.18741E+01  1.94875E+01  2.21698E+01  2.90219E+01  3.40999E+01  4.34552E+01  5.91965E+01  8.65284E+01
   1.11699E+02  1.09403E+02  9.51022E+01  7.65424E+01  6.72697E+01  5.25003E+01  4.71253E+01  3.37060E+01  3.09286E+01  3.16767E+01
   2.56765E+01  2.69027E+01  2.15385E+01  2.46549E+01  1.85915E+01  1.59209E+01  2.12623E+01  1.66095E+01  1.40506E+01  1.86086E+01
   1.82488E+01  1.81455E+01  1.57631E+01  1.64394E+01  2.06103E+01  1.63222E+01  1.38558E+01  1.15518E+01  1.21657E+01  1.59510E+01
   1.86345E+01  1.71352E+01  1.78049E+01  1.79347E+01  1.47540E+01  1.76965E+01  1.69549E+01  1.95604E+01  2.28982E+01  2.07204E+01
   1.83749E+01  1.90991E+01  2.15708E+01  2.03883E+01  2.65204E+01  2.16364E+01  2.15646E+01  2.36522E+01  1.93569E+01  2.08175E+01
   2.62288E+01  2.52855E+01  2.49578E+01  3.09181E+01  2.36193E+01  2.52034E+01  2.67727E+01  2.49754E+01  2.35522E+01  3.12248E+01
   2.75315E+01  3.11429E+01  2.75052E+01  3.29807E+01  3.09447E+01  3.38438E+01  3.36174E+01  4.12891E+01  2.96416E+01  4.04927E+01
   3.66706E+01  3.69582E+01  4.10909E+01  4.73342E+01  4.91055E+01  5.84963E+01  5.44966E+01  5.56490E+01  6.57173E+01  7.26579E+01
   6.87503E+01  7.42881E+01  7.15798E+01  7.67630E+01  8.05503E+01  7.84936E+01  7.24921E+01  7.75754E+01  7.26726E+01  7.09325E+01
   6.25923E+01  6.07751E+01  6.01391E+01  4.84867E+01  4.84348E+01  4.36047E+01  4.32191E+01  3.62289E+01  3.28938E+01  3.17434E+01
   2.82543E+01  3.00269E+01  2.53933E+01  2.62203E+01  2.81525E+01  2.22953E+01  2.49289E+01  2.78365E+01  2.44356E+01  2.82899E+01
   2.40787E+01  2.21586E+01  2.75830E+01  2.43943E+01  2.00334E+01  2.46462E+01  1.64911E+01  2.48730E+01  1.73010E+01  1.33611E+01
   1.40917E+01  1.85999E+01  1.81053E+01  1.53385E+01  1.99830E+01  9.85142E+00  8.21507E+00  1.42500E+01  1.36530E+01  1.73836E+01
   1.26929E+01  1.50464E+01  1.73304E+01  1.96769E+01  1.49183E+01  1.72046E+01  2.75394E+01  2.28174E+01  2.20364E+01  2.01741E+01
   1.97563E+01  2.39735E+01  1.84753E+01  2.01110E+01  2.82445E+01  2.54786E+01  2.17290E+01  2.48479E+01  2.20198E+01  1.86945E+01
   2.33196E+01  2.58476E+01  2.60811E+01  2.51176E+01  2.23657E+01  2.40767E+01  2.21987E+01  2.06904E+01  2.47723E+01  1.99669E+01
   1.95682E+01  1.74540E+01  2.30308E+01  2.10455E+01  1.70323E+01  1.55105E+01  1.86778E+01  1.62518E+01  1.72741E+01  2.02780E+01
   1.44990E+01  1.97958E+01  1.89724E+01  1.52445E+01  1.65444E+01  1.44145E+01  2.06095E+01  1.19586E+01  1.16389E+01  1.85369E+01
   1.94639E+01  1.35011E+01  1.88473E+01  1.66842E+01  1.41153E+01  1.53629E+01  1.59544E+01  1.71334E+01  1.91068E+01  1.45870E+01
   1.96994E+01  1.50663E+01  1.16184E+01  1.34635E+01  1.42159E+01  1.34320E+01  1.49984E+01  1.51308E+01  1.23461E+01  1.77408E+01
   1.37381E+01  1.45868E+01  1.01640E+01  1.32084E+01  7.61496E+00  1.42686E+01  1.56079E+01  1.52986E+01  1.30071E+01  1.28316E+01
   1.47013E+01  1.37545E+01  1.80938E+01  1.67177E+01  1.24327E+01  1.15854E+01  1.55358E+01  1.54366E+01  9.97377E+00  1.56547E+01
   1.45564E+01  1.16628E+01  1.82041E+01  1.87827E+01  5.96207E+00  8.08212E+00  1.65439E+01  1.63869E+01  1.11794E+01  1.31229E+01
   1.41964E+01  8.29705E+00  1.94581E+01  1.08965E+01  1.20942E+01  1.05196E+01  1.34135E+01  1.48204E+01
 NY points of the fit to the data follow
  -2.45306E+01 -2.44767E+01 -2.40309E+01 -2.27483E+01 -2.01134E+01 -1.54292E+01 -8.14449E+00  6.07732E-01  7.79063E+00  1.04822E+01
   8.26534E+00  3.35105E+00 -1.74453E+00 -5.88901E+00 -9.24235E+00 -1.25881E+01 -1.59497E+01 -1.78166E+01 -1.84549E+01 -1.86023E+01
  -1.83703E+01 -1.80038E+01 -1.77590E+01 -1.76791E+01 -1.76249E+01 -1.74266E+01 -1.65850E+01 -1.45794E+01 -1.15921E+01 -8.47927E+00
  -6.14548E+00 -4.95558E+00 -4.80579E+00 -5.56321E+00 -7.22451E+00 -9.57501E+00 -1.22998E+01 -1.45913E+01 -1.57713E+01 -1.62103E+01
  -1.59747E+01 -1.51847E+01 -1.40003E+01 -1.23530E+01 -1.01672E+01 -7.57110E+00 -5.30912E+00 -4.30607E+00 -4.90152E+00 -6.63608E+00
  -8.67043E+00 -1.03983E+01 -1.17713E+01 -1.28531E+01 -1.35663E+01 -1.37377E+01 -1.33107E+01 -1.24241E+01 -1.13358E+01 -1.04227E+01
  -1.00115E+01 -1.01847E+01 -1.07283E+01 -1.12543E+01 -1.14850E+01 -1.14231E+01 -1.12153E+01 -1.09357E+01 -1.06294E+01 -1.02386E+01
  -9.70268E+00 -9.06625E+00 -8.34766E+00 -7.57608E+00 -6.88074E+00 -6.54199E+00 -6.86815E+00 -7.72322E+00 -8.73838E+00 -9.46179E+00
  -9.52856E+00 -8.93315E+00 -7.90872E+00 -6.39279E+00 -4.34009E+00 -2.38832E+00 -1.39499E+00 -1.73242E+00 -2.99427E+00 -4.36154E+00
  -5.33011E+00 -6.02027E+00 -6.78095E+00 -7.66726E+00 -8.19362E+00 -7.72108E+00 -6.00352E+00 -2.42350E+00  3.90941E+00  1.44298E+01
   2.90160E+01  4.38146E+01  5.28222E+01  5.25431E+01  4.48230E+01  3.44677E+01  2.50387E+01  1.74333E+01  1.06241E+01  3.80521E+00
  -1.34204E+00 -3.27790E+00 -3.95210E+00 -4.28750E+00 -4.46862E+00 -4.60014E+00 -4.65695E+00 -4.66199E+00 -4.60569E+00 -4.40068E+00
  -3.73119E+00 -1.74897E+00  2.41843E+00  1.03052E+01  2.27209E+01  3.71314E+01  4.79602E+01  5.06232E+01  4.53457E+01  3.65054E+01
   2.81505E+01  2.14577E+01  1.54494E+01  8.78015E+00  2.25796E+00 -1.10956E+00 -2.24449E+00 -2.32820E+00 -1.71005E+00 -8.07295E-01
   1.79183E-02  6.57817E-01  1.08786E+00  1.31700E+00  1.43407E+00  1.42959E+00  1.25924E+00  9.99714E-01  7.12659E-01  5.13381E-01
   3.95159E-01  3.11073E-01  2.71120E-01  3.01705E-01  4.25219E-01  5.83749E-01  6.69062E-01  5.89383E-01  2.55883E-01 -2.95371E-01
  -8.41984E-01 -1.06719E+00 -7.62944E-01 -3.86335E-02  7.23604E-01  1.14495E+00  1.12541E+00  8.56470E-01  5.89494E-01  3.74400E-01
   9.60037E-02 -2.79770E-01 -7.80327E-01 -1.35620E+00 -1.91243E+00 -2.32150E+00 -2.35380E+00 -1.97683E+00 -1.50095E+00 -1.28819E+00
  -1.35240E+00 -1.40522E+00 -1.22591E+00 -8.60521E-01 -5.75226E-01 -4.30433E-01  6.00969E-02  1.33317E+00  3.29459E+00  5.29865E+00
   6.58007E+00  6.92733E+00  6.54775E+00  5.80231E+00  5.02868E+00  4.40229E+00  4.06931E+00  4.32434E+00  5.24667E+00  6.74258E+00
   8.60867E+00  1.05658E+01  1.23469E+01  1.36355E+01  1.38921E+01  1.27752E+01  1.03588E+01  7.08658E+00  3.80791E+00  1.57702E+00
   1.04324E+00  2.17288E+00  4.67601E+00  8.36340E+00  1.26450E+01  1.63298E+01  1.81405E+01  1.75400E+01  1.47423E+01  1.08599E+01
   6.91921E+00  3.69253E+00  2.05936E+00  2.64551E+00  5.25774E+00  8.78794E+00  1.18856E+01  1.40912E+01  1.54150E+01  1.60249E+01
   1.60447E+01  1.56746E+01  1.53408E+01  1.53553E+01  1.56937E+01  1.63452E+01  1.72122E+01  1.79536E+01  1.82382E+01  1.78404E+01
   1.67918E+01  1.55060E+01  1.46007E+01  1.44651E+01  1.50143E+01  1.60255E+01  1.70829E+01  1.79004E+01  1.85153E+01  1.90942E+01
   1.97583E+01  2.04569E+01  2.13186E+01  2.24587E+01  2.41583E+01  2.75050E+01  3.40616E+01  4.64240E+01  6.58297E+01  8.81629E+01
   1.04557E+02  1.07832E+02  9.82952E+01  8.26164E+01  6.72205E+01  5.45039E+01  4.36403E+01  3.30189E+01  2.37845E+01  1.94009E+01
   1.79310E+01  1.72297E+01  1.69458E+01  1.69403E+01  1.69820E+01  1.69864E+01  1.69275E+01  1.68111E+01  1.66593E+01  1.64917E+01
   1.63127E+01  1.61533E+01  1.60584E+01  1.60335E+01  1.60536E+01  1.61019E+01  1.61742E+01  1.62743E+01  1.64029E+01  1.65516E+01
   1.67254E+01  1.69294E+01  1.71645E+01  1.74309E+01  1.77283E+01  1.80560E+01  1.84101E+01  1.87853E+01  1.91784E+01  1.95859E+01
   2.00027E+01  2.04242E+01  2.08441E+01  2.12552E+01  2.16505E+01  2.20255E+01  2.23771E+01  2.27039E+01  2.30052E+01  2.32823E+01
   2.35389E+01  2.37815E+01  2.40184E+01  2.42589E+01  2.45137E+01  2.47962E+01  2.51214E+01  2.55068E+01  2.59715E+01  2.65395E+01
   2.72452E+01  2.81441E+01  2.92752E+01  3.06524E+01  3.22167E+01  3.37067E+01  3.47652E+01  3.52609E+01  3.54730E+01  3.59246E+01
   3.69962E+01  3.87814E+01  4.13462E+01  4.47759E+01  4.89925E+01  5.36464E+01  5.80709E+01  6.18021E+01  6.49411E+01  6.76906E+01
   7.01311E+01  7.21943E+01  7.37379E+01  7.48077E+01  7.55344E+01  7.56899E+01  7.49827E+01  7.32576E+01  7.06270E+01  6.74274E+01
   6.39896E+01  6.04997E+01  5.70999E+01  5.39086E+01  5.09378E+01  4.80914E+01  4.51768E+01  4.20512E+01  3.88696E+01  3.58275E+01
   3.30284E+01  3.04742E+01  2.81264E+01  2.60593E+01  2.43529E+01  2.29440E+01  2.17817E+01  2.08303E+01  2.00588E+01  1.94394E+01
   1.89475E+01  1.85619E+01  1.82643E+01  1.80395E+01  1.78745E+01  1.77589E+01  1.76847E+01  1.76460E+01  1.76384E+01  1.76583E+01
   1.77033E+01  1.77715E+01  1.78621E+01  1.79749E+01  1.81094E+01  1.82656E+01  1.84431E+01  1.86420E+01  1.88623E+01  1.91037E+01
   1.93658E+01  1.96473E+01  1.99466E+01  2.02621E+01  2.05913E+01  2.09315E+01  2.12789E+01  2.16291E+01  2.19773E+01  2.23186E+01
   2.26476E+01  2.29588E+01  2.32461E+01  2.35039E+01  2.37268E+01  2.39104E+01  2.40506E+01  2.41442E+01  2.41885E+01  2.41822E+01
   2.41251E+01  2.40183E+01  2.38637E+01  2.36640E+01  2.34226E+01  2.31438E+01  2.28328E+01  2.24949E+01  2.21355E+01  2.17598E+01
   2.13731E+01  2.09805E+01  2.05869E+01  2.01967E+01  1.98132E+01  1.94397E+01  1.90786E+01  1.87322E+01  1.84020E+01  1.80892E+01
   1.77941E+01  1.75169E+01  1.72574E+01  1.70157E+01  1.67910E+01  1.65827E+01  1.63896E+01  1.62108E+01  1.60456E+01  1.58931E+01
   1.57523E+01  1.56223E+01  1.55019E+01  1.53905E+01  1.52873E+01  1.51918E+01  1.51032E+01  1.50207E+01  1.49438E+01  1.48720E+01
   1.48050E+01  1.47425E+01  1.46838E+01  1.46286E+01  1.45765E+01  1.45275E+01  1.44813E+01  1.44378E+01  1.43965E+01  1.43571E+01
   1.43196E+01  1.42841E+01  1.42503E+01  1.42181E+01  1.41872E+01  1.41575E+01  1.41290E+01  1.41018E+01  1.40757E+01  1.40506E+01
   1.40262E+01  1.40027E+01  1.39800E+01  1.39583E+01  1.39372E+01  1.39168E+01  1.38969E+01  1.38776E+01  1.38589E+01  1.38409E+01
   1.38234E+01  1.38063E+01  1.37895E+01  1.37733E+01  1.37576E+01  1.37425E+01  1.37276E+01  1.37130E+01  1.36988E+01  1.36851E+01
   1.36719E+01  1.36590E+01  1.36465E+01  1.36342E+01  1.36223E+01  1.36110E+01  1.36002E+01  1.35898E+01
 NY background values follow
    -2.713E+01   -2.695E+01   -2.677E+01   -2.658E+01   -2.640E+01   -2.622E+01   -2.603E+01   -2.585E+01   -2.567E+01   -2.548E+01
    -2.530E+01   -2.512E+01   -2.493E+01   -2.475E+01   -2.457E+01   -2.438E+01   -2.420E+01   -2.402E+01   -2.383E+01   -2.365E+01
    -2.347E+01   -2.328E+01   -2.310E+01   -2.292E+01   -2.274E+01   -2.255E+01   -2.237E+01   -2.219E+01   -2.200E+01   -2.182E+01
    -2.164E+01   -2.146E+01   -2.128E+01   -2.109E+01   -2.091E+01   -2.073E+01   -2.055E+01   -2.037E+01   -2.019E+01   -2.001E+01
    -1.982E+01   -1.964E+01   -1.946E+01   -1.928E+01   -1.910E+01   -1.892E+01   -1.874E+01   -1.856E+01   -1.838E+01   -1.820E+01
    -1.802E+01   -1.785E+01   -1.767E+01   -1.749E+01   -1.731E+01   -1.713E+01   -1.695E+01   -1.678E+01   -1.660E+01   -1.642E+01
    -1.625E+01   -1.607E+01   -1.589E+01   -1.572E+01   -1.554E+01   -1.537E+01   -1.519E+01   -1.502E+01   -1.485E+01   -1.467E+01
    -1.450E+01   -1.433E+01   -1.415E+01   -1.398E+01   -1.381E+01   -1.364E+01   -1.347E+01   -1.330E+01   -1.312E+01   -1.295E+01
    -1.279E+01   -1.262E+01   -1.245E+01   -1.228E+01   -1.211E+01   -1.194E+01   -1.178E+01   -1.161E+01   -1.145E+01   -1.128E+01
    -1.112E+01   -1.095E+01   -1.079E+01   -1.062E+01   -1.046E+01   -1.030E+01   -1.014E+01   -9.975E+00   -9.814E+00   -9.653E+00
    -9.493E+00   -9.334E+00   -9.175E+00   -9.016E+00   -8.858E+00   -8.701E+00   -8.543E+00   -8.387E+00   -8.230E+00   -8.075E+00
    -7.919E+00   -7.764E+00   -7.610E+00   -7.456E+00   -7.303E+00   -7.150E+00   -6.997E+00   -6.845E+00   -6.693E+00   -6.542E+00
    -6.391E+00   -6.241E+00   -6.091E+00   -5.941E+00   -5.792E+00   -5.643E+00   -5.495E+00   -5.347E+00   -5.200E+00   -5.053E+00
    -4.906E+00   -4.760E+00   -4.614E+00   -4.469E+00   -4.324E+00   -4.179E+00   -4.035E+00   -3.892E+00   -3.748E+00   -3.605E+00
    -3.463E+00   -3.321E+00   -3.179E+00   -3.038E+00   -2.897E+00   -2.756E+00   -2.616E+00   -2.476E+00   -2.337E+00   -2.198E+00
    -2.059E+00   -1.921E+00   -1.783E+00   -1.645E+00   -1.508E+00   -1.371E+00   -1.234E+00   -1.098E+00   -9.623E-01   -8.268E-01
    -6.917E-01   -5.569E-01   -4.225E-01   -2.884E-01   -1.546E-01   -2.121E-02    1.119E-01    2.446E-01    3.771E-01    5.092E-01
     6.410E-01    7.724E-01    9.036E-01    1.034E+00    1.165E+00    1.295E+00    1.425E+00    1.555E+00    1.684E+00    1.813E+00
     1.942E+00    2.070E+00    2.198E+00    2.326E+00    2.453E+00    2.580E+00    2.707E+00    2.834E+00    2.960E+00    3.086E+00
     3.211E+00    3.336E+00    3.461E+00    3.585E+00    3.708E+00    3.832E+00    3.955E+00    4.077E+00    4.199E+00    4.321E+00
     4.442E+00    4.563E+00    4.683E+00    4.802E+00    4.922E+00    5.040E+00    5.158E+00    5.276E+00    5.393E+00    5.509E+00
     5.625E+00    5.741E+00    5.855E+00    5.970E+00    6.083E+00    6.196E+00    6.309E+00    6.420E+00    6.531E+00    6.642E+00
     6.752E+00    6.861E+00    6.969E+00    7.077E+00    7.184E+00    7.290E+00    7.396E+00    7.501E+00    7.605E+00    7.708E+00
     7.811E+00    7.913E+00    8.014E+00    8.115E+00    8.215E+00    8.314E+00    8.412E+00    8.509E+00    8.606E+00    8.702E+00
     8.798E+00    8.892E+00    8.986E+00    9.079E+00    9.171E+00    9.262E+00    9.353E+00    9.443E+00    9.532E+00    9.621E+00
     9.708E+00    9.795E+00    9.881E+00    9.966E+00    1.005E+01    1.013E+01    1.022E+01    1.030E+01    1.038E+01    1.046E+01
     1.054E+01    1.062E+01    1.070E+01    1.077E+01    1.085E+01    1.093E+01    1.100E+01    1.107E+01    1.115E+01    1.122E+01
     1.129E+01    1.136E+01    1.143E+01    1.150E+01    1.157E+01    1.164E+01    1.170E+01    1.177E+01    1.183E+01    1.190E+01
     1.196E+01    1.202E+01    1.208E+01    1.214E+01    1.220E+01    1.226E+01    1.232E+01    1.238E+01    1.244E+01    1.249E+01
     1.255E+01    1.260E+01    1.265E+01    1.271E+01    1.276E+01    1.281E+01    1.286E+01    1.291E+01    1.296E+01    1.301E+01
     1.305E+01    1.310E+01    1.315E+01    1.319E+01    1.323E+01    1.328E+01    1.332E+01    1.336E+01    1.340E+01    1.344E+01
     1.348E+01    1.352E+01    1.356E+01    1.360E+01    1.364E+01    1.367E+01    1.371E+01    1.374E+01    1.377E+01    1.381E+01
     1.384E+01    1.387E+01    1.390E+01    1.393E+01    1.396E+01    1.399E+01    1.402E+01    1.405E+01    1.407E+01    1.410E+01
     1.413E+01    1.415E+01    1.418E+01    1.420E+01    1.422E+01    1.425E+01    1.427E+01    1.429E+01    1.431E+01    1.433E+01
     1.435E+01    1.437E+01    1.439E+01    1.440E+01    1.442E+01    1.444E+01    1.445E+01    1.447E+01    1.448E+01    1.450E+01
     1.451E+01    1.453E+01    1.454E+01    1.455E+01    1.456E+01    1.457E+01    1.459E+01    1.460E+01    1.461E+01    1.462E+01
     1.462E+01    1.463E+01    1.464E+01    1.465E+01    1.466E+01    1.466E+01    1.467E+01    1.467E+01    1.468E+01    1.469E+01
     1.469E+01    1.469E+01    1.470E+01    1.470E+01    1.471E+01    1.471E+01    1.471E+01    1.471E+01    1.471E+01    1.472E+01
     1.472E+01    1.472E+01    1.472E+01    1.472E+01    1.472E+01    1.472E+01    1.472E+01    1.472E+01    1.472E+01    1.471E+01
     1.471E+01    1.471E+01    1.471E+01    1.471E+01    1.470E+01    1.470E+01    1.470E+01    1.470E+01    1.469E+01    1.469E+01
     1.469E+01    1.468E+01    1.468E+01    1.467E+01    1.467E+01    1.467E+01    1.466E+01    1.466E+01    1.465E+01    1.465E+01
     1.464E+01    1.464E+01    1.463E+01    1.463E+01    1.462E+01    1.462E+01    1.461E+01    1.461E+01    1.460E+01    1.459E+01
     1.459E+01    1.458E+01    1.458E+01    1.457E+01    1.456E+01    1.456E+01    1.455E+01    1.454E+01    1.454E+01    1.453E+01
     1.452E+01    1.452E+01    1.451E+01    1.450E+01    1.450E+01    1.449E+01    1.448E+01    1.448E+01    1.447E+01    1.446E+01
     1.445E+01    1.445E+01    1.444E+01    1.443E+01    1.442E+01    1.441E+01    1.441E+01    1.440E+01    1.439E+01    1.438E+01
     1.437E+01    1.437E+01    1.436E+01    1.435E+01    1.434E+01    1.433E+01    1.432E+01    1.432E+01    1.431E+01    1.430E+01
     1.429E+01    1.428E+01    1.427E+01    1.426E+01    1.425E+01    1.424E+01    1.424E+01    1.423E+01    1.422E+01    1.421E+01
     1.420E+01    1.419E+01    1.418E+01    1.417E+01    1.416E+01    1.415E+01    1.414E+01    1.413E+01    1.413E+01    1.412E+01
     1.411E+01    1.410E+01    1.409E+01    1.408E+01    1.407E+01    1.406E+01    1.405E+01    1.404E+01    1.403E+01    1.402E+01
     1.401E+01    1.400E+01    1.399E+01    1.398E+01    1.397E+01    1.397E+01    1.396E+01    1.395E+01
 Ala      Conc. = 2.53E+02
