 LCModel (Version 6.3-1L) Copyright: S.W. Provencher.          Ref.: Magn. Reson. Med. 30:672-679 (1993).                
 Slice#1 Row#1 Col#4  PD_05_press_1_raw_act
 36 lines in following concentration table = NCONC+1
    Conc.  %SD /Cr+PCr  Metabolite                                         
    0.000 999%   0.000 Ala                                                 
    0.221 956%   0.000 Asp                                                 
    0.000 999%   0.000 Cr                                                  
    0.000 999%   0.000 PCr                                                 
    0.143 886%   0.000 GABA                                                
    0.112 999%   0.000 Glc                                                 
    0.000 999%   0.000 Gln                                                 
  154.709  68%   0.000 Glu                                                 
    0.000 999%   0.000 GPC                                                 
    1.125 546%   0.000 PCh                                                 
    0.000 999%   0.000 GSH                                                 
    0.000 999%   0.000 Ins                                                 
    0.000 999%   0.000 Lac                                                 
    1.071 999%   0.000 NAA                                                 
    0.000 999%   0.000 NAAG                                                
 5.35E-02 789%   0.000 Scyllo                                              
    0.221 950%   0.000 Tau                                                 
    2.213 240%   0.000 -CrCH2                                              
    1.125 546%   0.000 GPC+PCh                                             
    1.071 999%   0.000 NAA+NAAG                                            
    0.000 999%   0.000 Cr+PCr                                              
  154.709  68%   0.000 Glu+Gln                                             
    0.000 999%   0.000 Lip13a                                              
    0.000 999%   0.000 Lip13b                                              
    0.000 999%   0.000 Lip09                                               
  141.177  32%   0.000 MM09                                                
    9.011 264%   0.000 Lip20                                               
  408.072  22%   0.000 MM20                                                
    0.000 999%   0.000 MM12                                                
    0.000 999%   0.000 MM14                                                
  162.197  39%   0.000 MM17                                                
    0.000 999%   0.000 Lip13a+Lip13b                                       
    0.000 999%   0.000 MM14+Lip13a+Lip13b+MM12                             
  141.177  32%   0.000 MM09+Lip09                                          
  417.083  21%   0.000 MM20+Lip20                                          
   6 lines in following misc. output table
  FWHM = 0.061 ppm    S/N =   1                                            
  Data shift = 0.069 ppm                                                   
  Ph:  35 deg      21.4 deg/ppm                                            
  alphaB,S = 8.5E+01,   1.3E+01                                            
   14 spline knots.   Ns = 6(1)                                            
   2 inflections.     2 extrema                                            
  498 points on ppm-axis = NY
      4.000000     3.992357     3.984714     3.977070     3.969427     3.961784     3.954141     3.946497     3.938854     3.931211
      3.923568     3.915925     3.908281     3.900638     3.892995     3.885352     3.877708     3.870065     3.862422     3.854779
      3.847136     3.839492     3.831849     3.824206     3.816563     3.808919     3.801276     3.793633     3.785990     3.778347
      3.770703     3.763060     3.755417     3.747774     3.740130     3.732487     3.724844     3.717201     3.709558     3.701914
      3.694271     3.686628     3.678985     3.671341     3.663698     3.656055     3.648412     3.640769     3.633125     3.625482
      3.617839     3.610196     3.602552     3.594909     3.587266     3.579623     3.571980     3.564336     3.556693     3.549050
      3.541407     3.533763     3.526120     3.518477     3.510834     3.503191     3.495547     3.487904     3.480261     3.472618
      3.464974     3.457331     3.449688     3.442045     3.434402     3.426758     3.419115     3.411472     3.403829     3.396185
      3.388542     3.380899     3.373256     3.365613     3.357969     3.350326     3.342683     3.335040     3.327396     3.319753
      3.312110     3.304467     3.296824     3.289180     3.281537     3.273894     3.266251     3.258607     3.250964     3.243321
      3.235678     3.228034     3.220391     3.212748     3.205105     3.197462     3.189818     3.182175     3.174532     3.166889
      3.159245     3.151602     3.143959     3.136316     3.128673     3.121029     3.113386     3.105743     3.098100     3.090456
      3.082813     3.075170     3.067527     3.059884     3.052240     3.044597     3.036954     3.029311     3.021667     3.014024
      3.006381     2.998738     2.991095     2.983451     2.975808     2.968165     2.960522     2.952878     2.945235     2.937592
      2.929949     2.922306     2.914662     2.907019     2.899376     2.891733     2.884089     2.876446     2.868803     2.861160
      2.853517     2.845873     2.838230     2.830587     2.822944     2.815300     2.807657     2.800014     2.792371     2.784728
      2.777084     2.769441     2.761798     2.754155     2.746511     2.738868     2.731225     2.723582     2.715939     2.708295
      2.700652     2.693009     2.685366     2.677722     2.670079     2.662436     2.654793     2.647150     2.639506     2.631863
      2.624220     2.616577     2.608933     2.601290     2.593647     2.586004     2.578361     2.570717     2.563074     2.555431
      2.547788     2.540144     2.532501     2.524858     2.517215     2.509572     2.501928     2.494285     2.486642     2.478999
      2.471355     2.463712     2.456069     2.448426     2.440783     2.433139     2.425496     2.417853     2.410210     2.402566
      2.394923     2.387280     2.379637     2.371994     2.364350     2.356707     2.349064     2.341421     2.333777     2.326134
      2.318491     2.310848     2.303205     2.295561     2.287918     2.280275     2.272632     2.264988     2.257345     2.249702
      2.242059     2.234416     2.226772     2.219129     2.211486     2.203843     2.196199     2.188556     2.180913     2.173270
      2.165627     2.157983     2.150340     2.142697     2.135054     2.127410     2.119767     2.112124     2.104481     2.096838
      2.089194     2.081551     2.073908     2.066265     2.058621     2.050978     2.043335     2.035692     2.028049     2.020405
      2.012762     2.005119     1.997476     1.989833     1.982190     1.974546     1.966903     1.959260     1.951617     1.943974
      1.936331     1.928688     1.921045     1.913402     1.905759     1.898115     1.890472     1.882829     1.875186     1.867543
      1.859900     1.852257     1.844614     1.836971     1.829327     1.821684     1.814041     1.806398     1.798755     1.791112
      1.783469     1.775826     1.768183     1.760540     1.752896     1.745253     1.737610     1.729967     1.722324     1.714681
      1.707038     1.699395     1.691752     1.684108     1.676465     1.668822     1.661179     1.653536     1.645893     1.638250
      1.630607     1.622964     1.615321     1.607677     1.600034     1.592391     1.584748     1.577105     1.569462     1.561819
      1.554176     1.546533     1.538890     1.531246     1.523603     1.515960     1.508317     1.500674     1.493031     1.485388
      1.477745     1.470102     1.462458     1.454815     1.447172     1.439529     1.431886     1.424243     1.416600     1.408957
      1.401314     1.393671     1.386027     1.378384     1.370741     1.363098     1.355455     1.347812     1.340169     1.332526
      1.324883     1.317240     1.309596     1.301953     1.294310     1.286667     1.279024     1.271381     1.263738     1.256095
      1.248452     1.240808     1.233165     1.225522     1.217879     1.210236     1.202593     1.194950     1.187307     1.179664
      1.172021     1.164377     1.156734     1.149091     1.141448     1.133805     1.126162     1.118519     1.110876     1.103233
      1.095590     1.087946     1.080303     1.072660     1.065017     1.057374     1.049731     1.042088     1.034445     1.026802
      1.019158     1.011515     1.003872     0.996229     0.988586     0.980943     0.973300     0.965657     0.958014     0.950371
      0.942727     0.935084     0.927441     0.919798     0.912155     0.904512     0.896869     0.889226     0.881583     0.873940
      0.866296     0.858653     0.851010     0.843367     0.835724     0.828081     0.820438     0.812795     0.805152     0.797508
      0.789865     0.782222     0.774579     0.766936     0.759293     0.751650     0.744007     0.736364     0.728721     0.721077
      0.713434     0.705791     0.698148     0.690505     0.682862     0.675219     0.667576     0.659933     0.652290     0.644646
      0.637003     0.629360     0.621717     0.614074     0.606431     0.598788     0.591145     0.583502     0.575858     0.568215
      0.560572     0.552929     0.545286     0.537643     0.530000     0.522357     0.514714     0.507071     0.499427     0.491784
      0.484141     0.476498     0.468855     0.461212     0.453569     0.445925     0.438282     0.430639     0.422996     0.415353
      0.407710     0.400067     0.392424     0.384780     0.377137     0.369494     0.361851     0.354208     0.346565     0.338922
      0.331278     0.323635     0.315992     0.308349     0.300706     0.293063     0.285420     0.277777     0.270133     0.262490
      0.254847     0.247204     0.239561     0.231918     0.224275     0.216631     0.208988     0.201345
 NY phased data points follow
  -2.42541E+00 -1.26052E+00 -3.89415E-01 -1.32177E+00 -5.31218E-01 -6.09123E-01 -2.41668E+00 -4.86130E+00 -4.66442E+00 -9.96635E-01
  -2.10959E+00 -2.31927E+00 -6.64448E-02 -2.00944E+00 -2.31506E+00 -1.79369E+00 -1.34588E+00 -4.03106E-01 -1.09864E+00 -9.66852E-01
   6.88775E-02 -1.52377E-01 -3.15885E+00 -2.60501E-01  2.53390E-01 -2.69728E+00 -1.51771E+00 -1.35313E+00 -3.21098E+00 -3.98290E+00
  -2.67546E+00 -3.30342E+00 -2.28947E+00 -6.20113E-01 -5.39477E-01 -7.71277E-01 -2.44114E-01 -3.87440E-01  9.15029E-01  9.39237E-01
   1.32294E-01 -2.63555E+00  6.12298E-01 -1.20844E+00 -9.32853E-01 -7.77483E-01 -1.43502E+00 -4.26392E+00  1.35655E-01 -2.40802E+00
  -3.49688E-01 -3.57932E+00 -5.64623E-01 -1.13500E+00 -7.25969E-01 -3.94621E+00 -3.25708E-01 -3.12983E+00 -3.08681E-01 -5.63909E-01
  -2.56649E+00 -5.10196E-02 -4.47136E-01 -5.92091E-01 -5.01857E-01 -3.23864E+00 -7.88080E-01 -2.28774E+00  8.15560E-01 -1.91615E-01
  -1.71067E+00 -9.56984E-01  1.80363E+00 -1.32220E+00 -6.38408E-01 -1.66283E+00 -3.01970E+00  8.25696E-03  1.61378E+00 -3.81217E-01
   1.15736E-01  1.54298E+00 -2.90765E+00  1.63619E-01  1.68960E+00 -8.66795E-01 -1.03320E+00 -1.05625E+00 -2.25415E+00  1.41999E+00
   6.28903E-01  2.42346E-01  6.18207E-01  8.34357E-02 -2.55598E+00  1.22637E+00 -1.51684E-01  8.15068E-01  1.37237E+00 -1.29224E+00
  -2.38537E+00 -3.62346E-01 -1.16390E+00 -2.11520E+00 -1.51113E+00  1.57017E+00 -6.53259E-01  1.20925E+00 -3.28568E-01 -2.98305E+00
   2.21090E+00 -2.14624E+00 -1.24146E+00 -8.94296E-01 -1.03095E+00  1.10518E+00 -1.29097E+00  5.95554E-01  1.28069E+00  3.19635E+00
   1.13829E+00 -6.21715E-01 -1.65167E+00 -3.75239E-01 -2.71774E+00 -2.42262E+00 -4.06602E+00 -1.95798E+00  1.14671E+00 -3.69823E+00
  -1.07567E+00 -1.29842E+00 -4.49349E-01  1.71153E+00  1.75011E+00  4.82055E-01  2.70317E-01 -1.65078E-01 -1.05123E+00 -7.04874E-01
  -1.29149E+00 -7.78097E-01 -2.01988E-01  1.80924E+00  3.12268E+00 -4.78160E-02  1.72847E+00 -9.88537E-01 -1.91538E+00 -3.08816E-01
  -1.09442E-01  6.02975E-01 -5.07999E-01  5.15674E-01  1.01617E+00 -2.19692E-01 -2.46497E-01 -8.80791E-01  1.50890E-01  6.81061E-01
   3.94779E-01 -3.36047E+00 -4.03889E+00 -5.06925E-01  7.04029E-01 -1.18164E+00 -1.02659E+00 -9.18852E-01 -3.17073E-01 -3.96548E-01
  -1.85432E+00 -1.59882E+00 -2.60686E-01 -1.65204E+00  2.80416E-01 -1.18418E+00  1.15127E+00  3.44682E-01  3.44680E+00  3.57127E-01
   1.50998E+00 -1.43624E+00  2.04337E-01  5.63170E-01  7.20638E-01 -2.33944E+00  1.98772E+00 -1.78737E-01 -1.72069E+00 -1.74174E-01
  -4.33677E+00 -4.90059E+00  2.38073E+00 -4.94050E-01 -3.32049E-01  9.59124E-02 -1.76498E-01  1.16882E+00  3.42514E+00  1.04871E+00
  -1.39442E+00  4.80982E-01  7.49985E-01  1.81520E+00  3.16038E+00  9.79092E-01  9.80177E-01  1.16749E+00 -4.55878E-03 -1.30046E+00
  -1.55898E+00 -2.33899E+00 -4.15897E-01 -9.79942E-02 -7.01617E-01  3.04787E+00  8.84625E-01  1.01239E+00  3.95890E+00 -2.81695E-01
  -1.03240E+00 -2.06236E+00  1.49515E+00 -4.71046E-01  2.73771E+00 -5.32866E-01 -2.34131E+00  1.41974E-01 -1.47234E+00  1.61388E+00
   1.72062E+00  3.46901E+00 -2.12729E+00  2.03502E+00 -2.28494E-01  2.30505E+00  7.49337E-01  2.30700E+00  1.05454E+00  2.87115E+00
  -4.82908E-01  1.82971E+00  1.64291E+00 -1.46577E+00  1.59249E+00  2.19228E+00  1.43196E+00  2.80523E+00  2.20026E+00  4.61117E+00
   2.58481E+00  3.65382E+00  3.19381E+00  2.93481E+00 -6.90307E-02 -1.55410E-01  2.11564E-01 -1.63042E-01  9.00348E-02  2.30063E+00
   1.50358E+00  3.56247E-01  2.38128E+00  2.41096E+00 -1.53846E+00  6.58141E-01  1.43340E+00 -1.49772E+00 -7.35447E-01 -2.32448E+00
  -1.57237E+00  1.97353E-01 -1.58415E+00  2.01565E+00 -4.69316E-02  1.74428E+00 -6.78063E-01  1.18035E-01  3.47060E-01  6.16314E-01
  -6.54039E-02  1.57570E+00  1.69297E+00  1.53523E+00  1.13781E-01 -9.81296E-01  1.68389E+00  2.38719E+00  2.64447E+00  2.92123E+00
  -7.33908E-01  2.95314E+00  2.74482E+00  2.77596E+00 -1.47570E+00 -7.90443E-01  8.26893E-01 -1.06328E+00 -1.24961E+00  1.42995E+00
   1.97784E+00  1.96291E+00  2.54153E-01 -9.06909E-01  4.77628E-01  9.61258E-01 -8.68861E-01 -1.12301E+00  9.57637E-01  2.76010E+00
  -1.46628E+00  1.13147E+00  2.01450E+00  9.25911E-01  3.72073E+00  1.23661E+00  1.41578E+00 -9.86764E-01  3.48441E+00  6.55230E-01
   3.13044E+00  1.17295E+00 -6.04944E-01  1.10468E+00  2.95576E-01  1.21100E+00  4.30901E-01  6.74283E-01  9.81663E-01  2.74922E-01
   1.88872E+00  2.28776E+00  1.53826E+00 -1.58954E+00  1.78773E+00  3.46303E+00  1.69409E+00 -8.40392E-01  6.43209E-01  2.49131E-01
  -7.78031E-01 -2.11299E+00 -2.71003E+00 -1.54749E+00 -3.04853E+00  1.40221E+00 -5.73789E+00 -3.18543E+00 -2.99702E+00 -3.91320E+00
  -2.00325E+00 -3.04198E+00  9.86192E-01 -2.46396E+00  1.44429E+00  8.08558E-01  9.72438E-01 -1.30143E+00 -6.76342E-01 -1.90405E+00
  -1.33701E-01  6.91454E-01 -1.25392E+00  8.82212E-02 -2.74325E+00 -2.47162E+00 -5.14468E-01 -2.59957E+00  3.54053E-01 -1.67478E-02
   1.36013E+00 -5.65951E-01 -1.31262E-01 -2.37728E+00  5.77524E-02  3.40003E-01 -2.00265E+00 -1.95586E+00 -1.01145E+00 -3.93147E-01
  -1.87081E+00 -5.73138E-01  1.25962E+00  2.28512E-01 -8.77083E-02 -9.54905E-01  3.72168E-01  1.14436E+00  3.48565E-01 -3.12832E+00
   8.16991E-01  3.13059E+00  5.51473E-01  1.43516E+00  2.08664E+00  3.32972E+00  1.15992E+00  7.34170E-01  2.14748E+00  2.18566E+00
   2.10127E+00 -7.94498E-02 -9.45659E-01  1.11170E+00  3.06980E-01  1.39991E+00 -6.88354E-01  1.00970E-01  1.09625E+00  2.71364E+00
  -1.73001E-01  2.54453E+00  1.31139E+00  1.50450E+00  2.62543E-01  1.14267E+00 -2.23350E-01  5.41470E-01  5.09074E-01 -7.18005E-01
   3.51710E+00  2.15973E+00 -1.30397E+00 -1.84794E+00 -3.02613E-01  1.69550E+00  3.01415E-01 -2.11317E-01  1.61440E+00 -2.04486E-02
  -3.95049E-01  9.73028E-01  2.05411E-01 -1.89579E+00 -1.29448E+00 -2.24608E+00  7.97076E-01  8.94365E-01  3.29204E-01  1.54701E+00
   1.85825E+00 -5.24727E-01  2.20774E+00  2.42366E+00  1.49282E+00 -1.13664E+00  9.74903E-01  1.11067E+00 -2.19416E+00  4.61418E-01
   1.36018E+00  3.87177E+00  6.00293E-02 -1.27304E+00 -2.25947E+00 -8.07186E-01  5.14529E-01  4.45025E-01 -1.64661E+00  3.99906E-02
  -1.02879E+00 -1.74347E+00 -5.53649E-01  1.19977E+00 -1.54214E+00 -2.47370E-01  1.70243E-01 -9.73024E-01  1.78070E+00 -2.16851E-02
  -1.38665E-01 -8.21754E-01 -6.33856E-01  2.93825E-01  2.39187E+00 -8.48263E-01 -8.15651E-01  1.66457E+00  1.49290E+00  2.70105E-01
   6.23508E-01  3.77172E-01  5.55794E-01 -1.50964E-01 -1.21153E+00  6.12430E-01  2.54991E-01  7.55306E-01 -7.45203E-02  1.99090E-02
   6.62105E-02 -6.74502E-01  9.01985E-01  2.76356E-01  2.36797E+00  1.38825E+00  3.57106E+00  2.29716E+00
 NY points of the fit to the data follow
  -9.76961E-01 -9.73992E-01 -9.68934E-01 -9.58959E-01 -9.50647E-01 -9.52153E-01 -9.63807E-01 -9.79054E-01 -9.90760E-01 -9.96269E-01
  -9.97123E-01 -9.94827E-01 -9.88606E-01 -9.76944E-01 -9.59833E-01 -9.39542E-01 -9.21160E-01 -9.09868E-01 -9.02810E-01 -8.98157E-01
  -8.97950E-01 -8.79377E-01 -7.96631E-01 -6.80959E-01 -6.05424E-01 -6.19833E-01 -7.33953E-01 -9.08849E-01 -1.07048E+00 -1.13840E+00
  -1.07370E+00 -9.10161E-01 -7.11714E-01 -5.40105E-01 -4.54116E-01 -4.67958E-01 -5.63623E-01 -6.83884E-01 -8.01901E-01 -9.11471E-01
  -9.88620E-01 -1.00042E+00 -9.36085E-01 -8.30062E-01 -7.30199E-01 -6.67079E-01 -6.61742E-01 -7.00667E-01 -7.37113E-01 -7.60516E-01
  -7.75995E-01 -7.86872E-01 -7.94645E-01 -8.00253E-01 -8.04179E-01 -8.06545E-01 -8.07607E-01 -8.07680E-01 -8.07005E-01 -8.06052E-01
  -8.04778E-01 -8.03165E-01 -8.01176E-01 -7.98878E-01 -7.96504E-01 -7.94261E-01 -7.92128E-01 -7.90035E-01 -7.88068E-01 -7.86515E-01
  -7.85413E-01 -7.84103E-01 -7.82005E-01 -7.79078E-01 -7.75729E-01 -7.72416E-01 -7.69445E-01 -7.66661E-01 -7.63864E-01 -7.61078E-01
  -7.58665E-01 -7.56442E-01 -7.53636E-01 -7.49725E-01 -7.44911E-01 -7.39990E-01 -7.35426E-01 -7.31191E-01 -7.27097E-01 -7.23143E-01
  -7.19452E-01 -7.16113E-01 -7.13080E-01 -7.09990E-01 -7.06128E-01 -7.01523E-01 -6.97716E-01 -7.01037E-01 -7.10552E-01 -7.05576E-01
  -6.74765E-01 -6.25666E-01 -5.75219E-01 -5.36061E-01 -5.10389E-01 -4.93994E-01 -4.84864E-01 -4.84678E-01 -4.94756E-01 -5.13195E-01
  -5.32870E-01 -5.40908E-01 -5.32968E-01 -5.19604E-01 -5.04625E-01 -4.88797E-01 -4.72412E-01 -4.55676E-01 -4.38774E-01 -4.21912E-01
  -4.05307E-01 -3.89146E-01 -3.73559E-01 -3.58654E-01 -3.44604E-01 -3.31614E-01 -3.19836E-01 -3.09414E-01 -3.00514E-01 -2.93288E-01
  -2.87921E-01 -2.84510E-01 -2.83005E-01 -2.83346E-01 -2.85433E-01 -2.89113E-01 -2.94191E-01 -3.00519E-01 -3.07989E-01 -3.16491E-01
  -3.25885E-01 -3.35918E-01 -3.46324E-01 -3.56952E-01 -3.67700E-01 -3.78505E-01 -3.89224E-01 -3.99641E-01 -4.09621E-01 -4.19119E-01
  -4.28135E-01 -4.36612E-01 -4.44448E-01 -4.51559E-01 -4.57845E-01 -4.63295E-01 -4.68112E-01 -4.72532E-01 -4.76632E-01 -4.80353E-01
  -4.83434E-01 -4.85732E-01 -4.87339E-01 -4.88446E-01 -4.89200E-01 -4.89516E-01 -4.89260E-01 -4.88513E-01 -4.87597E-01 -4.86855E-01
  -4.86104E-01 -4.85050E-01 -4.83769E-01 -4.82301E-01 -4.80623E-01 -4.78592E-01 -4.76486E-01 -4.74609E-01 -4.72865E-01 -4.70939E-01
  -4.68383E-01 -4.65045E-01 -4.61637E-01 -4.58603E-01 -4.55661E-01 -4.51998E-01 -4.47139E-01 -4.41459E-01 -4.35665E-01 -4.29987E-01
  -4.23912E-01 -4.17386E-01 -4.10687E-01 -4.03795E-01 -3.95692E-01 -3.85840E-01 -3.74507E-01 -3.63018E-01 -3.52758E-01 -3.44406E-01
  -3.35212E-01 -3.05205E-01 -2.53417E-01 -1.96312E-01 -1.33384E-01 -8.70716E-02 -8.47190E-02 -1.40937E-01 -2.60074E-01 -4.23381E-01
  -6.15620E-01 -6.95490E-01 -5.42361E-01 -1.83623E-01  2.50991E-01  6.36114E-01  9.38836E-01  1.10628E+00  9.96537E-01  5.65804E-01
  -5.04680E-02 -6.59210E-01 -1.10232E+00 -1.30193E+00 -1.23089E+00 -9.76004E-01 -6.07543E-01 -1.80220E-01  2.35130E-01  5.53614E-01
   7.01762E-01  7.04389E-01  6.65207E-01  6.42901E-01  6.46494E-01  6.85888E-01  7.43087E-01  8.06680E-01  8.41878E-01  8.24479E-01
   7.82409E-01  7.66862E-01  7.90779E-01  8.54904E-01  9.65569E-01  1.11510E+00  1.26562E+00  1.36795E+00  1.39687E+00  1.37231E+00
   1.33271E+00  1.28947E+00  1.27643E+00  1.28246E+00  1.26707E+00  1.21803E+00  1.17605E+00  1.16330E+00  1.15857E+00  1.14880E+00
   1.13915E+00  1.13003E+00  1.12048E+00  1.11077E+00  1.09650E+00  1.06808E+00  1.00368E+00  9.03212E-01  7.83257E-01  6.66638E-01
   5.68526E-01  5.01608E-01  4.68648E-01  4.49706E-01  4.33789E-01  4.27798E-01  4.25287E-01  4.18730E-01  4.03598E-01  3.77645E-01
   3.41995E-01  3.05971E-01  2.78104E-01  2.59311E-01  2.48118E-01  2.44120E-01  2.47388E-01  2.56857E-01  2.69788E-01  2.84712E-01
   3.03137E-01  3.25752E-01  3.52730E-01  3.83974E-01  4.19177E-01  4.57737E-01  4.98518E-01  5.40397E-01  5.82594E-01  6.24193E-01
   6.64128E-01  7.01378E-01  7.34793E-01  7.63253E-01  7.85828E-01  8.01813E-01  8.10680E-01  8.12081E-01  8.05884E-01  7.92211E-01
   7.71494E-01  7.44500E-01  7.12058E-01  6.75010E-01  6.34311E-01  5.90974E-01  5.46019E-01  5.00425E-01  4.55092E-01  4.10807E-01
   3.68234E-01  3.27908E-01  2.90232E-01  2.55477E-01  2.23792E-01  1.95217E-01  1.69705E-01  1.47144E-01  1.27374E-01  1.10196E-01
   9.53858E-02  8.27093E-02  7.19376E-02  6.28550E-02  5.52599E-02  4.89638E-02  4.37936E-02  3.95964E-02  3.62430E-02  3.36244E-02
   3.16458E-02  3.02224E-02  2.92807E-02  2.87612E-02  2.86180E-02  2.88140E-02  2.93156E-02  3.00914E-02  3.11153E-02  3.23696E-02
   3.38431E-02  3.55261E-02  3.74080E-02  3.94784E-02  4.17314E-02  4.41675E-02  4.67901E-02  4.96017E-02  5.26032E-02  5.57976E-02
   5.91936E-02  6.28055E-02  6.66493E-02  7.07406E-02  7.50962E-02  7.97387E-02  8.46994E-02  9.00167E-02  9.57333E-02  1.01897E-01
   1.08562E-01  1.15801E-01  1.23700E-01  1.32360E-01  1.41897E-01  1.52445E-01  1.64160E-01  1.77229E-01  1.91864E-01  2.08301E-01
   2.26800E-01  2.47641E-01  2.71122E-01  2.97555E-01  3.27246E-01  3.60477E-01  3.97490E-01  4.38463E-01  4.83489E-01  5.32547E-01
   5.85475E-01  6.41937E-01  7.01415E-01  7.63196E-01  8.26374E-01  8.89858E-01  9.52398E-01  1.01262E+00  1.06907E+00  1.12030E+00
   1.16492E+00  1.20167E+00  1.22947E+00  1.24753E+00  1.25532E+00  1.25266E+00  1.23973E+00  1.21703E+00  1.18534E+00  1.14574E+00
   1.09946E+00  1.04792E+00  9.92548E-01  9.34802E-01  8.76053E-01  8.17556E-01  7.60413E-01  7.05539E-01  6.53656E-01  6.05284E-01
   5.60759E-01  5.20252E-01  4.83793E-01  4.51294E-01  4.22577E-01  3.97398E-01  3.75471E-01  3.56494E-01  3.40159E-01  3.26167E-01
   3.14232E-01  3.04090E-01  2.95501E-01  2.88256E-01  2.82171E-01  2.77084E-01  2.72855E-01  2.69361E-01  2.66503E-01  2.64196E-01
   2.62370E-01  2.60962E-01  2.59918E-01  2.59192E-01  2.58748E-01  2.58555E-01  2.58587E-01  2.58817E-01  2.59223E-01  2.59786E-01
   2.60492E-01  2.61330E-01  2.62286E-01  2.63349E-01  2.64509E-01  2.65757E-01  2.67088E-01  2.68497E-01  2.69975E-01  2.71516E-01
   2.73114E-01  2.74766E-01  2.76471E-01  2.78223E-01  2.80019E-01  2.81854E-01  2.83725E-01  2.85633E-01  2.87575E-01  2.89549E-01
   2.91550E-01  2.93577E-01  2.95629E-01  2.97707E-01  2.99810E-01  3.01935E-01  3.04079E-01  3.06242E-01  3.08423E-01  3.10623E-01
   3.12840E-01  3.15072E-01  3.17317E-01  3.19575E-01  3.21847E-01  3.24134E-01  3.26433E-01  3.28744E-01  3.31063E-01  3.33393E-01
   3.35734E-01  3.38087E-01  3.40448E-01  3.42818E-01  3.45195E-01  3.47580E-01  3.49975E-01  3.52379E-01
 NY background values follow
    -9.846E-01   -9.820E-01   -9.793E-01   -9.767E-01   -9.740E-01   -9.713E-01   -9.687E-01   -9.660E-01   -9.634E-01   -9.607E-01
    -9.581E-01   -9.554E-01   -9.527E-01   -9.501E-01   -9.474E-01   -9.448E-01   -9.421E-01   -9.395E-01   -9.368E-01   -9.341E-01
    -9.315E-01   -9.288E-01   -9.262E-01   -9.235E-01   -9.208E-01   -9.182E-01   -9.155E-01   -9.129E-01   -9.102E-01   -9.076E-01
    -9.049E-01   -9.022E-01   -8.996E-01   -8.969E-01   -8.943E-01   -8.916E-01   -8.889E-01   -8.863E-01   -8.836E-01   -8.810E-01
    -8.783E-01   -8.757E-01   -8.730E-01   -8.703E-01   -8.677E-01   -8.650E-01   -8.624E-01   -8.597E-01   -8.570E-01   -8.544E-01
    -8.517E-01   -8.491E-01   -8.464E-01   -8.438E-01   -8.411E-01   -8.384E-01   -8.358E-01   -8.331E-01   -8.305E-01   -8.278E-01
    -8.252E-01   -8.225E-01   -8.198E-01   -8.172E-01   -8.145E-01   -8.119E-01   -8.092E-01   -8.065E-01   -8.039E-01   -8.012E-01
    -7.986E-01   -7.959E-01   -7.933E-01   -7.906E-01   -7.879E-01   -7.853E-01   -7.826E-01   -7.800E-01   -7.773E-01   -7.746E-01
    -7.720E-01   -7.693E-01   -7.667E-01   -7.640E-01   -7.614E-01   -7.587E-01   -7.560E-01   -7.534E-01   -7.507E-01   -7.481E-01
    -7.454E-01   -7.428E-01   -7.401E-01   -7.374E-01   -7.348E-01   -7.321E-01   -7.295E-01   -7.268E-01   -7.241E-01   -7.215E-01
    -7.188E-01   -7.162E-01   -7.135E-01   -7.109E-01   -7.082E-01   -7.055E-01   -7.029E-01   -7.002E-01   -6.976E-01   -6.949E-01
    -6.922E-01   -6.896E-01   -6.869E-01   -6.843E-01   -6.816E-01   -6.790E-01   -6.763E-01   -6.736E-01   -6.710E-01   -6.683E-01
    -6.657E-01   -6.630E-01   -6.604E-01   -6.577E-01   -6.550E-01   -6.524E-01   -6.497E-01   -6.471E-01   -6.444E-01   -6.417E-01
    -6.391E-01   -6.364E-01   -6.338E-01   -6.311E-01   -6.285E-01   -6.258E-01   -6.231E-01   -6.205E-01   -6.178E-01   -6.152E-01
    -6.125E-01   -6.099E-01   -6.072E-01   -6.045E-01   -6.019E-01   -5.992E-01   -5.966E-01   -5.939E-01   -5.912E-01   -5.886E-01
    -5.859E-01   -5.833E-01   -5.806E-01   -5.780E-01   -5.753E-01   -5.726E-01   -5.700E-01   -5.673E-01   -5.647E-01   -5.620E-01
    -5.594E-01   -5.567E-01   -5.540E-01   -5.514E-01   -5.487E-01   -5.461E-01   -5.434E-01   -5.407E-01   -5.381E-01   -5.354E-01
    -5.328E-01   -5.301E-01   -5.275E-01   -5.248E-01   -5.221E-01   -5.195E-01   -5.168E-01   -5.142E-01   -5.115E-01   -5.089E-01
    -5.062E-01   -5.035E-01   -5.009E-01   -4.982E-01   -4.956E-01   -4.929E-01   -4.903E-01   -4.876E-01   -4.849E-01   -4.823E-01
    -4.796E-01   -4.770E-01   -4.743E-01   -4.716E-01   -4.690E-01   -4.663E-01   -4.637E-01   -4.610E-01   -4.584E-01   -4.557E-01
    -4.530E-01   -4.504E-01   -4.477E-01   -4.451E-01   -4.424E-01   -4.398E-01   -4.371E-01   -4.344E-01   -4.318E-01   -4.291E-01
    -4.265E-01   -4.238E-01   -4.212E-01   -4.185E-01   -4.158E-01   -4.132E-01   -4.105E-01   -4.079E-01   -4.052E-01   -4.025E-01
    -3.999E-01   -3.972E-01   -3.946E-01   -3.919E-01   -3.893E-01   -3.866E-01   -3.839E-01   -3.813E-01   -3.786E-01   -3.760E-01
    -3.733E-01   -3.707E-01   -3.680E-01   -3.653E-01   -3.627E-01   -3.600E-01   -3.574E-01   -3.547E-01   -3.521E-01   -3.494E-01
    -3.467E-01   -3.441E-01   -3.414E-01   -3.388E-01   -3.361E-01   -3.335E-01   -3.308E-01   -3.281E-01   -3.255E-01   -3.228E-01
    -3.202E-01   -3.175E-01   -3.149E-01   -3.122E-01   -3.095E-01   -3.069E-01   -3.042E-01   -3.016E-01   -2.989E-01   -2.963E-01
    -2.936E-01   -2.909E-01   -2.883E-01   -2.856E-01   -2.830E-01   -2.803E-01   -2.776E-01   -2.750E-01   -2.723E-01   -2.697E-01
    -2.670E-01   -2.644E-01   -2.617E-01   -2.590E-01   -2.564E-01   -2.537E-01   -2.511E-01   -2.484E-01   -2.458E-01   -2.431E-01
    -2.404E-01   -2.378E-01   -2.351E-01   -2.325E-01   -2.298E-01   -2.272E-01   -2.245E-01   -2.218E-01   -2.192E-01   -2.165E-01
    -2.139E-01   -2.112E-01   -2.086E-01   -2.059E-01   -2.032E-01   -2.006E-01   -1.979E-01   -1.953E-01   -1.926E-01   -1.900E-01
    -1.873E-01   -1.846E-01   -1.820E-01   -1.793E-01   -1.767E-01   -1.740E-01   -1.714E-01   -1.687E-01   -1.660E-01   -1.634E-01
    -1.607E-01   -1.581E-01   -1.554E-01   -1.528E-01   -1.501E-01   -1.474E-01   -1.448E-01   -1.421E-01   -1.395E-01   -1.368E-01
    -1.342E-01   -1.315E-01   -1.288E-01   -1.262E-01   -1.235E-01   -1.209E-01   -1.182E-01   -1.156E-01   -1.129E-01   -1.102E-01
    -1.076E-01   -1.049E-01   -1.023E-01   -9.961E-02   -9.696E-02   -9.430E-02   -9.164E-02   -8.899E-02   -8.633E-02   -8.367E-02
    -8.102E-02   -7.836E-02   -7.570E-02   -7.304E-02   -7.039E-02   -6.773E-02   -6.507E-02   -6.242E-02   -5.976E-02   -5.710E-02
    -5.444E-02   -5.179E-02   -4.913E-02   -4.647E-02   -4.382E-02   -4.116E-02   -3.850E-02   -3.584E-02   -3.319E-02   -3.053E-02
    -2.787E-02   -2.522E-02   -2.256E-02   -1.990E-02   -1.724E-02   -1.459E-02   -1.193E-02   -9.273E-03   -6.616E-03   -3.959E-03
    -1.301E-03    1.356E-03    4.013E-03    6.670E-03    9.327E-03    1.198E-02    1.464E-02    1.730E-02    1.996E-02    2.261E-02
     2.527E-02    2.793E-02    3.058E-02    3.324E-02    3.590E-02    3.856E-02    4.121E-02    4.387E-02    4.653E-02    4.918E-02
     5.184E-02    5.450E-02    5.716E-02    5.981E-02    6.247E-02    6.513E-02    6.778E-02    7.044E-02    7.310E-02    7.575E-02
     7.841E-02    8.107E-02    8.373E-02    8.638E-02    8.904E-02    9.170E-02    9.435E-02    9.701E-02    9.967E-02    1.023E-01
     1.050E-01    1.076E-01    1.103E-01    1.130E-01    1.156E-01    1.183E-01    1.209E-01    1.236E-01    1.262E-01    1.289E-01
     1.316E-01    1.342E-01    1.369E-01    1.395E-01    1.422E-01    1.448E-01    1.475E-01    1.502E-01    1.528E-01    1.555E-01
     1.581E-01    1.608E-01    1.634E-01    1.661E-01    1.688E-01    1.714E-01    1.741E-01    1.767E-01    1.794E-01    1.820E-01
     1.847E-01    1.874E-01    1.900E-01    1.927E-01    1.953E-01    1.980E-01    2.006E-01    2.033E-01    2.060E-01    2.086E-01
     2.113E-01    2.139E-01    2.166E-01    2.192E-01    2.219E-01    2.246E-01    2.272E-01    2.299E-01    2.325E-01    2.352E-01
     2.378E-01    2.405E-01    2.432E-01    2.458E-01    2.485E-01    2.511E-01    2.538E-01    2.564E-01    2.591E-01    2.618E-01
     2.644E-01    2.671E-01    2.697E-01    2.724E-01    2.750E-01    2.777E-01    2.804E-01    2.830E-01    2.857E-01    2.883E-01
     2.910E-01    2.936E-01    2.963E-01    2.990E-01    3.016E-01    3.043E-01    3.069E-01    3.096E-01    3.122E-01    3.149E-01
     3.176E-01    3.202E-01    3.229E-01    3.255E-01    3.282E-01    3.308E-01    3.335E-01    3.362E-01
 Asp      Conc. = 2.21E-01
