 LCModel (Version 6.3-1L) Copyright: S.W. Provencher.          Ref.: Magn. Reson. Med. 30:672-679 (1993).                
 Slice#2 Row#10 Col#7  PD_05_press_1_raw_act
 36 lines in following concentration table = NCONC+1
    Conc.  %SD /Cr+PCr  Metabolite                                         
   95.082  85% 7.7E-02 Ala                                                 
   75.052 243% 6.1E-02 Asp                                                 
  467.377  31%   0.377 Cr                                                  
  772.154  19%   0.623 PCr                                                 
    0.000 999%   0.000 GABA                                                
    0.000 999%   0.000 Glc                                                 
  731.511  22%   0.590 Gln                                                 
 1.68E+03  11%   1.354 Glu                                                 
  408.564   4%   0.330 GPC                                                 
    0.000 999%   0.000 PCh                                                 
  440.155  12%   0.355 GSH                                                 
 1.26E+03  15%   1.014 Ins                                                 
   96.216  88% 7.8E-02 Lac                                                 
 2.08E+03   4%   1.675 NAA                                                 
  199.008  38%   0.161 NAAG                                                
   79.949  25% 6.4E-02 Scyllo                                              
    0.000 999%   0.000 Tau                                                 
    0.000 999%   0.000 -CrCH2                                              
  408.564   4%   0.330 GPC+PCh                                             
 2.28E+03   3%   1.836 NAA+NAAG                                            
 1.24E+03   3%   1.000 Cr+PCr                                              
 2.41E+03  11%   1.944 Glu+Gln                                             
 1.49E+03  33%   1.200 Lip13a                                              
    0.000 999%   0.000 Lip13b                                              
  168.350 103%   0.136 Lip09                                               
 1.23E+03  18%   0.989 MM09                                                
  210.213  52%   0.170 Lip20                                               
 2.74E+03  11%   2.212 MM20                                                
  395.176  34%   0.319 MM12                                                
 2.94E+03  14%   2.375+MM14                                                
 1.28E+03  18%   1.030 MM17                                                
 1.49E+03  33%   1.200 Lip13a+Lip13b                                       
 4.83E+03   7%   3.895 MM14+Lip13a+Lip13b+MM12                             
 1.39E+03  12%   1.125 MM09+Lip09                                          
 2.95E+03  10%   2.381 MM20+Lip20                                          
   6 lines in following misc. output table
  FWHM = 0.046 ppm    S/N =  15                                            
  Data shift = 0.023 ppm                                                   
  Ph: -15 deg      -5.8 deg/ppm                                            
  alphaB,S = 1.6E+00,   9.7E+01                                            
   14 spline knots.   Ns = 6(1)                                            
  ( 6) 4 infls.   ( 3) 1 extrs.                                            
  498 points on ppm-axis = NY
      4.000000     3.992357     3.984714     3.977070     3.969427     3.961784     3.954141     3.946497     3.938854     3.931211
      3.923568     3.915925     3.908281     3.900638     3.892995     3.885352     3.877708     3.870065     3.862422     3.854779
      3.847136     3.839492     3.831849     3.824206     3.816563     3.808919     3.801276     3.793633     3.785990     3.778347
      3.770703     3.763060     3.755417     3.747774     3.740130     3.732487     3.724844     3.717201     3.709558     3.701914
      3.694271     3.686628     3.678985     3.671341     3.663698     3.656055     3.648412     3.640769     3.633125     3.625482
      3.617839     3.610196     3.602552     3.594909     3.587266     3.579623     3.571980     3.564336     3.556693     3.549050
      3.541407     3.533763     3.526120     3.518477     3.510834     3.503191     3.495547     3.487904     3.480261     3.472618
      3.464974     3.457331     3.449688     3.442045     3.434402     3.426758     3.419115     3.411472     3.403829     3.396185
      3.388542     3.380899     3.373256     3.365613     3.357969     3.350326     3.342683     3.335040     3.327396     3.319753
      3.312110     3.304467     3.296824     3.289180     3.281537     3.273894     3.266251     3.258607     3.250964     3.243321
      3.235678     3.228034     3.220391     3.212748     3.205105     3.197462     3.189818     3.182175     3.174532     3.166889
      3.159245     3.151602     3.143959     3.136316     3.128673     3.121029     3.113386     3.105743     3.098100     3.090456
      3.082813     3.075170     3.067527     3.059884     3.052240     3.044597     3.036954     3.029311     3.021667     3.014024
      3.006381     2.998738     2.991095     2.983451     2.975808     2.968165     2.960522     2.952878     2.945235     2.937592
      2.929949     2.922306     2.914662     2.907019     2.899376     2.891733     2.884089     2.876446     2.868803     2.861160
      2.853517     2.845873     2.838230     2.830587     2.822944     2.815300     2.807657     2.800014     2.792371     2.784728
      2.777084     2.769441     2.761798     2.754155     2.746511     2.738868     2.731225     2.723582     2.715939     2.708295
      2.700652     2.693009     2.685366     2.677722     2.670079     2.662436     2.654793     2.647150     2.639506     2.631863
      2.624220     2.616577     2.608933     2.601290     2.593647     2.586004     2.578361     2.570717     2.563074     2.555431
      2.547788     2.540144     2.532501     2.524858     2.517215     2.509572     2.501928     2.494285     2.486642     2.478999
      2.471355     2.463712     2.456069     2.448426     2.440783     2.433139     2.425496     2.417853     2.410210     2.402566
      2.394923     2.387280     2.379637     2.371994     2.364350     2.356707     2.349064     2.341421     2.333777     2.326134
      2.318491     2.310848     2.303205     2.295561     2.287918     2.280275     2.272632     2.264988     2.257345     2.249702
      2.242059     2.234416     2.226772     2.219129     2.211486     2.203843     2.196199     2.188556     2.180913     2.173270
      2.165627     2.157983     2.150340     2.142697     2.135054     2.127410     2.119767     2.112124     2.104481     2.096838
      2.089194     2.081551     2.073908     2.066265     2.058621     2.050978     2.043335     2.035692     2.028049     2.020405
      2.012762     2.005119     1.997476     1.989833     1.982190     1.974546     1.966903     1.959260     1.951617     1.943974
      1.936331     1.928688     1.921045     1.913402     1.905759     1.898115     1.890472     1.882829     1.875186     1.867543
      1.859900     1.852257     1.844614     1.836971     1.829327     1.821684     1.814041     1.806398     1.798755     1.791112
      1.783469     1.775826     1.768183     1.760540     1.752896     1.745253     1.737610     1.729967     1.722324     1.714681
      1.707038     1.699395     1.691752     1.684108     1.676465     1.668822     1.661179     1.653536     1.645893     1.638250
      1.630607     1.622964     1.615321     1.607677     1.600034     1.592391     1.584748     1.577105     1.569462     1.561819
      1.554176     1.546533     1.538890     1.531246     1.523603     1.515960     1.508317     1.500674     1.493031     1.485388
      1.477745     1.470102     1.462458     1.454815     1.447172     1.439529     1.431886     1.424243     1.416600     1.408957
      1.401314     1.393671     1.386027     1.378384     1.370741     1.363098     1.355455     1.347812     1.340169     1.332526
      1.324883     1.317240     1.309596     1.301953     1.294310     1.286667     1.279024     1.271381     1.263738     1.256095
      1.248452     1.240808     1.233165     1.225522     1.217879     1.210236     1.202593     1.194950     1.187307     1.179664
      1.172021     1.164377     1.156734     1.149091     1.141448     1.133805     1.126162     1.118519     1.110876     1.103233
      1.095590     1.087946     1.080303     1.072660     1.065017     1.057374     1.049731     1.042088     1.034445     1.026802
      1.019158     1.011515     1.003872     0.996229     0.988586     0.980943     0.973300     0.965657     0.958014     0.950371
      0.942727     0.935084     0.927441     0.919798     0.912155     0.904512     0.896869     0.889226     0.881583     0.873940
      0.866296     0.858653     0.851010     0.843367     0.835724     0.828081     0.820438     0.812795     0.805152     0.797508
      0.789865     0.782222     0.774579     0.766936     0.759293     0.751650     0.744007     0.736364     0.728721     0.721077
      0.713434     0.705791     0.698148     0.690505     0.682862     0.675219     0.667576     0.659933     0.652290     0.644646
      0.637003     0.629360     0.621717     0.614074     0.606431     0.598788     0.591145     0.583502     0.575858     0.568215
      0.560572     0.552929     0.545286     0.537643     0.530000     0.522357     0.514714     0.507071     0.499427     0.491784
      0.484141     0.476498     0.468855     0.461212     0.453569     0.445925     0.438282     0.430639     0.422996     0.415353
      0.407710     0.400067     0.392424     0.384780     0.377137     0.369494     0.361851     0.354208     0.346565     0.338922
      0.331278     0.323635     0.315992     0.308349     0.300706     0.293063     0.285420     0.277777     0.270133     0.262490
      0.254847     0.247204     0.239561     0.231918     0.224275     0.216631     0.208988     0.201345
 NY phased data points follow
   4.92744E+00  4.98647E+00  6.50373E+00  8.60088E+00  7.30196E+00  1.00870E+01  1.26632E+01  2.14207E+01  3.02030E+01  3.69147E+01
   3.52880E+01  3.70653E+01  3.24796E+01  3.13400E+01  2.45313E+01  1.81812E+01  1.13309E+01  1.59054E+01  1.42122E+01  1.05017E+01
   8.86862E+00  9.99375E+00  1.19648E+01  9.53141E+00  1.11790E+01  1.39210E+01  1.19438E+01  1.45404E+01  1.50864E+01  1.49702E+01
   1.66785E+01  1.86108E+01  2.08461E+01  1.35242E+01  1.19614E+01  1.14695E+01  8.43566E+00  1.27024E+01  1.37832E+01  1.29378E+01
   1.13359E+01  1.18350E+01  9.62267E+00  1.07829E+01  1.31562E+01  1.42865E+01  1.69253E+01  1.87025E+01  2.06728E+01  2.30883E+01
   1.10973E+01  7.93739E+00  7.00129E+00  8.75551E+00  8.56469E+00  9.91553E+00  7.63552E+00  1.17258E+01  8.86142E+00  1.15066E+01
   8.86776E+00  8.80928E+00  5.03374E+00  4.05094E+00  2.37029E+00  5.05153E+00 -1.36971E+00  4.05948E+00  1.47044E+00  6.06590E+00
   2.85572E+00  4.18008E+00  1.30841E+00  4.41811E+00  4.34578E+00  4.15808E+00  6.69246E-01  3.11738E+00  2.39180E+00  2.04355E+00
   1.43395E+00  9.50177E-01  2.38579E+00  1.23208E+00  3.97286E+00  7.46921E+00  3.69771E+00  1.79369E+00  5.90247E+00  5.63193E+00
   3.60917E+00  5.11590E+00  6.14168E+00  8.19956E+00  5.81916E+00  3.98569E+00  5.94322E-01  2.30122E+00  7.77701E+00  1.15767E+01
   2.17455E+01  3.54284E+01  4.02109E+01  4.18540E+01  3.76434E+01  2.93577E+01  2.88478E+01  2.02111E+01  1.63397E+01  1.44345E+01
   1.09803E+01  7.44629E+00  7.71938E+00  5.83252E+00  7.67874E+00  8.12778E+00  4.00501E+00  7.07877E+00  2.91262E+00  5.14901E+00
   2.88183E+00  4.73467E-01  5.21952E+00  1.03583E+01  2.00707E+01  3.59077E+01  4.84114E+01  4.95860E+01  4.60818E+01  3.92230E+01
   3.21773E+01  2.66176E+01  1.74991E+01  1.39478E+01  9.96256E+00  5.30682E+00  4.76242E+00  4.31966E+00  3.04709E+00  1.65388E+00
   1.77139E+00  4.26156E+00  4.72780E+00  7.73766E+00  7.65485E-01  1.83375E+00  3.71358E+00  1.58907E+00 -2.00913E+00  7.85555E-01
   1.35320E+00 -1.31336E+00 -2.46275E-02 -5.40682E-01  3.61035E+00 -2.15854E+00 -1.76098E+00  2.91224E+00 -9.93289E-01  1.53881E+00
  -7.14201E+00 -2.89555E+00 -4.45267E+00  1.67283E-01 -3.19154E+00  3.03399E-01  5.44081E-01 -4.65097E+00 -3.02906E+00 -3.79882E+00
  -6.10272E-01 -4.05914E+00 -7.49382E+00 -7.65387E+00 -1.30114E+01 -1.48495E+01 -7.50891E+00 -1.08371E+01 -6.89319E+00 -1.06675E+01
  -9.89594E+00 -9.75683E+00 -1.14695E+01 -8.32469E+00 -6.68673E+00 -7.01452E+00 -3.75789E+00 -5.19262E+00 -2.61023E+00  2.51457E+00
   6.45876E-01  1.16966E+00  2.42845E+00  2.24317E+00  4.68444E+00  2.11682E+00  4.73545E-01 -1.20934E+00 -3.61924E+00 -4.14019E+00
  -1.65324E+00  2.59330E+00  2.64025E+00  5.91250E+00  4.38933E+00  4.77545E+00  9.75491E-01 -1.63411E+00 -9.76868E-01 -5.15563E+00
  -6.15487E+00 -3.93932E+00 -4.14694E-01  4.10781E+00  1.14759E+01  1.31439E+01  1.57371E+01  8.62084E+00  8.05948E+00  2.43349E+00
  -1.69681E+00 -6.20230E+00 -3.86005E+00 -1.40873E+00 -1.64940E+00  5.53016E+00  6.19968E+00  9.75992E+00  8.98380E+00  8.85068E+00
   8.85754E+00  5.58272E+00  1.00282E+01  9.20025E+00  8.29216E+00  6.81895E+00  5.15344E+00  6.89230E+00  3.94592E+00  8.88589E+00
   3.86377E+00  6.24489E+00  3.49603E+00  6.86836E+00  5.01511E+00  6.39063E+00  9.07595E+00  1.03923E+01  1.26560E+01  1.67630E+01
   1.38772E+01  1.63668E+01  1.47596E+01  1.97456E+01  2.40874E+01  2.44250E+01  2.87014E+01  4.16069E+01  6.78530E+01  8.65429E+01
   9.21350E+01  8.40377E+01  6.76773E+01  5.61307E+01  4.30289E+01  3.15073E+01  2.47834E+01  1.67556E+01  1.45213E+01  9.41360E+00
   8.33482E+00  9.26544E+00  8.21544E+00  6.81770E+00  1.24348E+00  7.62717E+00  4.46282E+00  3.24497E+00  5.72817E+00  2.52150E+00
   9.50274E-01  2.07361E+00  2.93750E+00  3.74251E+00  4.88817E-01  4.19142E+00 -9.24227E-01  4.03406E+00  3.58183E+00  2.89986E+00
   1.33821E+00  3.11673E+00  3.54775E+00  9.69108E-01  7.94327E+00  3.25356E+00  9.06707E+00  5.51772E+00  6.55136E-01  6.38782E+00
   3.32499E+00  5.34017E+00  2.96657E-01  7.16882E+00  9.47411E+00  5.99207E+00  5.86877E+00  9.78647E+00  9.27533E+00  9.84931E+00
   1.06938E+01  9.02678E+00  1.11427E+01  1.29627E+01  7.37067E+00  8.64709E+00  1.11619E+01  9.34251E+00  8.95344E+00  1.49606E+01
   1.28922E+01  7.54939E+00  1.34431E+01  1.21433E+01  1.18872E+01  1.68290E+01  1.06294E+01  1.51818E+01  1.36161E+01  1.32950E+01
   1.81358E+01  1.83654E+01  1.68024E+01  1.69438E+01  2.04314E+01  2.05541E+01  2.24438E+01  2.14027E+01  2.23852E+01  2.27254E+01
   1.90148E+01  2.07169E+01  2.06521E+01  2.54267E+01  2.49266E+01  2.02968E+01  2.15755E+01  2.00467E+01  2.19063E+01  1.89307E+01
   1.56498E+01  1.39998E+01  1.23413E+01  1.50416E+01  1.48137E+01  1.46738E+01  1.05843E+01  9.54122E+00  1.12777E+01  1.03303E+01
   9.81930E+00  9.05997E+00  6.35128E+00  8.97997E+00  7.21307E+00  7.27368E+00  3.93356E+00  7.86042E+00  5.88575E+00  4.19363E+00
   5.70678E+00  6.13015E+00  1.96369E+00  8.25757E+00  6.29044E+00  5.00705E+00  2.16590E+00  3.63660E+00  4.52464E-01 -6.60616E-01
  -2.64341E+00  4.51557E+00  2.41003E+00 -5.69382E-01  2.83405E+00  3.02621E+00 -2.80309E-01  1.42074E+00 -8.34368E-01  3.59638E+00
   2.80130E+00  4.77785E+00  4.63009E+00  4.05532E+00  2.12934E+00  5.26414E+00  5.76527E+00  3.94830E+00  4.99051E+00  6.07297E+00
   1.87639E+00  6.07056E+00  5.76418E+00  4.52026E+00  3.53016E+00  7.25767E+00  1.02114E+01  8.39194E+00  8.00178E+00  7.53628E+00
   8.00832E+00  8.84894E+00  6.87354E+00  7.06171E+00  8.28621E+00  1.92317E+00  2.07001E+00  3.48816E+00  2.85374E+00  6.08989E+00
   2.80686E+00  1.08403E+00 -1.75760E+00  1.26787E+00  2.49973E-01 -9.68681E-01 -1.34061E+00 -2.13503E+00  2.63869E+00  1.12313E+00
   5.15988E-02  3.37435E+00  2.29790E+00 -1.01354E+00  2.24031E+00 -8.99095E-01 -1.49727E+00  1.77047E+00  7.91689E-01 -2.08498E+00
   9.31882E-01 -2.02946E+00 -2.76416E+00  7.61959E-02 -1.96198E+00 -2.64666E+00 -3.65767E+00 -2.52420E+00 -2.42977E+00 -7.39603E-01
  -1.64916E+00 -2.83287E+00  8.73454E-01  2.31826E+00  1.01312E-01  2.11629E+00 -2.97334E-03 -2.36353E-01 -7.86853E-01  2.79877E+00
   4.68014E-01 -6.47356E-02 -1.16751E-01 -1.85892E-01 -4.21650E+00 -1.39758E+00 -5.49407E-01 -1.21994E+00 -2.95353E-01 -1.35557E+00
  -1.38605E+00  1.27424E+00 -2.31289E+00 -3.47482E-01 -1.40985E+00  3.13321E+00 -8.72659E-01 -1.32203E+00  8.46982E-02 -8.42064E-01
   1.43710E+00  9.18814E-01 -1.92222E+00  1.63800E+00  1.56033E+00 -2.95897E+00 -3.69555E+00 -2.94607E+00  1.19064E+00  4.00423E-01
  -1.83068E+00 -1.55980E+00 -1.27728E+00  4.80432E-03  3.99851E+00  1.75032E+00 -1.38811E+00  2.32342E+00
 NY points of the fit to the data follow
   7.52890E+00  6.97853E+00  6.71480E+00  6.73065E+00  7.49127E+00  9.77324E+00  1.44495E+01  2.14392E+01  2.90036E+01  3.46809E+01
   3.67997E+01  3.54138E+01  3.18567E+01  2.76060E+01  2.36609E+01  2.02419E+01  1.69908E+01  1.40089E+01  1.19586E+01  1.05883E+01
   9.93604E+00  9.60607E+00  9.39476E+00  9.20311E+00  9.08326E+00  9.45301E+00  1.07695E+01  1.28243E+01  1.48969E+01  1.66075E+01
   1.79728E+01  1.88194E+01  1.87101E+01  1.74393E+01  1.53039E+01  1.27190E+01  1.00080E+01  8.09786E+00  7.28694E+00  6.98197E+00
   6.98990E+00  7.31042E+00  8.03010E+00  9.53266E+00  1.20026E+01  1.49846E+01  1.72365E+01  1.77121E+01  1.65030E+01  1.43342E+01
   1.19266E+01  9.82779E+00  8.25740E+00  7.06326E+00  6.10491E+00  5.63145E+00  5.94120E+00  6.85884E+00  7.91060E+00  8.62204E+00
   8.68068E+00  8.07702E+00  7.04876E+00  5.95990E+00  5.15368E+00  4.74746E+00  4.62803E+00  4.73424E+00  5.06549E+00  5.55209E+00
   6.06671E+00  6.38033E+00  6.39715E+00  6.17271E+00  5.82015E+00  5.44883E+00  5.11578E+00  4.84354E+00  4.59637E+00  4.34155E+00
   4.16834E+00  4.12762E+00  4.31779E+00  4.83760E+00  5.54706E+00  5.97909E+00  5.73387E+00  4.89325E+00  3.89978E+00  3.16207E+00
   2.81327E+00  2.79185E+00  2.96181E+00  3.09309E+00  3.01714E+00  2.86383E+00  2.72848E+00  3.09307E+00  5.42034E+00  1.16342E+01
   2.21469E+01  3.38561E+01  4.18117E+01  4.32674E+01  3.93059E+01  3.29143E+01  2.63314E+01  2.05210E+01  1.57680E+01  1.15399E+01
   7.29510E+00  4.41439E+00  3.42964E+00  3.05534E+00  2.86029E+00  2.71886E+00  2.58572E+00  2.46328E+00  2.39490E+00  2.44264E+00
   2.70475E+00  3.52554E+00  5.99622E+00  1.20721E+01  2.29416E+01  3.61970E+01  4.63654E+01  4.95836E+01  4.63647E+01  3.99731E+01
   3.30922E+01  2.65712E+01  2.05889E+01  1.48953E+01  9.00002E+00  4.42548E+00  2.92834E+00  2.91990E+00  3.44341E+00  3.96831E+00
   4.24618E+00  4.32996E+00  4.24713E+00  4.03510E+00  3.76361E+00  3.42557E+00  3.02201E+00  2.59623E+00  2.15047E+00  1.77100E+00
   1.42926E+00  1.11430E+00  8.68931E-01  7.39560E-01  7.29422E-01  7.72983E-01  7.48897E-01  4.90544E-01 -1.03416E-01 -8.84500E-01
  -1.46979E+00 -1.53987E+00 -1.12947E+00 -6.11038E-01 -3.94753E-01 -6.25376E-01 -1.15069E+00 -1.69091E+00 -2.04859E+00 -2.27655E+00
  -2.54729E+00 -2.96085E+00 -3.62696E+00 -4.42089E+00 -5.04115E+00 -5.25100E+00 -4.99625E+00 -4.59926E+00 -4.46643E+00 -4.65145E+00
  -4.86361E+00 -4.88004E+00 -4.74325E+00 -4.60870E+00 -4.53419E+00 -4.29416E+00 -3.38260E+00 -1.72708E+00  2.13437E-01  1.73917E+00
   2.36164E+00  2.16142E+00  1.38995E+00  3.88943E-01 -4.48269E-01 -9.41330E-01 -1.06951E+00 -7.13301E-01  9.44500E-02  1.31182E+00
   2.88052E+00  4.60000E+00  6.12532E+00  7.01387E+00  6.77212E+00  5.17421E+00  2.45602E+00 -8.51845E-01 -3.82301E+00 -5.55636E+00
  -5.65219E+00 -4.10388E+00 -9.42448E-01  3.38065E+00  7.52329E+00  9.89484E+00  9.88720E+00  7.90551E+00  4.25789E+00 -3.22205E-01
  -4.48484E+00 -6.92431E+00 -7.03444E+00 -5.17085E+00 -2.07870E+00  1.25230E+00  3.89639E+00  5.54891E+00  6.31366E+00  6.64507E+00
   6.82829E+00  6.87209E+00  6.94359E+00  7.23425E+00  7.63939E+00  8.04123E+00  8.32475E+00  8.42016E+00  8.26245E+00  7.70387E+00
   6.84479E+00  6.20960E+00  6.30927E+00  7.11327E+00  8.14388E+00  9.12639E+00  9.87707E+00  1.02860E+01  1.04287E+01  1.06965E+01
   1.15853E+01  1.31679E+01  1.55736E+01  1.85247E+01  2.14102E+01  2.49167E+01  3.23025E+01  4.70807E+01  6.73195E+01  8.43355E+01
   9.02163E+01  8.41739E+01  7.11824E+01  5.68394E+01  4.41522E+01  3.38860E+01  2.55236E+01  1.72265E+01  9.65568E+00  6.36778E+00
   5.29843E+00  4.79922E+00  4.61251E+00  4.55736E+00  4.42249E+00  4.21035E+00  3.94495E+00  3.64128E+00  3.32459E+00  3.03632E+00
   2.78487E+00  2.57424E+00  2.41803E+00  2.31148E+00  2.23223E+00  2.16381E+00  2.10803E+00  2.08152E+00  2.09772E+00  2.15431E+00
   2.25566E+00  2.40177E+00  2.58476E+00  2.79766E+00  3.03980E+00  3.31133E+00  3.61305E+00  3.94763E+00  4.31670E+00  4.71891E+00
   5.15134E+00  5.60507E+00  6.06808E+00  6.52808E+00  6.97491E+00  7.40123E+00  7.79911E+00  8.15905E+00  8.47648E+00  8.74827E+00
   8.97318E+00  9.15374E+00  9.29540E+00  9.40526E+00  9.49323E+00  9.57202E+00  9.65673E+00  9.76421E+00  9.91219E+00  1.01194E+01
   1.04075E+01  1.08065E+01  1.13492E+01  1.20356E+01  1.27705E+01  1.33795E+01  1.37617E+01  1.39921E+01  1.42345E+01  1.46018E+01
   1.51275E+01  1.58553E+01  1.68536E+01  1.80755E+01  1.93399E+01  2.04805E+01  2.13479E+01  2.18959E+01  2.22008E+01  2.23273E+01
   2.23283E+01  2.22313E+01  2.20316E+01  2.17827E+01  2.14880E+01  2.09616E+01  2.00726E+01  1.88851E+01  1.75898E+01  1.63560E+01
   1.52791E+01  1.44469E+01  1.39381E+01  1.36860E+01  1.34972E+01  1.32416E+01  1.28429E+01  1.22711E+01  1.16012E+01  1.08937E+01
   1.01884E+01  9.47979E+00  8.73406E+00  8.01455E+00  7.37177E+00  6.77884E+00  6.22400E+00  5.70431E+00  5.21929E+00  4.76917E+00
   4.35443E+00  3.97570E+00  3.63361E+00  3.32853E+00  3.06042E+00  2.82891E+00  2.63355E+00  2.47402E+00  2.35005E+00  2.26123E+00
   2.20701E+00  2.18684E+00  2.20038E+00  2.24756E+00  2.32833E+00  2.44247E+00  2.58955E+00  2.76902E+00  2.98025E+00  3.22240E+00
   3.49406E+00  3.79306E+00  4.11641E+00  4.46046E+00  4.82088E+00  5.19246E+00  5.56902E+00  5.94341E+00  6.30780E+00  6.65408E+00
   6.97408E+00  7.25962E+00  7.50278E+00  7.69623E+00  7.83379E+00  7.91078E+00  7.92416E+00  7.87252E+00  7.75610E+00  7.57691E+00
   7.33884E+00  7.04742E+00  6.70945E+00  6.33253E+00  5.92477E+00  5.49461E+00  5.05056E+00  4.60087E+00  4.15306E+00  3.71366E+00
   3.28816E+00  2.88116E+00  2.49629E+00  2.13621E+00  1.80246E+00  1.49560E+00  1.21550E+00  9.61578E-01  7.32889E-01  5.28107E-01
   3.45531E-01  1.83263E-01  3.94448E-02 -8.76191E-02 -1.99518E-01 -2.97851E-01 -3.84230E-01 -4.60141E-01 -5.26808E-01 -5.85205E-01
  -6.36211E-01 -6.80728E-01 -7.19646E-01 -7.53696E-01 -7.83386E-01 -8.09090E-01 -8.31208E-01 -8.50215E-01 -8.66565E-01 -8.80561E-01
  -8.92344E-01 -9.02028E-01 -9.09826E-01 -9.16028E-01 -9.20868E-01 -9.24432E-01 -9.26717E-01 -9.27777E-01 -9.27781E-01 -9.26935E-01
  -9.25341E-01 -9.22970E-01 -9.19768E-01 -9.15788E-01 -9.11193E-01 -9.06124E-01 -9.00595E-01 -8.94525E-01 -8.87873E-01 -8.80722E-01
  -8.73217E-01 -8.65431E-01 -8.57306E-01 -8.48743E-01 -8.39741E-01 -8.30416E-01 -8.20888E-01 -8.11163E-01 -8.01144E-01 -7.90753E-01
  -7.80034E-01 -7.69111E-01 -7.58058E-01 -7.46816E-01 -7.35271E-01 -7.23384E-01 -7.11239E-01 -6.98948E-01 -6.86523E-01 -6.73858E-01
  -6.60849E-01 -6.47500E-01 -6.33915E-01 -6.20162E-01 -6.06186E-01 -5.91846E-01 -5.77055E-01 -5.61851E-01
 NY background values follow
     5.734E+00    5.690E+00    5.645E+00    5.601E+00    5.557E+00    5.512E+00    5.468E+00    5.424E+00    5.379E+00    5.335E+00
     5.291E+00    5.246E+00    5.202E+00    5.157E+00    5.113E+00    5.069E+00    5.024E+00    4.980E+00    4.935E+00    4.891E+00
     4.846E+00    4.802E+00    4.757E+00    4.713E+00    4.668E+00    4.623E+00    4.579E+00    4.534E+00    4.490E+00    4.445E+00
     4.401E+00    4.356E+00    4.312E+00    4.267E+00    4.223E+00    4.178E+00    4.134E+00    4.089E+00    4.045E+00    4.001E+00
     3.956E+00    3.912E+00    3.867E+00    3.823E+00    3.779E+00    3.734E+00    3.690E+00    3.646E+00    3.601E+00    3.557E+00
     3.513E+00    3.469E+00    3.424E+00    3.380E+00    3.336E+00    3.292E+00    3.248E+00    3.204E+00    3.161E+00    3.117E+00
     3.073E+00    3.029E+00    2.986E+00    2.942E+00    2.899E+00    2.855E+00    2.812E+00    2.769E+00    2.725E+00    2.682E+00
     2.639E+00    2.596E+00    2.554E+00    2.511E+00    2.468E+00    2.426E+00    2.383E+00    2.341E+00    2.299E+00    2.257E+00
     2.215E+00    2.173E+00    2.132E+00    2.090E+00    2.049E+00    2.007E+00    1.966E+00    1.925E+00    1.884E+00    1.844E+00
     1.803E+00    1.763E+00    1.722E+00    1.682E+00    1.642E+00    1.602E+00    1.563E+00    1.523E+00    1.484E+00    1.445E+00
     1.406E+00    1.367E+00    1.329E+00    1.290E+00    1.252E+00    1.214E+00    1.176E+00    1.139E+00    1.101E+00    1.064E+00
     1.027E+00    9.904E-01    9.539E-01    9.175E-01    8.813E-01    8.454E-01    8.097E-01    7.742E-01    7.389E-01    7.039E-01
     6.691E-01    6.345E-01    6.001E-01    5.660E-01    5.322E-01    4.986E-01    4.652E-01    4.321E-01    3.993E-01    3.667E-01
     3.343E-01    3.022E-01    2.704E-01    2.389E-01    2.076E-01    1.766E-01    1.459E-01    1.154E-01    8.525E-02    5.536E-02
     2.576E-02   -3.553E-03   -3.257E-02   -6.130E-02   -8.973E-02   -1.179E-01   -1.457E-01   -1.732E-01   -2.004E-01   -2.274E-01
    -2.540E-01   -2.802E-01   -3.062E-01   -3.319E-01   -3.572E-01   -3.822E-01   -4.069E-01   -4.312E-01   -4.552E-01   -4.789E-01
    -5.023E-01   -5.253E-01   -5.479E-01   -5.703E-01   -5.922E-01   -6.138E-01   -6.351E-01   -6.560E-01   -6.766E-01   -6.968E-01
    -7.166E-01   -7.361E-01   -7.552E-01   -7.739E-01   -7.923E-01   -8.103E-01   -8.279E-01   -8.451E-01   -8.619E-01   -8.784E-01
    -8.945E-01   -9.101E-01   -9.254E-01   -9.403E-01   -9.549E-01   -9.690E-01   -9.828E-01   -9.962E-01   -1.009E+00   -1.022E+00
    -1.034E+00   -1.046E+00   -1.058E+00   -1.069E+00   -1.080E+00   -1.091E+00   -1.101E+00   -1.112E+00   -1.121E+00   -1.131E+00
    -1.140E+00   -1.149E+00   -1.158E+00   -1.166E+00   -1.174E+00   -1.182E+00   -1.189E+00   -1.197E+00   -1.204E+00   -1.210E+00
    -1.217E+00   -1.223E+00   -1.229E+00   -1.235E+00   -1.241E+00   -1.246E+00   -1.252E+00   -1.257E+00   -1.261E+00   -1.266E+00
    -1.271E+00   -1.275E+00   -1.279E+00   -1.283E+00   -1.287E+00   -1.290E+00   -1.294E+00   -1.297E+00   -1.300E+00   -1.303E+00
    -1.306E+00   -1.309E+00   -1.312E+00   -1.314E+00   -1.317E+00   -1.319E+00   -1.321E+00   -1.323E+00   -1.325E+00   -1.327E+00
    -1.328E+00   -1.330E+00   -1.331E+00   -1.333E+00   -1.334E+00   -1.335E+00   -1.336E+00   -1.337E+00   -1.338E+00   -1.338E+00
    -1.339E+00   -1.339E+00   -1.340E+00   -1.340E+00   -1.340E+00   -1.340E+00   -1.340E+00   -1.340E+00   -1.340E+00   -1.340E+00
    -1.340E+00   -1.340E+00   -1.339E+00   -1.339E+00   -1.338E+00   -1.338E+00   -1.337E+00   -1.336E+00   -1.335E+00   -1.335E+00
    -1.334E+00   -1.333E+00   -1.332E+00   -1.331E+00   -1.330E+00   -1.329E+00   -1.327E+00   -1.326E+00   -1.325E+00   -1.324E+00
    -1.322E+00   -1.321E+00   -1.320E+00   -1.318E+00   -1.317E+00   -1.315E+00   -1.314E+00   -1.312E+00   -1.311E+00   -1.309E+00
    -1.307E+00   -1.305E+00   -1.304E+00   -1.302E+00   -1.300E+00   -1.298E+00   -1.297E+00   -1.295E+00   -1.293E+00   -1.291E+00
    -1.289E+00   -1.287E+00   -1.285E+00   -1.283E+00   -1.281E+00   -1.279E+00   -1.277E+00   -1.275E+00   -1.273E+00   -1.271E+00
    -1.268E+00   -1.266E+00   -1.264E+00   -1.262E+00   -1.260E+00   -1.258E+00   -1.256E+00   -1.253E+00   -1.251E+00   -1.249E+00
    -1.247E+00   -1.245E+00   -1.242E+00   -1.240E+00   -1.238E+00   -1.236E+00   -1.233E+00   -1.231E+00   -1.229E+00   -1.226E+00
    -1.224E+00   -1.221E+00   -1.219E+00   -1.217E+00   -1.214E+00   -1.212E+00   -1.209E+00   -1.207E+00   -1.204E+00   -1.201E+00
    -1.199E+00   -1.196E+00   -1.194E+00   -1.191E+00   -1.188E+00   -1.185E+00   -1.182E+00   -1.180E+00   -1.177E+00   -1.174E+00
    -1.171E+00   -1.168E+00   -1.165E+00   -1.161E+00   -1.158E+00   -1.155E+00   -1.152E+00   -1.148E+00   -1.145E+00   -1.142E+00
    -1.138E+00   -1.135E+00   -1.131E+00   -1.127E+00   -1.124E+00   -1.120E+00   -1.116E+00   -1.112E+00   -1.108E+00   -1.104E+00
    -1.100E+00   -1.096E+00   -1.092E+00   -1.088E+00   -1.083E+00   -1.079E+00   -1.075E+00   -1.070E+00   -1.065E+00   -1.061E+00
    -1.056E+00   -1.051E+00   -1.046E+00   -1.041E+00   -1.036E+00   -1.031E+00   -1.025E+00   -1.020E+00   -1.015E+00   -1.009E+00
    -1.003E+00   -9.975E-01   -9.917E-01   -9.857E-01   -9.797E-01   -9.735E-01   -9.673E-01   -9.609E-01   -9.545E-01   -9.479E-01
    -9.412E-01   -9.344E-01   -9.276E-01   -9.206E-01   -9.134E-01   -9.062E-01   -8.989E-01   -8.914E-01   -8.838E-01   -8.761E-01
    -8.683E-01   -8.604E-01   -8.524E-01   -8.442E-01   -8.360E-01   -8.276E-01   -8.192E-01   -8.106E-01   -8.019E-01   -7.932E-01
    -7.843E-01   -7.754E-01   -7.663E-01   -7.572E-01   -7.480E-01   -7.386E-01   -7.292E-01   -7.198E-01   -7.102E-01   -7.005E-01
    -6.908E-01   -6.810E-01   -6.711E-01   -6.611E-01   -6.511E-01   -6.410E-01   -6.308E-01   -6.206E-01   -6.103E-01   -5.999E-01
    -5.894E-01   -5.789E-01   -5.684E-01   -5.577E-01   -5.471E-01   -5.363E-01   -5.256E-01   -5.147E-01   -5.038E-01   -4.929E-01
    -4.819E-01   -4.709E-01   -4.598E-01   -4.487E-01   -4.376E-01   -4.264E-01   -4.151E-01   -4.039E-01   -3.926E-01   -3.812E-01
    -3.699E-01   -3.585E-01   -3.470E-01   -3.356E-01   -3.241E-01   -3.126E-01   -3.010E-01   -2.895E-01   -2.779E-01   -2.663E-01
    -2.546E-01   -2.430E-01   -2.313E-01   -2.196E-01   -2.079E-01   -1.961E-01   -1.844E-01   -1.726E-01   -1.608E-01   -1.491E-01
    -1.373E-01   -1.255E-01   -1.137E-01   -1.018E-01   -9.001E-02   -7.818E-02   -6.634E-02   -5.451E-02   -4.267E-02   -3.083E-02
    -1.900E-02   -7.160E-03    4.671E-03    1.650E-02    2.832E-02    4.014E-02    5.194E-02    6.374E-02
 Ala      Conc. = 9.51E+01
