 LCModel (Version 6.3-1L) Copyright: S.W. Provencher.          Ref.: Magn. Reson. Med. 30:672-679 (1993).                
 Slice#2 Row#11 Col#10  PD_05_press_1_raw_act
 36 lines in following concentration table = NCONC+1
    Conc.  %SD /Cr+PCr  Metabolite                                         
  154.063  53%   0.119 Ala                                                 
    0.000 999%   0.000 Asp                                                 
  486.013  33%   0.375 Cr                                                  
  810.756  21%   0.625 PCr                                                 
    0.000 999%   0.000 GABA                                                
    0.000 999%   0.000 Glc                                                 
  878.777  20%   0.678 Gln                                                 
 1.40E+03  14%   1.082 Glu                                                 
  471.386   3%   0.364 GPC                                                 
    0.000 999%   0.000 PCh                                                 
  352.924  14%   0.272 GSH                                                 
 1.37E+03  12%   1.053 Ins                                                 
   75.656 132% 5.8E-02 Lac                                                 
 2.25E+03   5%   1.733 NAA                                                 
  131.430  93%   0.101 NAAG                                                
  149.978  13%   0.116 Scyllo                                              
    0.000 999%   0.000 Tau                                                 
  231.522  31%   0.179 -CrCH2                                              
  471.386   3%   0.364 GPC+PCh                                             
 2.38E+03   3%   1.835 NAA+NAAG                                            
 1.30E+03   3%   1.000 Cr+PCr                                              
 2.28E+03  12%   1.760 Glu+Gln                                             
  891.501  69%   0.687 Lip13a                                              
  147.165 175%   0.113 Lip13b                                              
   76.166 302% 5.9E-02 Lip09                                               
 1.48E+03  18%   1.142 MM09                                                
  213.498  69%   0.165 Lip20                                               
 3.62E+03   8%   2.790 MM20                                                
  435.972  49%   0.336 MM12                                                
 1.41E+03  24%   1.091 MM14                                                
 1.18E+03  17%   0.909 MM17                                                
 1.04E+03  45%   0.801 Lip13a+Lip13b                                       
 2.89E+03   8%   2.228 MM14+Lip13a+Lip13b+MM12                             
 1.56E+03   9%   1.201 MM09+Lip09                                          
 3.83E+03   7%   2.955 MM20+Lip20                                          
   6 lines in following misc. output table
  FWHM = 0.054 ppm    S/N =  19                                            
  Data shift = 0.023 ppm                                                   
  Ph: -40 deg     -12.1 deg/ppm                                            
  alphaB,S = 2.2E+01,   8.9E+01                                            
   14 spline knots.   Ns = 8(1)                                            
  ( 6) 3 infls.   ( 1) 1 extrs.                                            
  498 points on ppm-axis = NY
      4.000000     3.992357     3.984714     3.977070     3.969427     3.961784     3.954141     3.946497     3.938854     3.931211
      3.923568     3.915925     3.908281     3.900638     3.892995     3.885352     3.877708     3.870065     3.862422     3.854779
      3.847136     3.839492     3.831849     3.824206     3.816563     3.808919     3.801276     3.793633     3.785990     3.778347
      3.770703     3.763060     3.755417     3.747774     3.740130     3.732487     3.724844     3.717201     3.709558     3.701914
      3.694271     3.686628     3.678985     3.671341     3.663698     3.656055     3.648412     3.640769     3.633125     3.625482
      3.617839     3.610196     3.602552     3.594909     3.587266     3.579623     3.571980     3.564336     3.556693     3.549050
      3.541407     3.533763     3.526120     3.518477     3.510834     3.503191     3.495547     3.487904     3.480261     3.472618
      3.464974     3.457331     3.449688     3.442045     3.434402     3.426758     3.419115     3.411472     3.403829     3.396185
      3.388542     3.380899     3.373256     3.365613     3.357969     3.350326     3.342683     3.335040     3.327396     3.319753
      3.312110     3.304467     3.296824     3.289180     3.281537     3.273894     3.266251     3.258607     3.250964     3.243321
      3.235678     3.228034     3.220391     3.212748     3.205105     3.197462     3.189818     3.182175     3.174532     3.166889
      3.159245     3.151602     3.143959     3.136316     3.128673     3.121029     3.113386     3.105743     3.098100     3.090456
      3.082813     3.075170     3.067527     3.059884     3.052240     3.044597     3.036954     3.029311     3.021667     3.014024
      3.006381     2.998738     2.991095     2.983451     2.975808     2.968165     2.960522     2.952878     2.945235     2.937592
      2.929949     2.922306     2.914662     2.907019     2.899376     2.891733     2.884089     2.876446     2.868803     2.861160
      2.853517     2.845873     2.838230     2.830587     2.822944     2.815300     2.807657     2.800014     2.792371     2.784728
      2.777084     2.769441     2.761798     2.754155     2.746511     2.738868     2.731225     2.723582     2.715939     2.708295
      2.700652     2.693009     2.685366     2.677722     2.670079     2.662436     2.654793     2.647150     2.639506     2.631863
      2.624220     2.616577     2.608933     2.601290     2.593647     2.586004     2.578361     2.570717     2.563074     2.555431
      2.547788     2.540144     2.532501     2.524858     2.517215     2.509572     2.501928     2.494285     2.486642     2.478999
      2.471355     2.463712     2.456069     2.448426     2.440783     2.433139     2.425496     2.417853     2.410210     2.402566
      2.394923     2.387280     2.379637     2.371994     2.364350     2.356707     2.349064     2.341421     2.333777     2.326134
      2.318491     2.310848     2.303205     2.295561     2.287918     2.280275     2.272632     2.264988     2.257345     2.249702
      2.242059     2.234416     2.226772     2.219129     2.211486     2.203843     2.196199     2.188556     2.180913     2.173270
      2.165627     2.157983     2.150340     2.142697     2.135054     2.127410     2.119767     2.112124     2.104481     2.096838
      2.089194     2.081551     2.073908     2.066265     2.058621     2.050978     2.043335     2.035692     2.028049     2.020405
      2.012762     2.005119     1.997476     1.989833     1.982190     1.974546     1.966903     1.959260     1.951617     1.943974
      1.936331     1.928688     1.921045     1.913402     1.905759     1.898115     1.890472     1.882829     1.875186     1.867543
      1.859900     1.852257     1.844614     1.836971     1.829327     1.821684     1.814041     1.806398     1.798755     1.791112
      1.783469     1.775826     1.768183     1.760540     1.752896     1.745253     1.737610     1.729967     1.722324     1.714681
      1.707038     1.699395     1.691752     1.684108     1.676465     1.668822     1.661179     1.653536     1.645893     1.638250
      1.630607     1.622964     1.615321     1.607677     1.600034     1.592391     1.584748     1.577105     1.569462     1.561819
      1.554176     1.546533     1.538890     1.531246     1.523603     1.515960     1.508317     1.500674     1.493031     1.485388
      1.477745     1.470102     1.462458     1.454815     1.447172     1.439529     1.431886     1.424243     1.416600     1.408957
      1.401314     1.393671     1.386027     1.378384     1.370741     1.363098     1.355455     1.347812     1.340169     1.332526
      1.324883     1.317240     1.309596     1.301953     1.294310     1.286667     1.279024     1.271381     1.263738     1.256095
      1.248452     1.240808     1.233165     1.225522     1.217879     1.210236     1.202593     1.194950     1.187307     1.179664
      1.172021     1.164377     1.156734     1.149091     1.141448     1.133805     1.126162     1.118519     1.110876     1.103233
      1.095590     1.087946     1.080303     1.072660     1.065017     1.057374     1.049731     1.042088     1.034445     1.026802
      1.019158     1.011515     1.003872     0.996229     0.988586     0.980943     0.973300     0.965657     0.958014     0.950371
      0.942727     0.935084     0.927441     0.919798     0.912155     0.904512     0.896869     0.889226     0.881583     0.873940
      0.866296     0.858653     0.851010     0.843367     0.835724     0.828081     0.820438     0.812795     0.805152     0.797508
      0.789865     0.782222     0.774579     0.766936     0.759293     0.751650     0.744007     0.736364     0.728721     0.721077
      0.713434     0.705791     0.698148     0.690505     0.682862     0.675219     0.667576     0.659933     0.652290     0.644646
      0.637003     0.629360     0.621717     0.614074     0.606431     0.598788     0.591145     0.583502     0.575858     0.568215
      0.560572     0.552929     0.545286     0.537643     0.530000     0.522357     0.514714     0.507071     0.499427     0.491784
      0.484141     0.476498     0.468855     0.461212     0.453569     0.445925     0.438282     0.430639     0.422996     0.415353
      0.407710     0.400067     0.392424     0.384780     0.377137     0.369494     0.361851     0.354208     0.346565     0.338922
      0.331278     0.323635     0.315992     0.308349     0.300706     0.293063     0.285420     0.277777     0.270133     0.262490
      0.254847     0.247204     0.239561     0.231918     0.224275     0.216631     0.208988     0.201345
 NY phased data points follow
  -6.86647E+00 -6.61595E+00 -4.64898E+00 -3.87682E+00 -3.52356E+00 -1.39824E+00  1.32741E+00  7.54713E+00  8.44226E+00  1.21452E+01
   1.16736E+01  1.61088E+01  1.42832E+01  1.19681E+01  7.71014E+00  3.55395E+00  1.42649E+00 -2.58061E+00 -2.66569E+00 -4.55095E+00
  -5.40255E+00 -5.61439E+00 -3.81436E+00 -6.62547E+00 -4.66712E+00 -3.75350E+00 -2.74361E+00 -2.50058E+00 -2.43646E+00 -4.25866E-01
   2.83829E+00 -1.12957E+00  1.75477E+00 -2.23093E+00 -1.15399E+00 -2.81662E+00 -2.60792E+00 -2.69828E+00 -3.06368E+00 -7.57099E-01
   3.56330E-01 -3.20615E+00  3.41696E+00  1.06261E+00  8.28808E-01  2.30657E+00  4.09624E+00  2.37306E+00  5.05485E+00  3.54717E+00
   3.06509E+00  6.77190E-01 -6.08580E-01 -2.00219E+00 -3.59368E+00 -3.09933E+00 -2.83334E+00 -2.91165E+00 -2.72298E+00 -4.69135E+00
  -4.82550E+00 -4.09373E+00 -7.22616E+00 -8.43438E+00 -7.92994E+00 -7.58861E+00 -6.74073E+00 -9.80663E+00 -9.90494E+00 -7.64742E+00
  -7.72606E+00 -6.18739E+00 -4.49256E+00 -4.27816E+00 -3.72525E+00 -5.33043E+00 -5.05350E+00 -4.61698E+00 -5.90304E+00 -8.95840E+00
  -5.61369E+00 -5.07290E+00 -3.46291E+00 -3.71339E+00 -3.66865E+00 -2.71809E+00 -2.25681E+00 -2.68533E+00 -2.95825E+00 -6.06603E-01
  -1.06751E+00 -7.77056E-01 -1.98937E+00  2.54533E-01  6.02264E-01  3.64853E-01  9.96980E-01  3.52157E+00  7.44543E+00  1.07637E+01
   1.63512E+01  2.33504E+01  2.78478E+01  2.98669E+01  2.81634E+01  2.78581E+01  2.15162E+01  1.45119E+01  7.57577E+00  5.51194E+00
   3.50759E+00 -7.07448E-01 -1.40996E-01 -1.62298E-02 -1.71256E+00 -1.34142E+00  3.45574E-01 -2.01650E-01  6.04034E-01 -1.20656E+00
  -3.86593E-01  2.50666E+00  6.83212E+00  1.18640E+01  1.66398E+01  2.51128E+01  3.01030E+01  3.28271E+01  3.45124E+01  3.21915E+01
   2.54548E+01  1.71049E+01  1.57022E+01  9.21256E+00  5.56309E+00  9.77462E-01 -3.30851E+00 -2.55677E+00 -3.60018E+00 -5.65326E+00
  -3.27002E+00 -3.61982E+00 -1.45608E+00 -3.74387E+00 -2.24564E+00 -2.95676E+00 -2.35031E+00 -2.06601E+00 -3.05383E+00 -2.57407E-01
   3.55169E-01 -2.42054E+00 -4.20357E+00 -3.82940E+00 -4.22265E+00 -4.38800E+00 -5.50808E+00 -4.03541E+00 -1.46597E+00 -2.93359E+00
  -3.04021E+00 -7.05744E+00 -5.20566E+00 -6.62092E+00 -7.80819E+00 -5.20463E+00 -8.13171E+00 -7.78024E+00 -7.90388E+00 -9.83251E+00
  -1.02579E+01 -1.08905E+01 -1.24863E+01 -1.26029E+01 -1.58111E+01 -1.55720E+01 -1.36955E+01 -1.24398E+01 -1.23442E+01 -1.20709E+01
  -7.51297E+00 -1.30494E+01 -9.86469E+00 -1.01096E+01 -1.12674E+01 -1.14555E+01 -8.84551E+00 -9.99562E+00 -6.90654E+00 -5.43362E+00
  -6.69647E+00 -5.30052E+00 -1.45107E+00 -3.42561E+00 -2.33502E+00 -3.97882E+00 -2.60091E+00 -3.19965E+00 -5.98055E+00 -5.48086E+00
  -3.55237E+00 -4.30118E+00 -2.60126E-01 -1.87306E+00 -1.01400E-01 -2.80157E+00 -3.96245E-01 -3.44852E+00 -2.84166E+00 -3.84107E+00
  -4.42709E+00 -6.72103E-01  1.62161E-03 -1.16455E-01  6.81802E+00  5.96455E+00  7.82462E+00  5.68682E+00  5.37646E+00  4.04365E+00
  -1.30592E+00 -1.15897E+00 -3.00441E+00 -3.67203E+00 -1.79699E-01 -3.11256E-01  4.94828E-01  3.88949E+00  3.70574E+00  4.31357E+00
   5.28949E+00  5.90229E+00  6.07005E+00  4.74215E+00  7.56036E+00  5.77740E+00  5.30708E+00  5.25474E+00  4.00358E+00  4.14193E+00
   1.91142E+00  1.96858E+00  6.23108E-01  4.08408E-01  3.54046E+00  5.96616E+00  8.13876E+00  8.32985E+00  1.00568E+01  1.12793E+01
   1.44590E+01  1.27653E+01  1.82932E+01  2.44983E+01  2.74170E+01  3.33559E+01  4.05787E+01  5.02645E+01  5.89384E+01  7.07633E+01
   7.47208E+01  7.61228E+01  7.09864E+01  5.68154E+01  4.51403E+01  3.62317E+01  2.95684E+01  2.15797E+01  1.55436E+01  1.20804E+01
   9.93794E+00  7.81448E+00  7.34241E+00  4.32581E+00  3.89706E+00  6.29144E+00  5.20075E+00  4.57746E+00  3.06927E+00  6.41551E+00
   4.43891E+00  4.96084E+00  3.91883E+00  3.54114E+00  5.07061E+00  1.04510E+00  3.55873E+00  3.88412E+00  4.70915E+00  5.80649E+00
   1.73471E+00  5.59269E+00  4.46174E+00  4.45008E+00  2.20372E+00  3.91541E+00  4.29035E+00  3.21384E+00  6.06236E+00  5.41639E+00
   5.90576E+00  4.92792E+00  3.31613E+00  4.67088E+00  6.51205E+00  6.21300E+00  6.26819E+00  6.35566E+00  7.82376E+00  3.61074E+00
   6.56790E+00  5.44159E+00  3.98073E+00  4.31024E+00  3.87843E+00  6.96956E+00  4.19354E+00  7.37438E+00  6.59560E+00  4.35424E+00
   7.31944E+00  3.96930E+00  5.23029E+00  5.08654E+00  6.57140E+00  6.29050E+00  3.72045E+00  6.35643E+00  4.73246E+00  5.98538E+00
   5.44452E+00  6.68697E+00  6.14388E+00  5.36673E+00  6.14653E+00  5.21081E+00  5.57001E+00  9.70616E+00  8.77684E+00  1.06659E+01
   1.00059E+01  8.05753E+00  8.67187E+00  1.01664E+01  8.49005E+00  1.24945E+01  1.17319E+01  1.06315E+01  1.14148E+01  9.89266E+00
   9.25255E+00  8.31474E+00  1.05686E+01  9.87451E+00  9.27469E+00  1.03620E+01  1.02592E+01  1.23949E+01  1.07393E+01  1.01931E+01
   7.36500E+00  6.02172E+00  6.57495E+00  7.79013E+00  8.63689E+00  7.30947E+00  6.94306E+00  8.01608E+00  6.24457E+00  6.44539E+00
   6.69279E+00  6.47200E+00  4.67457E+00  5.94175E+00  5.41467E+00  3.54282E+00  3.54043E+00  4.34547E+00  5.12343E+00  2.45147E+00
   6.00082E+00  5.38302E+00  4.37486E+00  5.12038E+00  4.57311E+00  3.88348E+00  6.60523E+00  5.30435E+00  6.05157E+00  5.83522E+00
   5.86417E+00  7.01822E+00  6.76252E+00  8.54545E+00  9.45625E+00  8.95732E+00  8.43471E+00  7.95440E+00  1.07351E+01  7.99600E+00
   9.70703E+00  1.03767E+01  9.77714E+00  8.93550E+00  1.02122E+01  8.50131E+00  1.10673E+01  9.61147E+00  1.18752E+01  9.75024E+00
   9.32509E+00  1.07048E+01  9.29510E+00  1.10707E+01  8.19213E+00  8.25895E+00  8.11864E+00  6.94756E+00  7.26500E+00  7.30673E+00
   8.04408E+00  6.79034E+00  5.62226E+00  4.30609E+00  6.65552E+00  3.69906E+00  3.94530E+00  2.77748E+00  4.71379E+00  6.16938E+00
   4.59645E+00  6.13754E+00  4.95034E+00  3.70021E+00  3.92348E+00  3.33793E+00  3.10425E+00  3.25244E+00  5.43317E+00  3.64972E+00
   4.17711E+00  3.79373E+00  5.39640E+00  4.19820E+00  3.01357E+00  1.95884E+00  3.88069E+00  3.99518E+00  2.70958E+00  1.28932E+00
   1.16616E+00  1.14382E-01  2.09259E+00  1.03896E+00  8.60334E-01  1.81330E+00  2.61999E+00  2.80338E+00  4.28711E+00  3.14965E+00
   3.68918E-01  2.00142E+00 -1.60172E-01  3.22059E+00  2.89230E-01  3.86216E+00  2.61277E+00  1.20049E+00  2.65407E+00  2.46985E+00
   2.69826E+00  2.20832E+00  1.11086E+00  6.58085E-01  2.72518E+00  2.75607E+00  6.08287E-01  4.84218E+00  1.55284E+00  3.36110E+00
   1.86634E+00  1.00021E+00  3.85259E+00  2.52806E+00  1.15654E+00  3.21183E+00  2.64874E+00  1.22232E+00  2.76401E+00  1.57052E+00
   4.53855E+00  3.69705E+00  1.74908E+00  1.37975E+00  4.14552E+00  2.94236E+00  2.18786E+00  2.07959E+00
 NY points of the fit to the data follow
  -6.17685E+00 -6.12873E+00 -5.25228E+00 -3.91068E+00 -2.30125E+00 -3.64717E-01  2.20163E+00  5.41057E+00  8.89367E+00  1.20110E+01
   1.40669E+01  1.45323E+01  1.31799E+01  1.04361E+01  7.27277E+00  4.45683E+00  2.12173E+00  1.16196E-01 -1.65210E+00 -3.11023E+00
  -4.19242E+00 -4.75740E+00 -4.62947E+00 -4.52896E+00 -4.59010E+00 -4.37043E+00 -3.65640E+00 -2.42213E+00 -9.17339E-01  6.44008E-01
   1.95074E+00  2.61845E+00  2.44405E+00  1.48760E+00  2.82598E-01 -8.06917E-01 -1.92998E+00 -3.07441E+00 -3.89292E+00 -4.10911E+00
  -3.78294E+00 -3.23173E+00 -2.44037E+00 -1.32868E+00  3.86619E-02  1.46137E+00  2.57953E+00  3.18291E+00  3.06395E+00  1.97309E+00
   1.66430E-01 -1.64946E+00 -3.01908E+00 -3.89107E+00 -4.43732E+00 -4.79335E+00 -4.89382E+00 -4.65966E+00 -4.21111E+00 -3.77703E+00
  -3.55311E+00 -3.65207E+00 -4.11203E+00 -4.73429E+00 -5.27212E+00 -5.62538E+00 -5.72661E+00 -5.61356E+00 -5.37125E+00 -5.04769E+00
  -4.72239E+00 -4.46262E+00 -4.30877E+00 -4.29772E+00 -4.44241E+00 -4.69241E+00 -4.94603E+00 -5.13851E+00 -5.29491E+00 -5.25321E+00
  -4.91382E+00 -4.69626E+00 -4.47090E+00 -4.05430E+00 -3.43323E+00 -2.64089E+00 -1.82160E+00 -1.22685E+00 -9.76513E-01 -1.18853E+00
  -1.91125E+00 -2.83183E+00 -3.47205E+00 -3.66638E+00 -3.03181E+00 -8.32099E-01  1.37498E+00  3.38644E+00  6.45678E+00  1.09222E+01
   1.66472E+01  2.28587E+01  2.80957E+01  3.09964E+01  3.07309E+01  2.69232E+01  2.06769E+01  1.44177E+01  9.47998E+00  5.54260E+00
   2.13529E+00 -8.42695E-01 -3.21364E+00 -4.33448E+00 -4.65716E+00 -4.74119E+00 -4.70436E+00 -4.52194E+00 -3.81481E+00 -1.40083E+00
   1.59998E+00  4.15077E+00  7.35981E+00  1.18771E+01  1.76617E+01  2.41377E+01  2.99272E+01  3.35263E+01  3.40937E+01  3.11298E+01
   2.52262E+01  1.87701E+01  1.35350E+01  9.34109E+00  5.55353E+00  2.02246E+00 -1.05218E+00 -2.77286E+00 -3.18294E+00 -3.09511E+00
  -2.84548E+00 -2.61308E+00 -2.51083E+00 -2.53857E+00 -2.66140E+00 -2.85988E+00 -3.08781E+00 -3.32456E+00 -3.56860E+00 -3.80436E+00
  -4.02566E+00 -4.21452E+00 -4.39537E+00 -4.63551E+00 -4.82570E+00 -4.94213E+00 -5.02124E+00 -5.08758E+00 -5.30283E+00 -5.62943E+00
  -5.92279E+00 -6.10397E+00 -6.14322E+00 -6.04131E+00 -5.91321E+00 -5.94908E+00 -6.23288E+00 -6.73678E+00 -7.34788E+00 -7.80662E+00
  -8.04377E+00 -8.30737E+00 -8.67227E+00 -9.12934E+00 -9.50380E+00 -9.65145E+00 -9.62737E+00 -9.51384E+00 -9.35336E+00 -9.24224E+00
  -9.14845E+00 -9.05779E+00 -8.91466E+00 -8.61643E+00 -8.18755E+00 -7.70994E+00 -7.18605E+00 -6.51035E+00 -5.56915E+00 -4.52406E+00
  -3.70632E+00 -3.23796E+00 -3.08717E+00 -3.16746E+00 -3.33754E+00 -3.33206E+00 -3.02342E+00 -2.56308E+00 -1.93026E+00 -1.21963E+00
  -6.40170E-01 -1.07961E-01  2.41398E-01  7.90900E-02 -6.59813E-01 -1.93888E+00 -3.46959E+00 -4.86787E+00 -5.68976E+00 -5.80434E+00
  -5.35943E+00 -4.26796E+00 -2.75420E+00 -1.06715E+00  6.06391E-01  1.96709E+00  2.83095E+00  2.92943E+00  1.86499E+00 -1.07273E-01
  -2.21790E+00 -3.82609E+00 -4.64995E+00 -4.70199E+00 -3.91372E+00 -2.35877E+00 -4.99043E-01  1.16614E+00  2.36492E+00  3.16831E+00
   3.68349E+00  4.00964E+00  4.24692E+00  4.39986E+00  4.80535E+00  5.48723E+00  6.24544E+00  6.93625E+00  7.24941E+00  6.90255E+00
   6.10882E+00  5.28362E+00  4.70519E+00  4.61970E+00  5.09693E+00  6.01975E+00  7.20504E+00  8.45431E+00  9.68984E+00  1.07250E+01
   1.16857E+01  1.32805E+01  1.77833E+01  2.34871E+01  2.82522E+01  3.38269E+01  4.12867E+01  5.05371E+01  6.06140E+01  6.95051E+01
   7.49756E+01  7.54827E+01  6.98717E+01  5.89164E+01  4.67054E+01  3.67190E+01  2.89795E+01  2.23144E+01  1.63518E+01  1.11744E+01
   8.00654E+00  6.73633E+00  6.04530E+00  5.57680E+00  5.24348E+00  4.99173E+00  4.73445E+00  4.45223E+00  4.16259E+00  3.89370E+00
   3.66018E+00  3.46385E+00  3.30181E+00  3.18227E+00  3.11657E+00  3.09638E+00  3.10742E+00  3.14685E+00  3.21866E+00  3.32456E+00
   3.46233E+00  3.62464E+00  3.81033E+00  4.01583E+00  4.23288E+00  4.45301E+00  4.67092E+00  4.88173E+00  5.08098E+00  5.26405E+00
   5.42690E+00  5.56613E+00  5.67879E+00  5.76071E+00  5.80918E+00  5.82386E+00  5.80562E+00  5.75700E+00  5.68229E+00  5.58622E+00
   5.47487E+00  5.35494E+00  5.23314E+00  5.11665E+00  5.01307E+00  4.93004E+00  4.87581E+00  4.86077E+00  4.90267E+00  5.03432E+00
   5.20008E+00  5.31885E+00  5.47295E+00  5.68201E+00  5.89861E+00  6.05810E+00  6.07960E+00  5.96894E+00  5.81803E+00  5.57565E+00
   5.31085E+00  5.21607E+00  5.40270E+00  5.83891E+00  6.44988E+00  7.16456E+00  7.90770E+00  8.60703E+00  9.14796E+00  9.47103E+00
   9.65001E+00  9.75287E+00  9.83742E+00  9.90577E+00  9.93187E+00  9.90385E+00  9.85276E+00  9.79803E+00  9.72283E+00  9.60204E+00
   9.48933E+00  9.47001E+00  9.57600E+00  9.76502E+00  9.97439E+00  1.01529E+01  1.02580E+01  1.02506E+01  1.00879E+01  9.78217E+00
   9.40704E+00  9.00315E+00  8.58232E+00  8.15389E+00  7.72387E+00  7.32211E+00  6.96430E+00  6.63987E+00  6.34269E+00  6.06954E+00
   5.81836E+00  5.58814E+00  5.37857E+00  5.18996E+00  5.02299E+00  4.87876E+00  4.75853E+00  4.66375E+00  4.59576E+00  4.55591E+00
   4.54538E+00  4.56540E+00  4.61702E+00  4.70123E+00  4.81871E+00  4.96994E+00  5.15502E+00  5.37379E+00  5.62557E+00  5.90913E+00
   6.22247E+00  6.56287E+00  6.92677E+00  7.30982E+00  7.70671E+00  8.11132E+00  8.51664E+00  8.91513E+00  9.29873E+00  9.65931E+00
   9.98866E+00  1.02790E+01  1.05231E+01  1.07147E+01  1.08490E+01  1.09223E+01  1.09328E+01  1.08801E+01  1.07656E+01  1.05924E+01
   1.03649E+01  1.00887E+01  9.77068E+00  9.41797E+00  9.03827E+00  8.63940E+00  8.22889E+00  7.81388E+00  7.40076E+00  6.99520E+00
   6.60192E+00  6.22490E+00  5.86706E+00  5.53055E+00  5.21658E+00  4.92582E+00  4.65827E+00  4.41356E+00  4.19083E+00  3.98901E+00
   3.80675E+00  3.64272E+00  3.49547E+00  3.36364E+00  3.24578E+00  3.14060E+00  3.04679E+00  2.96327E+00  2.88898E+00  2.82304E+00
   2.76451E+00  2.71267E+00  2.66676E+00  2.62628E+00  2.59064E+00  2.55942E+00  2.53212E+00  2.50839E+00  2.48785E+00  2.47030E+00
   2.45544E+00  2.44306E+00  2.43287E+00  2.42473E+00  2.41845E+00  2.41395E+00  2.41105E+00  2.40965E+00  2.40956E+00  2.41075E+00
   2.41309E+00  2.41658E+00  2.42107E+00  2.42652E+00  2.43281E+00  2.43994E+00  2.44783E+00  2.45650E+00  2.46583E+00  2.47579E+00
   2.48631E+00  2.49743E+00  2.50908E+00  2.52129E+00  2.53393E+00  2.54703E+00  2.56052E+00  2.57446E+00  2.58879E+00  2.60351E+00
   2.61853E+00  2.63388E+00  2.64953E+00  2.66552E+00  2.68180E+00  2.69837E+00  2.71515E+00  2.73220E+00  2.74947E+00  2.76704E+00
   2.78481E+00  2.80280E+00  2.82096E+00  2.83935E+00  2.85794E+00  2.87677E+00  2.89577E+00  2.91498E+00
 NY background values follow
    -1.028E+01   -1.026E+01   -1.023E+01   -1.021E+01   -1.018E+01   -1.016E+01   -1.013E+01   -1.010E+01   -1.008E+01   -1.005E+01
    -1.003E+01   -1.000E+01   -9.976E+00   -9.950E+00   -9.924E+00   -9.898E+00   -9.873E+00   -9.847E+00   -9.821E+00   -9.796E+00
    -9.770E+00   -9.744E+00   -9.718E+00   -9.693E+00   -9.667E+00   -9.641E+00   -9.616E+00   -9.590E+00   -9.564E+00   -9.538E+00
    -9.513E+00   -9.487E+00   -9.461E+00   -9.436E+00   -9.410E+00   -9.384E+00   -9.358E+00   -9.333E+00   -9.307E+00   -9.281E+00
    -9.256E+00   -9.230E+00   -9.204E+00   -9.178E+00   -9.153E+00   -9.127E+00   -9.101E+00   -9.076E+00   -9.050E+00   -9.024E+00
    -8.998E+00   -8.973E+00   -8.947E+00   -8.921E+00   -8.896E+00   -8.870E+00   -8.844E+00   -8.818E+00   -8.793E+00   -8.767E+00
    -8.741E+00   -8.716E+00   -8.690E+00   -8.664E+00   -8.638E+00   -8.613E+00   -8.587E+00   -8.561E+00   -8.536E+00   -8.510E+00
    -8.484E+00   -8.458E+00   -8.433E+00   -8.407E+00   -8.381E+00   -8.356E+00   -8.330E+00   -8.304E+00   -8.279E+00   -8.253E+00
    -8.227E+00   -8.201E+00   -8.176E+00   -8.150E+00   -8.124E+00   -8.099E+00   -8.073E+00   -8.047E+00   -8.022E+00   -7.996E+00
    -7.970E+00   -7.944E+00   -7.919E+00   -7.893E+00   -7.867E+00   -7.842E+00   -7.816E+00   -7.790E+00   -7.764E+00   -7.739E+00
    -7.713E+00   -7.687E+00   -7.662E+00   -7.636E+00   -7.610E+00   -7.585E+00   -7.559E+00   -7.533E+00   -7.508E+00   -7.482E+00
    -7.456E+00   -7.430E+00   -7.405E+00   -7.379E+00   -7.353E+00   -7.328E+00   -7.302E+00   -7.276E+00   -7.251E+00   -7.225E+00
    -7.199E+00   -7.174E+00   -7.148E+00   -7.122E+00   -7.096E+00   -7.071E+00   -7.045E+00   -7.019E+00   -6.994E+00   -6.968E+00
    -6.942E+00   -6.917E+00   -6.891E+00   -6.865E+00   -6.840E+00   -6.814E+00   -6.788E+00   -6.763E+00   -6.737E+00   -6.711E+00
    -6.685E+00   -6.660E+00   -6.634E+00   -6.608E+00   -6.583E+00   -6.557E+00   -6.531E+00   -6.506E+00   -6.480E+00   -6.454E+00
    -6.429E+00   -6.403E+00   -6.377E+00   -6.352E+00   -6.326E+00   -6.300E+00   -6.275E+00   -6.249E+00   -6.223E+00   -6.198E+00
    -6.172E+00   -6.146E+00   -6.121E+00   -6.095E+00   -6.069E+00   -6.043E+00   -6.018E+00   -5.992E+00   -5.966E+00   -5.941E+00
    -5.915E+00   -5.889E+00   -5.864E+00   -5.838E+00   -5.812E+00   -5.787E+00   -5.761E+00   -5.735E+00   -5.710E+00   -5.684E+00
    -5.658E+00   -5.633E+00   -5.607E+00   -5.581E+00   -5.556E+00   -5.530E+00   -5.504E+00   -5.478E+00   -5.453E+00   -5.427E+00
    -5.401E+00   -5.376E+00   -5.350E+00   -5.324E+00   -5.299E+00   -5.273E+00   -5.247E+00   -5.222E+00   -5.196E+00   -5.170E+00
    -5.145E+00   -5.119E+00   -5.093E+00   -5.068E+00   -5.042E+00   -5.016E+00   -4.990E+00   -4.965E+00   -4.939E+00   -4.913E+00
    -4.888E+00   -4.862E+00   -4.836E+00   -4.811E+00   -4.785E+00   -4.759E+00   -4.734E+00   -4.708E+00   -4.682E+00   -4.657E+00
    -4.631E+00   -4.605E+00   -4.580E+00   -4.554E+00   -4.528E+00   -4.503E+00   -4.477E+00   -4.451E+00   -4.426E+00   -4.400E+00
    -4.374E+00   -4.349E+00   -4.323E+00   -4.297E+00   -4.272E+00   -4.246E+00   -4.220E+00   -4.195E+00   -4.169E+00   -4.143E+00
    -4.118E+00   -4.092E+00   -4.066E+00   -4.041E+00   -4.015E+00   -3.989E+00   -3.964E+00   -3.938E+00   -3.912E+00   -3.887E+00
    -3.861E+00   -3.835E+00   -3.810E+00   -3.784E+00   -3.758E+00   -3.733E+00   -3.707E+00   -3.681E+00   -3.656E+00   -3.630E+00
    -3.604E+00   -3.579E+00   -3.553E+00   -3.527E+00   -3.502E+00   -3.476E+00   -3.451E+00   -3.425E+00   -3.399E+00   -3.374E+00
    -3.348E+00   -3.322E+00   -3.297E+00   -3.271E+00   -3.245E+00   -3.220E+00   -3.194E+00   -3.169E+00   -3.143E+00   -3.117E+00
    -3.092E+00   -3.066E+00   -3.040E+00   -3.015E+00   -2.989E+00   -2.963E+00   -2.938E+00   -2.912E+00   -2.887E+00   -2.861E+00
    -2.835E+00   -2.810E+00   -2.784E+00   -2.758E+00   -2.733E+00   -2.707E+00   -2.682E+00   -2.656E+00   -2.630E+00   -2.605E+00
    -2.579E+00   -2.553E+00   -2.528E+00   -2.502E+00   -2.477E+00   -2.451E+00   -2.425E+00   -2.400E+00   -2.374E+00   -2.349E+00
    -2.323E+00   -2.297E+00   -2.272E+00   -2.246E+00   -2.221E+00   -2.195E+00   -2.169E+00   -2.144E+00   -2.118E+00   -2.092E+00
    -2.067E+00   -2.041E+00   -2.016E+00   -1.990E+00   -1.964E+00   -1.939E+00   -1.913E+00   -1.888E+00   -1.862E+00   -1.836E+00
    -1.811E+00   -1.785E+00   -1.760E+00   -1.734E+00   -1.709E+00   -1.683E+00   -1.657E+00   -1.632E+00   -1.606E+00   -1.581E+00
    -1.555E+00   -1.529E+00   -1.504E+00   -1.478E+00   -1.453E+00   -1.427E+00   -1.401E+00   -1.376E+00   -1.350E+00   -1.325E+00
    -1.299E+00   -1.273E+00   -1.248E+00   -1.222E+00   -1.197E+00   -1.171E+00   -1.146E+00   -1.120E+00   -1.094E+00   -1.069E+00
    -1.043E+00   -1.018E+00   -9.921E-01   -9.665E-01   -9.410E-01   -9.154E-01   -8.898E-01   -8.642E-01   -8.387E-01   -8.131E-01
    -7.875E-01   -7.619E-01   -7.364E-01   -7.108E-01   -6.852E-01   -6.597E-01   -6.341E-01   -6.085E-01   -5.830E-01   -5.574E-01
    -5.318E-01   -5.062E-01   -4.807E-01   -4.551E-01   -4.295E-01   -4.040E-01   -3.784E-01   -3.529E-01   -3.273E-01   -3.017E-01
    -2.762E-01   -2.506E-01   -2.250E-01   -1.995E-01   -1.739E-01   -1.484E-01   -1.228E-01   -9.724E-02   -7.168E-02   -4.612E-02
    -2.056E-02    4.997E-03    3.055E-02    5.611E-02    8.167E-02    1.072E-01    1.328E-01    1.583E-01    1.839E-01    2.094E-01
     2.350E-01    2.605E-01    2.861E-01    3.117E-01    3.372E-01    3.628E-01    3.883E-01    4.139E-01    4.394E-01    4.650E-01
     4.905E-01    5.161E-01    5.416E-01    5.672E-01    5.927E-01    6.183E-01    6.438E-01    6.693E-01    6.949E-01    7.204E-01
     7.460E-01    7.715E-01    7.971E-01    8.226E-01    8.482E-01    8.737E-01    8.993E-01    9.248E-01    9.503E-01    9.759E-01
     1.001E+00    1.027E+00    1.053E+00    1.078E+00    1.104E+00    1.129E+00    1.155E+00    1.180E+00    1.206E+00    1.231E+00
     1.257E+00    1.282E+00    1.308E+00    1.333E+00    1.359E+00    1.385E+00    1.410E+00    1.436E+00    1.461E+00    1.487E+00
     1.512E+00    1.538E+00    1.563E+00    1.589E+00    1.614E+00    1.640E+00    1.665E+00    1.691E+00    1.717E+00    1.742E+00
     1.768E+00    1.793E+00    1.819E+00    1.844E+00    1.870E+00    1.895E+00    1.921E+00    1.946E+00    1.972E+00    1.997E+00
     2.023E+00    2.049E+00    2.074E+00    2.100E+00    2.125E+00    2.151E+00    2.176E+00    2.202E+00    2.227E+00    2.253E+00
     2.278E+00    2.304E+00    2.329E+00    2.355E+00    2.380E+00    2.406E+00    2.432E+00    2.457E+00
 Ala      Conc. = 1.54E+02
