 LCModel (Version 6.3-1L) Copyright: S.W. Provencher.          Ref.: Magn. Reson. Med. 30:672-679 (1993).                
 Slice#2 Row#9 Col#12  PD_05_press_1_raw_act
 36 lines in following concentration table = NCONC+1
    Conc.  %SD /Cr+PCr  Metabolite                                         
   13.539 312% 6.2E-02 Ala                                                 
   76.381 100%   0.352 Asp                                                 
    0.000 999%   0.000 Cr                                                  
  216.893  10%   1.000 PCr                                                 
   11.622 426% 5.4E-02 GABA                                                
   72.887  68%   0.336 Glc                                                 
  255.527  34%   1.178 Gln                                                 
  620.193  18%   2.859 Glu                                                 
   47.331  99%   0.218 GPC                                                 
   11.281 421% 5.2E-02 PCh                                                 
   14.917 192% 6.9E-02 GSH                                                 
  217.210  44%   1.001 Ins                                                 
  104.699  44%   0.483 Lac                                                 
 1.05E+03   9%   4.853 NAA                                                 
  271.144  33%   1.250 NAAG                                                
   12.910  76% 6.0E-02 Scyllo                                              
  126.839  56%   0.585 Tau                                                 
  105.859  33%   0.488 -CrCH2                                              
   58.612  14%   0.270 GPC+PCh                                             
 1.32E+03   3%   6.103 NAA+NAAG                                            
  216.893  10%   1.000 Cr+PCr                                              
  875.721  18%   4.038 Glu+Gln                                             
 1.39E+03  19%   6.426 Lip13a                                              
    0.000 999%   0.000 Lip13b                                              
    0.000 999%   0.000 Lip09                                               
  685.760  14%   3.162 MM09                                                
  212.507  46%   0.980 Lip20                                               
 1.27E+03  14%   5.866 MM20                                                
  212.496  30%   0.980 MM12                                                
 1.34E+03  15%   6.157 MM14                                                
  976.447  14%   4.502+MM17                                                
 1.39E+03  19%   6.426 Lip13a+Lip13b                                       
 2.94E+03   9%  13.562 MM14+Lip13a+Lip13b+MM12                             
  685.760  14%   3.162 MM09+Lip09                                          
 1.48E+03  12%   6.846 MM20+Lip20                                          
   6 lines in following misc. output table
  FWHM = 0.046 ppm    S/N =  15                                            
  Data shift = 0.000 ppm                                                   
  Ph: -45 deg     -24.0 deg/ppm                                            
  alphaB,S = 6.9E-01,   7.7E+01                                            
   14 spline knots.   Ns = 7(1)                                            
  (10) 3 infls.   ( 5) 1 extrs.                                            
  498 points on ppm-axis = NY
      4.000000     3.992357     3.984714     3.977070     3.969427     3.961784     3.954141     3.946497     3.938854     3.931211
      3.923568     3.915925     3.908281     3.900638     3.892995     3.885352     3.877708     3.870065     3.862422     3.854779
      3.847136     3.839492     3.831849     3.824206     3.816563     3.808919     3.801276     3.793633     3.785990     3.778347
      3.770703     3.763060     3.755417     3.747774     3.740130     3.732487     3.724844     3.717201     3.709558     3.701914
      3.694271     3.686628     3.678985     3.671341     3.663698     3.656055     3.648412     3.640769     3.633125     3.625482
      3.617839     3.610196     3.602552     3.594909     3.587266     3.579623     3.571980     3.564336     3.556693     3.549050
      3.541407     3.533763     3.526120     3.518477     3.510834     3.503191     3.495547     3.487904     3.480261     3.472618
      3.464974     3.457331     3.449688     3.442045     3.434402     3.426758     3.419115     3.411472     3.403829     3.396185
      3.388542     3.380899     3.373256     3.365613     3.357969     3.350326     3.342683     3.335040     3.327396     3.319753
      3.312110     3.304467     3.296824     3.289180     3.281537     3.273894     3.266251     3.258607     3.250964     3.243321
      3.235678     3.228034     3.220391     3.212748     3.205105     3.197462     3.189818     3.182175     3.174532     3.166889
      3.159245     3.151602     3.143959     3.136316     3.128673     3.121029     3.113386     3.105743     3.098100     3.090456
      3.082813     3.075170     3.067527     3.059884     3.052240     3.044597     3.036954     3.029311     3.021667     3.014024
      3.006381     2.998738     2.991095     2.983451     2.975808     2.968165     2.960522     2.952878     2.945235     2.937592
      2.929949     2.922306     2.914662     2.907019     2.899376     2.891733     2.884089     2.876446     2.868803     2.861160
      2.853517     2.845873     2.838230     2.830587     2.822944     2.815300     2.807657     2.800014     2.792371     2.784728
      2.777084     2.769441     2.761798     2.754155     2.746511     2.738868     2.731225     2.723582     2.715939     2.708295
      2.700652     2.693009     2.685366     2.677722     2.670079     2.662436     2.654793     2.647150     2.639506     2.631863
      2.624220     2.616577     2.608933     2.601290     2.593647     2.586004     2.578361     2.570717     2.563074     2.555431
      2.547788     2.540144     2.532501     2.524858     2.517215     2.509572     2.501928     2.494285     2.486642     2.478999
      2.471355     2.463712     2.456069     2.448426     2.440783     2.433139     2.425496     2.417853     2.410210     2.402566
      2.394923     2.387280     2.379637     2.371994     2.364350     2.356707     2.349064     2.341421     2.333777     2.326134
      2.318491     2.310848     2.303205     2.295561     2.287918     2.280275     2.272632     2.264988     2.257345     2.249702
      2.242059     2.234416     2.226772     2.219129     2.211486     2.203843     2.196199     2.188556     2.180913     2.173270
      2.165627     2.157983     2.150340     2.142697     2.135054     2.127410     2.119767     2.112124     2.104481     2.096838
      2.089194     2.081551     2.073908     2.066265     2.058621     2.050978     2.043335     2.035692     2.028049     2.020405
      2.012762     2.005119     1.997476     1.989833     1.982190     1.974546     1.966903     1.959260     1.951617     1.943974
      1.936331     1.928688     1.921045     1.913402     1.905759     1.898115     1.890472     1.882829     1.875186     1.867543
      1.859900     1.852257     1.844614     1.836971     1.829327     1.821684     1.814041     1.806398     1.798755     1.791112
      1.783469     1.775826     1.768183     1.760540     1.752896     1.745253     1.737610     1.729967     1.722324     1.714681
      1.707038     1.699395     1.691752     1.684108     1.676465     1.668822     1.661179     1.653536     1.645893     1.638250
      1.630607     1.622964     1.615321     1.607677     1.600034     1.592391     1.584748     1.577105     1.569462     1.561819
      1.554176     1.546533     1.538890     1.531246     1.523603     1.515960     1.508317     1.500674     1.493031     1.485388
      1.477745     1.470102     1.462458     1.454815     1.447172     1.439529     1.431886     1.424243     1.416600     1.408957
      1.401314     1.393671     1.386027     1.378384     1.370741     1.363098     1.355455     1.347812     1.340169     1.332526
      1.324883     1.317240     1.309596     1.301953     1.294310     1.286667     1.279024     1.271381     1.263738     1.256095
      1.248452     1.240808     1.233165     1.225522     1.217879     1.210236     1.202593     1.194950     1.187307     1.179664
      1.172021     1.164377     1.156734     1.149091     1.141448     1.133805     1.126162     1.118519     1.110876     1.103233
      1.095590     1.087946     1.080303     1.072660     1.065017     1.057374     1.049731     1.042088     1.034445     1.026802
      1.019158     1.011515     1.003872     0.996229     0.988586     0.980943     0.973300     0.965657     0.958014     0.950371
      0.942727     0.935084     0.927441     0.919798     0.912155     0.904512     0.896869     0.889226     0.881583     0.873940
      0.866296     0.858653     0.851010     0.843367     0.835724     0.828081     0.820438     0.812795     0.805152     0.797508
      0.789865     0.782222     0.774579     0.766936     0.759293     0.751650     0.744007     0.736364     0.728721     0.721077
      0.713434     0.705791     0.698148     0.690505     0.682862     0.675219     0.667576     0.659933     0.652290     0.644646
      0.637003     0.629360     0.621717     0.614074     0.606431     0.598788     0.591145     0.583502     0.575858     0.568215
      0.560572     0.552929     0.545286     0.537643     0.530000     0.522357     0.514714     0.507071     0.499427     0.491784
      0.484141     0.476498     0.468855     0.461212     0.453569     0.445925     0.438282     0.430639     0.422996     0.415353
      0.407710     0.400067     0.392424     0.384780     0.377137     0.369494     0.361851     0.354208     0.346565     0.338922
      0.331278     0.323635     0.315992     0.308349     0.300706     0.293063     0.285420     0.277777     0.270133     0.262490
      0.254847     0.247204     0.239561     0.231918     0.224275     0.216631     0.208988     0.201345
 NY phased data points follow
   5.69791E+00  3.41034E+00  5.39890E+00  6.63847E+00  5.32395E+00  5.37942E+00  5.81139E+00  5.58306E+00  4.48541E+00  6.05391E+00
   6.55462E+00  7.19308E+00  4.46682E+00  4.50167E+00  5.40488E+00  5.39047E+00  3.97434E+00  6.04278E+00  3.71779E+00  3.90404E+00
   4.43252E+00  3.93511E+00  5.90788E+00  5.89623E+00  5.87923E+00  4.79642E+00  5.04197E+00  5.75340E+00  3.43578E+00  1.61388E+00
   5.10489E+00  4.83689E+00  5.45616E+00  4.30562E+00  5.05806E+00  3.78647E+00  5.12410E+00  3.14160E+00  4.10005E+00  2.51547E+00
   4.42135E+00  3.09208E+00  5.74796E+00  3.12309E+00  4.79195E+00  3.09713E+00  5.95355E+00  5.03544E+00  4.59061E+00  6.51249E+00
   5.99047E+00  2.58932E+00  3.20313E+00  3.96521E+00  5.49703E+00  4.54535E+00  1.52650E+00  4.39364E+00  3.43463E+00  5.44715E+00
   5.10427E+00  3.87039E+00  2.66635E+00  2.97485E+00  2.77877E+00  3.22623E+00  2.58428E+00  4.51164E+00  3.55471E+00  3.30504E+00
   3.22978E+00  4.36983E+00  6.09572E+00  2.91221E+00  2.59306E+00  5.76932E+00  4.97541E+00  5.10606E+00  3.30390E+00  4.22672E+00
   5.19912E+00  2.98236E+00  4.46763E+00  5.50199E+00  3.04913E+00  3.86188E+00  4.04244E+00  1.84324E+00  3.90470E+00  9.64579E-01
   3.73555E+00  4.90094E+00  3.07148E+00  4.55223E+00  3.73834E+00  5.80573E+00  6.25297E+00  4.47288E+00  6.35195E+00  4.92934E+00
   6.57728E+00  6.43690E+00  6.83162E+00  7.35552E+00  1.00183E+01  9.12058E+00  6.46247E+00  6.07885E+00  5.04273E+00  4.66088E+00
   2.02020E+00  3.29813E+00  1.70024E+00  3.71743E+00  1.89233E+00  5.48944E+00  1.45854E+00  6.82684E+00  2.57760E+00  5.56481E+00
   4.13074E+00  4.88280E+00  4.86209E+00  5.19302E+00  6.86443E+00  6.63113E+00  8.70260E+00  8.91109E+00  1.23449E+01  1.24543E+01
   9.61983E+00  9.79995E+00  5.52810E+00  3.71262E+00  2.43646E+00  8.47190E-01  2.89627E+00  2.43293E+00  2.45494E+00  2.59879E+00
   5.07162E+00  2.69837E+00  2.40020E+00  1.86553E+00  5.85052E+00  2.78167E+00  3.31688E+00  1.31174E+00  2.79591E+00  3.80368E+00
   3.87439E+00  4.44508E+00  1.90803E+00  1.76048E+00  1.53677E+00  4.03066E+00  2.45826E+00  2.54202E+00  1.21955E+00  1.24810E+00
   3.05262E+00  3.08992E+00  2.20778E+00  2.44937E+00  3.82453E-01  1.74143E+00  6.53113E-01  4.49697E-01 -8.42862E-01  1.16850E+00
   4.10539E-02 -3.82037E-01 -2.30222E+00 -1.02252E+00  1.03163E+00 -1.38125E+00 -9.25579E-01 -2.11620E-01 -9.87943E-01 -3.96205E-01
   8.46142E-01  2.15716E+00  1.87316E+00  1.24547E+00  1.97863E-01  8.83735E-01  1.82644E+00  1.93517E+00  1.67692E+00  2.48592E-01
   3.18721E+00  6.01896E-01  2.35250E+00  3.82525E+00  2.23907E+00  8.00404E-01  2.58035E+00  1.07052E-01 -2.89923E-01  2.97323E-01
   8.36679E-01  1.75252E-01  2.02622E+00  3.68512E+00  5.78880E+00  4.10042E+00  3.28965E+00  2.81267E+00  3.26834E+00  1.53962E+00
   3.41680E+00  4.15406E+00  3.60098E+00  6.27566E+00  7.74389E+00  7.46195E+00  8.48022E+00  9.44446E+00  8.28996E+00  6.86141E+00
   3.83718E+00  3.86511E+00  2.34361E+00  1.09179E+00  3.31656E+00  3.72414E+00  6.11945E+00  7.09850E+00  6.96425E+00  7.96214E+00
   9.34993E+00  6.48093E+00  6.75248E+00  5.56561E+00  6.74861E+00  3.73167E+00  5.78586E+00  6.78970E+00  6.75948E+00  6.21654E+00
   7.59917E+00  4.70616E+00  7.41167E+00  5.36768E+00  6.22106E+00  6.71576E+00  8.36091E+00  8.97651E+00  1.17327E+01  1.22020E+01
   1.38302E+01  1.16138E+01  1.56785E+01  1.97485E+01  2.23261E+01  2.44590E+01  3.02811E+01  3.57313E+01  3.89564E+01  4.50416E+01
   4.95902E+01  4.99068E+01  4.48551E+01  3.73559E+01  2.83148E+01  1.74313E+01  1.33197E+01  1.01366E+01  7.30652E+00  7.52178E+00
   8.53240E+00  9.35436E+00  7.63159E+00  7.64824E+00  8.76471E+00  8.00988E+00  7.26807E+00  6.78283E+00  7.44008E+00  6.94692E+00
   7.46066E+00  8.31672E+00  7.75066E+00  5.17299E+00  7.46789E+00  8.21425E+00  6.89782E+00  7.05332E+00  7.23675E+00  7.88819E+00
   7.18326E+00  7.17846E+00  8.00818E+00  7.95463E+00  6.98384E+00  9.86366E+00  9.60675E+00  9.59586E+00  1.03133E+01  9.74303E+00
   1.02044E+01  1.02575E+01  1.16828E+01  1.16456E+01  1.28426E+01  1.08159E+01  1.01348E+01  1.19057E+01  1.10824E+01  1.27532E+01
   1.33533E+01  1.43343E+01  1.30283E+01  1.33232E+01  1.26870E+01  1.27547E+01  1.07086E+01  1.22380E+01  1.13755E+01  1.10568E+01
   9.32071E+00  1.22741E+01  1.05373E+01  9.97246E+00  1.17230E+01  1.17674E+01  1.33657E+01  1.25779E+01  1.19095E+01  1.04103E+01
   1.15141E+01  1.23250E+01  1.20528E+01  1.35978E+01  1.39278E+01  1.53505E+01  1.37335E+01  1.18238E+01  1.30322E+01  1.37986E+01
   1.36957E+01  1.24732E+01  1.35956E+01  1.12038E+01  1.43788E+01  1.55121E+01  1.51338E+01  1.64842E+01  1.50739E+01  1.44348E+01
   1.42371E+01  1.09987E+01  1.08996E+01  9.73282E+00  1.17680E+01  1.12698E+01  1.16590E+01  8.88430E+00  1.16505E+01  1.08141E+01
   1.12675E+01  1.02541E+01  9.94488E+00  9.43058E+00  9.32002E+00  1.04358E+01  9.91117E+00  9.42341E+00  1.02970E+01  8.07133E+00
   9.02731E+00  6.63481E+00  6.05637E+00  7.74990E+00  6.28411E+00  6.27262E+00  5.19610E+00  7.59756E+00  4.58450E+00  4.75209E+00
   7.20760E+00  5.14034E+00  4.68984E+00  4.60869E+00  3.31473E+00  3.54900E+00  5.77963E+00  4.60107E+00  3.98394E+00  5.90060E+00
   5.54438E+00  5.06347E+00  6.89247E+00  6.82582E+00  5.05205E+00  5.91760E+00  7.29702E+00  6.43661E+00  8.09116E+00  6.48705E+00
   6.62878E+00  6.52941E+00  5.38796E+00  6.80430E+00  6.18204E+00  6.85293E+00  6.37231E+00  7.63276E+00  5.93983E+00  8.39937E+00
   8.39861E+00  7.16127E+00  8.77431E+00  6.85962E+00  6.83202E+00  2.61473E+00  3.86669E+00  3.12174E+00  3.47843E+00  3.19598E+00
   3.83099E+00  5.53640E+00  4.64681E+00  4.28791E+00  2.31397E+00  2.26199E+00  2.32455E+00  1.03479E+00  2.29794E+00  1.72376E+00
   2.05668E+00  3.10000E+00  3.04766E+00  3.29214E+00  3.01544E+00  1.94351E+00  1.77312E+00  1.76808E+00  1.94768E+00  1.83212E+00
   1.13211E+00  1.43378E+00 -3.95215E-01  2.23693E+00  5.33289E-01  1.13878E+00  3.16721E+00  2.00176E+00  8.58601E-01  2.45636E+00
   1.84688E+00  9.91860E-01  1.25918E+00  1.62565E+00  3.95554E+00  2.72714E+00  1.01866E+00  2.33002E+00  1.53233E+00  2.02251E+00
   2.99484E+00  1.84360E+00  8.12673E-01  2.62540E+00  1.95260E+00  1.43467E+00  5.63460E-02  1.95035E+00  2.33610E+00  2.14435E+00
   8.04333E-01  3.28124E+00 -8.45562E-01  2.05177E+00  6.62042E-01  5.39423E-01  3.45478E-01  1.50117E-01  6.68480E-01  3.22039E+00
   7.10087E-01  2.20814E+00  2.56425E-02 -2.59905E-01  2.37587E-01  1.17296E+00  1.82321E+00  5.75625E-01  2.32064E+00  5.25793E-01
   1.33135E+00  2.06264E+00  2.21425E+00  2.02367E+00  9.12358E-01  6.85492E-01  1.03823E+00  1.41601E+00
 NY points of the fit to the data follow
   4.34335E+00  4.23166E+00  4.28786E+00  4.46441E+00  4.62452E+00  4.83207E+00  5.13541E+00  5.51351E+00  5.96493E+00  6.41817E+00
   6.70268E+00  6.66915E+00  6.32390E+00  5.77836E+00  5.20396E+00  4.75273E+00  4.48471E+00  4.37168E+00  4.32435E+00  4.29345E+00
   4.31367E+00  4.31957E+00  4.36471E+00  4.47895E+00  4.59130E+00  4.61133E+00  4.49889E+00  4.29741E+00  4.08829E+00  4.00391E+00
   4.21892E+00  4.75677E+00  5.41403E+00  5.96624E+00  6.15631E+00  5.84679E+00  5.13675E+00  4.29838E+00  3.61613E+00  3.29413E+00
   3.38310E+00  3.75224E+00  4.17733E+00  4.51374E+00  4.74639E+00  4.93370E+00  5.13188E+00  5.33467E+00  5.47028E+00  5.42784E+00
   5.15333E+00  4.70050E+00  4.21940E+00  3.84419E+00  3.63217E+00  3.57846E+00  3.62224E+00  3.70676E+00  3.81225E+00  3.93786E+00
   4.06340E+00  4.13283E+00  4.13356E+00  4.04238E+00  3.89077E+00  3.76422E+00  3.68870E+00  3.66626E+00  3.72599E+00  3.82906E+00
   3.89601E+00  3.94556E+00  4.02224E+00  4.12071E+00  4.23755E+00  4.36047E+00  4.40775E+00  4.31511E+00  4.09807E+00  3.84860E+00
   3.61809E+00  3.45104E+00  3.41801E+00  3.51168E+00  3.65220E+00  3.76799E+00  3.79208E+00  3.68336E+00  3.46880E+00  3.22211E+00
   3.00612E+00  2.87432E+00  2.83661E+00  2.81404E+00  2.81037E+00  2.96825E+00  3.40178E+00  3.82844E+00  4.26112E+00  4.88011E+00
   5.69310E+00  6.67940E+00  7.75602E+00  8.62874E+00  8.92052E+00  8.46031E+00  7.38881E+00  6.04154E+00  4.80182E+00  3.94318E+00
   3.49843E+00  3.32943E+00  3.24172E+00  3.17452E+00  3.12798E+00  3.09890E+00  3.08196E+00  3.07412E+00  3.09037E+00  3.22633E+00
   3.73732E+00  4.27811E+00  4.66899E+00  5.25669E+00  6.20355E+00  7.48146E+00  9.01540E+00  1.04424E+01  1.11660E+01  1.08282E+01
   9.54692E+00  7.75597E+00  6.00039E+00  4.71709E+00  4.01232E+00  3.73193E+00  3.59771E+00  3.49088E+00  3.41615E+00  3.37461E+00
   3.35116E+00  3.32679E+00  3.29910E+00  3.26949E+00  3.24319E+00  3.22413E+00  3.20508E+00  3.16377E+00  3.09598E+00  3.02102E+00
   2.94430E+00  2.87398E+00  2.81620E+00  2.72060E+00  2.57241E+00  2.47315E+00  2.43561E+00  2.42334E+00  2.39763E+00  2.23835E+00
   1.96970E+00  1.70659E+00  1.54997E+00  1.55641E+00  1.71477E+00  1.89252E+00  1.91884E+00  1.73474E+00  1.38403E+00  9.62931E-01
   6.82808E-01  5.97099E-01  5.68526E-01  4.92383E-01  3.13563E-01  1.24404E-01  1.46622E-02  6.38085E-02  2.52602E-01  4.50507E-01
   5.52444E-01  6.30068E-01  7.11837E-01  8.29047E-01  1.04930E+00  1.37529E+00  1.71283E+00  2.05462E+00  2.45401E+00  2.91219E+00
   3.37103E+00  3.67497E+00  3.79330E+00  3.76872E+00  3.65649E+00  3.54461E+00  3.55014E+00  3.68193E+00  3.84226E+00  4.04006E+00
   4.29575E+00  4.58071E+00  4.82721E+00  5.00308E+00  5.06286E+00  4.77453E+00  4.04274E+00  3.10653E+00  2.15850E+00  1.47914E+00
   1.16729E+00  1.32818E+00  2.05250E+00  3.21024E+00  4.55261E+00  5.74459E+00  6.50880E+00  6.67943E+00  6.12548E+00  4.88807E+00
   3.33884E+00  1.93265E+00  1.08639E+00  1.06021E+00  1.85731E+00  3.21885E+00  4.78013E+00  6.13711E+00  6.99291E+00  7.32529E+00
   7.27182E+00  7.01585E+00  6.77627E+00  6.65939E+00  6.65899E+00  6.76831E+00  7.01708E+00  7.40829E+00  7.80268E+00  8.05613E+00
   8.09830E+00  7.94494E+00  7.68407E+00  7.49007E+00  7.53362E+00  7.87564E+00  8.44899E+00  9.10750E+00  9.84908E+00  1.08691E+01
   1.17326E+01  1.24964E+01  1.41912E+01  1.81355E+01  2.24619E+01  2.61793E+01  3.04394E+01  3.52591E+01  4.01420E+01  4.49846E+01
   4.86690E+01  4.90528E+01  4.50036E+01  3.73071E+01  2.79262E+01  1.91299E+01  1.28417E+01  9.52181E+00  8.35178E+00  7.90983E+00
   7.56503E+00  7.32543E+00  7.18140E+00  7.10240E+00  7.05473E+00  7.00527E+00  6.91536E+00  6.77291E+00  6.59609E+00  6.42708E+00
   6.29855E+00  6.22769E+00  6.21657E+00  6.24912E+00  6.30580E+00  6.37902E+00  6.46017E+00  6.54555E+00  6.64474E+00  6.77335E+00
   6.94582E+00  7.16969E+00  7.44260E+00  7.75832E+00  8.10410E+00  8.46393E+00  8.82842E+00  9.19342E+00  9.55827E+00  9.92452E+00
   1.02926E+01  1.06562E+01  1.10048E+01  1.13257E+01  1.16057E+01  1.18337E+01  1.20036E+01  1.21139E+01  1.21676E+01  1.21690E+01
   1.21237E+01  1.20390E+01  1.19236E+01  1.17871E+01  1.16396E+01  1.14915E+01  1.13531E+01  1.12337E+01  1.11418E+01  1.10852E+01
   1.10695E+01  1.10843E+01  1.11300E+01  1.12163E+01  1.13382E+01  1.14833E+01  1.16389E+01  1.17884E+01  1.19287E+01  1.20611E+01
   1.21859E+01  1.23198E+01  1.24778E+01  1.26614E+01  1.28641E+01  1.30732E+01  1.32671E+01  1.34274E+01  1.35476E+01  1.36359E+01
   1.37234E+01  1.38215E+01  1.38347E+01  1.38255E+01  1.38629E+01  1.39017E+01  1.38817E+01  1.37368E+01  1.34161E+01  1.29483E+01
   1.23216E+01  1.16744E+01  1.12067E+01  1.10251E+01  1.11426E+01  1.14916E+01  1.19140E+01  1.22071E+01  1.22565E+01  1.20383E+01
   1.15988E+01  1.10440E+01  1.04894E+01  9.99951E+00  9.58040E+00  9.19225E+00  8.82024E+00  8.46254E+00  8.11930E+00  7.79135E+00
   7.47995E+00  7.18636E+00  6.91183E+00  6.65730E+00  6.42362E+00  6.21131E+00  6.02084E+00  5.85246E+00  5.70640E+00  5.58270E+00
   5.48141E+00  5.40248E+00  5.34594E+00  5.31173E+00  5.29986E+00  5.31015E+00  5.34244E+00  5.39631E+00  5.47129E+00  5.56650E+00
   5.68081E+00  5.81255E+00  5.95963E+00  6.11936E+00  6.28858E+00  6.46348E+00  6.63980E+00  6.81275E+00  6.97730E+00  7.12820E+00
   7.26032E+00  7.36869E+00  7.44884E+00  7.49688E+00  7.50989E+00  7.48588E+00  7.42406E+00  7.32469E+00  7.18926E+00  7.02023E+00
   6.82113E+00  6.59615E+00  6.35013E+00  6.08814E+00  5.81541E+00  5.53701E+00  5.25778E+00  4.98202E+00  4.71355E+00  4.45541E+00
   4.21007E+00  3.97924E+00  3.76410E+00  3.56518E+00  3.38258E+00  3.21590E+00  3.06452E+00  2.92752E+00  2.80392E+00  2.69254E+00
   2.59228E+00  2.50194E+00  2.42048E+00  2.34684E+00  2.28015E+00  2.21950E+00  2.16416E+00  2.11342E+00  2.06674E+00  2.02358E+00
   1.98354E+00  1.94619E+00  1.91123E+00  1.87834E+00  1.84732E+00  1.81793E+00  1.79003E+00  1.76341E+00  1.73797E+00  1.71354E+00
   1.69009E+00  1.66748E+00  1.64568E+00  1.62456E+00  1.60409E+00  1.58420E+00  1.56487E+00  1.54604E+00  1.52769E+00  1.50974E+00
   1.49219E+00  1.47499E+00  1.45817E+00  1.44165E+00  1.42544E+00  1.40949E+00  1.39381E+00  1.37836E+00  1.36318E+00  1.34819E+00
   1.33342E+00  1.31881E+00  1.30441E+00  1.29018E+00  1.27615E+00  1.26225E+00  1.24851E+00  1.23489E+00  1.22144E+00  1.20812E+00
   1.19494E+00  1.18186E+00  1.16891E+00  1.15606E+00  1.14336E+00  1.13076E+00  1.11829E+00  1.10590E+00  1.09363E+00  1.08146E+00
   1.06944E+00  1.05751E+00  1.04571E+00  1.03401E+00  1.02245E+00  1.01101E+00  9.99751E-01  9.88620E-01
 NY background values follow
     4.181E+00    4.165E+00    4.149E+00    4.132E+00    4.116E+00    4.100E+00    4.084E+00    4.068E+00    4.052E+00    4.036E+00
     4.020E+00    4.003E+00    3.987E+00    3.971E+00    3.955E+00    3.939E+00    3.923E+00    3.907E+00    3.891E+00    3.875E+00
     3.859E+00    3.843E+00    3.827E+00    3.811E+00    3.795E+00    3.779E+00    3.764E+00    3.748E+00    3.732E+00    3.716E+00
     3.701E+00    3.685E+00    3.670E+00    3.654E+00    3.639E+00    3.623E+00    3.608E+00    3.592E+00    3.577E+00    3.562E+00
     3.547E+00    3.532E+00    3.517E+00    3.502E+00    3.487E+00    3.472E+00    3.457E+00    3.443E+00    3.428E+00    3.414E+00
     3.399E+00    3.385E+00    3.370E+00    3.356E+00    3.342E+00    3.328E+00    3.314E+00    3.300E+00    3.286E+00    3.272E+00
     3.258E+00    3.244E+00    3.230E+00    3.216E+00    3.203E+00    3.189E+00    3.175E+00    3.162E+00    3.148E+00    3.135E+00
     3.121E+00    3.108E+00    3.094E+00    3.081E+00    3.068E+00    3.054E+00    3.041E+00    3.028E+00    3.015E+00    3.002E+00
     2.988E+00    2.975E+00    2.962E+00    2.949E+00    2.936E+00    2.923E+00    2.910E+00    2.897E+00    2.884E+00    2.871E+00
     2.858E+00    2.845E+00    2.832E+00    2.819E+00    2.806E+00    2.793E+00    2.780E+00    2.767E+00    2.755E+00    2.742E+00
     2.729E+00    2.716E+00    2.704E+00    2.691E+00    2.679E+00    2.667E+00    2.654E+00    2.642E+00    2.630E+00    2.618E+00
     2.606E+00    2.594E+00    2.583E+00    2.571E+00    2.559E+00    2.548E+00    2.537E+00    2.526E+00    2.515E+00    2.504E+00
     2.494E+00    2.483E+00    2.473E+00    2.463E+00    2.453E+00    2.443E+00    2.433E+00    2.424E+00    2.415E+00    2.406E+00
     2.397E+00    2.389E+00    2.380E+00    2.372E+00    2.364E+00    2.356E+00    2.349E+00    2.342E+00    2.335E+00    2.328E+00
     2.321E+00    2.315E+00    2.309E+00    2.304E+00    2.298E+00    2.293E+00    2.288E+00    2.283E+00    2.279E+00    2.275E+00
     2.271E+00    2.268E+00    2.265E+00    2.262E+00    2.260E+00    2.257E+00    2.256E+00    2.254E+00    2.253E+00    2.252E+00
     2.252E+00    2.251E+00    2.252E+00    2.252E+00    2.253E+00    2.254E+00    2.256E+00    2.258E+00    2.260E+00    2.263E+00
     2.266E+00    2.270E+00    2.274E+00    2.278E+00    2.283E+00    2.288E+00    2.294E+00    2.300E+00    2.306E+00    2.313E+00
     2.320E+00    2.328E+00    2.336E+00    2.345E+00    2.354E+00    2.363E+00    2.373E+00    2.383E+00    2.393E+00    2.404E+00
     2.416E+00    2.427E+00    2.439E+00    2.452E+00    2.464E+00    2.477E+00    2.490E+00    2.504E+00    2.518E+00    2.532E+00
     2.546E+00    2.561E+00    2.576E+00    2.591E+00    2.606E+00    2.622E+00    2.638E+00    2.653E+00    2.670E+00    2.686E+00
     2.703E+00    2.719E+00    2.736E+00    2.753E+00    2.770E+00    2.787E+00    2.805E+00    2.822E+00    2.840E+00    2.857E+00
     2.875E+00    2.893E+00    2.911E+00    2.929E+00    2.947E+00    2.965E+00    2.983E+00    3.001E+00    3.019E+00    3.037E+00
     3.055E+00    3.073E+00    3.091E+00    3.109E+00    3.127E+00    3.144E+00    3.162E+00    3.180E+00    3.198E+00    3.215E+00
     3.233E+00    3.250E+00    3.267E+00    3.285E+00    3.302E+00    3.319E+00    3.336E+00    3.352E+00    3.369E+00    3.385E+00
     3.401E+00    3.418E+00    3.433E+00    3.449E+00    3.465E+00    3.480E+00    3.495E+00    3.510E+00    3.525E+00    3.539E+00
     3.553E+00    3.567E+00    3.581E+00    3.594E+00    3.608E+00    3.620E+00    3.633E+00    3.645E+00    3.657E+00    3.669E+00
     3.681E+00    3.692E+00    3.702E+00    3.713E+00    3.723E+00    3.733E+00    3.742E+00    3.751E+00    3.760E+00    3.769E+00
     3.777E+00    3.784E+00    3.792E+00    3.799E+00    3.806E+00    3.812E+00    3.818E+00    3.824E+00    3.829E+00    3.834E+00
     3.839E+00    3.843E+00    3.847E+00    3.851E+00    3.854E+00    3.857E+00    3.860E+00    3.862E+00    3.864E+00    3.865E+00
     3.867E+00    3.867E+00    3.868E+00    3.868E+00    3.868E+00    3.867E+00    3.866E+00    3.865E+00    3.863E+00    3.861E+00
     3.858E+00    3.855E+00    3.852E+00    3.849E+00    3.845E+00    3.840E+00    3.836E+00    3.830E+00    3.825E+00    3.819E+00
     3.813E+00    3.807E+00    3.800E+00    3.792E+00    3.785E+00    3.777E+00    3.769E+00    3.760E+00    3.751E+00    3.742E+00
     3.733E+00    3.723E+00    3.713E+00    3.703E+00    3.692E+00    3.681E+00    3.670E+00    3.658E+00    3.647E+00    3.635E+00
     3.622E+00    3.610E+00    3.597E+00    3.584E+00    3.571E+00    3.558E+00    3.544E+00    3.530E+00    3.516E+00    3.502E+00
     3.488E+00    3.473E+00    3.458E+00    3.443E+00    3.428E+00    3.413E+00    3.397E+00    3.382E+00    3.366E+00    3.350E+00
     3.334E+00    3.318E+00    3.301E+00    3.285E+00    3.268E+00    3.252E+00    3.235E+00    3.218E+00    3.201E+00    3.184E+00
     3.167E+00    3.149E+00    3.132E+00    3.115E+00    3.097E+00    3.080E+00    3.062E+00    3.044E+00    3.027E+00    3.009E+00
     2.991E+00    2.973E+00    2.955E+00    2.938E+00    2.920E+00    2.902E+00    2.884E+00    2.866E+00    2.848E+00    2.830E+00
     2.812E+00    2.794E+00    2.777E+00    2.759E+00    2.741E+00    2.723E+00    2.706E+00    2.688E+00    2.671E+00    2.653E+00
     2.636E+00    2.618E+00    2.601E+00    2.584E+00    2.567E+00    2.550E+00    2.533E+00    2.516E+00    2.499E+00    2.482E+00
     2.466E+00    2.449E+00    2.433E+00    2.417E+00    2.401E+00    2.385E+00    2.369E+00    2.353E+00    2.337E+00    2.321E+00
     2.306E+00    2.290E+00    2.275E+00    2.260E+00    2.244E+00    2.229E+00    2.214E+00    2.199E+00    2.184E+00    2.170E+00
     2.155E+00    2.140E+00    2.126E+00    2.111E+00    2.097E+00    2.082E+00    2.068E+00    2.054E+00    2.040E+00    2.026E+00
     2.012E+00    1.998E+00    1.984E+00    1.970E+00    1.956E+00    1.943E+00    1.929E+00    1.915E+00    1.902E+00    1.889E+00
     1.875E+00    1.862E+00    1.849E+00    1.835E+00    1.822E+00    1.809E+00    1.796E+00    1.783E+00    1.770E+00    1.757E+00
     1.744E+00    1.731E+00    1.719E+00    1.706E+00    1.693E+00    1.680E+00    1.668E+00    1.655E+00    1.642E+00    1.630E+00
     1.617E+00    1.605E+00    1.592E+00    1.580E+00    1.568E+00    1.555E+00    1.543E+00    1.531E+00    1.518E+00    1.506E+00
     1.494E+00    1.481E+00    1.469E+00    1.457E+00    1.445E+00    1.433E+00    1.420E+00    1.408E+00    1.396E+00    1.384E+00
     1.372E+00    1.359E+00    1.347E+00    1.335E+00    1.323E+00    1.311E+00    1.299E+00    1.286E+00
 Ala      Conc. = 1.35E+01
