 LCModel (Version 6.3-1L) Copyright: S.W. Provencher.          Ref.: Magn. Reson. Med. 30:672-679 (1993).                
 Slice#1 Row#5 Col#2  PD_05_press_1_raw_act
 36 lines in following concentration table = NCONC+1
    Conc.  %SD /Cr+PCr  Metabolite                                         
    1.323 487% 7.6E-02 Ala                                                 
    3.927 103%   0.225 Asp                                                 
    5.107 151%   0.293 Cr                                                  
   12.309  66%   0.707 PCr                                                 
    3.187  75%   0.183 GABA                                                
    2.837  86%   0.163 Glc                                                 
    0.000 999%   0.000 Gln                                                 
    7.086 180%   0.407 Glu                                                 
    5.069  36%   0.291 GPC                                                 
    0.000 999%   0.000 PCh                                                 
    1.491 341% 8.6E-02 GSH                                                 
    0.000 999%   0.000 Ins                                                 
    0.000 999%   0.000 Lac                                                 
   40.081  17%   2.301 NAA                                                 
   30.446  22%   1.748 NAAG                                                
    0.941  83% 5.4E-02 Scyllo                                              
    5.645  71%   0.324 Tau                                                 
    0.183 999% 1.1E-02 -CrCH2                                              
    5.069  36%   0.291 GPC+PCh                                             
   70.526  17%   4.050 NAA+NAAG                                            
   17.416  29%   1.000 Cr+PCr                                              
    7.086 180%   0.407 Glu+Gln                                             
    0.000 999%   0.000 Lip13a                                              
    0.000 999%   0.000 Lip13b                                              
    0.000 999%   0.000 Lip09                                               
  152.001  37%   8.728 MM09                                                
 1.76E-04 999% 1.0E-05 Lip20                                               
  274.559  33%  15.765 MM20                                                
   41.294  57%   2.371 MM12                                                
   81.187  86%   4.662 MM14                                                
   48.565  98%   2.789 MM17                                                
    0.000 999%   0.000 Lip13a+Lip13b                                       
  122.481  68%   7.033 MM14+Lip13a+Lip13b+MM12                             
  152.001  37%   8.728 MM09+Lip09                                          
  274.559  33%  15.765 MM20+Lip20                                          
   6 lines in following misc. output table
  FWHM = 0.031 ppm    S/N =   2                                            
  Data shift =-0.031 ppm                                                   
  Ph:  40 deg      23.5 deg/ppm                                            
  alphaB,S = 1.2E+00,   1.6E+00                                            
   14 spline knots.   Ns = 5(1)                                            
   2 inflections.     1 extrema                                            
  498 points on ppm-axis = NY
      4.000000     3.992357     3.984714     3.977070     3.969427     3.961784     3.954141     3.946497     3.938854     3.931211
      3.923568     3.915925     3.908281     3.900638     3.892995     3.885352     3.877708     3.870065     3.862422     3.854779
      3.847136     3.839492     3.831849     3.824206     3.816563     3.808919     3.801276     3.793633     3.785990     3.778347
      3.770703     3.763060     3.755417     3.747774     3.740130     3.732487     3.724844     3.717201     3.709558     3.701914
      3.694271     3.686628     3.678985     3.671341     3.663698     3.656055     3.648412     3.640769     3.633125     3.625482
      3.617839     3.610196     3.602552     3.594909     3.587266     3.579623     3.571980     3.564336     3.556693     3.549050
      3.541407     3.533763     3.526120     3.518477     3.510834     3.503191     3.495547     3.487904     3.480261     3.472618
      3.464974     3.457331     3.449688     3.442045     3.434402     3.426758     3.419115     3.411472     3.403829     3.396185
      3.388542     3.380899     3.373256     3.365613     3.357969     3.350326     3.342683     3.335040     3.327396     3.319753
      3.312110     3.304467     3.296824     3.289180     3.281537     3.273894     3.266251     3.258607     3.250964     3.243321
      3.235678     3.228034     3.220391     3.212748     3.205105     3.197462     3.189818     3.182175     3.174532     3.166889
      3.159245     3.151602     3.143959     3.136316     3.128673     3.121029     3.113386     3.105743     3.098100     3.090456
      3.082813     3.075170     3.067527     3.059884     3.052240     3.044597     3.036954     3.029311     3.021667     3.014024
      3.006381     2.998738     2.991095     2.983451     2.975808     2.968165     2.960522     2.952878     2.945235     2.937592
      2.929949     2.922306     2.914662     2.907019     2.899376     2.891733     2.884089     2.876446     2.868803     2.861160
      2.853517     2.845873     2.838230     2.830587     2.822944     2.815300     2.807657     2.800014     2.792371     2.784728
      2.777084     2.769441     2.761798     2.754155     2.746511     2.738868     2.731225     2.723582     2.715939     2.708295
      2.700652     2.693009     2.685366     2.677722     2.670079     2.662436     2.654793     2.647150     2.639506     2.631863
      2.624220     2.616577     2.608933     2.601290     2.593647     2.586004     2.578361     2.570717     2.563074     2.555431
      2.547788     2.540144     2.532501     2.524858     2.517215     2.509572     2.501928     2.494285     2.486642     2.478999
      2.471355     2.463712     2.456069     2.448426     2.440783     2.433139     2.425496     2.417853     2.410210     2.402566
      2.394923     2.387280     2.379637     2.371994     2.364350     2.356707     2.349064     2.341421     2.333777     2.326134
      2.318491     2.310848     2.303205     2.295561     2.287918     2.280275     2.272632     2.264988     2.257345     2.249702
      2.242059     2.234416     2.226772     2.219129     2.211486     2.203843     2.196199     2.188556     2.180913     2.173270
      2.165627     2.157983     2.150340     2.142697     2.135054     2.127410     2.119767     2.112124     2.104481     2.096838
      2.089194     2.081551     2.073908     2.066265     2.058621     2.050978     2.043335     2.035692     2.028049     2.020405
      2.012762     2.005119     1.997476     1.989833     1.982190     1.974546     1.966903     1.959260     1.951617     1.943974
      1.936331     1.928688     1.921045     1.913402     1.905759     1.898115     1.890472     1.882829     1.875186     1.867543
      1.859900     1.852257     1.844614     1.836971     1.829327     1.821684     1.814041     1.806398     1.798755     1.791112
      1.783469     1.775826     1.768183     1.760540     1.752896     1.745253     1.737610     1.729967     1.722324     1.714681
      1.707038     1.699395     1.691752     1.684108     1.676465     1.668822     1.661179     1.653536     1.645893     1.638250
      1.630607     1.622964     1.615321     1.607677     1.600034     1.592391     1.584748     1.577105     1.569462     1.561819
      1.554176     1.546533     1.538890     1.531246     1.523603     1.515960     1.508317     1.500674     1.493031     1.485388
      1.477745     1.470102     1.462458     1.454815     1.447172     1.439529     1.431886     1.424243     1.416600     1.408957
      1.401314     1.393671     1.386027     1.378384     1.370741     1.363098     1.355455     1.347812     1.340169     1.332526
      1.324883     1.317240     1.309596     1.301953     1.294310     1.286667     1.279024     1.271381     1.263738     1.256095
      1.248452     1.240808     1.233165     1.225522     1.217879     1.210236     1.202593     1.194950     1.187307     1.179664
      1.172021     1.164377     1.156734     1.149091     1.141448     1.133805     1.126162     1.118519     1.110876     1.103233
      1.095590     1.087946     1.080303     1.072660     1.065017     1.057374     1.049731     1.042088     1.034445     1.026802
      1.019158     1.011515     1.003872     0.996229     0.988586     0.980943     0.973300     0.965657     0.958014     0.950371
      0.942727     0.935084     0.927441     0.919798     0.912155     0.904512     0.896869     0.889226     0.881583     0.873940
      0.866296     0.858653     0.851010     0.843367     0.835724     0.828081     0.820438     0.812795     0.805152     0.797508
      0.789865     0.782222     0.774579     0.766936     0.759293     0.751650     0.744007     0.736364     0.728721     0.721077
      0.713434     0.705791     0.698148     0.690505     0.682862     0.675219     0.667576     0.659933     0.652290     0.644646
      0.637003     0.629360     0.621717     0.614074     0.606431     0.598788     0.591145     0.583502     0.575858     0.568215
      0.560572     0.552929     0.545286     0.537643     0.530000     0.522357     0.514714     0.507071     0.499427     0.491784
      0.484141     0.476498     0.468855     0.461212     0.453569     0.445925     0.438282     0.430639     0.422996     0.415353
      0.407710     0.400067     0.392424     0.384780     0.377137     0.369494     0.361851     0.354208     0.346565     0.338922
      0.331278     0.323635     0.315992     0.308349     0.300706     0.293063     0.285420     0.277777     0.270133     0.262490
      0.254847     0.247204     0.239561     0.231918     0.224275     0.216631     0.208988     0.201345
 NY phased data points follow
   2.21100E+01  1.87037E+01  1.99753E+01  1.80852E+01  1.87629E+01  1.80036E+01  1.65614E+01  1.85667E+01  2.11524E+01  1.84687E+01
   1.95435E+01  1.90559E+01  1.65375E+01  1.75043E+01  1.62843E+01  1.64441E+01  1.54158E+01  1.64816E+01  1.44602E+01  1.76048E+01
   1.86983E+01  1.52607E+01  1.44428E+01  1.51111E+01  1.48457E+01  1.53692E+01  1.30654E+01  1.47532E+01  1.37189E+01  1.41628E+01
   1.35833E+01  1.43948E+01  1.42722E+01  1.21644E+01  1.24160E+01  1.54223E+01  1.22552E+01  1.44000E+01  1.27859E+01  1.23068E+01
   1.14609E+01  1.30513E+01  1.21098E+01  1.44116E+01  1.14416E+01  1.11088E+01  1.35316E+01  1.01991E+01  1.21583E+01  1.22259E+01
   1.09885E+01  1.14569E+01  1.19239E+01  1.14761E+01  9.23421E+00  1.27190E+01  1.10382E+01  1.17331E+01  1.33147E+01  1.01022E+01
   9.16879E+00  1.16860E+01  9.27427E+00  1.12989E+01  1.13901E+01  9.27389E+00  9.11674E+00  7.79706E+00  1.06606E+01  9.40564E+00
   6.29736E+00  1.08001E+01  7.66974E+00  1.04315E+01  8.51962E+00  7.68348E+00  1.04526E+01  7.76972E+00  8.88556E+00  7.59146E+00
   7.34473E+00  7.90893E+00  9.83104E+00  7.68956E+00  8.02129E+00  8.13691E+00  1.11683E+01  8.44012E+00  7.51249E+00  6.47279E+00
   9.99798E+00  1.04006E+01  6.28502E+00  6.31756E+00  7.45510E+00  5.55781E+00  6.57530E+00  8.73091E+00  7.52076E+00  7.48615E+00
   9.42093E+00  8.84669E+00  7.61545E+00  1.03629E+01  8.88983E+00  9.07387E+00  6.37611E+00  6.34606E+00  6.18040E+00  4.39316E+00
   6.51015E+00  5.03037E+00  5.38187E+00  4.49138E+00  5.91052E+00  4.42127E+00  8.20735E+00  5.38355E+00  3.04944E+00  7.63784E+00
   5.03605E+00  5.62517E+00  2.56930E+00  6.04754E+00  4.64140E+00  8.19015E+00  8.70120E+00  6.00625E+00  9.83196E+00  5.89574E+00
   7.31976E+00  5.97488E+00  4.41052E+00  5.98878E+00  5.47970E+00  6.02568E+00  4.11802E+00  7.14549E+00  4.61265E+00  7.60982E+00
   4.73930E+00  2.80799E+00  5.71352E+00  4.65387E+00  8.42106E+00  2.12024E+00  6.18660E+00  3.56571E+00  3.56109E+00  3.56667E+00
   6.57217E+00  5.70749E+00  6.01904E+00  5.14184E+00  2.83523E+00  5.27398E+00  1.66766E+00  5.98673E+00  4.58067E+00  4.67271E+00
   4.22788E+00  5.27039E+00  6.07524E+00  4.86070E+00  3.94331E+00  7.14832E+00  5.13559E+00  5.07211E+00  3.12864E+00  3.04368E+00
   1.98775E+00  5.80374E+00  1.92716E+00  2.67445E+00  2.66551E+00  1.20881E+00  1.86514E+00  9.17594E-01  5.43352E+00  3.66057E+00
   1.16650E+00  5.46851E+00  2.16769E+00  1.79605E+00  1.58722E+00  2.88164E+00  2.08606E+00  3.86275E+00  3.14056E+00  5.67612E+00
   4.26286E+00  3.73840E+00  4.14630E+00  5.82067E-01  3.37640E+00  2.94507E+00  3.61463E+00  1.43561E+00  1.68500E+00  2.66072E+00
   2.52723E+00  3.13676E+00  2.77450E+00  2.51540E+00  1.93591E+00  3.50326E+00  1.56156E+00  3.35362E+00  3.82348E+00  1.83309E+00
   3.22502E+00  2.99174E+00  3.73465E+00  4.35904E+00  4.67689E+00  4.25931E+00  3.32174E+00  2.85415E+00  4.66477E+00  2.21118E+00
   2.12436E+00  1.76136E+00  1.40596E+00  6.50361E+00  3.56999E+00  3.22646E+00  9.25224E-01  2.90765E+00  3.83241E+00  3.53752E+00
   6.58289E-01  2.55399E+00  4.40696E+00  3.28550E+00  3.09121E+00  2.37207E+00  5.00352E+00  1.68031E+00  2.53077E+00  4.33573E+00
   3.95786E+00  1.03902E+00  2.39365E+00  4.24818E+00  3.26312E+00  3.79701E+00  3.27296E+00  3.40959E+00  3.97398E+00  1.73448E+00
   2.81732E+00  4.98007E-01  4.40636E-01  2.34906E+00  4.45197E+00  3.34651E+00  7.10496E+00  6.91313E+00  6.43866E+00  6.63406E+00
   7.32039E+00  5.48616E+00  8.65936E+00  4.85094E+00  1.93156E+00 -4.81795E-01 -3.51161E+00  1.61521E+00  3.57120E+00  4.39149E+00
   8.33822E-01  2.19241E+00  4.81351E+00  3.14693E+00  1.48311E+00  4.30652E+00  2.02639E+00  2.36318E+00  4.71894E+00  3.82883E+00
   1.36201E+00  3.43437E+00  2.79793E+00  2.91341E+00  2.19620E+00  2.31131E+00  1.59694E+00  2.44735E+00  2.36831E+00  4.07199E+00
   7.89332E-01  1.57950E+00  2.46933E+00  4.42900E+00  2.23920E+00  4.44113E+00  1.20339E+00  3.81431E+00 -7.07717E-01  2.25704E-01
   2.35365E+00  2.58990E+00  2.30228E+00  1.96918E+00 -3.00308E-01  2.52089E-01  2.67290E+00  2.96461E+00 -1.37222E+00  1.51142E+00
  -1.23544E+00  1.14675E+00  9.62479E-01  6.48209E-01  2.83860E+00  1.66040E+00  9.17484E-01  5.16137E+00  2.69491E+00 -8.99770E-02
   3.12510E-01  1.46994E+00  3.28903E+00  2.72830E+00 -3.03287E-02  3.13837E+00  3.99192E+00  1.59855E+00  3.11667E+00  5.75843E-01
   3.40317E-01  1.15295E+00  3.01534E+00  1.78575E+00  2.95987E+00  9.63821E-01  1.23634E+00  7.14565E-01  2.43614E+00  6.85031E-01
   9.86637E-01  3.46077E+00  1.04520E+00  1.20975E+00  2.88123E+00  1.98821E-01  6.77049E-01  1.45537E+00  1.89075E-01  2.66933E+00
   3.40301E+00  2.22010E+00 -1.01878E+00 -4.98051E-01  9.09639E-01 -9.79244E-01  1.66088E+00  4.49816E-01 -8.00138E-01 -1.06330E+00
   7.52068E-01 -1.50820E+00 -1.64174E-01  3.58756E-01  4.51390E-01  1.26450E+00 -3.90915E-01 -4.15861E-01 -1.77490E+00  9.66975E-01
  -6.04572E-01 -1.02441E+00  5.72369E-01  1.15665E+00  1.19557E+00  2.10321E+00  2.41166E+00  2.27620E+00 -1.70951E+00 -1.38976E+00
  -2.18894E-02  2.05183E+00 -1.86920E+00 -2.78054E-01 -6.90556E-01  4.93729E-01  2.33779E+00  4.34568E-03 -7.76127E-01  8.88520E-01
   4.15082E-01  1.38712E+00  2.03802E-01 -3.25429E-01 -4.89994E-01  1.52495E+00  1.01331E+00 -1.10012E-01  2.00663E+00  1.49243E+00
  -1.66589E+00  1.22083E+00  2.53975E+00  1.18890E+00  2.40825E-01  3.16227E+00  2.77180E-01 -1.94776E-02  1.36597E+00  1.93350E-01
   2.19652E+00 -3.11747E-01  4.17623E-01  2.83672E+00  2.67098E-01  1.96133E+00  7.42703E-01 -4.65440E-01 -4.85940E-01  2.99779E-01
   5.34487E-02 -3.97487E-01  1.47511E+00  1.55708E+00  1.76381E+00  1.87419E+00  1.61659E+00  7.89875E-01  1.97672E+00  9.35540E-01
  -1.82619E+00  3.39609E+00  3.60606E-01  9.29475E-01  1.51752E+00 -2.03529E+00  1.80320E-01  1.16110E+00  9.24112E-01 -6.43334E-02
   2.45058E-03 -1.48992E+00 -4.88511E-01 -1.92322E-01 -6.46966E-01 -3.14235E+00 -1.29226E+00 -2.68651E-01 -2.86002E+00  5.08139E-01
   1.59587E+00 -8.18986E-01 -7.24896E-01 -1.53976E+00  1.80609E-01  1.69581E+00  1.12519E+00 -1.44787E-01  1.08469E+00 -2.17711E-01
   2.76794E-01  1.22052E-01 -3.26455E-01 -2.86218E-01  1.29913E+00  7.28169E-01  1.76134E+00  3.54360E-01 -3.13831E-02  1.26390E+00
  -3.04363E+00 -3.33086E-01  1.03678E+00  2.66235E+00  1.87463E+00 -5.86018E-01  1.56850E+00  8.71900E-01  1.96572E+00  2.54235E+00
   7.31406E-01 -3.59861E-01  3.93363E-01 -9.52915E-01 -2.65536E-01  4.16477E-01  7.81107E-01 -1.07313E+00  1.27521E+00 -2.85951E+00
  -8.99857E-01 -1.10175E+00  6.65714E-01 -2.66675E-01  2.71691E+00  8.43851E-01 -3.91935E-01  5.74830E-01
 NY points of the fit to the data follow
   1.70360E+01  1.69317E+01  1.68346E+01  1.67334E+01  1.65844E+01  1.65745E+01  1.67800E+01  1.71002E+01  1.74431E+01  1.76384E+01
   1.75128E+01  1.69419E+01  1.61276E+01  1.53472E+01  1.48683E+01  1.48564E+01  1.49544E+01  1.50235E+01  1.50641E+01  1.49908E+01
   1.48936E+01  1.48227E+01  1.47799E+01  1.47335E+01  1.46340E+01  1.44833E+01  1.43398E+01  1.42420E+01  1.41699E+01  1.41059E+01
   1.40588E+01  1.40090E+01  1.39088E+01  1.37521E+01  1.35610E+01  1.33875E+01  1.32738E+01  1.31695E+01  1.30666E+01  1.30029E+01
   1.29642E+01  1.28937E+01  1.27844E+01  1.26823E+01  1.25790E+01  1.24566E+01  1.23355E+01  1.22148E+01  1.21195E+01  1.20578E+01
   1.19968E+01  1.19205E+01  1.18385E+01  1.17293E+01  1.15854E+01  1.14503E+01  1.13482E+01  1.12538E+01  1.11555E+01  1.10587E+01
   1.09702E+01  1.08897E+01  1.08110E+01  1.07351E+01  1.06528E+01  1.05733E+01  1.04930E+01  1.03964E+01  1.02781E+01  1.01534E+01
   1.00296E+01  9.91978E+00  9.87160E+00  9.86842E+00  9.86104E+00  9.83201E+00  9.74289E+00  9.57321E+00  9.36113E+00  9.16819E+00
   9.03368E+00  8.98146E+00  9.00138E+00  9.05185E+00  9.08849E+00  9.08130E+00  9.01477E+00  8.89252E+00  8.71712E+00  8.50749E+00
   8.30927E+00  8.16442E+00  8.10200E+00  8.03835E+00  7.91310E+00  7.81797E+00  7.78332E+00  7.75558E+00  7.61551E+00  7.67710E+00
   8.16043E+00  8.83619E+00  9.44601E+00  9.76145E+00  9.57719E+00  8.67445E+00  7.36362E+00  6.25852E+00  5.85040E+00  6.27631E+00
   6.73525E+00  6.83290E+00  6.81989E+00  6.77892E+00  6.74113E+00  6.69695E+00  6.64235E+00  6.57793E+00  6.50937E+00  6.43517E+00
   6.34934E+00  6.21700E+00  5.94672E+00  5.97999E+00  6.60864E+00  7.54947E+00  8.42974E+00  8.95438E+00  8.82799E+00  7.78507E+00
   6.26975E+00  4.98418E+00  4.49059E+00  4.96664E+00  5.48057E+00  5.58460E+00  5.57732E+00  5.56529E+00  5.56321E+00  5.56814E+00
   5.56921E+00  5.54196E+00  5.49524E+00  5.43453E+00  5.36510E+00  5.31003E+00  5.26355E+00  5.21146E+00  5.14667E+00  5.08223E+00
   5.02806E+00  4.95694E+00  4.87143E+00  4.77443E+00  4.68016E+00  4.64566E+00  4.69355E+00  4.76425E+00  4.76926E+00  4.67558E+00
   4.46955E+00  4.24440E+00  4.13610E+00  4.16458E+00  4.29101E+00  4.41962E+00  4.39487E+00  4.18190E+00  3.94365E+00  3.80721E+00
   3.80130E+00  3.91310E+00  4.00677E+00  3.96770E+00  3.82873E+00  3.64738E+00  3.50087E+00  3.48748E+00  3.59326E+00  3.67000E+00
   3.64124E+00  3.51520E+00  3.36249E+00  3.31054E+00  3.39177E+00  3.51554E+00  3.57499E+00  3.52679E+00  3.45828E+00  3.49207E+00
   3.61381E+00  3.68138E+00  3.60873E+00  3.43425E+00  3.25452E+00  3.13043E+00  3.07096E+00  3.07866E+00  3.11620E+00  3.08943E+00
   3.04225E+00  3.04263E+00  3.07845E+00  3.13674E+00  3.15938E+00  3.12893E+00  3.03387E+00  2.85828E+00  2.66783E+00  2.52500E+00
   2.45702E+00  2.43090E+00  2.45881E+00  2.54083E+00  2.63667E+00  2.73086E+00  2.82041E+00  2.85941E+00  2.77189E+00  2.54905E+00
   2.32277E+00  2.21838E+00  2.23946E+00  2.33127E+00  2.45704E+00  2.59441E+00  2.69521E+00  2.68623E+00  2.54914E+00  2.35827E+00
   2.20345E+00  2.12142E+00  2.12261E+00  2.23588E+00  2.39364E+00  2.54048E+00  2.61905E+00  2.56769E+00  2.42320E+00  2.22667E+00
   2.04807E+00  1.96229E+00  1.97102E+00  2.03767E+00  2.16430E+00  2.33773E+00  2.46343E+00  2.46603E+00  2.31776E+00  2.10482E+00
   1.84770E+00  1.29631E+00  1.19809E+00  2.15844E+00  3.77803E+00  5.16509E+00  5.86151E+00  6.72023E+00  7.19562E+00  7.18909E+00
   7.05789E+00  7.23059E+00  7.37516E+00  5.64414E+00  2.62724E+00  1.52424E-01 -1.85872E-01  1.22470E+00  2.00264E+00  2.24546E+00
   2.34890E+00  2.41552E+00  2.49117E+00  2.56215E+00  2.58628E+00  2.55063E+00  2.46313E+00  2.35069E+00  2.24126E+00  2.15600E+00
   2.12052E+00  2.12495E+00  2.13867E+00  2.13338E+00  2.11760E+00  2.09333E+00  2.05387E+00  1.99236E+00  1.91887E+00  1.86236E+00
   1.83105E+00  1.81172E+00  1.81376E+00  1.82930E+00  1.84008E+00  1.83158E+00  1.79616E+00  1.74443E+00  1.70405E+00  1.67633E+00
   1.65599E+00  1.64889E+00  1.65384E+00  1.66321E+00  1.66722E+00  1.65686E+00  1.64047E+00  1.62494E+00  1.60855E+00  1.59212E+00
   1.57521E+00  1.55730E+00  1.53822E+00  1.51806E+00  1.49695E+00  1.47511E+00  1.45298E+00  1.43106E+00  1.40998E+00  1.39010E+00
   1.37134E+00  1.35342E+00  1.33483E+00  1.32606E+00  1.33908E+00  1.35806E+00  1.36736E+00  1.35769E+00  1.32496E+00  1.26863E+00
   1.19935E+00  1.13720E+00  1.11384E+00  1.14176E+00  1.19075E+00  1.23300E+00  1.27993E+00  1.31792E+00  1.32103E+00  1.28808E+00
   1.23110E+00  1.18360E+00  1.16690E+00  1.15485E+00  1.13936E+00  1.12138E+00  1.10165E+00  1.08066E+00  1.05877E+00  1.03625E+00
   1.01336E+00  9.90336E-01  9.67463E-01  9.44962E-01  9.22977E-01  9.01591E-01  8.80863E-01  8.60862E-01  8.41621E-01  8.23109E-01
   8.05207E-01  7.87770E-01  7.70657E-01  7.53751E-01  7.36908E-01  7.19953E-01  7.02678E-01  6.84908E-01  6.66520E-01  6.47442E-01
   6.27597E-01  6.06913E-01  5.85333E-01  5.62872E-01  5.39614E-01  5.15686E-01  4.91218E-01  4.66358E-01  4.41301E-01  4.16328E-01
   3.91781E-01  3.68042E-01  3.45504E-01  3.24608E-01  3.05863E-01  2.89866E-01  2.77253E-01  2.68663E-01  2.64715E-01  2.66022E-01
   2.73179E-01  2.86736E-01  3.07113E-01  3.34555E-01  3.69104E-01  4.10606E-01  4.58698E-01  5.12780E-01  5.71975E-01  6.35152E-01
   7.00972E-01  7.67975E-01  8.34615E-01  8.99316E-01  9.60503E-01  1.01670E+00  1.06659E+00  1.10915E+00  1.14360E+00  1.16943E+00
   1.18643E+00  1.19463E+00  1.19438E+00  1.18626E+00  1.17104E+00  1.14958E+00  1.12280E+00  1.09169E+00  1.05722E+00  1.02032E+00
   9.81856E-01  9.42547E-01  9.03005E-01  8.63755E-01  8.25233E-01  7.87779E-01  7.51616E-01  7.16871E-01  6.83609E-01  6.51870E-01
   6.21666E-01  5.92972E-01  5.65717E-01  5.39807E-01  5.15155E-01  4.91696E-01  4.69366E-01  4.48089E-01  4.27768E-01  4.08316E-01
   3.89670E-01  3.71793E-01  3.54640E-01  3.38154E-01  3.22266E-01  3.06928E-01  2.92115E-01  2.77816E-01  2.64001E-01  2.50629E-01
   2.37651E-01  2.25050E-01  2.12820E-01  2.00961E-01  1.89446E-01  1.78240E-01  1.67316E-01  1.56672E-01  1.46315E-01  1.36239E-01
   1.26417E-01  1.16824E-01  1.07444E-01  9.82904E-02  8.93675E-02  8.06668E-02  7.21596E-02  6.38290E-02  5.56742E-02  4.77111E-02
   3.99401E-02  3.23460E-02  2.49031E-02  1.76047E-02  1.04595E-02  3.48242E-03 -3.33382E-03 -1.00083E-02 -1.65614E-02 -2.29892E-02
  -2.92788E-02 -3.54204E-02 -4.14292E-02 -4.73249E-02 -5.31193E-02 -5.88001E-02 -6.43548E-02 -6.97820E-02 -7.51030E-02 -8.03343E-02
  -8.54787E-02 -9.05193E-02 -9.54486E-02 -1.00275E-01 -1.05023E-01 -1.09703E-01 -1.14311E-01 -1.18831E-01
 NY background values follow
     1.711E+01    1.701E+01    1.690E+01    1.680E+01    1.669E+01    1.659E+01    1.648E+01    1.638E+01    1.627E+01    1.617E+01
     1.606E+01    1.596E+01    1.586E+01    1.575E+01    1.565E+01    1.554E+01    1.544E+01    1.533E+01    1.523E+01    1.513E+01
     1.502E+01    1.492E+01    1.482E+01    1.471E+01    1.461E+01    1.451E+01    1.441E+01    1.430E+01    1.420E+01    1.410E+01
     1.400E+01    1.390E+01    1.379E+01    1.369E+01    1.359E+01    1.349E+01    1.339E+01    1.329E+01    1.319E+01    1.309E+01
     1.299E+01    1.289E+01    1.280E+01    1.270E+01    1.260E+01    1.250E+01    1.240E+01    1.231E+01    1.221E+01    1.212E+01
     1.202E+01    1.192E+01    1.183E+01    1.173E+01    1.164E+01    1.155E+01    1.145E+01    1.136E+01    1.127E+01    1.117E+01
     1.108E+01    1.099E+01    1.090E+01    1.081E+01    1.072E+01    1.063E+01    1.054E+01    1.045E+01    1.036E+01    1.028E+01
     1.019E+01    1.010E+01    1.002E+01    9.931E+00    9.846E+00    9.761E+00    9.677E+00    9.593E+00    9.510E+00    9.427E+00
     9.345E+00    9.263E+00    9.182E+00    9.102E+00    9.022E+00    8.942E+00    8.863E+00    8.785E+00    8.707E+00    8.630E+00
     8.554E+00    8.478E+00    8.402E+00    8.328E+00    8.253E+00    8.180E+00    8.107E+00    8.034E+00    7.962E+00    7.891E+00
     7.820E+00    7.750E+00    7.681E+00    7.612E+00    7.543E+00    7.475E+00    7.408E+00    7.341E+00    7.275E+00    7.209E+00
     7.144E+00    7.080E+00    7.016E+00    6.953E+00    6.890E+00    6.828E+00    6.766E+00    6.705E+00    6.644E+00    6.585E+00
     6.525E+00    6.466E+00    6.408E+00    6.350E+00    6.293E+00    6.236E+00    6.180E+00    6.124E+00    6.069E+00    6.015E+00
     5.961E+00    5.907E+00    5.854E+00    5.802E+00    5.750E+00    5.699E+00    5.648E+00    5.597E+00    5.548E+00    5.498E+00
     5.450E+00    5.401E+00    5.354E+00    5.306E+00    5.260E+00    5.213E+00    5.168E+00    5.122E+00    5.077E+00    5.033E+00
     4.989E+00    4.946E+00    4.903E+00    4.861E+00    4.819E+00    4.777E+00    4.736E+00    4.695E+00    4.655E+00    4.615E+00
     4.576E+00    4.537E+00    4.498E+00    4.460E+00    4.423E+00    4.386E+00    4.349E+00    4.312E+00    4.276E+00    4.241E+00
     4.206E+00    4.171E+00    4.136E+00    4.102E+00    4.069E+00    4.035E+00    4.002E+00    3.970E+00    3.938E+00    3.906E+00
     3.874E+00    3.843E+00    3.812E+00    3.782E+00    3.752E+00    3.722E+00    3.693E+00    3.664E+00    3.635E+00    3.606E+00
     3.578E+00    3.550E+00    3.523E+00    3.496E+00    3.469E+00    3.442E+00    3.415E+00    3.389E+00    3.363E+00    3.338E+00
     3.312E+00    3.287E+00    3.262E+00    3.238E+00    3.213E+00    3.189E+00    3.165E+00    3.141E+00    3.118E+00    3.094E+00
     3.071E+00    3.048E+00    3.025E+00    3.003E+00    2.980E+00    2.958E+00    2.936E+00    2.914E+00    2.893E+00    2.871E+00
     2.850E+00    2.828E+00    2.807E+00    2.786E+00    2.765E+00    2.745E+00    2.724E+00    2.704E+00    2.683E+00    2.663E+00
     2.643E+00    2.623E+00    2.603E+00    2.583E+00    2.564E+00    2.544E+00    2.525E+00    2.505E+00    2.486E+00    2.467E+00
     2.448E+00    2.429E+00    2.410E+00    2.391E+00    2.373E+00    2.354E+00    2.336E+00    2.317E+00    2.299E+00    2.281E+00
     2.262E+00    2.244E+00    2.226E+00    2.208E+00    2.191E+00    2.173E+00    2.155E+00    2.137E+00    2.120E+00    2.102E+00
     2.085E+00    2.067E+00    2.050E+00    2.033E+00    2.016E+00    1.998E+00    1.981E+00    1.964E+00    1.947E+00    1.930E+00
     1.913E+00    1.897E+00    1.880E+00    1.863E+00    1.846E+00    1.830E+00    1.813E+00    1.796E+00    1.780E+00    1.763E+00
     1.747E+00    1.730E+00    1.714E+00    1.698E+00    1.681E+00    1.665E+00    1.649E+00    1.633E+00    1.617E+00    1.601E+00
     1.585E+00    1.569E+00    1.553E+00    1.537E+00    1.521E+00    1.505E+00    1.490E+00    1.474E+00    1.458E+00    1.443E+00
     1.427E+00    1.411E+00    1.396E+00    1.380E+00    1.365E+00    1.350E+00    1.334E+00    1.319E+00    1.304E+00    1.289E+00
     1.273E+00    1.258E+00    1.243E+00    1.228E+00    1.213E+00    1.198E+00    1.183E+00    1.169E+00    1.154E+00    1.139E+00
     1.124E+00    1.110E+00    1.095E+00    1.080E+00    1.066E+00    1.051E+00    1.037E+00    1.022E+00    1.008E+00    9.939E-01
     9.796E-01    9.654E-01    9.513E-01    9.373E-01    9.232E-01    9.093E-01    8.954E-01    8.816E-01    8.678E-01    8.541E-01
     8.404E-01    8.268E-01    8.133E-01    7.999E-01    7.865E-01    7.731E-01    7.599E-01    7.467E-01    7.335E-01    7.205E-01
     7.075E-01    6.946E-01    6.817E-01    6.689E-01    6.562E-01    6.436E-01    6.310E-01    6.186E-01    6.061E-01    5.938E-01
     5.815E-01    5.694E-01    5.572E-01    5.452E-01    5.333E-01    5.214E-01    5.096E-01    4.979E-01    4.862E-01    4.747E-01
     4.632E-01    4.518E-01    4.404E-01    4.292E-01    4.180E-01    4.069E-01    3.959E-01    3.850E-01    3.741E-01    3.633E-01
     3.526E-01    3.420E-01    3.315E-01    3.210E-01    3.107E-01    3.004E-01    2.901E-01    2.800E-01    2.699E-01    2.600E-01
     2.501E-01    2.403E-01    2.305E-01    2.209E-01    2.113E-01    2.018E-01    1.924E-01    1.831E-01    1.738E-01    1.647E-01
     1.556E-01    1.466E-01    1.377E-01    1.288E-01    1.201E-01    1.114E-01    1.028E-01    9.426E-02    8.583E-02    7.748E-02
     6.921E-02    6.102E-02    5.291E-02    4.488E-02    3.693E-02    2.907E-02    2.128E-02    1.357E-02    5.943E-03   -1.605E-03
    -9.074E-03   -1.646E-02   -2.377E-02   -3.101E-02   -3.816E-02   -4.523E-02   -5.223E-02   -5.915E-02   -6.599E-02   -7.275E-02
    -7.943E-02   -8.604E-02   -9.257E-02   -9.902E-02   -1.054E-01   -1.117E-01   -1.179E-01   -1.241E-01   -1.301E-01   -1.361E-01
    -1.420E-01   -1.479E-01   -1.536E-01   -1.593E-01   -1.649E-01   -1.705E-01   -1.759E-01   -1.813E-01   -1.866E-01   -1.919E-01
    -1.970E-01   -2.021E-01   -2.071E-01   -2.121E-01   -2.169E-01   -2.217E-01   -2.265E-01   -2.311E-01   -2.357E-01   -2.402E-01
    -2.446E-01   -2.490E-01   -2.533E-01   -2.575E-01   -2.616E-01   -2.657E-01   -2.697E-01   -2.737E-01   -2.775E-01   -2.813E-01
    -2.851E-01   -2.887E-01   -2.923E-01   -2.958E-01   -2.993E-01   -3.027E-01   -3.060E-01   -3.092E-01   -3.124E-01   -3.156E-01
    -3.186E-01   -3.216E-01   -3.245E-01   -3.274E-01   -3.302E-01   -3.329E-01   -3.355E-01   -3.381E-01   -3.407E-01   -3.431E-01
    -3.455E-01   -3.479E-01   -3.501E-01   -3.523E-01   -3.545E-01   -3.565E-01   -3.586E-01   -3.605E-01
 Ala      Conc. = 1.32E+00
