 LCModel (Version 6.3-1L) Copyright: S.W. Provencher.          Ref.: Magn. Reson. Med. 30:672-679 (1993).                
 Slice#2 Row#6 Col#3  PD_05_press_1_raw_act
 36 lines in following concentration table = NCONC+1
    Conc.  %SD /Cr+PCr  Metabolite                                         
   22.326 254% 3.0E-02 Ala                                                 
   77.188 146%   0.105 Asp                                                 
  170.308  75%   0.232 Cr                                                  
  562.576  24%   0.768 PCr                                                 
   27.055 280% 3.7E-02 GABA                                                
    0.000 999%   0.000 Glc                                                 
  251.507  47%   0.343 Gln                                                 
  666.182  21%   0.909 Glu                                                 
  188.461   6%   0.257 GPC                                                 
    0.000 999%   0.000 PCh                                                 
  221.615  18%   0.302 GSH                                                 
  451.843  31%   0.617 Ins                                                 
   59.512 104% 8.1E-02 Lac                                                 
 1.22E+03   5%   1.665 NAA                                                 
  225.372  28%   0.308 NAAG                                                
   11.962 117% 1.6E-02 Scyllo                                              
    0.000 999%   0.000 Tau                                                 
  241.216  28%   0.329 -CrCH2                                              
  188.461   6%   0.257 GPC+PCh                                             
 1.45E+03   3%   1.973 NAA+NAAG                                            
  732.884   5%   1.000 Cr+PCr                                              
  917.690  21%   1.252 Glu+Gln                                             
    0.000 999%   0.000 Lip13a                                              
   46.331 131% 6.3E-02 Lip13b                                              
    1.846 999% 2.5E-03 Lip09                                               
  909.090  14%   1.240 MM09                                                
    8.252 164% 1.1E-02 Lip20                                               
 1.47E+03  13%   2.010 MM20                                                
  271.544  15%   0.371 MM12                                                
  664.575  17%   0.907 MM14                                                
  334.207  20%   0.456 MM17                                                
   46.331 131% 6.3E-02 Lip13a+Lip13b                                       
  982.450  15%   1.341 MM14+Lip13a+Lip13b+MM12                             
  910.936  14%   1.243 MM09+Lip09                                          
 1.48E+03  12%   2.021 MM20+Lip20                                          
   6 lines in following misc. output table
  FWHM = 0.046 ppm    S/N =  12                                            
  Data shift = 0.031 ppm                                                   
  Ph: -16 deg      -1.5 deg/ppm                                            
  alphaB,S = 7.9E-01,   5.4E+01                                            
   14 spline knots.   Ns = 7(1)                                            
  (11) 4 infls.   ( 5) 1 extrs.                                            
  498 points on ppm-axis = NY
      4.000000     3.992357     3.984714     3.977070     3.969427     3.961784     3.954141     3.946497     3.938854     3.931211
      3.923568     3.915925     3.908281     3.900638     3.892995     3.885352     3.877708     3.870065     3.862422     3.854779
      3.847136     3.839492     3.831849     3.824206     3.816563     3.808919     3.801276     3.793633     3.785990     3.778347
      3.770703     3.763060     3.755417     3.747774     3.740130     3.732487     3.724844     3.717201     3.709558     3.701914
      3.694271     3.686628     3.678985     3.671341     3.663698     3.656055     3.648412     3.640769     3.633125     3.625482
      3.617839     3.610196     3.602552     3.594909     3.587266     3.579623     3.571980     3.564336     3.556693     3.549050
      3.541407     3.533763     3.526120     3.518477     3.510834     3.503191     3.495547     3.487904     3.480261     3.472618
      3.464974     3.457331     3.449688     3.442045     3.434402     3.426758     3.419115     3.411472     3.403829     3.396185
      3.388542     3.380899     3.373256     3.365613     3.357969     3.350326     3.342683     3.335040     3.327396     3.319753
      3.312110     3.304467     3.296824     3.289180     3.281537     3.273894     3.266251     3.258607     3.250964     3.243321
      3.235678     3.228034     3.220391     3.212748     3.205105     3.197462     3.189818     3.182175     3.174532     3.166889
      3.159245     3.151602     3.143959     3.136316     3.128673     3.121029     3.113386     3.105743     3.098100     3.090456
      3.082813     3.075170     3.067527     3.059884     3.052240     3.044597     3.036954     3.029311     3.021667     3.014024
      3.006381     2.998738     2.991095     2.983451     2.975808     2.968165     2.960522     2.952878     2.945235     2.937592
      2.929949     2.922306     2.914662     2.907019     2.899376     2.891733     2.884089     2.876446     2.868803     2.861160
      2.853517     2.845873     2.838230     2.830587     2.822944     2.815300     2.807657     2.800014     2.792371     2.784728
      2.777084     2.769441     2.761798     2.754155     2.746511     2.738868     2.731225     2.723582     2.715939     2.708295
      2.700652     2.693009     2.685366     2.677722     2.670079     2.662436     2.654793     2.647150     2.639506     2.631863
      2.624220     2.616577     2.608933     2.601290     2.593647     2.586004     2.578361     2.570717     2.563074     2.555431
      2.547788     2.540144     2.532501     2.524858     2.517215     2.509572     2.501928     2.494285     2.486642     2.478999
      2.471355     2.463712     2.456069     2.448426     2.440783     2.433139     2.425496     2.417853     2.410210     2.402566
      2.394923     2.387280     2.379637     2.371994     2.364350     2.356707     2.349064     2.341421     2.333777     2.326134
      2.318491     2.310848     2.303205     2.295561     2.287918     2.280275     2.272632     2.264988     2.257345     2.249702
      2.242059     2.234416     2.226772     2.219129     2.211486     2.203843     2.196199     2.188556     2.180913     2.173270
      2.165627     2.157983     2.150340     2.142697     2.135054     2.127410     2.119767     2.112124     2.104481     2.096838
      2.089194     2.081551     2.073908     2.066265     2.058621     2.050978     2.043335     2.035692     2.028049     2.020405
      2.012762     2.005119     1.997476     1.989833     1.982190     1.974546     1.966903     1.959260     1.951617     1.943974
      1.936331     1.928688     1.921045     1.913402     1.905759     1.898115     1.890472     1.882829     1.875186     1.867543
      1.859900     1.852257     1.844614     1.836971     1.829327     1.821684     1.814041     1.806398     1.798755     1.791112
      1.783469     1.775826     1.768183     1.760540     1.752896     1.745253     1.737610     1.729967     1.722324     1.714681
      1.707038     1.699395     1.691752     1.684108     1.676465     1.668822     1.661179     1.653536     1.645893     1.638250
      1.630607     1.622964     1.615321     1.607677     1.600034     1.592391     1.584748     1.577105     1.569462     1.561819
      1.554176     1.546533     1.538890     1.531246     1.523603     1.515960     1.508317     1.500674     1.493031     1.485388
      1.477745     1.470102     1.462458     1.454815     1.447172     1.439529     1.431886     1.424243     1.416600     1.408957
      1.401314     1.393671     1.386027     1.378384     1.370741     1.363098     1.355455     1.347812     1.340169     1.332526
      1.324883     1.317240     1.309596     1.301953     1.294310     1.286667     1.279024     1.271381     1.263738     1.256095
      1.248452     1.240808     1.233165     1.225522     1.217879     1.210236     1.202593     1.194950     1.187307     1.179664
      1.172021     1.164377     1.156734     1.149091     1.141448     1.133805     1.126162     1.118519     1.110876     1.103233
      1.095590     1.087946     1.080303     1.072660     1.065017     1.057374     1.049731     1.042088     1.034445     1.026802
      1.019158     1.011515     1.003872     0.996229     0.988586     0.980943     0.973300     0.965657     0.958014     0.950371
      0.942727     0.935084     0.927441     0.919798     0.912155     0.904512     0.896869     0.889226     0.881583     0.873940
      0.866296     0.858653     0.851010     0.843367     0.835724     0.828081     0.820438     0.812795     0.805152     0.797508
      0.789865     0.782222     0.774579     0.766936     0.759293     0.751650     0.744007     0.736364     0.728721     0.721077
      0.713434     0.705791     0.698148     0.690505     0.682862     0.675219     0.667576     0.659933     0.652290     0.644646
      0.637003     0.629360     0.621717     0.614074     0.606431     0.598788     0.591145     0.583502     0.575858     0.568215
      0.560572     0.552929     0.545286     0.537643     0.530000     0.522357     0.514714     0.507071     0.499427     0.491784
      0.484141     0.476498     0.468855     0.461212     0.453569     0.445925     0.438282     0.430639     0.422996     0.415353
      0.407710     0.400067     0.392424     0.384780     0.377137     0.369494     0.361851     0.354208     0.346565     0.338922
      0.331278     0.323635     0.315992     0.308349     0.300706     0.293063     0.285420     0.277777     0.270133     0.262490
      0.254847     0.247204     0.239561     0.231918     0.224275     0.216631     0.208988     0.201345
 NY phased data points follow
  -2.11989E+01 -2.29394E+01 -1.95213E+01 -2.26070E+01 -1.93250E+01 -1.95802E+01 -1.48032E+01 -1.24131E+01 -9.62701E+00 -7.46326E+00
  -4.40803E+00 -3.82562E+00 -5.99178E+00 -7.71427E+00 -1.09992E+01 -1.19847E+01 -1.59250E+01 -1.48814E+01 -1.48839E+01 -1.71123E+01
  -1.73283E+01 -1.50905E+01 -1.67270E+01 -1.55369E+01 -1.40780E+01 -1.58619E+01 -1.36168E+01 -1.51329E+01 -1.16288E+01 -1.09732E+01
  -8.61538E+00 -1.20023E+01 -1.04272E+01 -8.98923E+00 -1.31780E+01 -1.36056E+01 -1.43863E+01 -1.76150E+01 -1.34410E+01 -1.49707E+01
  -1.04145E+01 -1.30401E+01 -1.23255E+01 -1.12438E+01 -9.81548E+00 -1.19527E+01 -1.08283E+01 -7.36958E+00 -8.93342E+00 -1.01412E+01
  -9.26692E+00 -1.21016E+01 -1.12451E+01 -1.08701E+01 -1.22145E+01 -1.04060E+01 -1.01238E+01 -1.15134E+01 -1.19268E+01 -1.04374E+01
  -1.33357E+01 -1.39854E+01 -1.43905E+01 -1.42512E+01 -1.54666E+01 -1.63396E+01 -1.58761E+01 -1.53269E+01 -1.39632E+01 -1.73022E+01
  -1.46064E+01 -1.29441E+01 -1.48259E+01 -1.31772E+01 -1.23552E+01 -1.37436E+01 -1.36329E+01 -1.43566E+01 -1.43429E+01 -1.20680E+01
  -1.24350E+01 -1.34282E+01 -1.32045E+01 -1.30259E+01 -1.17049E+01 -1.23408E+01 -1.25492E+01 -1.33940E+01 -1.38110E+01 -1.20123E+01
  -1.17710E+01 -1.04281E+01 -9.05511E+00 -7.08482E+00 -9.79806E+00 -9.08732E+00 -7.42679E+00 -7.84776E+00 -1.01173E+01 -5.66121E+00
  -8.09396E-01  4.39856E+00  5.10889E+00  5.49463E+00  4.52005E+00  1.72144E+00  3.48283E-02 -1.42862E+00 -2.94063E+00 -5.55528E+00
  -7.19913E+00 -3.35754E+00 -5.87663E+00 -8.98084E+00 -8.50357E+00 -6.61956E+00 -9.33927E+00 -6.77919E+00 -4.85331E+00 -7.20988E+00
  -6.83574E+00 -8.65953E+00 -7.28386E+00 -8.81735E-01  2.56118E+00  9.72685E+00  1.29430E+01  1.54878E+01  1.52767E+01  1.35200E+01
   9.06827E+00  4.14125E+00  9.49292E-01  1.01706E+00 -3.77805E+00 -3.90253E+00 -6.48544E+00 -7.35417E+00 -8.66497E+00 -6.47664E+00
  -9.60987E+00 -7.13990E+00 -8.14241E+00 -8.14016E+00 -8.01795E+00 -6.23405E+00 -8.69462E+00 -1.01187E+01 -1.11450E+01 -5.90497E+00
  -1.02116E+01 -1.12564E+01 -7.63137E+00 -1.16180E+01 -7.85910E+00 -7.34477E+00 -9.98728E+00 -8.37660E+00 -7.09316E+00 -1.11915E+01
  -8.08526E+00 -1.04367E+01 -1.17032E+01 -1.31957E+01 -8.23044E+00 -9.82627E+00 -1.05269E+01 -8.00989E+00 -1.07162E+01 -8.90765E+00
  -1.08561E+01 -1.19415E+01 -1.22472E+01 -1.42938E+01 -1.18075E+01 -1.35657E+01 -1.07750E+01 -1.50672E+01 -1.05935E+01 -1.27590E+01
  -1.02388E+01 -1.26207E+01 -1.24182E+01 -1.03192E+01 -1.25621E+01 -1.22485E+01 -1.07073E+01 -1.06897E+01 -1.05069E+01 -9.13467E+00
  -8.29205E+00 -6.47656E+00 -5.77443E+00 -4.31821E+00 -8.48472E+00 -4.71025E+00 -6.42967E+00 -7.04455E+00 -6.41451E+00 -7.54006E+00
  -6.09962E+00 -7.45079E+00 -4.61598E+00 -4.09877E+00 -2.37126E+00 -3.76840E+00 -6.92255E+00 -7.92319E+00 -6.58931E+00 -4.59546E+00
  -9.48136E+00 -9.12401E+00 -5.22134E+00 -6.26547E+00 -3.46354E+00 -1.07134E+00 -1.31386E+00  3.05872E-01 -3.41208E+00 -3.64366E+00
  -5.89939E+00 -7.01875E+00 -4.19239E+00 -6.63951E+00 -7.41477E+00 -5.29266E+00 -3.65125E+00 -1.78172E+00 -1.96870E+00 -1.64788E+00
  -4.22442E+00 -3.63578E+00 -2.00006E+00 -1.76055E+00 -3.82922E+00 -1.71249E+00 -1.48464E+00 -3.72198E+00 -3.11158E-01 -2.44636E-01
  -2.87710E+00 -2.72238E+00 -1.54942E+00 -1.29097E+00  6.30240E-01  1.45516E+00  1.74391E+00  3.13092E+00  4.83857E+00  3.86220E+00
   5.75989E+00  6.51843E+00  8.28489E+00  8.35066E+00  1.02989E+01  1.20355E+01  1.59964E+01  2.28512E+01  3.29712E+01  4.04535E+01
   4.38080E+01  4.32182E+01  3.55840E+01  3.12183E+01  2.19916E+01  1.58530E+01  7.23705E+00  5.25845E+00  5.74638E+00  3.60150E+00
   6.59000E-01  1.59941E+00  1.55056E+00  3.10049E-01 -4.93424E-01 -1.42885E+00 -6.24713E-01 -3.21717E+00 -4.93743E+00 -2.37046E+00
  -3.26810E+00 -3.44442E+00 -2.49671E+00 -3.35246E+00 -5.11307E+00 -4.49471E+00 -3.99709E+00 -8.16938E-01 -4.46395E+00 -3.62655E+00
  -5.66116E+00 -4.55633E+00 -4.78978E+00 -5.22448E+00 -4.97596E+00 -3.82789E+00 -4.83984E+00 -4.17484E+00 -5.08875E+00 -3.99954E+00
  -6.39144E+00 -4.00830E+00 -3.36866E+00 -5.52998E+00 -3.06282E+00 -5.38759E+00 -6.61269E+00 -5.03462E+00 -4.20587E+00 -1.60854E+00
  -1.59441E+00 -4.28256E+00 -1.52134E+00 -2.17375E+00 -2.18314E+00 -1.94679E+00 -2.88918E+00 -2.42867E+00 -4.39314E+00 -9.18807E-01
  -2.73460E+00 -3.75206E+00 -4.18901E+00 -3.54288E+00 -2.25681E+00 -3.33552E+00 -5.41708E+00 -3.23967E+00 -5.46394E+00 -3.46712E+00
  -4.51929E+00 -4.25560E+00 -4.64271E+00 -1.80150E+00 -1.27272E+00 -3.87191E+00 -4.44560E+00 -3.68436E+00 -2.94676E+00 -5.30127E+00
  -6.97078E-01 -2.44748E+00 -4.16954E+00 -3.40365E-01 -1.85890E+00 -3.37694E+00 -3.00422E-01 -1.88875E+00 -2.12992E+00 -2.30578E+00
  -3.20828E+00 -5.26053E+00 -2.44013E+00 -2.42053E+00 -3.12166E+00 -2.49866E+00 -3.94462E+00 -9.85657E-01 -4.59213E+00 -1.46508E+00
  -2.32379E+00 -2.20648E+00 -5.05622E+00 -5.83544E+00 -5.50087E+00 -3.34737E+00 -6.13160E+00 -4.92758E+00 -1.58177E+00 -3.09483E+00
  -2.86795E+00 -3.43268E+00 -3.76612E+00 -5.81055E+00 -5.22111E+00 -6.65980E+00 -6.14078E+00 -4.92537E+00 -5.14475E+00 -6.36778E+00
  -5.03957E+00 -6.86277E+00 -2.56914E+00 -4.75580E+00 -4.51496E+00 -5.79755E+00 -7.19773E+00 -3.14849E+00 -7.01904E+00 -5.59363E+00
  -5.85926E+00 -5.49007E+00 -7.97108E+00 -6.71837E+00 -3.27268E+00 -3.60249E+00 -2.78420E+00 -1.86108E+00 -1.79235E+00 -3.46751E+00
  -2.93391E+00 -2.82749E+00 -3.06004E+00 -2.04566E+00 -3.02353E+00 -1.54660E+00 -4.90102E+00 -3.01409E+00 -3.63538E+00 -3.45792E+00
  -5.68094E+00 -1.33290E+00 -4.37765E+00 -3.82777E+00 -2.81387E+00 -3.16652E+00 -2.19276E+00 -5.01718E+00 -1.19460E-01 -2.37342E+00
  -1.28087E+00 -3.37278E+00 -2.14934E+00 -2.56311E+00 -1.19521E+00 -3.85581E+00 -3.81748E+00 -3.67547E+00 -3.26204E+00 -9.51684E-01
  -1.56330E+00 -3.44602E+00 -2.88594E+00 -3.85515E+00 -2.71702E+00 -9.39216E-01 -3.83101E+00 -4.17792E+00 -9.34308E-01 -4.35346E+00
  -1.99325E+00 -2.38636E+00 -3.13431E+00 -2.88100E+00 -3.61563E+00 -3.57637E+00 -3.17103E+00 -2.35126E+00 -4.39449E+00 -1.93492E+00
  -3.64312E+00  2.78407E-02 -5.06257E+00 -2.27589E+00 -1.49515E+00 -3.25367E+00 -5.02515E-01 -4.83254E+00 -5.01619E+00 -1.49258E+00
  -3.45122E+00 -5.72567E+00 -3.73459E+00 -6.09035E+00 -4.18778E+00 -1.65931E+00 -2.94358E+00 -1.87919E+00 -2.12770E+00 -5.59752E+00
  -3.52823E+00 -4.85711E+00 -1.88332E+00 -4.72160E+00 -5.18628E+00 -4.63676E+00 -1.53283E+00 -3.71234E+00 -3.24276E+00 -5.23711E+00
  -2.38592E+00 -3.81938E+00 -3.04113E+00 -1.57468E+00 -3.52451E+00 -3.58663E+00 -3.67546E-01 -2.18953E+00 -2.12202E+00 -1.16162E+00
  -1.75533E+00 -1.30488E+00 -5.36132E-01 -1.05579E+00 -3.42375E+00 -4.38259E+00 -2.24749E+00 -3.06900E+00
 NY points of the fit to the data follow
  -1.84728E+01 -1.85863E+01 -1.85165E+01 -1.83893E+01 -1.84085E+01 -1.79114E+01 -1.60445E+01 -1.28833E+01 -9.38410E+00 -6.57522E+00
  -5.17414E+00 -5.34012E+00 -6.57576E+00 -8.41684E+00 -1.05450E+01 -1.24359E+01 -1.32958E+01 -1.36708E+01 -1.46399E+01 -1.54936E+01
  -1.58156E+01 -1.58745E+01 -1.58804E+01 -1.58421E+01 -1.58523E+01 -1.56910E+01 -1.50125E+01 -1.38040E+01 -1.23601E+01 -1.10311E+01
  -1.00927E+01 -9.73990E+00 -9.96263E+00 -1.06758E+01 -1.17633E+01 -1.29561E+01 -1.38022E+01 -1.42600E+01 -1.47241E+01 -1.48855E+01
  -1.46135E+01 -1.42099E+01 -1.36602E+01 -1.28791E+01 -1.19131E+01 -1.11234E+01 -1.07086E+01 -1.06912E+01 -1.11006E+01 -1.17452E+01
  -1.24192E+01 -1.30558E+01 -1.35033E+01 -1.36308E+01 -1.35939E+01 -1.35671E+01 -1.34294E+01 -1.31028E+01 -1.27681E+01 -1.25956E+01
  -1.26082E+01 -1.27681E+01 -1.29945E+01 -1.32193E+01 -1.33650E+01 -1.33566E+01 -1.32220E+01 -1.30289E+01 -1.27939E+01 -1.25614E+01
  -1.23763E+01 -1.22459E+01 -1.21883E+01 -1.21774E+01 -1.21896E+01 -1.22188E+01 -1.22423E+01 -1.22468E+01 -1.22115E+01 -1.21741E+01
  -1.21531E+01 -1.21005E+01 -1.20260E+01 -1.19856E+01 -1.20397E+01 -1.21810E+01 -1.23537E+01 -1.24891E+01 -1.25294E+01 -1.24425E+01
  -1.22499E+01 -1.19743E+01 -1.16597E+01 -1.13896E+01 -1.12302E+01 -1.10843E+01 -1.07128E+01 -1.00152E+01 -8.58558E+00 -5.60032E+00
  -1.33593E+00  2.90557E+00  5.84238E+00  6.82927E+00  5.80526E+00  3.42600E+00  4.99544E-01 -2.48251E+00 -4.99629E+00 -6.50806E+00
  -7.21172E+00 -8.26219E+00 -9.48496E+00 -9.81929E+00 -9.81433E+00 -9.73231E+00 -9.63044E+00 -9.51147E+00 -9.35774E+00 -9.11489E+00
  -8.60008E+00 -7.58748E+00 -5.81567E+00 -2.25600E+00  3.24035E+00  9.23576E+00  1.38755E+01  1.60498E+01  1.55057E+01  1.28538E+01
   9.17502E+00  5.14584E+00  1.31487E+00 -1.59935E+00 -3.39899E+00 -5.16416E+00 -7.40845E+00 -8.47741E+00 -8.55239E+00 -8.30074E+00
  -7.96522E+00 -7.73095E+00 -7.66800E+00 -7.68107E+00 -7.74625E+00 -7.86463E+00 -7.98694E+00 -8.11981E+00 -8.27830E+00 -8.43730E+00
  -8.63751E+00 -8.80405E+00 -8.91801E+00 -8.97050E+00 -8.96681E+00 -8.92434E+00 -8.90131E+00 -9.00722E+00 -9.24545E+00 -9.53298E+00
  -9.75577E+00 -9.78798E+00 -9.62539E+00 -9.39746E+00 -9.24480E+00 -9.22751E+00 -9.34901E+00 -9.55691E+00 -9.76919E+00 -9.91135E+00
  -9.97366E+00 -1.00659E+01 -1.02539E+01 -1.05699E+01 -1.08635E+01 -1.09372E+01 -1.08381E+01 -1.06836E+01 -1.05700E+01 -1.05148E+01
  -1.04403E+01 -1.03255E+01 -1.02017E+01 -1.01148E+01 -9.98064E+00 -9.64107E+00 -9.12643E+00 -8.44265E+00 -7.63121E+00 -6.81562E+00
  -6.14517E+00 -5.83357E+00 -5.87945E+00 -6.15431E+00 -6.53145E+00 -6.82229E+00 -6.90803E+00 -6.83823E+00 -6.57255E+00 -6.13944E+00
  -5.57325E+00 -4.91539E+00 -4.29979E+00 -3.96599E+00 -4.02065E+00 -4.53425E+00 -5.40166E+00 -6.41156E+00 -7.33293E+00 -7.96535E+00
  -8.15408E+00 -7.77306E+00 -6.81493E+00 -5.48197E+00 -4.11904E+00 -3.16817E+00 -2.87208E+00 -3.27209E+00 -4.18945E+00 -5.56733E+00
  -7.03678E+00 -7.93518E+00 -7.98543E+00 -7.36804E+00 -6.42228E+00 -5.42717E+00 -4.36418E+00 -3.56685E+00 -3.20845E+00 -3.21020E+00
  -3.23596E+00 -3.05249E+00 -2.78422E+00 -2.48252E+00 -2.02642E+00 -1.48463E+00 -1.05883E+00 -8.68411E-01 -9.85652E-01 -1.30843E+00
  -1.65183E+00 -1.88817E+00 -1.87870E+00 -1.51709E+00 -8.38185E-01 -1.06805E-01  5.08802E-01  1.01991E+00  1.44355E+00  1.85539E+00
   2.43967E+00  3.71330E+00  5.69485E+00  8.05215E+00  1.05734E+01  1.31020E+01  1.74000E+01  2.45970E+01  3.31089E+01  3.99667E+01
   4.31947E+01  4.21605E+01  3.74907E+01  3.06159E+01  2.27423E+01  1.54992E+01  1.01331E+01  7.29059E+00  5.05531E+00  1.29865E+00
  -1.01088E+00 -1.72667E+00 -2.07795E+00 -2.33010E+00 -2.51113E+00 -2.69916E+00 -2.91150E+00 -3.13006E+00 -3.34569E+00 -3.54978E+00
  -3.71526E+00 -3.83905E+00 -3.94991E+00 -4.05614E+00 -4.14356E+00 -4.21401E+00 -4.28012E+00 -4.34169E+00 -4.38595E+00 -4.39799E+00
  -4.38829E+00 -4.36978E+00 -4.33970E+00 -4.30225E+00 -4.26602E+00 -4.23082E+00 -4.19405E+00 -4.14891E+00 -4.08916E+00 -4.01731E+00
  -3.93949E+00 -3.85488E+00 -3.76637E+00 -3.67855E+00 -3.59683E+00 -3.52405E+00 -3.45937E+00 -3.40209E+00 -3.35783E+00 -3.32555E+00
  -3.30493E+00 -3.29545E+00 -3.29672E+00 -3.30658E+00 -3.32347E+00 -3.34471E+00 -3.36812E+00 -3.39049E+00 -3.40891E+00 -3.41904E+00
  -3.41646E+00 -3.39978E+00 -3.36089E+00 -3.30203E+00 -3.25070E+00 -3.23207E+00 -3.25175E+00 -3.29909E+00 -3.35367E+00 -3.39635E+00
  -3.41255E+00 -3.37501E+00 -3.26759E+00 -3.10518E+00 -2.93247E+00 -2.78855E+00 -2.66732E+00 -2.57167E+00 -2.51390E+00 -2.48513E+00
  -2.46671E+00 -2.43809E+00 -2.37355E+00 -2.28799E+00 -2.24909E+00 -2.30875E+00 -2.49586E+00 -2.78667E+00 -3.12286E+00 -3.44751E+00
  -3.69614E+00 -3.79269E+00 -3.70262E+00 -3.46914E+00 -3.20603E+00 -3.03238E+00 -2.94472E+00 -2.90945E+00 -2.96836E+00 -3.10828E+00
  -3.29098E+00 -3.45730E+00 -3.58605E+00 -3.74351E+00 -3.91343E+00 -4.04438E+00 -4.15011E+00 -4.23948E+00 -4.31756E+00 -4.38723E+00
  -4.45100E+00 -4.50992E+00 -4.56501E+00 -4.61609E+00 -4.66324E+00 -4.70559E+00 -4.74274E+00 -4.77361E+00 -4.79770E+00 -4.81393E+00
  -4.82189E+00 -4.82058E+00 -4.80970E+00 -4.78843E+00 -4.75659E+00 -4.71348E+00 -4.65904E+00 -4.59267E+00 -4.51446E+00 -4.42395E+00
  -4.32140E+00 -4.20655E+00 -4.07989E+00 -3.94145E+00 -3.79206E+00 -3.63219E+00 -3.46311E+00 -3.28580E+00 -3.10204E+00 -2.91338E+00
  -2.72216E+00 -2.53046E+00 -2.34109E+00 -2.15648E+00 -1.97971E+00 -1.81333E+00 -1.66038E+00 -1.52321E+00 -1.40447E+00 -1.30594E+00
  -1.22954E+00 -1.17618E+00 -1.14683E+00 -1.14132E+00 -1.15954E+00 -1.20026E+00 -1.26234E+00 -1.34370E+00 -1.44243E+00 -1.55584E+00
  -1.68159E+00 -1.81670E+00 -1.95879E+00 -2.10499E+00 -2.25313E+00 -2.40071E+00 -2.54600E+00 -2.68703E+00 -2.82264E+00 -2.95142E+00
  -3.07276E+00 -3.18578E+00 -3.29035E+00 -3.38603E+00 -3.47306E+00 -3.55133E+00 -3.62134E+00 -3.68313E+00 -3.73737E+00 -3.78421E+00
  -3.82437E+00 -3.85805E+00 -3.88597E+00 -3.90829E+00 -3.92571E+00 -3.93839E+00 -3.94695E+00 -3.95150E+00 -3.95262E+00 -3.95035E+00
  -3.94523E+00 -3.93727E+00 -3.92696E+00 -3.91425E+00 -3.89956E+00 -3.88282E+00 -3.86443E+00 -3.84428E+00 -3.82274E+00 -3.79968E+00
  -3.77544E+00 -3.74988E+00 -3.72331E+00 -3.69559E+00 -3.66703E+00 -3.63744E+00 -3.60712E+00 -3.57589E+00 -3.54405E+00 -3.51141E+00
  -3.47824E+00 -3.44434E+00 -3.40998E+00 -3.37497E+00 -3.33958E+00 -3.30360E+00 -3.26729E+00 -3.23043E+00 -3.19330E+00 -3.15567E+00
  -3.11782E+00 -3.07952E+00 -3.04102E+00 -3.00211E+00 -2.96303E+00 -2.92357E+00 -2.88399E+00 -2.84406E+00 -2.80402E+00 -2.76365E+00
  -2.72321E+00 -2.68247E+00 -2.64168E+00 -2.60061E+00 -2.55949E+00 -2.51812E+00 -2.47674E+00 -2.43512E+00
 NY background values follow
    -2.005E+01   -1.995E+01   -1.986E+01   -1.976E+01   -1.967E+01   -1.957E+01   -1.948E+01   -1.938E+01   -1.929E+01   -1.919E+01
    -1.910E+01   -1.901E+01   -1.891E+01   -1.882E+01   -1.872E+01   -1.863E+01   -1.854E+01   -1.844E+01   -1.835E+01   -1.826E+01
    -1.816E+01   -1.807E+01   -1.798E+01   -1.788E+01   -1.779E+01   -1.770E+01   -1.761E+01   -1.752E+01   -1.742E+01   -1.733E+01
    -1.724E+01   -1.715E+01   -1.706E+01   -1.697E+01   -1.688E+01   -1.679E+01   -1.670E+01   -1.661E+01   -1.652E+01   -1.643E+01
    -1.634E+01   -1.626E+01   -1.617E+01   -1.608E+01   -1.599E+01   -1.591E+01   -1.582E+01   -1.573E+01   -1.565E+01   -1.556E+01
    -1.548E+01   -1.539E+01   -1.531E+01   -1.523E+01   -1.514E+01   -1.506E+01   -1.498E+01   -1.490E+01   -1.481E+01   -1.473E+01
    -1.465E+01   -1.457E+01   -1.449E+01   -1.441E+01   -1.433E+01   -1.425E+01   -1.417E+01   -1.410E+01   -1.402E+01   -1.394E+01
    -1.386E+01   -1.379E+01   -1.371E+01   -1.364E+01   -1.356E+01   -1.349E+01   -1.341E+01   -1.334E+01   -1.327E+01   -1.319E+01
    -1.312E+01   -1.305E+01   -1.298E+01   -1.291E+01   -1.284E+01   -1.277E+01   -1.270E+01   -1.263E+01   -1.256E+01   -1.250E+01
    -1.243E+01   -1.236E+01   -1.230E+01   -1.223E+01   -1.217E+01   -1.210E+01   -1.204E+01   -1.197E+01   -1.191E+01   -1.185E+01
    -1.179E+01   -1.172E+01   -1.166E+01   -1.160E+01   -1.154E+01   -1.148E+01   -1.142E+01   -1.137E+01   -1.131E+01   -1.125E+01
    -1.119E+01   -1.114E+01   -1.108E+01   -1.102E+01   -1.097E+01   -1.091E+01   -1.086E+01   -1.081E+01   -1.075E+01   -1.070E+01
    -1.065E+01   -1.060E+01   -1.054E+01   -1.049E+01   -1.044E+01   -1.039E+01   -1.034E+01   -1.029E+01   -1.024E+01   -1.020E+01
    -1.015E+01   -1.010E+01   -1.005E+01   -1.001E+01   -9.961E+00   -9.915E+00   -9.870E+00   -9.825E+00   -9.780E+00   -9.736E+00
    -9.693E+00   -9.649E+00   -9.606E+00   -9.563E+00   -9.521E+00   -9.479E+00   -9.437E+00   -9.396E+00   -9.354E+00   -9.314E+00
    -9.273E+00   -9.232E+00   -9.192E+00   -9.152E+00   -9.112E+00   -9.073E+00   -9.033E+00   -8.994E+00   -8.955E+00   -8.916E+00
    -8.877E+00   -8.839E+00   -8.800E+00   -8.761E+00   -8.723E+00   -8.685E+00   -8.646E+00   -8.608E+00   -8.570E+00   -8.531E+00
    -8.493E+00   -8.455E+00   -8.417E+00   -8.378E+00   -8.340E+00   -8.301E+00   -8.263E+00   -8.224E+00   -8.186E+00   -8.147E+00
    -8.108E+00   -8.069E+00   -8.029E+00   -7.990E+00   -7.951E+00   -7.911E+00   -7.871E+00   -7.832E+00   -7.792E+00   -7.752E+00
    -7.712E+00   -7.673E+00   -7.633E+00   -7.593E+00   -7.554E+00   -7.514E+00   -7.475E+00   -7.435E+00   -7.396E+00   -7.357E+00
    -7.318E+00   -7.280E+00   -7.241E+00   -7.203E+00   -7.165E+00   -7.127E+00   -7.090E+00   -7.052E+00   -7.015E+00   -6.979E+00
    -6.943E+00   -6.907E+00   -6.871E+00   -6.836E+00   -6.801E+00   -6.767E+00   -6.733E+00   -6.700E+00   -6.667E+00   -6.635E+00
    -6.603E+00   -6.572E+00   -6.541E+00   -6.511E+00   -6.481E+00   -6.452E+00   -6.424E+00   -6.396E+00   -6.369E+00   -6.342E+00
    -6.317E+00   -6.291E+00   -6.267E+00   -6.243E+00   -6.220E+00   -6.197E+00   -6.175E+00   -6.154E+00   -6.133E+00   -6.113E+00
    -6.093E+00   -6.074E+00   -6.056E+00   -6.039E+00   -6.022E+00   -6.005E+00   -5.990E+00   -5.975E+00   -5.960E+00   -5.947E+00
    -5.934E+00   -5.921E+00   -5.909E+00   -5.898E+00   -5.888E+00   -5.878E+00   -5.868E+00   -5.860E+00   -5.852E+00   -5.844E+00
    -5.838E+00   -5.831E+00   -5.826E+00   -5.821E+00   -5.817E+00   -5.813E+00   -5.810E+00   -5.808E+00   -5.807E+00   -5.806E+00
    -5.805E+00   -5.805E+00   -5.806E+00   -5.808E+00   -5.810E+00   -5.813E+00   -5.816E+00   -5.820E+00   -5.824E+00   -5.829E+00
    -5.835E+00   -5.841E+00   -5.847E+00   -5.854E+00   -5.862E+00   -5.870E+00   -5.878E+00   -5.887E+00   -5.896E+00   -5.906E+00
    -5.916E+00   -5.926E+00   -5.937E+00   -5.948E+00   -5.960E+00   -5.972E+00   -5.984E+00   -5.996E+00   -6.009E+00   -6.022E+00
    -6.035E+00   -6.048E+00   -6.062E+00   -6.076E+00   -6.090E+00   -6.104E+00   -6.119E+00   -6.134E+00   -6.148E+00   -6.163E+00
    -6.178E+00   -6.193E+00   -6.209E+00   -6.224E+00   -6.239E+00   -6.255E+00   -6.270E+00   -6.286E+00   -6.301E+00   -6.317E+00
    -6.332E+00   -6.348E+00   -6.363E+00   -6.379E+00   -6.394E+00   -6.409E+00   -6.425E+00   -6.440E+00   -6.455E+00   -6.470E+00
    -6.484E+00   -6.499E+00   -6.514E+00   -6.528E+00   -6.542E+00   -6.556E+00   -6.570E+00   -6.584E+00   -6.598E+00   -6.611E+00
    -6.624E+00   -6.637E+00   -6.649E+00   -6.662E+00   -6.674E+00   -6.686E+00   -6.697E+00   -6.708E+00   -6.719E+00   -6.730E+00
    -6.740E+00   -6.750E+00   -6.760E+00   -6.769E+00   -6.778E+00   -6.786E+00   -6.794E+00   -6.802E+00   -6.809E+00   -6.816E+00
    -6.822E+00   -6.828E+00   -6.834E+00   -6.839E+00   -6.843E+00   -6.847E+00   -6.851E+00   -6.854E+00   -6.857E+00   -6.859E+00
    -6.860E+00   -6.861E+00   -6.861E+00   -6.861E+00   -6.861E+00   -6.860E+00   -6.858E+00   -6.855E+00   -6.852E+00   -6.849E+00
    -6.845E+00   -6.840E+00   -6.835E+00   -6.829E+00   -6.822E+00   -6.815E+00   -6.807E+00   -6.798E+00   -6.789E+00   -6.779E+00
    -6.769E+00   -6.757E+00   -6.745E+00   -6.733E+00   -6.719E+00   -6.705E+00   -6.690E+00   -6.675E+00   -6.658E+00   -6.641E+00
    -6.624E+00   -6.605E+00   -6.586E+00   -6.566E+00   -6.545E+00   -6.523E+00   -6.500E+00   -6.477E+00   -6.453E+00   -6.428E+00
    -6.402E+00   -6.376E+00   -6.349E+00   -6.321E+00   -6.292E+00   -6.262E+00   -6.232E+00   -6.202E+00   -6.170E+00   -6.138E+00
    -6.106E+00   -6.072E+00   -6.038E+00   -6.004E+00   -5.969E+00   -5.934E+00   -5.897E+00   -5.861E+00   -5.824E+00   -5.786E+00
    -5.748E+00   -5.710E+00   -5.671E+00   -5.632E+00   -5.592E+00   -5.552E+00   -5.511E+00   -5.471E+00   -5.430E+00   -5.388E+00
    -5.346E+00   -5.304E+00   -5.262E+00   -5.219E+00   -5.177E+00   -5.133E+00   -5.090E+00   -5.047E+00   -5.003E+00   -4.959E+00
    -4.915E+00   -4.871E+00   -4.827E+00   -4.783E+00   -4.738E+00   -4.694E+00   -4.649E+00   -4.605E+00   -4.560E+00   -4.515E+00
    -4.470E+00   -4.425E+00   -4.380E+00   -4.335E+00   -4.290E+00   -4.244E+00   -4.199E+00   -4.153E+00   -4.108E+00   -4.062E+00
    -4.017E+00   -3.971E+00   -3.925E+00   -3.879E+00   -3.833E+00   -3.787E+00   -3.741E+00   -3.695E+00   -3.649E+00   -3.603E+00
    -3.557E+00   -3.511E+00   -3.465E+00   -3.418E+00   -3.372E+00   -3.326E+00   -3.280E+00   -3.233E+00   -3.187E+00   -3.140E+00
    -3.094E+00   -3.048E+00   -3.001E+00   -2.955E+00   -2.908E+00   -2.862E+00   -2.816E+00   -2.769E+00
 Ala      Conc. = 2.23E+01
