 LCModel (Version 6.3-1L) Copyright: S.W. Provencher.          Ref.: Magn. Reson. Med. 30:672-679 (1993).                
 Slice#3 Row#5 Col#6  PD_05_press_1_raw_act
 36 lines in following concentration table = NCONC+1
    Conc.  %SD /Cr+PCr  Metabolite                                         
   19.946 539% 1.3E-02 Ala                                                 
  191.621 105%   0.124 Asp                                                 
  500.403  46%   0.324 Cr                                                  
 1.05E+03  22%   0.676 PCr                                                 
    0.000 999%   0.000 GABA                                                
   27.543 519% 1.8E-02 Glc                                                 
 1.30E+03  18%   0.837 Gln                                                 
 1.68E+03  16%   1.087 Glu                                                 
  588.990   4%   0.381 GPC                                                 
    0.000 999%   0.000 PCh                                                 
  321.552  21%   0.208 GSH                                                 
  578.939  45%   0.374 Ins                                                 
   60.815 195% 3.9E-02 Lac                                                 
 2.15E+03   3%   1.390 NAA                                                 
    0.000 999%   0.000 NAAG                                                
  110.924  23% 7.2E-02 Scyllo                                              
    0.000 999%   0.000 Tau                                                 
  120.401  87% 7.8E-02 -CrCH2                                              
  588.990   4%   0.381 GPC+PCh                                             
 2.15E+03   3%   1.390 NAA+NAAG                                            
 1.55E+03   3%   1.000 Cr+PCr                                              
 2.98E+03  14%   1.924 Glu+Gln                                             
 1.18E+03  42%   0.763 Lip13a                                              
    0.000 999%   0.000 Lip13b                                              
  112.968 219% 7.3E-02 Lip09                                               
 1.10E+03  25%   0.714 MM09                                                
   67.227 246% 4.3E-02 Lip20                                               
 2.40E+03  16%   1.551 MM20                                                
  551.815  37%   0.357 MM12                                                
  596.249  50%   0.386 MM14                                                
  541.347  35%   0.350 MM17                                                
 1.18E+03  42%   0.763 Lip13a+Lip13b                                       
 2.33E+03  21%   1.505 MM14+Lip13a+Lip13b+MM12                             
 1.22E+03  18%   0.787 MM09+Lip09                                          
 2.47E+03  15%   1.595 MM20+Lip20                                          
   6 lines in following misc. output table
  FWHM = 0.069 ppm    S/N =  13                                            
  Data shift =-0.038 ppm                                                   
  Ph: -31 deg     -10.0 deg/ppm                                            
  alphaB,S = 4.8E-01,   2.0E+02                                            
   14 spline knots.   Ns = 8(1)                                            
  (15) 2 infls.   ( 5) 1 extrs.                                            
  498 points on ppm-axis = NY
      4.000000     3.992357     3.984714     3.977070     3.969427     3.961784     3.954141     3.946497     3.938854     3.931211
      3.923568     3.915925     3.908281     3.900638     3.892995     3.885352     3.877708     3.870065     3.862422     3.854779
      3.847136     3.839492     3.831849     3.824206     3.816563     3.808919     3.801276     3.793633     3.785990     3.778347
      3.770703     3.763060     3.755417     3.747774     3.740130     3.732487     3.724844     3.717201     3.709558     3.701914
      3.694271     3.686628     3.678985     3.671341     3.663698     3.656055     3.648412     3.640769     3.633125     3.625482
      3.617839     3.610196     3.602552     3.594909     3.587266     3.579623     3.571980     3.564336     3.556693     3.549050
      3.541407     3.533763     3.526120     3.518477     3.510834     3.503191     3.495547     3.487904     3.480261     3.472618
      3.464974     3.457331     3.449688     3.442045     3.434402     3.426758     3.419115     3.411472     3.403829     3.396185
      3.388542     3.380899     3.373256     3.365613     3.357969     3.350326     3.342683     3.335040     3.327396     3.319753
      3.312110     3.304467     3.296824     3.289180     3.281537     3.273894     3.266251     3.258607     3.250964     3.243321
      3.235678     3.228034     3.220391     3.212748     3.205105     3.197462     3.189818     3.182175     3.174532     3.166889
      3.159245     3.151602     3.143959     3.136316     3.128673     3.121029     3.113386     3.105743     3.098100     3.090456
      3.082813     3.075170     3.067527     3.059884     3.052240     3.044597     3.036954     3.029311     3.021667     3.014024
      3.006381     2.998738     2.991095     2.983451     2.975808     2.968165     2.960522     2.952878     2.945235     2.937592
      2.929949     2.922306     2.914662     2.907019     2.899376     2.891733     2.884089     2.876446     2.868803     2.861160
      2.853517     2.845873     2.838230     2.830587     2.822944     2.815300     2.807657     2.800014     2.792371     2.784728
      2.777084     2.769441     2.761798     2.754155     2.746511     2.738868     2.731225     2.723582     2.715939     2.708295
      2.700652     2.693009     2.685366     2.677722     2.670079     2.662436     2.654793     2.647150     2.639506     2.631863
      2.624220     2.616577     2.608933     2.601290     2.593647     2.586004     2.578361     2.570717     2.563074     2.555431
      2.547788     2.540144     2.532501     2.524858     2.517215     2.509572     2.501928     2.494285     2.486642     2.478999
      2.471355     2.463712     2.456069     2.448426     2.440783     2.433139     2.425496     2.417853     2.410210     2.402566
      2.394923     2.387280     2.379637     2.371994     2.364350     2.356707     2.349064     2.341421     2.333777     2.326134
      2.318491     2.310848     2.303205     2.295561     2.287918     2.280275     2.272632     2.264988     2.257345     2.249702
      2.242059     2.234416     2.226772     2.219129     2.211486     2.203843     2.196199     2.188556     2.180913     2.173270
      2.165627     2.157983     2.150340     2.142697     2.135054     2.127410     2.119767     2.112124     2.104481     2.096838
      2.089194     2.081551     2.073908     2.066265     2.058621     2.050978     2.043335     2.035692     2.028049     2.020405
      2.012762     2.005119     1.997476     1.989833     1.982190     1.974546     1.966903     1.959260     1.951617     1.943974
      1.936331     1.928688     1.921045     1.913402     1.905759     1.898115     1.890472     1.882829     1.875186     1.867543
      1.859900     1.852257     1.844614     1.836971     1.829327     1.821684     1.814041     1.806398     1.798755     1.791112
      1.783469     1.775826     1.768183     1.760540     1.752896     1.745253     1.737610     1.729967     1.722324     1.714681
      1.707038     1.699395     1.691752     1.684108     1.676465     1.668822     1.661179     1.653536     1.645893     1.638250
      1.630607     1.622964     1.615321     1.607677     1.600034     1.592391     1.584748     1.577105     1.569462     1.561819
      1.554176     1.546533     1.538890     1.531246     1.523603     1.515960     1.508317     1.500674     1.493031     1.485388
      1.477745     1.470102     1.462458     1.454815     1.447172     1.439529     1.431886     1.424243     1.416600     1.408957
      1.401314     1.393671     1.386027     1.378384     1.370741     1.363098     1.355455     1.347812     1.340169     1.332526
      1.324883     1.317240     1.309596     1.301953     1.294310     1.286667     1.279024     1.271381     1.263738     1.256095
      1.248452     1.240808     1.233165     1.225522     1.217879     1.210236     1.202593     1.194950     1.187307     1.179664
      1.172021     1.164377     1.156734     1.149091     1.141448     1.133805     1.126162     1.118519     1.110876     1.103233
      1.095590     1.087946     1.080303     1.072660     1.065017     1.057374     1.049731     1.042088     1.034445     1.026802
      1.019158     1.011515     1.003872     0.996229     0.988586     0.980943     0.973300     0.965657     0.958014     0.950371
      0.942727     0.935084     0.927441     0.919798     0.912155     0.904512     0.896869     0.889226     0.881583     0.873940
      0.866296     0.858653     0.851010     0.843367     0.835724     0.828081     0.820438     0.812795     0.805152     0.797508
      0.789865     0.782222     0.774579     0.766936     0.759293     0.751650     0.744007     0.736364     0.728721     0.721077
      0.713434     0.705791     0.698148     0.690505     0.682862     0.675219     0.667576     0.659933     0.652290     0.644646
      0.637003     0.629360     0.621717     0.614074     0.606431     0.598788     0.591145     0.583502     0.575858     0.568215
      0.560572     0.552929     0.545286     0.537643     0.530000     0.522357     0.514714     0.507071     0.499427     0.491784
      0.484141     0.476498     0.468855     0.461212     0.453569     0.445925     0.438282     0.430639     0.422996     0.415353
      0.407710     0.400067     0.392424     0.384780     0.377137     0.369494     0.361851     0.354208     0.346565     0.338922
      0.331278     0.323635     0.315992     0.308349     0.300706     0.293063     0.285420     0.277777     0.270133     0.262490
      0.254847     0.247204     0.239561     0.231918     0.224275     0.216631     0.208988     0.201345
 NY phased data points follow
  -4.91130E+01 -4.84206E+01 -4.52412E+01 -4.43382E+01 -3.95705E+01 -3.12888E+01 -2.66126E+01 -2.22694E+01 -1.83675E+01 -1.72017E+01
  -1.29149E+01 -1.20573E+01 -1.17057E+01 -1.47926E+01 -1.80543E+01 -2.42711E+01 -2.73598E+01 -2.80149E+01 -3.14106E+01 -3.29093E+01
  -3.36439E+01 -3.38240E+01 -3.44704E+01 -3.25857E+01 -3.18077E+01 -2.78408E+01 -2.86582E+01 -3.07662E+01 -3.04860E+01 -2.64703E+01
  -2.77095E+01 -2.96418E+01 -2.60843E+01 -2.67803E+01 -2.64012E+01 -2.67820E+01 -2.77778E+01 -2.41343E+01 -2.87035E+01 -2.78212E+01
  -2.90935E+01 -2.61357E+01 -2.34939E+01 -2.54220E+01 -2.64000E+01 -2.22961E+01 -2.16580E+01 -2.06956E+01 -2.39852E+01 -2.38344E+01
  -2.48857E+01 -2.63600E+01 -2.79487E+01 -2.46118E+01 -2.71264E+01 -2.64663E+01 -2.51877E+01 -2.78385E+01 -2.43453E+01 -2.52787E+01
  -2.93587E+01 -2.81785E+01 -2.58783E+01 -3.02033E+01 -2.77901E+01 -3.29934E+01 -2.92617E+01 -3.16149E+01 -2.90357E+01 -3.08949E+01
  -3.00982E+01 -2.82094E+01 -2.79510E+01 -2.63819E+01 -2.80434E+01 -2.35784E+01 -2.62369E+01 -2.61593E+01 -2.75662E+01 -2.52502E+01
  -2.25308E+01 -2.08277E+01 -2.39621E+01 -2.22377E+01 -2.40153E+01 -2.11185E+01 -2.00644E+01 -2.00056E+01 -1.94728E+01 -2.38634E+01
  -2.04859E+01 -2.24509E+01 -2.07727E+01 -1.99842E+01 -2.11104E+01 -2.07053E+01 -1.53944E+01 -1.68065E+01 -6.19134E+00 -2.44986E+00
   3.81710E+00  1.19345E+01  1.41809E+01  1.82674E+01  1.97232E+01  2.01653E+01  1.61767E+01  8.78300E+00  4.31595E+00 -3.23800E+00
  -7.13523E+00 -1.04499E+01 -1.11371E+01 -1.47167E+01 -1.76479E+01 -1.85611E+01 -1.70320E+01 -2.01743E+01 -1.77792E+01 -1.69512E+01
  -1.70894E+01 -1.16197E+01 -8.01038E+00 -8.07683E-01  4.49451E+00  1.09416E+01  1.61268E+01  2.12685E+01  2.29910E+01  2.15137E+01
   1.61669E+01  1.26510E+01  1.62836E+00 -5.00028E+00 -5.76425E+00 -1.10092E+01 -1.52738E+01 -1.78368E+01 -1.51879E+01 -1.77434E+01
  -1.97602E+01 -1.94440E+01 -2.33302E+01 -2.08967E+01 -1.89920E+01 -2.19938E+01 -2.21813E+01 -2.48922E+01 -2.15664E+01 -2.23308E+01
  -2.10395E+01 -2.15889E+01 -1.99539E+01 -1.91601E+01 -1.80763E+01 -2.20528E+01 -1.91388E+01 -1.75387E+01 -2.04520E+01 -2.46721E+01
  -2.38644E+01 -2.32275E+01 -2.01090E+01 -2.15436E+01 -2.07169E+01 -2.09264E+01 -2.07609E+01 -2.04915E+01 -1.98939E+01 -1.89147E+01
  -1.95911E+01 -2.01535E+01 -2.11528E+01 -2.31753E+01 -2.51633E+01 -2.20544E+01 -2.17313E+01 -2.19715E+01 -2.60326E+01 -2.21913E+01
  -2.35505E+01 -2.13160E+01 -2.18206E+01 -2.39747E+01 -2.37512E+01 -2.33257E+01 -2.08027E+01 -1.97999E+01 -1.67625E+01 -1.25836E+01
  -1.44332E+01 -8.66946E+00 -1.09804E+01 -5.68168E+00 -1.03434E+01 -1.42640E+01 -7.64844E+00 -9.40338E+00 -7.92856E+00 -8.63627E+00
  -1.14560E+01 -1.20354E+01 -8.75994E+00 -8.12014E+00 -9.35755E+00 -1.09446E+01 -8.53412E+00 -1.07743E+01 -1.53357E+01 -1.53954E+01
  -1.43858E+01 -1.32920E+01 -1.06221E+01 -6.97455E+00 -6.37945E+00 -4.75651E+00 -1.05900E+00 -3.11012E+00 -1.89166E+00 -8.41922E-01
  -5.86087E+00 -8.55184E+00 -1.10120E+01 -9.14428E+00 -8.86885E+00 -8.34528E+00 -6.49929E+00 -5.24519E+00 -3.45027E+00  2.24424E-01
  -1.17820E+00 -7.70351E-01 -2.48015E+00 -3.14176E+00 -2.10202E+00 -2.44097E+00 -1.67423E+00 -5.85515E-01 -5.36590E-01 -5.28391E-01
   7.98844E-01  2.99443E+00 -1.40779E+00 -1.16328E+00 -4.08246E+00 -1.31578E+00 -3.85522E+00 -8.00055E-01 -1.74659E+00 -3.22891E+00
  -5.58413E+00 -1.72423E+00  5.09430E-02  8.55972E-01  1.21478E+01  1.54916E+01  2.42851E+01  3.08428E+01  4.29035E+01  5.15113E+01
   5.50283E+01  5.55621E+01  5.69346E+01  5.44268E+01  4.24543E+01  3.28400E+01  1.96296E+01  1.61325E+01  7.10649E+00  4.35386E+00
   6.10737E+00  1.36738E+00  1.15080E-01  2.82841E+00  1.79410E-01  1.12943E+00 -2.26617E+00 -5.63619E+00 -5.95921E+00 -7.26342E+00
  -9.15603E+00 -8.76955E+00 -7.16683E+00 -8.57961E+00 -8.53938E+00 -9.82814E+00 -8.44499E+00 -7.15320E+00 -9.97621E+00 -7.96814E+00
  -8.73173E+00 -4.69974E+00 -5.50480E+00 -7.05839E+00 -6.84847E+00 -7.19134E+00 -9.02066E+00 -4.76586E+00 -7.11607E+00 -8.68978E+00
  -5.90265E+00 -4.41227E+00 -4.20783E+00 -9.29778E+00 -6.33768E+00 -5.99648E+00 -5.44403E+00 -4.43181E+00 -2.87561E+00 -2.64663E+00
  -2.13799E+00 -1.35990E+00 -4.82154E-01 -9.71570E-01  8.57129E-01  2.00085E+00 -1.48459E-01 -2.55028E+00 -2.58376E+00 -2.86223E+00
  -2.75494E+00 -3.91627E+00 -5.25760E+00 -5.03108E+00 -1.49456E+00 -3.55424E+00 -3.20250E+00 -3.50501E+00 -5.41257E+00 -4.94062E+00
  -6.15199E+00 -1.05150E+00  2.14649E-01 -5.04079E+00  2.84217E-02 -4.15145E-01 -2.48474E-02  2.43990E+00  2.19565E-01 -1.88919E+00
   4.82804E-01  1.06708E+00 -7.99937E-01  1.37241E+00  3.00376E+00  7.47641E-01 -1.36595E+00 -7.09118E-01  2.47959E-01  4.72736E+00
   7.99634E-01  3.15747E+00  1.50712E+00  1.27438E+00  1.79661E+00  4.37468E+00  3.90995E+00  3.04333E+00  3.85751E+00  2.60783E+00
   3.72039E+00  3.92201E+00  4.96714E+00  2.74822E+00  2.94704E+00  3.09751E+00  7.01971E-01  3.24561E+00  5.98587E+00  4.43333E+00
   5.21809E+00  5.81060E+00  9.85482E+00  5.35030E+00  4.10452E+00  3.64821E+00 -5.97171E-01  3.45994E+00  2.78181E+00  3.09589E+00
   2.02895E-01  1.94677E+00 -1.21855E+00 -3.14668E-01 -1.91911E-01 -2.73534E-02 -7.35036E-01  3.00185E+00 -4.92138E-01  1.73737E+00
   3.19379E-01  2.39249E+00  3.05691E+00  4.88825E+00  4.20880E+00  4.87951E+00  4.22515E+00  3.83334E+00  5.56747E+00  6.18385E+00
   6.83304E+00  5.90831E+00  6.31628E+00  4.58074E+00  8.89707E+00  6.87147E+00  7.07681E+00  4.93152E+00  5.02415E+00  5.53093E+00
   8.90680E+00  8.40781E+00  1.09946E+01  8.90022E+00  5.79590E+00  8.85460E+00  7.12773E+00  8.77681E+00  8.61924E+00  4.27752E+00
   5.47271E+00  5.96152E+00  7.83203E+00  3.57719E+00  3.94000E+00  3.38305E+00  5.81186E+00  5.29793E+00  3.89853E+00 -4.80396E-01
   5.45050E+00  4.04611E+00  5.73161E+00  5.42087E+00  5.11333E+00  3.62186E+00  3.75026E+00  2.85118E+00  8.42768E-01  1.94333E+00
   4.70507E+00  5.00507E+00  2.05292E+00  2.43431E+00  5.19523E+00  2.26779E+00 -9.78666E-01  4.15167E+00  1.72704E+00  9.61252E-01
   3.86686E+00  3.21711E+00  1.86926E+00 -1.85834E-01  2.31956E+00  4.94949E+00  3.44628E+00  3.30543E+00  4.73108E+00  3.95880E+00
   2.95730E+00  1.43756E+00  1.04233E+00  1.06920E+00  3.66970E+00  3.57531E-01  5.38399E+00 -4.82517E-01  2.74353E+00  2.15242E+00
   3.73310E+00  2.97489E+00  3.94789E+00  9.68714E-01  3.41478E+00  2.61285E+00  1.59474E+00  4.05279E+00 -6.18238E-03  7.14874E-01
  -2.57749E+00  2.91801E+00  2.73803E+00  2.63821E+00  2.67155E+00  4.44303E+00  1.24491E+00  4.23784E+00  3.17809E-01  2.04962E+00
   4.09168E+00  4.25499E+00  6.46830E+00  5.14843E+00  3.18797E+00  2.55453E+00  4.61223E+00  5.34903E+00
 NY points of the fit to the data follow
  -4.38470E+01 -4.32856E+01 -4.19533E+01 -3.95989E+01 -3.63281E+01 -3.23840E+01 -2.80230E+01 -2.35434E+01 -1.93472E+01 -1.58693E+01
  -1.34666E+01 -1.24364E+01 -1.30471E+01 -1.53083E+01 -1.87209E+01 -2.24049E+01 -2.56023E+01 -2.81453E+01 -3.03406E+01 -3.22236E+01
  -3.33635E+01 -3.39307E+01 -3.41053E+01 -3.40472E+01 -3.37727E+01 -3.32400E+01 -3.23974E+01 -3.12236E+01 -2.98229E+01 -2.83562E+01
  -2.69924E+01 -2.59020E+01 -2.52676E+01 -2.52420E+01 -2.58450E+01 -2.68660E+01 -2.80226E+01 -2.90854E+01 -2.99113E+01 -3.02769E+01
  -2.99507E+01 -2.91703E+01 -2.81513E+01 -2.70538E+01 -2.60521E+01 -2.52067E+01 -2.46252E+01 -2.43416E+01 -2.43849E+01 -2.47357E+01
  -2.52770E+01 -2.58842E+01 -2.64380E+01 -2.67977E+01 -2.69766E+01 -2.71244E+01 -2.72385E+01 -2.72051E+01 -2.70862E+01 -2.70197E+01
  -2.70325E+01 -2.70832E+01 -2.71739E+01 -2.72927E+01 -2.74007E+01 -2.74392E+01 -2.73732E+01 -2.72262E+01 -2.70262E+01 -2.67853E+01
  -2.65340E+01 -2.62949E+01 -2.60877E+01 -2.59266E+01 -2.58159E+01 -2.57512E+01 -2.57087E+01 -2.56401E+01 -2.54548E+01 -2.50643E+01
  -2.45051E+01 -2.38324E+01 -2.30907E+01 -2.23292E+01 -2.16143E+01 -2.10340E+01 -2.06501E+01 -2.04995E+01 -2.06185E+01 -2.10224E+01
  -2.16255E+01 -2.22386E+01 -2.26787E+01 -2.28777E+01 -2.27992E+01 -2.19486E+01 -1.94195E+01 -1.50824E+01 -9.49466E+00 -3.13860E+00
   3.61007E+00  1.02120E+01  1.58669E+01  1.98391E+01  2.16036E+01  2.07008E+01  1.68872E+01  1.06732E+01  3.47694E+00 -3.12904E+00
  -8.43429E+00 -1.28421E+01 -1.67909E+01 -1.96159E+01 -2.07022E+01 -2.10231E+01 -2.10977E+01 -2.10155E+01 -2.06641E+01 -1.94478E+01
  -1.66577E+01 -1.23434E+01 -6.93654E+00 -8.53642E-01  5.55041E+00  1.17415E+01  1.69607E+01  2.05351E+01  2.19738E+01  2.08175E+01
   1.68474E+01  1.06779E+01  3.76655E+00 -2.41740E+00 -7.36433E+00 -1.15973E+01 -1.54521E+01 -1.80516E+01 -1.89260E+01 -1.90962E+01
  -1.90204E+01 -1.88638E+01 -1.87239E+01 -1.86256E+01 -1.85785E+01 -1.86149E+01 -1.87204E+01 -1.88685E+01 -1.90513E+01 -1.92427E+01
  -1.94114E+01 -1.95309E+01 -1.95948E+01 -1.96551E+01 -1.97530E+01 -1.98892E+01 -2.00394E+01 -2.01730E+01 -2.02753E+01 -2.03489E+01
  -2.03920E+01 -2.03928E+01 -2.03361E+01 -2.02150E+01 -2.00403E+01 -1.98501E+01 -1.97086E+01 -1.96895E+01 -1.98269E+01 -2.00812E+01
  -2.03485E+01 -2.05874E+01 -2.08046E+01 -2.10045E+01 -2.11915E+01 -2.12837E+01 -2.12534E+01 -2.11437E+01 -2.09638E+01 -2.07358E+01
  -2.04945E+01 -2.02529E+01 -1.99981E+01 -1.96619E+01 -1.91482E+01 -1.84378E+01 -1.76400E+01 -1.68731E+01 -1.61096E+01 -1.53398E+01
  -1.46247E+01 -1.41078E+01 -1.38916E+01 -1.39059E+01 -1.39917E+01 -1.39651E+01 -1.36836E+01 -1.30930E+01 -1.21803E+01 -1.09530E+01
  -9.57446E+00 -8.25362E+00 -7.30433E+00 -6.98659E+00 -7.37269E+00 -8.40748E+00 -9.96640E+00 -1.17729E+01 -1.34150E+01 -1.44480E+01
  -1.46429E+01 -1.39120E+01 -1.22885E+01 -1.00318E+01 -7.63840E+00 -5.70789E+00 -4.64299E+00 -4.47604E+00 -5.09395E+00 -6.38288E+00
  -8.22162E+00 -9.99249E+00 -1.10422E+01 -1.12774E+01 -1.08370E+01 -9.77208E+00 -8.12858E+00 -6.19342E+00 -4.60004E+00 -3.58477E+00
  -3.00300E+00 -2.63215E+00 -2.42280E+00 -2.39199E+00 -2.34184E+00 -2.11775E+00 -1.81103E+00 -1.52504E+00 -1.27243E+00 -1.09069E+00
  -1.06035E+00 -1.27353E+00 -1.73434E+00 -2.26835E+00 -2.67778E+00 -2.86315E+00 -2.81967E+00 -2.47590E+00 -1.88356E+00 -1.22580E+00
  -5.40735E-01  2.86563E-01  1.84554E+00  5.22123E+00  1.06329E+01  1.76039E+01  2.55345E+01  3.39577E+01  4.22892E+01  4.95387E+01
   5.47444E+01  5.72517E+01  5.64028E+01  5.16307E+01  4.33500E+01  3.33850E+01  2.40347E+01  1.65267E+01  1.03050E+01  4.47415E+00
  -1.28293E-01 -2.06333E+00 -2.85201E+00 -3.34742E+00 -3.68825E+00 -3.92428E+00 -4.14388E+00 -4.37318E+00 -4.62224E+00 -4.89136E+00
  -5.16207E+00 -5.41940E+00 -5.66783E+00 -5.90427E+00 -6.10889E+00 -6.27327E+00 -6.40716E+00 -6.52001E+00 -6.61399E+00 -6.68659E+00
  -6.73678E+00 -6.76851E+00 -6.77840E+00 -6.76081E+00 -6.71301E+00 -6.63288E+00 -6.51792E+00 -6.36592E+00 -6.17629E+00 -5.95039E+00
  -5.68925E+00 -5.39553E+00 -5.07418E+00 -4.73126E+00 -4.37432E+00 -4.01255E+00 -3.65615E+00 -3.31560E+00 -3.00089E+00 -2.72104E+00
  -2.48379E+00 -2.29526E+00 -2.15932E+00 -2.07687E+00 -2.04579E+00 -2.06172E+00 -2.11791E+00 -2.20542E+00 -2.31308E+00 -2.42759E+00
  -2.53971E+00 -2.64512E+00 -2.73969E+00 -2.81896E+00 -2.87982E+00 -2.92205E+00 -2.94662E+00 -2.94997E+00 -2.92493E+00 -2.86732E+00
  -2.77334E+00 -2.63687E+00 -2.45281E+00 -2.22386E+00 -1.96217E+00 -1.68058E+00 -1.38447E+00 -1.07542E+00 -7.63906E-01 -4.52539E-01
  -1.39342E-01  1.68282E-01  4.62636E-01  7.34075E-01  9.71207E-01  1.16775E+00  1.32087E+00  1.44029E+00  1.54600E+00  1.65139E+00
   1.77172E+00  1.93350E+00  2.16255E+00  2.45961E+00  2.79444E+00  3.13056E+00  3.44994E+00  3.74472E+00  3.97678E+00  4.11297E+00
   4.16817E+00  4.17096E+00  4.13736E+00  4.06276E+00  3.94281E+00  3.80462E+00  3.66101E+00  3.50510E+00  3.33577E+00  3.15497E+00
   2.96584E+00  2.77200E+00  2.57729E+00  2.38557E+00  2.20070E+00  2.02633E+00  1.86583E+00  1.72219E+00  1.59805E+00  1.49577E+00
   1.41741E+00  1.36476E+00  1.33933E+00  1.34234E+00  1.37485E+00  1.43783E+00  1.53212E+00  1.65843E+00  1.81723E+00  2.00878E+00
   2.23307E+00  2.48978E+00  2.77814E+00  3.09679E+00  3.44360E+00  3.81567E+00  4.20928E+00  4.61984E+00  5.04180E+00  5.46874E+00
   5.89342E+00  6.30805E+00  6.70450E+00  7.07457E+00  7.41026E+00  7.70405E+00  7.94929E+00  8.14054E+00  8.27382E+00  8.34676E+00
   8.35868E+00  8.31061E+00  8.20527E+00  8.04697E+00  7.84133E+00  7.59499E+00  7.31525E+00  7.00977E+00  6.68630E+00  6.35237E+00
   6.01504E+00  5.68061E+00  5.35450E+00  5.04119E+00  4.74427E+00  4.46639E+00  4.20930E+00  3.97394E+00  3.76051E+00  3.56871E+00
   3.39783E+00  3.24682E+00  3.11439E+00  2.99909E+00  2.89938E+00  2.81379E+00  2.74088E+00  2.67932E+00  2.62779E+00  2.58510E+00
   2.55016E+00  2.52203E+00  2.49990E+00  2.48301E+00  2.47067E+00  2.46228E+00  2.45730E+00  2.45532E+00  2.45597E+00  2.45889E+00
   2.46375E+00  2.47026E+00  2.47819E+00  2.48738E+00  2.49770E+00  2.50899E+00  2.52110E+00  2.53396E+00  2.54749E+00  2.56167E+00
   2.57641E+00  2.59166E+00  2.60733E+00  2.62342E+00  2.63993E+00  2.65684E+00  2.67412E+00  2.69173E+00  2.70965E+00  2.72791E+00
   2.74651E+00  2.76548E+00  2.78477E+00  2.80438E+00  2.82432E+00  2.84464E+00  2.86535E+00  2.88647E+00  2.90797E+00  2.92986E+00
   2.95217E+00  2.97495E+00  2.99823E+00  3.02200E+00  3.04625E+00  3.07102E+00  3.09635E+00  3.12230E+00  3.14885E+00  3.17603E+00
   3.20384E+00  3.23232E+00  3.26152E+00  3.29149E+00  3.32222E+00  3.35373E+00  3.38603E+00  3.41920E+00
 NY background values follow
    -4.642E+01   -4.610E+01   -4.578E+01   -4.545E+01   -4.513E+01   -4.481E+01   -4.449E+01   -4.417E+01   -4.386E+01   -4.354E+01
    -4.322E+01   -4.291E+01   -4.260E+01   -4.229E+01   -4.198E+01   -4.167E+01   -4.136E+01   -4.106E+01   -4.075E+01   -4.045E+01
    -4.015E+01   -3.985E+01   -3.956E+01   -3.926E+01   -3.897E+01   -3.868E+01   -3.839E+01   -3.811E+01   -3.782E+01   -3.754E+01
    -3.726E+01   -3.698E+01   -3.671E+01   -3.644E+01   -3.617E+01   -3.590E+01   -3.563E+01   -3.537E+01   -3.511E+01   -3.485E+01
    -3.460E+01   -3.435E+01   -3.410E+01   -3.386E+01   -3.361E+01   -3.337E+01   -3.314E+01   -3.290E+01   -3.267E+01   -3.245E+01
    -3.222E+01   -3.200E+01   -3.178E+01   -3.157E+01   -3.136E+01   -3.115E+01   -3.094E+01   -3.074E+01   -3.054E+01   -3.034E+01
    -3.015E+01   -2.996E+01   -2.977E+01   -2.959E+01   -2.940E+01   -2.922E+01   -2.905E+01   -2.888E+01   -2.871E+01   -2.854E+01
    -2.837E+01   -2.821E+01   -2.805E+01   -2.790E+01   -2.774E+01   -2.759E+01   -2.745E+01   -2.730E+01   -2.716E+01   -2.702E+01
    -2.689E+01   -2.675E+01   -2.662E+01   -2.649E+01   -2.637E+01   -2.625E+01   -2.613E+01   -2.601E+01   -2.590E+01   -2.578E+01
    -2.568E+01   -2.557E+01   -2.547E+01   -2.537E+01   -2.527E+01   -2.517E+01   -2.508E+01   -2.499E+01   -2.490E+01   -2.481E+01
    -2.472E+01   -2.464E+01   -2.456E+01   -2.448E+01   -2.440E+01   -2.432E+01   -2.424E+01   -2.417E+01   -2.410E+01   -2.402E+01
    -2.395E+01   -2.388E+01   -2.381E+01   -2.374E+01   -2.367E+01   -2.360E+01   -2.354E+01   -2.347E+01   -2.340E+01   -2.333E+01
    -2.327E+01   -2.320E+01   -2.313E+01   -2.306E+01   -2.300E+01   -2.293E+01   -2.286E+01   -2.279E+01   -2.272E+01   -2.265E+01
    -2.258E+01   -2.250E+01   -2.243E+01   -2.235E+01   -2.228E+01   -2.220E+01   -2.212E+01   -2.204E+01   -2.196E+01   -2.187E+01
    -2.179E+01   -2.170E+01   -2.161E+01   -2.152E+01   -2.143E+01   -2.134E+01   -2.124E+01   -2.115E+01   -2.105E+01   -2.095E+01
    -2.085E+01   -2.074E+01   -2.064E+01   -2.053E+01   -2.042E+01   -2.031E+01   -2.020E+01   -2.008E+01   -1.997E+01   -1.985E+01
    -1.973E+01   -1.961E+01   -1.948E+01   -1.936E+01   -1.923E+01   -1.910E+01   -1.897E+01   -1.884E+01   -1.870E+01   -1.856E+01
    -1.842E+01   -1.828E+01   -1.814E+01   -1.799E+01   -1.784E+01   -1.769E+01   -1.754E+01   -1.739E+01   -1.723E+01   -1.707E+01
    -1.691E+01   -1.675E+01   -1.658E+01   -1.641E+01   -1.624E+01   -1.607E+01   -1.590E+01   -1.572E+01   -1.555E+01   -1.537E+01
    -1.520E+01   -1.502E+01   -1.484E+01   -1.466E+01   -1.448E+01   -1.430E+01   -1.413E+01   -1.395E+01   -1.377E+01   -1.359E+01
    -1.342E+01   -1.324E+01   -1.307E+01   -1.290E+01   -1.273E+01   -1.256E+01   -1.239E+01   -1.223E+01   -1.207E+01   -1.191E+01
    -1.175E+01   -1.160E+01   -1.145E+01   -1.130E+01   -1.115E+01   -1.101E+01   -1.088E+01   -1.074E+01   -1.061E+01   -1.049E+01
    -1.037E+01   -1.025E+01   -1.014E+01   -1.004E+01   -9.937E+00   -9.841E+00   -9.751E+00   -9.666E+00   -9.588E+00   -9.514E+00
    -9.445E+00   -9.382E+00   -9.323E+00   -9.270E+00   -9.220E+00   -9.175E+00   -9.135E+00   -9.099E+00   -9.066E+00   -9.038E+00
    -9.013E+00   -8.991E+00   -8.973E+00   -8.959E+00   -8.947E+00   -8.938E+00   -8.933E+00   -8.929E+00   -8.929E+00   -8.930E+00
    -8.934E+00   -8.940E+00   -8.948E+00   -8.957E+00   -8.969E+00   -8.981E+00   -8.995E+00   -9.010E+00   -9.026E+00   -9.043E+00
    -9.061E+00   -9.079E+00   -9.098E+00   -9.117E+00   -9.136E+00   -9.155E+00   -9.174E+00   -9.193E+00   -9.211E+00   -9.228E+00
    -9.245E+00   -9.261E+00   -9.275E+00   -9.289E+00   -9.301E+00   -9.313E+00   -9.323E+00   -9.332E+00   -9.340E+00   -9.346E+00
    -9.352E+00   -9.356E+00   -9.359E+00   -9.360E+00   -9.360E+00   -9.359E+00   -9.356E+00   -9.352E+00   -9.347E+00   -9.340E+00
    -9.332E+00   -9.322E+00   -9.311E+00   -9.298E+00   -9.284E+00   -9.268E+00   -9.250E+00   -9.231E+00   -9.210E+00   -9.188E+00
    -9.164E+00   -9.138E+00   -9.111E+00   -9.082E+00   -9.051E+00   -9.018E+00   -8.983E+00   -8.947E+00   -8.909E+00   -8.869E+00
    -8.827E+00   -8.783E+00   -8.738E+00   -8.690E+00   -8.640E+00   -8.589E+00   -8.535E+00   -8.480E+00   -8.422E+00   -8.362E+00
    -8.301E+00   -8.238E+00   -8.173E+00   -8.106E+00   -8.038E+00   -7.967E+00   -7.896E+00   -7.823E+00   -7.748E+00   -7.672E+00
    -7.595E+00   -7.516E+00   -7.436E+00   -7.355E+00   -7.273E+00   -7.190E+00   -7.105E+00   -7.020E+00   -6.934E+00   -6.847E+00
    -6.759E+00   -6.670E+00   -6.581E+00   -6.491E+00   -6.400E+00   -6.309E+00   -6.217E+00   -6.125E+00   -6.033E+00   -5.940E+00
    -5.847E+00   -5.753E+00   -5.660E+00   -5.566E+00   -5.472E+00   -5.379E+00   -5.285E+00   -5.192E+00   -5.098E+00   -5.005E+00
    -4.912E+00   -4.819E+00   -4.727E+00   -4.635E+00   -4.544E+00   -4.452E+00   -4.362E+00   -4.271E+00   -4.182E+00   -4.092E+00
    -4.003E+00   -3.914E+00   -3.826E+00   -3.738E+00   -3.651E+00   -3.564E+00   -3.478E+00   -3.392E+00   -3.306E+00   -3.221E+00
    -3.136E+00   -3.052E+00   -2.969E+00   -2.885E+00   -2.803E+00   -2.720E+00   -2.639E+00   -2.557E+00   -2.476E+00   -2.396E+00
    -2.316E+00   -2.237E+00   -2.158E+00   -2.080E+00   -2.002E+00   -1.925E+00   -1.848E+00   -1.772E+00   -1.697E+00   -1.622E+00
    -1.547E+00   -1.473E+00   -1.400E+00   -1.327E+00   -1.255E+00   -1.183E+00   -1.112E+00   -1.041E+00   -9.713E-01   -9.019E-01
    -8.331E-01   -7.649E-01   -6.973E-01   -6.302E-01   -5.638E-01   -4.980E-01   -4.329E-01   -3.683E-01   -3.044E-01   -2.410E-01
    -1.784E-01   -1.163E-01   -5.493E-02    5.820E-03    6.592E-02    1.254E-01    1.842E-01    2.423E-01    2.997E-01    3.565E-01
     4.126E-01    4.681E-01    5.228E-01    5.769E-01    6.302E-01    6.829E-01    7.348E-01    7.861E-01    8.366E-01    8.865E-01
     9.356E-01    9.840E-01    1.032E+00    1.079E+00    1.125E+00    1.170E+00    1.215E+00    1.259E+00    1.302E+00    1.344E+00
     1.386E+00    1.427E+00    1.467E+00    1.507E+00    1.545E+00    1.583E+00    1.620E+00    1.657E+00    1.693E+00    1.728E+00
     1.763E+00    1.798E+00    1.832E+00    1.865E+00    1.898E+00    1.931E+00    1.964E+00    1.996E+00    2.028E+00    2.059E+00
     2.091E+00    2.122E+00    2.153E+00    2.184E+00    2.215E+00    2.246E+00    2.277E+00    2.308E+00    2.339E+00    2.370E+00
     2.402E+00    2.433E+00    2.465E+00    2.497E+00    2.529E+00    2.562E+00    2.595E+00    2.628E+00    2.662E+00    2.696E+00
     2.730E+00    2.765E+00    2.801E+00    2.837E+00    2.874E+00    2.911E+00    2.950E+00    2.988E+00
 Ala      Conc. = 1.99E+01
