 LCModel (Version 6.3-1L) Copyright: S.W. Provencher.          Ref.: Magn. Reson. Med. 30:672-679 (1993).                
 Slice#2 Row#6 Col#13  PD_05_press_1_raw_act
 36 lines in following concentration table = NCONC+1
    Conc.  %SD /Cr+PCr  Metabolite                                         
 1.57E+03  43%  93.107 Ala                                                 
    1.701 249%   0.101 Asp                                                 
    0.000 999%   0.000 Cr                                                  
   16.887 239%   1.000 PCr                                                 
    1.025 249% 6.1E-02 GABA                                                
    1.025 249% 6.1E-02 Glc                                                 
 2.50E+03  15% 147.936 Gln                                                 
    0.000 999%   0.000 Glu                                                 
    0.000 999%   0.000 GPC                                                 
    5.723 271%   0.339 PCh                                                 
    0.000 999%   0.000 GSH                                                 
  261.368  70%  15.477 Ins                                                 
  303.153 234%  17.952 Lac                                                 
    0.000 999%   0.000 NAA                                                 
    0.000 999%   0.000 NAAG                                                
    0.363 234% 2.1E-02 Scyllo                                              
    1.760 241%   0.104 Tau                                                 
    0.000 999%   0.000 -CrCH2                                              
    5.723 271%   0.339 GPC+PCh                                             
    0.000 999%   0.000 NAA+NAAG                                            
   16.887 239%   1.000 Cr+PCr                                              
 2.50E+03  15% 147.936 Glu+Gln                                             
 1.84E+04  15% 1.1E+03 Lip13a                                              
    0.000 999%   0.000 Lip13b                                              
 4.83E+03  17% 285.788 Lip09                                               
 1.82E+03  26% 107.512 MM09                                                
    0.000 999%   0.000 Lip20                                               
 1.11E+03  21%  65.581 MM20                                                
 1.42E+03  45%  83.793 MM12                                                
 7.52E+03  22% 445.516 MM14                                                
 1.68E+04   8% 997.613+MM17                                                
 1.84E+04  15% 1.1E+03 Lip13a+Lip13b                                       
 2.74E+04   9% 1.6E+03 MM14+Lip13a+Lip13b+MM12                             
 6.64E+03  13% 393.300 MM09+Lip09                                          
 1.11E+03  21%  65.581 MM20+Lip20                                          
   6 lines in following misc. output table
  FWHM = 0.183 ppm    S/N =  23                                            
  Data shift = 0.237 ppm                                                   
  Ph: -54 deg     -30.0 deg/ppm                                            
  alphaB,S = 1.9E+01,   3.1E+02                                            
    6 spline knots.   Ns = 9(2)                                            
  (15) 4 infls.   (13) 1 extrs.                                            
  498 points on ppm-axis = NY
      4.000000     3.992357     3.984714     3.977070     3.969427     3.961784     3.954141     3.946497     3.938854     3.931211
      3.923568     3.915925     3.908281     3.900638     3.892995     3.885352     3.877708     3.870065     3.862422     3.854779
      3.847136     3.839492     3.831849     3.824206     3.816563     3.808919     3.801276     3.793633     3.785990     3.778347
      3.770703     3.763060     3.755417     3.747774     3.740130     3.732487     3.724844     3.717201     3.709558     3.701914
      3.694271     3.686628     3.678985     3.671341     3.663698     3.656055     3.648412     3.640769     3.633125     3.625482
      3.617839     3.610196     3.602552     3.594909     3.587266     3.579623     3.571980     3.564336     3.556693     3.549050
      3.541407     3.533763     3.526120     3.518477     3.510834     3.503191     3.495547     3.487904     3.480261     3.472618
      3.464974     3.457331     3.449688     3.442045     3.434402     3.426758     3.419115     3.411472     3.403829     3.396185
      3.388542     3.380899     3.373256     3.365613     3.357969     3.350326     3.342683     3.335040     3.327396     3.319753
      3.312110     3.304467     3.296824     3.289180     3.281537     3.273894     3.266251     3.258607     3.250964     3.243321
      3.235678     3.228034     3.220391     3.212748     3.205105     3.197462     3.189818     3.182175     3.174532     3.166889
      3.159245     3.151602     3.143959     3.136316     3.128673     3.121029     3.113386     3.105743     3.098100     3.090456
      3.082813     3.075170     3.067527     3.059884     3.052240     3.044597     3.036954     3.029311     3.021667     3.014024
      3.006381     2.998738     2.991095     2.983451     2.975808     2.968165     2.960522     2.952878     2.945235     2.937592
      2.929949     2.922306     2.914662     2.907019     2.899376     2.891733     2.884089     2.876446     2.868803     2.861160
      2.853517     2.845873     2.838230     2.830587     2.822944     2.815300     2.807657     2.800014     2.792371     2.784728
      2.777084     2.769441     2.761798     2.754155     2.746511     2.738868     2.731225     2.723582     2.715939     2.708295
      2.700652     2.693009     2.685366     2.677722     2.670079     2.662436     2.654793     2.647150     2.639506     2.631863
      2.624220     2.616577     2.608933     2.601290     2.593647     2.586004     2.578361     2.570717     2.563074     2.555431
      2.547788     2.540144     2.532501     2.524858     2.517215     2.509572     2.501928     2.494285     2.486642     2.478999
      2.471355     2.463712     2.456069     2.448426     2.440783     2.433139     2.425496     2.417853     2.410210     2.402566
      2.394923     2.387280     2.379637     2.371994     2.364350     2.356707     2.349064     2.341421     2.333777     2.326134
      2.318491     2.310848     2.303205     2.295561     2.287918     2.280275     2.272632     2.264988     2.257345     2.249702
      2.242059     2.234416     2.226772     2.219129     2.211486     2.203843     2.196199     2.188556     2.180913     2.173270
      2.165627     2.157983     2.150340     2.142697     2.135054     2.127410     2.119767     2.112124     2.104481     2.096838
      2.089194     2.081551     2.073908     2.066265     2.058621     2.050978     2.043335     2.035692     2.028049     2.020405
      2.012762     2.005119     1.997476     1.989833     1.982190     1.974546     1.966903     1.959260     1.951617     1.943974
      1.936331     1.928688     1.921045     1.913402     1.905759     1.898115     1.890472     1.882829     1.875186     1.867543
      1.859900     1.852257     1.844614     1.836971     1.829327     1.821684     1.814041     1.806398     1.798755     1.791112
      1.783469     1.775826     1.768183     1.760540     1.752896     1.745253     1.737610     1.729967     1.722324     1.714681
      1.707038     1.699395     1.691752     1.684108     1.676465     1.668822     1.661179     1.653536     1.645893     1.638250
      1.630607     1.622964     1.615321     1.607677     1.600034     1.592391     1.584748     1.577105     1.569462     1.561819
      1.554176     1.546533     1.538890     1.531246     1.523603     1.515960     1.508317     1.500674     1.493031     1.485388
      1.477745     1.470102     1.462458     1.454815     1.447172     1.439529     1.431886     1.424243     1.416600     1.408957
      1.401314     1.393671     1.386027     1.378384     1.370741     1.363098     1.355455     1.347812     1.340169     1.332526
      1.324883     1.317240     1.309596     1.301953     1.294310     1.286667     1.279024     1.271381     1.263738     1.256095
      1.248452     1.240808     1.233165     1.225522     1.217879     1.210236     1.202593     1.194950     1.187307     1.179664
      1.172021     1.164377     1.156734     1.149091     1.141448     1.133805     1.126162     1.118519     1.110876     1.103233
      1.095590     1.087946     1.080303     1.072660     1.065017     1.057374     1.049731     1.042088     1.034445     1.026802
      1.019158     1.011515     1.003872     0.996229     0.988586     0.980943     0.973300     0.965657     0.958014     0.950371
      0.942727     0.935084     0.927441     0.919798     0.912155     0.904512     0.896869     0.889226     0.881583     0.873940
      0.866296     0.858653     0.851010     0.843367     0.835724     0.828081     0.820438     0.812795     0.805152     0.797508
      0.789865     0.782222     0.774579     0.766936     0.759293     0.751650     0.744007     0.736364     0.728721     0.721077
      0.713434     0.705791     0.698148     0.690505     0.682862     0.675219     0.667576     0.659933     0.652290     0.644646
      0.637003     0.629360     0.621717     0.614074     0.606431     0.598788     0.591145     0.583502     0.575858     0.568215
      0.560572     0.552929     0.545286     0.537643     0.530000     0.522357     0.514714     0.507071     0.499427     0.491784
      0.484141     0.476498     0.468855     0.461212     0.453569     0.445925     0.438282     0.430639     0.422996     0.415353
      0.407710     0.400067     0.392424     0.384780     0.377137     0.369494     0.361851     0.354208     0.346565     0.338922
      0.331278     0.323635     0.315992     0.308349     0.300706     0.293063     0.285420     0.277777     0.270133     0.262490
      0.254847     0.247204     0.239561     0.231918     0.224275     0.216631     0.208988     0.201345
 NY phased data points follow
   1.08856E+01  9.32670E+00  1.20554E+01  9.96609E+00  9.69076E+00  9.90497E+00  1.20066E+01  1.19602E+01  1.17279E+01  8.96834E+00
   1.17758E+01  1.29715E+01  1.04528E+01  1.10512E+01  1.14771E+01  1.06179E+01  1.05888E+01  1.21973E+01  9.93286E+00  1.02081E+01
   1.07575E+01  9.80739E+00  8.74674E+00  1.06719E+01  9.73042E+00  1.12202E+01  1.27276E+01  8.98981E+00  9.78960E+00  1.05995E+01
   1.14475E+01  1.19702E+01  7.81650E+00  1.12713E+01  1.03254E+01  1.02909E+01  1.11480E+01  1.07926E+01  1.07421E+01  1.08330E+01
   1.06548E+01  9.99620E+00  1.00304E+01  1.23858E+01  1.12616E+01  1.12078E+01  9.66598E+00  1.03590E+01  1.24996E+01  1.01161E+01
   9.55829E+00  1.09599E+01  9.66175E+00  9.73147E+00  1.10978E+01  1.27622E+01  1.14506E+01  1.01225E+01  1.22750E+01  9.29661E+00
   1.19477E+01  1.08600E+01  1.17373E+01  1.08114E+01  1.18430E+01  9.12409E+00  1.20341E+01  9.56552E+00  1.07074E+01  1.08173E+01
   9.60356E+00  1.10225E+01  1.14730E+01  1.25096E+01  1.25176E+01  1.06792E+01  9.07436E+00  1.12416E+01  1.08950E+01  1.02534E+01
   1.19188E+01  1.06897E+01  1.14193E+01  1.05265E+01  1.21718E+01  1.14266E+01  1.17874E+01  1.13891E+01  1.17794E+01  1.09583E+01
   1.08015E+01  9.93729E+00  1.04342E+01  1.21731E+01  1.01422E+01  1.16630E+01  1.21288E+01  1.10848E+01  1.13905E+01  1.17563E+01
   9.10359E+00  1.00946E+01  1.05410E+01  1.16464E+01  1.08851E+01  1.03092E+01  1.13060E+01  1.21015E+01  9.56610E+00  1.03945E+01
   1.02341E+01  8.96567E+00  1.28123E+01  1.02475E+01  1.29138E+01  1.20626E+01  1.15322E+01  1.08584E+01  1.09843E+01  1.03170E+01
   9.89350E+00  1.19055E+01  1.08307E+01  1.17047E+01  1.13372E+01  1.21273E+01  1.25650E+01  1.35973E+01  1.15597E+01  1.26735E+01
   1.14575E+01  1.17529E+01  1.12309E+01  1.15368E+01  1.14731E+01  1.20216E+01  1.24306E+01  1.34508E+01  1.22315E+01  1.20690E+01
   1.27225E+01  1.19055E+01  1.25693E+01  1.46069E+01  1.24447E+01  1.26620E+01  1.22374E+01  1.01376E+01  1.37693E+01  1.30272E+01
   1.20461E+01  1.29845E+01  1.06937E+01  1.38322E+01  1.32206E+01  1.22957E+01  1.06315E+01  1.17906E+01  1.27097E+01  1.49007E+01
   1.45183E+01  1.06614E+01  1.20487E+01  1.23996E+01  1.51476E+01  1.22775E+01  1.07743E+01  1.19229E+01  1.25030E+01  1.22017E+01
   1.29700E+01  1.22564E+01  1.34607E+01  1.14746E+01  1.40691E+01  1.40330E+01  1.32896E+01  1.36567E+01  1.44318E+01  1.35056E+01
   1.23267E+01  1.37917E+01  1.22000E+01  1.41013E+01  1.37105E+01  1.27149E+01  1.28485E+01  1.46113E+01  1.62467E+01  1.35965E+01
   1.34481E+01  1.24657E+01  1.45618E+01  1.40340E+01  1.53104E+01  1.39175E+01  1.48513E+01  1.35628E+01  1.34465E+01  1.33178E+01
   1.43308E+01  1.42631E+01  1.51040E+01  1.41005E+01  1.32302E+01  1.41746E+01  1.50707E+01  1.29723E+01  1.58775E+01  1.61549E+01
   1.61219E+01  1.63930E+01  1.59315E+01  1.68734E+01  1.79112E+01  1.98171E+01  1.79634E+01  1.88032E+01  1.78468E+01  2.00156E+01
   1.83260E+01  1.84730E+01  1.99500E+01  1.96306E+01  2.13277E+01  1.92852E+01  2.04865E+01  2.24551E+01  2.15713E+01  2.44426E+01
   2.57252E+01  2.59020E+01  2.55796E+01  2.27296E+01  2.30001E+01  2.55515E+01  2.64323E+01  2.78957E+01  2.71287E+01  2.49239E+01
   2.65921E+01  2.47146E+01  2.66322E+01  2.38665E+01  2.59888E+01  2.69362E+01  2.78133E+01  2.58986E+01  2.80292E+01  2.77625E+01
   2.54414E+01  2.76678E+01  2.73100E+01  2.79024E+01  2.83779E+01  2.93596E+01  3.01595E+01  3.05543E+01  2.94008E+01  3.28115E+01
   3.22576E+01  3.27527E+01  3.40535E+01  3.55340E+01  3.55046E+01  3.61405E+01  3.57446E+01  3.68232E+01  3.73082E+01  3.82951E+01
   3.92877E+01  4.12630E+01  4.14501E+01  4.22327E+01  4.34443E+01  4.47262E+01  4.34557E+01  4.79688E+01  5.00300E+01  5.20785E+01
   5.27239E+01  5.49322E+01  5.64675E+01  5.81504E+01  5.94599E+01  5.97921E+01  6.08250E+01  6.30893E+01  6.46052E+01  6.69624E+01
   6.83794E+01  7.00783E+01  7.20999E+01  7.34005E+01  7.53509E+01  7.55055E+01  7.70520E+01  8.11486E+01  8.25277E+01  8.33472E+01
   8.45675E+01  8.42006E+01  8.67923E+01  8.87401E+01  8.85378E+01  8.90184E+01  8.93017E+01  9.06858E+01  9.23591E+01  9.12759E+01
   9.03618E+01  8.94180E+01  8.96629E+01  8.61396E+01  8.83028E+01  8.90491E+01  8.84284E+01  8.65075E+01  8.59901E+01  8.58553E+01
   8.75763E+01  8.56710E+01  8.60507E+01  8.55317E+01  8.40378E+01  8.56505E+01  8.38186E+01  8.36935E+01  8.30436E+01  8.43189E+01
   8.29856E+01  8.40636E+01  8.41196E+01  8.29118E+01  8.44728E+01  8.29496E+01  8.53433E+01  8.35581E+01  8.07297E+01  8.07038E+01
   8.21556E+01  8.30211E+01  8.14516E+01  8.05736E+01  8.35839E+01  8.27345E+01  8.35063E+01  8.09157E+01  8.31451E+01  8.10086E+01
   8.09402E+01  8.21789E+01  7.98560E+01  8.24227E+01  8.10767E+01  7.91682E+01  7.84936E+01  7.78810E+01  7.88126E+01  7.77358E+01
   7.47309E+01  7.76826E+01  7.47269E+01  7.47425E+01  7.44639E+01  7.39701E+01  7.17465E+01  7.13426E+01  6.82953E+01  6.79200E+01
   6.84024E+01  6.81831E+01  6.48274E+01  6.44370E+01  6.45124E+01  6.35210E+01  6.04815E+01  6.15318E+01  6.10470E+01  5.99850E+01
   5.88095E+01  5.77531E+01  5.61662E+01  5.54677E+01  5.54187E+01  5.48722E+01  5.29456E+01  5.31499E+01  5.29384E+01  5.22832E+01
   4.95322E+01  5.14550E+01  4.87705E+01  4.82756E+01  4.70062E+01  4.51130E+01  4.37171E+01  4.38591E+01  4.10327E+01  4.27752E+01
   4.04200E+01  4.19138E+01  4.04794E+01  3.96577E+01  3.83219E+01  3.88992E+01  3.87104E+01  3.63357E+01  3.62924E+01  3.53766E+01
   3.58399E+01  3.38736E+01  3.32289E+01  3.47277E+01  3.32055E+01  3.07489E+01  3.15088E+01  2.91572E+01  3.23925E+01  2.96830E+01
   3.12485E+01  3.00482E+01  3.00468E+01  2.84107E+01  2.77224E+01  2.63524E+01  2.67074E+01  2.46412E+01  2.61371E+01  2.47772E+01
   2.36431E+01  2.45688E+01  2.36099E+01  2.63076E+01  2.34825E+01  2.20044E+01  2.26746E+01  2.26445E+01  2.25126E+01  2.08208E+01
   2.24060E+01  2.14176E+01  2.05334E+01  2.07132E+01  1.80589E+01  2.01417E+01  1.98966E+01  1.78409E+01  1.96179E+01  1.82358E+01
   1.83800E+01  1.79754E+01  1.86555E+01  1.55073E+01  1.64619E+01  1.61790E+01  1.67316E+01  1.65362E+01  1.76766E+01  1.70836E+01
   1.72209E+01  1.66079E+01  1.44817E+01  1.34529E+01  1.49050E+01  1.39554E+01  1.37753E+01  1.54386E+01  1.57999E+01  1.44400E+01
   1.40110E+01  1.51480E+01  1.36073E+01  1.59657E+01  1.47422E+01  1.32437E+01  1.29431E+01  1.33813E+01  1.10303E+01  1.18634E+01
   1.22310E+01  1.21763E+01  1.23093E+01  1.24092E+01  1.33919E+01  1.19523E+01  1.20155E+01  1.31795E+01  1.20251E+01  9.25993E+00
   1.29343E+01  1.11160E+01  1.09117E+01  1.39995E+01  1.11504E+01  1.11821E+01  1.03864E+01  1.10572E+01
 NY points of the fit to the data follow
   1.00866E+01  1.01825E+01  1.01003E+01  1.01886E+01  1.01161E+01  1.02197E+01  1.01769E+01  1.03488E+01  1.02955E+01  1.04090E+01
   1.03313E+01  1.03621E+01  1.02695E+01  1.02468E+01  1.02354E+01  1.02645E+01  1.03403E+01  1.03736E+01  1.05017E+01  1.04911E+01
   1.06022E+01  1.05645E+01  1.06667E+01  1.05820E+01  1.06968E+01  1.06016E+01  1.07539E+01  1.07021E+01  1.08916E+01  1.08804E+01
   1.10758E+01  1.10320E+01  1.11864E+01  1.10709E+01  1.11985E+01  1.10334E+01  1.11806E+01  1.10298E+01  1.12044E+01  1.11041E+01
   1.12465E+01  1.11920E+01  1.13165E+01  1.13047E+01  1.14093E+01  1.14227E+01  1.15356E+01  1.15902E+01  1.16163E+01  1.14721E+01
   1.14549E+01  1.12101E+01  1.12086E+01  1.09635E+01  1.10978E+01  1.10049E+01  1.11656E+01  1.10767E+01  1.11786E+01  1.10598E+01
   1.10768E+01  1.09914E+01  1.09980E+01  1.09038E+01  1.09167E+01  1.08314E+01  1.08562E+01  1.07843E+01  1.08234E+01  1.07718E+01
   1.08304E+01  1.07808E+01  1.08254E+01  1.07644E+01  1.07966E+01  1.07295E+01  1.07540E+01  1.06855E+01  1.07059E+01  1.06420E+01
   1.06554E+01  1.05991E+01  1.06118E+01  1.05620E+01  1.05709E+01  1.05283E+01  1.05330E+01  1.04964E+01  1.04995E+01  1.04708E+01
   1.04777E+01  1.04573E+01  1.04706E+01  1.04557E+01  1.04809E+01  1.04731E+01  1.05079E+01  1.05073E+01  1.05529E+01  1.05607E+01
   1.06164E+01  1.06311E+01  1.06925E+01  1.07125E+01  1.07768E+01  1.08013E+01  1.08671E+01  1.08950E+01  1.09649E+01  1.09961E+01
   1.10656E+01  1.10993E+01  1.11708E+01  1.12116E+01  1.12857E+01  1.13374E+01  1.14125E+01  1.14771E+01  1.15487E+01  1.16252E+01
   1.16848E+01  1.17696E+01  1.18158E+01  1.19074E+01  1.19417E+01  1.20395E+01  1.20663E+01  1.21573E+01  1.21753E+01  1.22570E+01
   1.22667E+01  1.23385E+01  1.23399E+01  1.24003E+01  1.23938E+01  1.24410E+01  1.24274E+01  1.24600E+01  1.24414E+01  1.24596E+01
   1.24397E+01  1.24467E+01  1.24283E+01  1.24269E+01  1.24133E+01  1.24078E+01  1.24018E+01  1.23978E+01  1.24029E+01  1.24097E+01
   1.24197E+01  1.24308E+01  1.24450E+01  1.24602E+01  1.24787E+01  1.24988E+01  1.25218E+01  1.25472E+01  1.25748E+01  1.26053E+01
   1.26370E+01  1.26721E+01  1.27080E+01  1.27478E+01  1.27880E+01  1.28325E+01  1.28776E+01  1.29275E+01  1.29775E+01  1.30333E+01
   1.30895E+01  1.31497E+01  1.32116E+01  1.32759E+01  1.33441E+01  1.34097E+01  1.34615E+01  1.35139E+01  1.35324E+01  1.35351E+01
   1.35340E+01  1.34854E+01  1.34811E+01  1.34215E+01  1.34950E+01  1.34513E+01  1.36004E+01  1.35936E+01  1.38239E+01  1.38166E+01
   1.40953E+01  1.40091E+01  1.41776E+01  1.40017E+01  1.42211E+01  1.40066E+01  1.43100E+01  1.40601E+01  1.44146E+01  1.41132E+01
   1.45249E+01  1.41612E+01  1.46442E+01  1.42349E+01  1.48110E+01  1.44202E+01  1.51644E+01  1.48589E+01  1.57751E+01  1.55708E+01
   1.65798E+01  1.64250E+01  1.74152E+01  1.72589E+01  1.81450E+01  1.79750E+01  1.87766E+01  1.85902E+01  1.92614E+01  1.90849E+01
   1.97766E+01  1.97231E+01  2.05027E+01  2.06790E+01  2.15382E+01  2.17837E+01  2.25969E+01  2.28026E+01  2.34860E+01  2.35039E+01
   2.39745E+01  2.37249E+01  2.39590E+01  2.35955E+01  2.40493E+01  2.36776E+01  2.43060E+01  2.38977E+01  2.46486E+01  2.41818E+01
   2.50161E+01  2.45230E+01  2.54609E+01  2.50135E+01  2.60755E+01  2.57111E+01  2.68808E+01  2.65571E+01  2.77672E+01  2.74413E+01
   2.85970E+01  2.82629E+01  2.93393E+01  2.90502E+01  3.00367E+01  2.98712E+01  3.07733E+01  3.07410E+01  3.14853E+01  3.16469E+01
   3.24324E+01  3.28240E+01  3.36696E+01  3.42468E+01  3.51007E+01  3.56280E+01  3.64545E+01  3.69803E+01  3.77853E+01  3.83781E+01
   3.92407E+01  3.99734E+01  4.09431E+01  4.18985E+01  4.30152E+01  4.41652E+01  4.54132E+01  4.67295E+01  4.80964E+01  4.95443E+01
   5.10444E+01  5.26115E+01  5.42469E+01  5.59489E+01  5.77123E+01  5.95303E+01  6.13954E+01  6.32986E+01  6.52267E+01  6.71682E+01
   6.91075E+01  7.10305E+01  7.29196E+01  7.47595E+01  7.65325E+01  7.82232E+01  7.98155E+01  8.12965E+01  8.26537E+01  8.38785E+01
   8.49631E+01  8.59049E+01  8.67031E+01  8.73617E+01  8.78879E+01  8.82945E+01  8.86000E+01  8.88337E+01  8.90517E+01  8.92927E+01
   8.92588E+01  8.93665E+01  8.90803E+01  8.90611E+01  8.85526E+01  8.84170E+01  8.76513E+01  8.76295E+01  8.68555E+01  8.69211E+01
   8.61749E+01  8.62788E+01  8.55329E+01  8.56274E+01  8.49331E+01  8.49710E+01  8.44061E+01  8.44061E+01  8.40470E+01  8.40849E+01
   8.39197E+01  8.39187E+01  8.38433E+01  8.36559E+01  8.35727E+01  8.31370E+01  8.30262E+01  8.24493E+01  8.24040E+01  8.18348E+01
   8.19916E+01  8.15312E+01  8.18707E+01  8.15042E+01  8.19886E+01  8.17025E+01  8.22410E+01  8.20400E+01  8.25128E+01  8.24590E+01
   8.24478E+01  8.21476E+01  8.17357E+01  8.12737E+01  8.05227E+01  7.99707E+01  7.90003E+01  7.86863E+01  7.78444E+01  7.74944E+01
   7.66314E+01  7.61773E+01  7.52547E+01  7.46615E+01  7.36751E+01  7.29346E+01  7.18956E+01  7.10238E+01  6.99561E+01  6.90024E+01
   6.78668E+01  6.68028E+01  6.56715E+01  6.45758E+01  6.35036E+01  6.24482E+01  6.14845E+01  6.05876E+01  5.97462E+01  5.89532E+01
   5.82014E+01  5.74820E+01  5.67853E+01  5.61007E+01  5.54174E+01  5.47248E+01  5.40136E+01  5.32757E+01  5.25052E+01  5.16987E+01
   5.08550E+01  4.99756E+01  4.90645E+01  4.81276E+01  4.71726E+01  4.62081E+01  4.52435E+01  4.42881E+01  4.33510E+01  4.24399E+01
   4.15617E+01  4.07216E+01  3.99230E+01  3.91678E+01  3.84563E+01  3.77872E+01  3.71582E+01  3.65659E+01  3.60059E+01  3.54737E+01
   3.49644E+01  3.44731E+01  3.39951E+01  3.35260E+01  3.30618E+01  3.25993E+01  3.21356E+01  3.16684E+01  3.11962E+01  3.07178E+01
   3.02329E+01  2.97412E+01  2.92432E+01  2.87395E+01  2.82313E+01  2.77197E+01  2.72062E+01  2.66923E+01  2.61795E+01  2.56695E+01
   2.51638E+01  2.46640E+01  2.41714E+01  2.36874E+01  2.32131E+01  2.27496E+01  2.22978E+01  2.18585E+01  2.14321E+01  2.10193E+01
   2.06203E+01  2.02354E+01  1.98646E+01  1.95079E+01  1.91653E+01  1.88366E+01  1.85215E+01  1.82197E+01  1.79309E+01  1.76547E+01
   1.73907E+01  1.71385E+01  1.68975E+01  1.66674E+01  1.64478E+01  1.62381E+01  1.60378E+01  1.58467E+01  1.56641E+01  1.54897E+01
   1.53232E+01  1.51640E+01  1.50119E+01  1.48664E+01  1.47273E+01  1.45942E+01  1.44667E+01  1.43446E+01  1.42276E+01  1.41154E+01
   1.40079E+01  1.39046E+01  1.38055E+01  1.37103E+01  1.36187E+01  1.35307E+01  1.34460E+01  1.33645E+01  1.32859E+01  1.32102E+01
   1.31373E+01  1.30669E+01  1.29990E+01  1.29334E+01  1.28701E+01  1.28089E+01  1.27497E+01  1.26925E+01  1.26372E+01  1.25837E+01
   1.25320E+01  1.24820E+01  1.24336E+01  1.23869E+01  1.23417E+01  1.22982E+01  1.22562E+01  1.22158E+01
 NY background values follow
     1.257E+01    1.257E+01    1.256E+01    1.256E+01    1.255E+01    1.255E+01    1.254E+01    1.254E+01    1.253E+01    1.253E+01
     1.252E+01    1.251E+01    1.251E+01    1.250E+01    1.250E+01    1.249E+01    1.249E+01    1.248E+01    1.248E+01    1.247E+01
     1.247E+01    1.246E+01    1.246E+01    1.245E+01    1.245E+01    1.244E+01    1.244E+01    1.243E+01    1.243E+01    1.242E+01
     1.242E+01    1.241E+01    1.241E+01    1.240E+01    1.240E+01    1.240E+01    1.239E+01    1.239E+01    1.238E+01    1.238E+01
     1.237E+01    1.237E+01    1.237E+01    1.236E+01    1.236E+01    1.235E+01    1.235E+01    1.235E+01    1.234E+01    1.234E+01
     1.234E+01    1.233E+01    1.233E+01    1.233E+01    1.232E+01    1.232E+01    1.232E+01    1.231E+01    1.231E+01    1.231E+01
     1.230E+01    1.230E+01    1.230E+01    1.230E+01    1.229E+01    1.229E+01    1.229E+01    1.229E+01    1.229E+01    1.228E+01
     1.228E+01    1.228E+01    1.228E+01    1.228E+01    1.228E+01    1.228E+01    1.227E+01    1.227E+01    1.227E+01    1.227E+01
     1.227E+01    1.227E+01    1.227E+01    1.227E+01    1.227E+01    1.227E+01    1.227E+01    1.227E+01    1.227E+01    1.227E+01
     1.227E+01    1.227E+01    1.228E+01    1.228E+01    1.228E+01    1.228E+01    1.228E+01    1.228E+01    1.228E+01    1.229E+01
     1.229E+01    1.229E+01    1.229E+01    1.230E+01    1.230E+01    1.230E+01    1.231E+01    1.231E+01    1.231E+01    1.232E+01
     1.232E+01    1.232E+01    1.233E+01    1.233E+01    1.234E+01    1.234E+01    1.235E+01    1.235E+01    1.236E+01    1.236E+01
     1.237E+01    1.237E+01    1.238E+01    1.239E+01    1.239E+01    1.240E+01    1.241E+01    1.241E+01    1.242E+01    1.243E+01
     1.244E+01    1.244E+01    1.245E+01    1.246E+01    1.247E+01    1.248E+01    1.249E+01    1.249E+01    1.250E+01    1.251E+01
     1.252E+01    1.253E+01    1.254E+01    1.255E+01    1.256E+01    1.257E+01    1.259E+01    1.260E+01    1.261E+01    1.262E+01
     1.263E+01    1.264E+01    1.266E+01    1.267E+01    1.268E+01    1.270E+01    1.271E+01    1.272E+01    1.274E+01    1.275E+01
     1.276E+01    1.278E+01    1.279E+01    1.281E+01    1.282E+01    1.284E+01    1.286E+01    1.287E+01    1.289E+01    1.291E+01
     1.292E+01    1.294E+01    1.296E+01    1.297E+01    1.299E+01    1.301E+01    1.303E+01    1.305E+01    1.307E+01    1.308E+01
     1.310E+01    1.312E+01    1.314E+01    1.316E+01    1.318E+01    1.320E+01    1.322E+01    1.324E+01    1.326E+01    1.329E+01
     1.331E+01    1.333E+01    1.335E+01    1.337E+01    1.339E+01    1.341E+01    1.344E+01    1.346E+01    1.348E+01    1.350E+01
     1.353E+01    1.355E+01    1.357E+01    1.360E+01    1.362E+01    1.364E+01    1.367E+01    1.369E+01    1.371E+01    1.374E+01
     1.376E+01    1.379E+01    1.381E+01    1.384E+01    1.386E+01    1.388E+01    1.391E+01    1.393E+01    1.396E+01    1.398E+01
     1.401E+01    1.403E+01    1.406E+01    1.408E+01    1.411E+01    1.414E+01    1.416E+01    1.419E+01    1.421E+01    1.424E+01
     1.426E+01    1.429E+01    1.431E+01    1.434E+01    1.437E+01    1.439E+01    1.442E+01    1.444E+01    1.447E+01    1.450E+01
     1.452E+01    1.455E+01    1.457E+01    1.460E+01    1.463E+01    1.465E+01    1.468E+01    1.470E+01    1.473E+01    1.476E+01
     1.478E+01    1.481E+01    1.483E+01    1.486E+01    1.489E+01    1.491E+01    1.494E+01    1.496E+01    1.499E+01    1.502E+01
     1.504E+01    1.507E+01    1.509E+01    1.512E+01    1.514E+01    1.517E+01    1.519E+01    1.522E+01    1.524E+01    1.527E+01
     1.529E+01    1.532E+01    1.534E+01    1.537E+01    1.539E+01    1.542E+01    1.544E+01    1.547E+01    1.549E+01    1.551E+01
     1.554E+01    1.556E+01    1.558E+01    1.561E+01    1.563E+01    1.566E+01    1.568E+01    1.570E+01    1.572E+01    1.575E+01
     1.577E+01    1.579E+01    1.581E+01    1.584E+01    1.586E+01    1.588E+01    1.590E+01    1.592E+01    1.594E+01    1.596E+01
     1.599E+01    1.601E+01    1.603E+01    1.605E+01    1.607E+01    1.609E+01    1.611E+01    1.613E+01    1.615E+01    1.616E+01
     1.618E+01    1.620E+01    1.622E+01    1.624E+01    1.626E+01    1.627E+01    1.629E+01    1.631E+01    1.633E+01    1.634E+01
     1.636E+01    1.637E+01    1.639E+01    1.641E+01    1.642E+01    1.644E+01    1.645E+01    1.647E+01    1.648E+01    1.650E+01
     1.651E+01    1.652E+01    1.654E+01    1.655E+01    1.656E+01    1.657E+01    1.659E+01    1.660E+01    1.661E+01    1.662E+01
     1.663E+01    1.664E+01    1.665E+01    1.666E+01    1.667E+01    1.668E+01    1.669E+01    1.670E+01    1.671E+01    1.672E+01
     1.673E+01    1.673E+01    1.674E+01    1.675E+01    1.676E+01    1.676E+01    1.677E+01    1.678E+01    1.678E+01    1.679E+01
     1.679E+01    1.680E+01    1.680E+01    1.681E+01    1.681E+01    1.682E+01    1.682E+01    1.683E+01    1.683E+01    1.683E+01
     1.684E+01    1.684E+01    1.684E+01    1.684E+01    1.684E+01    1.685E+01    1.685E+01    1.685E+01    1.685E+01    1.685E+01
     1.685E+01    1.685E+01    1.685E+01    1.685E+01    1.685E+01    1.685E+01    1.685E+01    1.685E+01    1.684E+01    1.684E+01
     1.684E+01    1.684E+01    1.684E+01    1.683E+01    1.683E+01    1.683E+01    1.682E+01    1.682E+01    1.682E+01    1.681E+01
     1.681E+01    1.680E+01    1.680E+01    1.679E+01    1.679E+01    1.678E+01    1.678E+01    1.677E+01    1.676E+01    1.676E+01
     1.675E+01    1.674E+01    1.674E+01    1.673E+01    1.672E+01    1.671E+01    1.671E+01    1.670E+01    1.669E+01    1.668E+01
     1.667E+01    1.666E+01    1.665E+01    1.664E+01    1.663E+01    1.662E+01    1.661E+01    1.660E+01    1.659E+01    1.658E+01
     1.657E+01    1.656E+01    1.655E+01    1.654E+01    1.652E+01    1.651E+01    1.650E+01    1.649E+01    1.648E+01    1.646E+01
     1.645E+01    1.644E+01    1.642E+01    1.641E+01    1.640E+01    1.638E+01    1.637E+01    1.635E+01    1.634E+01    1.632E+01
     1.631E+01    1.629E+01    1.628E+01    1.626E+01    1.625E+01    1.623E+01    1.621E+01    1.620E+01    1.618E+01    1.617E+01
     1.615E+01    1.613E+01    1.611E+01    1.610E+01    1.608E+01    1.606E+01    1.604E+01    1.603E+01    1.601E+01    1.599E+01
     1.597E+01    1.595E+01    1.593E+01    1.591E+01    1.590E+01    1.588E+01    1.586E+01    1.584E+01    1.582E+01    1.580E+01
     1.578E+01    1.576E+01    1.574E+01    1.571E+01    1.569E+01    1.567E+01    1.565E+01    1.563E+01    1.561E+01    1.559E+01
     1.557E+01    1.554E+01    1.552E+01    1.550E+01    1.548E+01    1.545E+01    1.543E+01    1.541E+01
 Ala      Conc. = 1.57E+03
