 LCModel (Version 6.3-1L) Copyright: S.W. Provencher.          Ref.: Magn. Reson. Med. 30:672-679 (1993).                
 Slice#2 Row#10 Col#13  PD_05_press_1_raw_act
 36 lines in following concentration table = NCONC+1
    Conc.  %SD /Cr+PCr  Metabolite                                         
    0.000 999%   0.000 Ala                                                 
   10.640 118%   0.303 Asp                                                 
    0.000 999%   0.000 Cr                                                  
   35.159  34%   1.000 PCr                                                 
    5.886 129%   0.167 GABA                                                
    7.615 100%   0.217 Glc                                                 
    4.267 999%   0.121 Gln                                                 
   32.092 154%   0.913 Glu                                                 
   11.761  38%   0.335 GPC                                                 
    0.000 999%   0.000 PCh                                                 
    1.255 999% 3.6E-02 GSH                                                 
   66.015  76%   1.878 Ins                                                 
   29.039  88%   0.826 Lac                                                 
   77.663  32%   2.209 NAA                                                 
   71.649  30%   2.038 NAAG                                                
    2.258 106% 6.4E-02 Scyllo                                              
    8.137 153%   0.231 Tau                                                 
    0.921 999% 2.6E-02 -CrCH2                                              
   11.761  38%   0.335 GPC+PCh                                             
  149.312  13%   4.247 NAA+NAAG                                            
   35.159  34%   1.000 Cr+PCr                                              
   36.359 178%   1.034 Glu+Gln                                             
 6.04E+03  10% 171.740 Lip13a                                              
    0.000 999%   0.000 Lip13b                                              
 1.86E+03  12%  52.791 Lip09                                               
    0.000 999%   0.000 MM09                                                
  337.108  43%   9.588 Lip20                                               
    0.000 999%   0.000 MM20                                                
  250.263 101%   7.118 MM12                                                
 2.34E+03  18%  66.587 MM14                                                
 1.65E+03  19%  46.982 MM17                                                
 6.04E+03  10% 171.740 Lip13a+Lip13b                                       
 8.63E+03   6% 245.445 MM14+Lip13a+Lip13b+MM12                             
 1.86E+03  12%  52.791 MM09+Lip09                                          
  337.108  43%   9.588 MM20+Lip20                                          
   6 lines in following misc. output table
  FWHM = 0.054 ppm    S/N =  11                                            
  Data shift = 0.000 ppm                                                   
  Ph: -22 deg     -15.6 deg/ppm                                            
  alphaB,S = 5.3E+00,   6.1E+00                                            
   14 spline knots.   Ns = 6(1)                                            
  ( 6) 4 infls.   ( 6) 4 extrs.                                            
  498 points on ppm-axis = NY
      4.000000     3.992357     3.984714     3.977070     3.969427     3.961784     3.954141     3.946497     3.938854     3.931211
      3.923568     3.915925     3.908281     3.900638     3.892995     3.885352     3.877708     3.870065     3.862422     3.854779
      3.847136     3.839492     3.831849     3.824206     3.816563     3.808919     3.801276     3.793633     3.785990     3.778347
      3.770703     3.763060     3.755417     3.747774     3.740130     3.732487     3.724844     3.717201     3.709558     3.701914
      3.694271     3.686628     3.678985     3.671341     3.663698     3.656055     3.648412     3.640769     3.633125     3.625482
      3.617839     3.610196     3.602552     3.594909     3.587266     3.579623     3.571980     3.564336     3.556693     3.549050
      3.541407     3.533763     3.526120     3.518477     3.510834     3.503191     3.495547     3.487904     3.480261     3.472618
      3.464974     3.457331     3.449688     3.442045     3.434402     3.426758     3.419115     3.411472     3.403829     3.396185
      3.388542     3.380899     3.373256     3.365613     3.357969     3.350326     3.342683     3.335040     3.327396     3.319753
      3.312110     3.304467     3.296824     3.289180     3.281537     3.273894     3.266251     3.258607     3.250964     3.243321
      3.235678     3.228034     3.220391     3.212748     3.205105     3.197462     3.189818     3.182175     3.174532     3.166889
      3.159245     3.151602     3.143959     3.136316     3.128673     3.121029     3.113386     3.105743     3.098100     3.090456
      3.082813     3.075170     3.067527     3.059884     3.052240     3.044597     3.036954     3.029311     3.021667     3.014024
      3.006381     2.998738     2.991095     2.983451     2.975808     2.968165     2.960522     2.952878     2.945235     2.937592
      2.929949     2.922306     2.914662     2.907019     2.899376     2.891733     2.884089     2.876446     2.868803     2.861160
      2.853517     2.845873     2.838230     2.830587     2.822944     2.815300     2.807657     2.800014     2.792371     2.784728
      2.777084     2.769441     2.761798     2.754155     2.746511     2.738868     2.731225     2.723582     2.715939     2.708295
      2.700652     2.693009     2.685366     2.677722     2.670079     2.662436     2.654793     2.647150     2.639506     2.631863
      2.624220     2.616577     2.608933     2.601290     2.593647     2.586004     2.578361     2.570717     2.563074     2.555431
      2.547788     2.540144     2.532501     2.524858     2.517215     2.509572     2.501928     2.494285     2.486642     2.478999
      2.471355     2.463712     2.456069     2.448426     2.440783     2.433139     2.425496     2.417853     2.410210     2.402566
      2.394923     2.387280     2.379637     2.371994     2.364350     2.356707     2.349064     2.341421     2.333777     2.326134
      2.318491     2.310848     2.303205     2.295561     2.287918     2.280275     2.272632     2.264988     2.257345     2.249702
      2.242059     2.234416     2.226772     2.219129     2.211486     2.203843     2.196199     2.188556     2.180913     2.173270
      2.165627     2.157983     2.150340     2.142697     2.135054     2.127410     2.119767     2.112124     2.104481     2.096838
      2.089194     2.081551     2.073908     2.066265     2.058621     2.050978     2.043335     2.035692     2.028049     2.020405
      2.012762     2.005119     1.997476     1.989833     1.982190     1.974546     1.966903     1.959260     1.951617     1.943974
      1.936331     1.928688     1.921045     1.913402     1.905759     1.898115     1.890472     1.882829     1.875186     1.867543
      1.859900     1.852257     1.844614     1.836971     1.829327     1.821684     1.814041     1.806398     1.798755     1.791112
      1.783469     1.775826     1.768183     1.760540     1.752896     1.745253     1.737610     1.729967     1.722324     1.714681
      1.707038     1.699395     1.691752     1.684108     1.676465     1.668822     1.661179     1.653536     1.645893     1.638250
      1.630607     1.622964     1.615321     1.607677     1.600034     1.592391     1.584748     1.577105     1.569462     1.561819
      1.554176     1.546533     1.538890     1.531246     1.523603     1.515960     1.508317     1.500674     1.493031     1.485388
      1.477745     1.470102     1.462458     1.454815     1.447172     1.439529     1.431886     1.424243     1.416600     1.408957
      1.401314     1.393671     1.386027     1.378384     1.370741     1.363098     1.355455     1.347812     1.340169     1.332526
      1.324883     1.317240     1.309596     1.301953     1.294310     1.286667     1.279024     1.271381     1.263738     1.256095
      1.248452     1.240808     1.233165     1.225522     1.217879     1.210236     1.202593     1.194950     1.187307     1.179664
      1.172021     1.164377     1.156734     1.149091     1.141448     1.133805     1.126162     1.118519     1.110876     1.103233
      1.095590     1.087946     1.080303     1.072660     1.065017     1.057374     1.049731     1.042088     1.034445     1.026802
      1.019158     1.011515     1.003872     0.996229     0.988586     0.980943     0.973300     0.965657     0.958014     0.950371
      0.942727     0.935084     0.927441     0.919798     0.912155     0.904512     0.896869     0.889226     0.881583     0.873940
      0.866296     0.858653     0.851010     0.843367     0.835724     0.828081     0.820438     0.812795     0.805152     0.797508
      0.789865     0.782222     0.774579     0.766936     0.759293     0.751650     0.744007     0.736364     0.728721     0.721077
      0.713434     0.705791     0.698148     0.690505     0.682862     0.675219     0.667576     0.659933     0.652290     0.644646
      0.637003     0.629360     0.621717     0.614074     0.606431     0.598788     0.591145     0.583502     0.575858     0.568215
      0.560572     0.552929     0.545286     0.537643     0.530000     0.522357     0.514714     0.507071     0.499427     0.491784
      0.484141     0.476498     0.468855     0.461212     0.453569     0.445925     0.438282     0.430639     0.422996     0.415353
      0.407710     0.400067     0.392424     0.384780     0.377137     0.369494     0.361851     0.354208     0.346565     0.338922
      0.331278     0.323635     0.315992     0.308349     0.300706     0.293063     0.285420     0.277777     0.270133     0.262490
      0.254847     0.247204     0.239561     0.231918     0.224275     0.216631     0.208988     0.201345
 NY phased data points follow
   4.28832E+00  2.69126E+00  2.42145E+00  3.61962E+00  3.74862E+00  3.81915E+00  3.59468E+00  4.23728E+00  3.95091E+00  3.69563E+00
   3.74507E+00  3.76339E+00  3.89920E+00  4.45620E+00  3.80214E+00  4.44946E+00  3.12489E+00  2.81855E+00  2.56789E+00  2.71281E+00
   4.05729E+00  3.63287E+00  3.05374E+00  2.97628E+00  3.23023E+00  3.30905E+00  4.80054E+00  3.70516E+00  2.44030E+00  3.38814E+00
   2.37807E+00  4.34444E+00  3.87896E+00  4.60043E+00  1.44931E+00  2.33489E+00  2.96982E+00  2.86716E+00  3.06068E+00  2.18015E+00
   1.85664E+00  2.66766E+00  2.48097E+00  2.81837E+00  1.89941E+00  3.45926E+00  2.26861E+00  3.14226E+00  3.80838E+00  4.79705E+00
   4.73562E+00  3.65696E+00  2.25487E+00  2.74510E+00  3.05055E+00  4.19140E+00  3.25824E+00  3.69520E+00  3.24486E+00  3.97370E+00
   3.57936E+00  2.81808E+00  2.94947E+00  3.26595E+00  3.03734E+00  2.95221E+00  3.05076E+00  3.23161E+00  4.76905E+00  2.61797E+00
   3.27390E+00  3.41603E+00  2.88686E+00  3.10670E+00  1.93978E+00  3.91376E+00  3.50124E+00  3.30431E+00  2.47541E+00  3.82089E+00
   2.57050E+00  3.56193E+00  2.93847E+00  2.62893E+00  2.48457E+00  2.30247E+00  3.26329E+00  2.50568E+00  3.99082E+00  3.25783E+00
   3.05850E+00  3.67545E+00  2.02042E+00  1.57428E+00  3.35626E+00  2.95214E+00  2.48610E+00  3.91931E+00  1.26289E+00  1.95942E+00
   2.62404E+00  5.15693E+00  3.66675E+00  3.44217E+00  3.91736E+00  4.37671E+00  2.38650E+00  5.68999E+00  3.41913E+00  2.53033E+00
   1.45869E+00  2.87343E+00  2.34994E+00  1.48296E+00  2.58525E+00  3.00091E+00  2.83366E+00  3.35014E+00  1.53800E+00  2.36708E+00
   3.18318E+00  3.16914E+00  4.42883E+00  1.55707E+00  1.04688E+00  2.99424E+00  2.85316E+00  3.19560E+00  4.42618E+00  3.90064E+00
   3.67229E+00  5.11577E+00  4.42978E+00  2.73066E+00  4.75282E+00  3.46070E+00  3.45685E+00  4.69073E+00  1.79237E+00  2.73300E+00
   4.79366E+00  1.45935E+00  2.68119E+00  2.98816E+00  3.81765E+00  3.04158E+00  3.68180E+00  2.23069E+00  2.41909E+00  4.03378E+00
   3.13558E+00  4.07691E+00  2.38519E+00  2.08642E+00  2.77263E+00  2.99709E+00  2.13982E+00  3.45988E+00  2.93316E+00  3.30250E+00
   2.67030E+00  3.88940E+00  3.67337E+00  3.33731E+00  3.17421E+00  2.93255E+00  3.01234E+00  3.36856E+00  4.34846E+00  3.35470E+00
   3.79030E+00  3.24353E+00  4.52353E-01  2.37762E+00  2.92372E+00  2.42074E+00  2.30016E+00  4.21098E+00  2.89068E+00  2.53466E+00
   2.38605E+00  4.38180E+00  3.65133E+00  2.63486E+00  2.66560E+00  2.59774E+00  2.97174E+00  3.03455E+00  4.11395E+00  3.44484E+00
   3.29239E+00  2.79903E+00  3.31409E+00  5.29895E+00  4.35662E+00  3.82038E+00  4.24573E+00  2.03256E+00  3.67399E+00  3.47003E+00
   3.75288E+00  3.86202E+00  3.55817E+00  3.07974E+00  3.78005E+00  2.34705E+00  2.81524E+00  3.53190E+00  4.53018E+00  3.28218E+00
   1.75862E+00  2.23328E+00  3.58372E+00  3.40892E+00  4.54183E+00  2.59434E+00  2.29136E+00  3.40759E+00  3.26157E+00  4.19843E+00
   3.16038E+00  3.68190E+00  3.39677E+00  4.35839E+00  3.91653E+00  3.12009E+00  2.20335E+00  3.54521E+00  3.81393E+00  4.14805E+00
   4.91934E+00  3.84061E+00  4.72848E+00  3.48687E+00  3.35212E+00  3.47093E+00  5.01169E+00  3.90413E+00  3.36633E+00  4.28099E+00
   4.10729E+00  2.09977E+00  3.99821E+00  4.30682E+00  3.95654E+00  2.85713E+00  4.64088E+00  3.03974E+00  3.13888E+00  4.51922E+00
   4.54005E+00  4.08646E+00  4.98333E+00  5.17223E+00  6.70772E+00  6.52681E+00  4.96536E+00  8.50917E+00  6.77275E+00  7.67840E+00
   1.06543E+01  1.04384E+01  9.64611E+00  7.91615E+00  7.80282E+00  7.09340E+00  6.22230E+00  6.65297E+00  5.06436E+00  5.57982E+00
   5.52570E+00  7.01371E+00  5.75120E+00  6.75586E+00  6.49763E+00  7.61011E+00  7.90943E+00  6.56056E+00  8.32819E+00  7.71538E+00
   8.92550E+00  7.37317E+00  8.12797E+00  8.78678E+00  7.28353E+00  8.27923E+00  8.30086E+00  7.46485E+00  7.95452E+00  8.41103E+00
   8.75235E+00  9.13314E+00  1.08886E+01  8.32431E+00  1.19043E+01  1.02421E+01  1.06539E+01  9.95161E+00  1.14010E+01  1.23071E+01
   1.06082E+01  1.01039E+01  1.13967E+01  1.17085E+01  1.21123E+01  1.23443E+01  1.16908E+01  1.33247E+01  1.41868E+01  1.32414E+01
   1.32415E+01  1.50659E+01  1.48875E+01  1.55876E+01  1.48720E+01  1.60672E+01  1.60380E+01  1.53725E+01  1.58132E+01  1.57189E+01
   1.64704E+01  1.61248E+01  1.85664E+01  1.74780E+01  1.90153E+01  1.82199E+01  1.82186E+01  1.83524E+01  1.85563E+01  1.95430E+01
   1.79384E+01  1.97861E+01  1.91980E+01  1.84351E+01  1.84739E+01  2.07177E+01  1.93986E+01  1.97021E+01  2.01399E+01  1.99634E+01
   1.97320E+01  1.78946E+01  1.87263E+01  1.90632E+01  2.08394E+01  2.14337E+01  2.04455E+01  2.12898E+01  1.99140E+01  2.27890E+01
   2.15775E+01  2.15479E+01  2.25122E+01  2.16724E+01  2.32516E+01  2.32805E+01  2.31297E+01  2.23497E+01  2.30181E+01  2.32641E+01
   2.43085E+01  2.39988E+01  2.45266E+01  2.40348E+01  2.42806E+01  2.25065E+01  2.17863E+01  2.31946E+01  2.32657E+01  2.21528E+01
   2.17519E+01  2.11845E+01  1.88643E+01  1.75792E+01  1.81907E+01  1.70520E+01  1.70259E+01  1.78757E+01  1.74333E+01  1.48506E+01
   1.68413E+01  1.63759E+01  1.39852E+01  1.48183E+01  1.49244E+01  1.36854E+01  1.32629E+01  1.34864E+01  1.28264E+01  1.42584E+01
   1.35377E+01  1.40441E+01  1.31926E+01  1.19474E+01  1.40252E+01  1.32949E+01  1.32257E+01  1.33447E+01  1.35580E+01  1.32217E+01
   1.10922E+01  1.33748E+01  1.11407E+01  1.16175E+01  1.26305E+01  1.10416E+01  1.27575E+01  9.88785E+00  1.21554E+01  1.13682E+01
   1.26546E+01  1.14551E+01  1.26646E+01  1.14459E+01  1.07430E+01  9.73407E+00  9.97906E+00  9.56375E+00  9.37916E+00  8.74883E+00
   9.74354E+00  9.88039E+00  8.54114E+00  8.29535E+00  8.74348E+00  7.54119E+00  6.82767E+00  8.22048E+00  7.24678E+00  6.02345E+00
   7.01779E+00  6.45315E+00  7.79071E+00  6.96272E+00  5.44353E+00  5.49565E+00  8.53452E+00  8.80697E+00  6.22507E+00  6.19772E+00
   5.36002E+00  5.44364E+00  4.81800E+00  4.71910E+00  6.26561E+00  4.50563E+00  5.27901E+00  5.35730E+00  2.67208E+00  4.51108E+00
   5.51694E+00  4.15069E+00  3.86199E+00  5.05451E+00  4.25315E+00  5.22515E+00  4.28165E+00  4.91777E+00  3.31181E+00  3.06145E+00
   4.67491E+00  3.90261E+00  4.62418E+00  2.28223E+00  3.87461E+00  2.68360E+00  3.95973E+00  3.43520E+00  4.00892E+00  3.36084E+00
   1.96968E+00  4.42301E+00  1.74333E+00  3.92578E+00  2.86250E+00  2.86776E+00  2.53667E+00  4.46568E+00  2.32305E+00  3.33683E+00
   2.60444E+00  1.64308E+00  1.21686E+00  2.41939E+00  8.32988E-01  1.64861E+00  7.77295E-01  1.83933E+00  1.70189E+00  2.97786E+00
   3.77318E+00  2.36755E+00  1.38754E+00  1.78714E+00  2.88511E+00  2.64396E+00  2.34107E+00  2.43329E+00
 NY points of the fit to the data follow
   3.33266E+00  3.27338E+00  3.20837E+00  3.20119E+00  3.16981E+00  3.05005E+00  3.12903E+00  3.37049E+00  3.60173E+00  3.79153E+00
   3.94185E+00  3.94616E+00  3.85256E+00  3.89410E+00  3.91354E+00  3.70550E+00  3.43234E+00  3.24351E+00  3.16481E+00  3.13542E+00
   3.12956E+00  3.12276E+00  3.10947E+00  3.11549E+00  3.12878E+00  3.13347E+00  3.13413E+00  3.12206E+00  3.09418E+00  3.07894E+00
   3.10209E+00  3.13725E+00  3.15402E+00  3.16963E+00  3.20375E+00  3.23686E+00  3.25702E+00  3.25532E+00  3.21983E+00  3.16720E+00
   3.12206E+00  3.09769E+00  3.05914E+00  2.99283E+00  2.99418E+00  3.11356E+00  3.30307E+00  3.46934E+00  3.55596E+00  3.55448E+00
   3.50843E+00  3.48393E+00  3.45040E+00  3.33807E+00  3.15319E+00  2.98995E+00  2.93510E+00  2.95991E+00  3.02641E+00  3.10914E+00
   3.18791E+00  3.22366E+00  3.20756E+00  3.19337E+00  3.17629E+00  3.14656E+00  3.11089E+00  3.05050E+00  3.00887E+00  3.01522E+00
   3.04939E+00  3.08077E+00  3.12134E+00  3.16694E+00  3.17932E+00  3.18280E+00  3.19852E+00  3.18422E+00  3.14090E+00  3.11167E+00
   3.10180E+00  3.05843E+00  3.02541E+00  3.04921E+00  3.08713E+00  3.09445E+00  3.07847E+00  3.04013E+00  2.97713E+00  2.93569E+00
   2.93737E+00  2.91415E+00  2.86013E+00  2.84174E+00  2.86959E+00  2.92411E+00  2.99858E+00  3.00808E+00  2.77410E+00  2.77565E+00
   3.11062E+00  3.46864E+00  3.74632E+00  3.97644E+00  4.04135E+00  3.91550E+00  3.95920E+00  4.06105E+00  3.79842E+00  3.36785E+00
   3.06551E+00  2.96381E+00  2.94053E+00  2.92903E+00  2.92202E+00  2.92099E+00  2.92119E+00  2.91681E+00  2.91428E+00  2.91448E+00
   2.92279E+00  2.96794E+00  2.86884E+00  2.68672E+00  2.85976E+00  3.26761E+00  3.63812E+00  3.93736E+00  4.15879E+00  4.15429E+00
   4.07614E+00  4.19376E+00  4.17629E+00  3.80203E+00  3.38460E+00  3.15255E+00  3.08821E+00  3.07657E+00  3.07954E+00  3.08727E+00
   3.10156E+00  3.11321E+00  3.12776E+00  3.15412E+00  3.18470E+00  3.20875E+00  3.22336E+00  3.23561E+00  3.24662E+00  3.26946E+00
   3.30017E+00  3.30208E+00  3.28314E+00  3.26414E+00  3.24012E+00  3.24143E+00  3.28804E+00  3.32147E+00  3.30210E+00  3.26878E+00
   3.23447E+00  3.21464E+00  3.22294E+00  3.23043E+00  3.19512E+00  3.15600E+00  3.13076E+00  3.09469E+00  3.07310E+00  3.05706E+00
   3.02805E+00  3.02536E+00  3.02361E+00  2.96856E+00  2.89674E+00  2.87273E+00  2.89357E+00  2.91336E+00  2.91848E+00  2.85659E+00
   2.76825E+00  2.75599E+00  2.82343E+00  2.87513E+00  2.87258E+00  2.86113E+00  2.86780E+00  2.89900E+00  2.98580E+00  3.09185E+00
   3.13886E+00  3.13451E+00  3.14081E+00  3.17646E+00  3.19243E+00  3.17011E+00  3.15392E+00  3.14204E+00  3.11751E+00  3.09129E+00
   3.11520E+00  3.15914E+00  3.18066E+00  3.21296E+00  3.27221E+00  3.30635E+00  3.28057E+00  3.23736E+00  3.21801E+00  3.17500E+00
   3.10722E+00  3.03398E+00  3.02333E+00  3.07631E+00  3.16863E+00  3.28988E+00  3.39411E+00  3.46647E+00  3.51029E+00  3.52221E+00
   3.49724E+00  3.43243E+00  3.36399E+00  3.35203E+00  3.41076E+00  3.48562E+00  3.55858E+00  3.64470E+00  3.74831E+00  3.83242E+00
   3.85593E+00  3.84225E+00  3.83986E+00  3.88449E+00  3.92479E+00  3.94639E+00  3.98113E+00  4.03433E+00  4.09297E+00  4.11311E+00
   4.09461E+00  4.06350E+00  4.05041E+00  4.07290E+00  4.13740E+00  4.21836E+00  4.27547E+00  4.33284E+00  4.41860E+00  4.54729E+00
   4.67039E+00  4.32691E+00  4.22775E+00  4.89322E+00  5.85846E+00  6.30141E+00  6.52726E+00  7.29342E+00  8.02753E+00  8.79464E+00
   9.70744E+00  9.84764E+00  8.93731E+00  8.05019E+00  8.03340E+00  7.90117E+00  7.04998E+00  6.15699E+00  5.70218E+00  5.60553E+00
   5.61731E+00  5.67843E+00  5.77964E+00  5.89903E+00  6.02255E+00  6.15919E+00  6.30964E+00  6.46440E+00  6.62305E+00  6.79366E+00
   6.97855E+00  7.17045E+00  7.38459E+00  7.62897E+00  7.88830E+00  8.14738E+00  8.41121E+00  8.67573E+00  8.93202E+00  9.18296E+00
   9.43533E+00  9.68542E+00  9.93250E+00  1.01738E+01  1.04049E+01  1.06244E+01  1.08350E+01  1.10311E+01  1.12085E+01  1.13714E+01
   1.15290E+01  1.16872E+01  1.18434E+01  1.19991E+01  1.21644E+01  1.23422E+01  1.25317E+01  1.27338E+01  1.29518E+01  1.31888E+01
   1.34468E+01  1.37266E+01  1.40282E+01  1.43504E+01  1.46911E+01  1.50474E+01  1.54155E+01  1.57907E+01  1.61676E+01  1.65408E+01
   1.69048E+01  1.72538E+01  1.75824E+01  1.78857E+01  1.81596E+01  1.84011E+01  1.86082E+01  1.87801E+01  1.89171E+01  1.90212E+01
   1.90953E+01  1.91437E+01  1.91714E+01  1.91843E+01  1.91887E+01  1.91915E+01  1.91996E+01  1.92197E+01  1.92581E+01  1.93207E+01
   1.94143E+01  1.95410E+01  1.96488E+01  1.98331E+01  2.01961E+01  2.05818E+01  2.08979E+01  2.11734E+01  2.14198E+01  2.16391E+01
   2.18063E+01  2.19740E+01  2.21343E+01  2.23054E+01  2.25829E+01  2.29754E+01  2.33846E+01  2.36496E+01  2.38248E+01  2.40354E+01
   2.41550E+01  2.40730E+01  2.38537E+01  2.35911E+01  2.33082E+01  2.29874E+01  2.26239E+01  2.22191E+01  2.17771E+01  2.13031E+01
   2.08035E+01  2.02847E+01  1.97535E+01  1.92164E+01  1.86799E+01  1.81499E+01  1.76317E+01  1.71304E+01  1.66500E+01  1.61941E+01
   1.57655E+01  1.53664E+01  1.49983E+01  1.46620E+01  1.43578E+01  1.40856E+01  1.38446E+01  1.36337E+01  1.34514E+01  1.32959E+01
   1.31651E+01  1.30565E+01  1.29677E+01  1.28959E+01  1.28381E+01  1.27916E+01  1.27532E+01  1.27200E+01  1.26889E+01  1.26572E+01
   1.26220E+01  1.25807E+01  1.25311E+01  1.24709E+01  1.23985E+01  1.23122E+01  1.22111E+01  1.20944E+01  1.19615E+01  1.18126E+01
   1.16478E+01  1.14678E+01  1.12736E+01  1.10662E+01  1.08470E+01  1.06176E+01  1.03796E+01  1.01346E+01  9.88453E+00  9.63097E+00
   9.37559E+00  9.11998E+00  8.86560E+00  8.61376E+00  8.36566E+00  8.12233E+00  7.88466E+00  7.65336E+00  7.42903E+00  7.21210E+00
   7.00289E+00  6.80161E+00  6.60835E+00  6.42313E+00  6.24587E+00  6.07646E+00  5.91471E+00  5.76042E+00  5.61331E+00  5.47314E+00
   5.33960E+00  5.21241E+00  5.09125E+00  4.97585E+00  4.86590E+00  4.76112E+00  4.66122E+00  4.56593E+00  4.47501E+00  4.38821E+00
   4.30529E+00  4.22602E+00  4.15021E+00  4.07765E+00  4.00817E+00  3.94158E+00  3.87772E+00  3.81643E+00  3.75758E+00  3.70103E+00
   3.64666E+00  3.59434E+00  3.54396E+00  3.49541E+00  3.44861E+00  3.40346E+00  3.35988E+00  3.31778E+00  3.27708E+00  3.23773E+00
   3.19964E+00  3.16277E+00  3.12705E+00  3.09242E+00  3.05883E+00  3.02624E+00  2.99460E+00  2.96386E+00  2.93399E+00  2.90494E+00
   2.87667E+00  2.84917E+00  2.82239E+00  2.79630E+00  2.77087E+00  2.74607E+00  2.72188E+00  2.69829E+00  2.67525E+00  2.65274E+00
   2.63075E+00  2.60926E+00  2.58824E+00  2.56770E+00  2.54759E+00  2.52790E+00  2.50862E+00  2.48974E+00
 NY background values follow
     2.990E+00    2.987E+00    2.985E+00    2.982E+00    2.979E+00    2.977E+00    2.974E+00    2.971E+00    2.969E+00    2.966E+00
     2.963E+00    2.961E+00    2.958E+00    2.955E+00    2.953E+00    2.950E+00    2.948E+00    2.945E+00    2.942E+00    2.940E+00
     2.937E+00    2.934E+00    2.932E+00    2.929E+00    2.926E+00    2.924E+00    2.921E+00    2.918E+00    2.916E+00    2.913E+00
     2.911E+00    2.908E+00    2.905E+00    2.903E+00    2.900E+00    2.897E+00    2.895E+00    2.892E+00    2.890E+00    2.887E+00
     2.884E+00    2.882E+00    2.879E+00    2.877E+00    2.874E+00    2.871E+00    2.869E+00    2.866E+00    2.864E+00    2.861E+00
     2.858E+00    2.856E+00    2.853E+00    2.851E+00    2.848E+00    2.845E+00    2.843E+00    2.840E+00    2.838E+00    2.835E+00
     2.833E+00    2.830E+00    2.827E+00    2.825E+00    2.822E+00    2.820E+00    2.817E+00    2.815E+00    2.812E+00    2.810E+00
     2.807E+00    2.805E+00    2.802E+00    2.800E+00    2.797E+00    2.795E+00    2.792E+00    2.790E+00    2.787E+00    2.785E+00
     2.782E+00    2.780E+00    2.777E+00    2.775E+00    2.772E+00    2.770E+00    2.767E+00    2.765E+00    2.762E+00    2.760E+00
     2.757E+00    2.755E+00    2.753E+00    2.750E+00    2.748E+00    2.745E+00    2.743E+00    2.741E+00    2.738E+00    2.736E+00
     2.733E+00    2.731E+00    2.729E+00    2.726E+00    2.724E+00    2.722E+00    2.719E+00    2.717E+00    2.714E+00    2.712E+00
     2.710E+00    2.707E+00    2.705E+00    2.703E+00    2.700E+00    2.698E+00    2.696E+00    2.694E+00    2.691E+00    2.689E+00
     2.687E+00    2.684E+00    2.682E+00    2.680E+00    2.678E+00    2.675E+00    2.673E+00    2.671E+00    2.669E+00    2.666E+00
     2.664E+00    2.662E+00    2.660E+00    2.657E+00    2.655E+00    2.653E+00    2.651E+00    2.648E+00    2.646E+00    2.644E+00
     2.642E+00    2.640E+00    2.637E+00    2.635E+00    2.633E+00    2.631E+00    2.629E+00    2.627E+00    2.624E+00    2.622E+00
     2.620E+00    2.618E+00    2.616E+00    2.614E+00    2.611E+00    2.609E+00    2.607E+00    2.605E+00    2.603E+00    2.601E+00
     2.598E+00    2.596E+00    2.594E+00    2.592E+00    2.590E+00    2.588E+00    2.585E+00    2.583E+00    2.581E+00    2.579E+00
     2.577E+00    2.575E+00    2.572E+00    2.570E+00    2.568E+00    2.566E+00    2.564E+00    2.562E+00    2.559E+00    2.557E+00
     2.555E+00    2.553E+00    2.551E+00    2.548E+00    2.546E+00    2.544E+00    2.542E+00    2.540E+00    2.537E+00    2.535E+00
     2.533E+00    2.531E+00    2.528E+00    2.526E+00    2.524E+00    2.522E+00    2.519E+00    2.517E+00    2.515E+00    2.513E+00
     2.510E+00    2.508E+00    2.506E+00    2.504E+00    2.501E+00    2.499E+00    2.497E+00    2.494E+00    2.492E+00    2.490E+00
     2.487E+00    2.485E+00    2.483E+00    2.480E+00    2.478E+00    2.476E+00    2.473E+00    2.471E+00    2.469E+00    2.466E+00
     2.464E+00    2.462E+00    2.459E+00    2.457E+00    2.455E+00    2.452E+00    2.450E+00    2.447E+00    2.445E+00    2.443E+00
     2.440E+00    2.438E+00    2.435E+00    2.433E+00    2.430E+00    2.428E+00    2.426E+00    2.423E+00    2.421E+00    2.418E+00
     2.416E+00    2.413E+00    2.411E+00    2.408E+00    2.406E+00    2.403E+00    2.401E+00    2.398E+00    2.396E+00    2.393E+00
     2.391E+00    2.388E+00    2.385E+00    2.383E+00    2.380E+00    2.378E+00    2.375E+00    2.373E+00    2.370E+00    2.367E+00
     2.365E+00    2.362E+00    2.359E+00    2.357E+00    2.354E+00    2.352E+00    2.349E+00    2.346E+00    2.344E+00    2.341E+00
     2.338E+00    2.336E+00    2.333E+00    2.330E+00    2.327E+00    2.325E+00    2.322E+00    2.319E+00    2.316E+00    2.314E+00
     2.311E+00    2.308E+00    2.305E+00    2.303E+00    2.300E+00    2.297E+00    2.294E+00    2.291E+00    2.288E+00    2.286E+00
     2.283E+00    2.280E+00    2.277E+00    2.274E+00    2.271E+00    2.268E+00    2.266E+00    2.263E+00    2.260E+00    2.257E+00
     2.254E+00    2.251E+00    2.248E+00    2.245E+00    2.242E+00    2.239E+00    2.236E+00    2.233E+00    2.230E+00    2.227E+00
     2.224E+00    2.221E+00    2.218E+00    2.215E+00    2.212E+00    2.209E+00    2.206E+00    2.203E+00    2.200E+00    2.197E+00
     2.194E+00    2.191E+00    2.188E+00    2.185E+00    2.181E+00    2.178E+00    2.175E+00    2.172E+00    2.169E+00    2.166E+00
     2.163E+00    2.159E+00    2.156E+00    2.153E+00    2.150E+00    2.147E+00    2.143E+00    2.140E+00    2.137E+00    2.134E+00
     2.131E+00    2.127E+00    2.124E+00    2.121E+00    2.118E+00    2.114E+00    2.111E+00    2.108E+00    2.104E+00    2.101E+00
     2.098E+00    2.095E+00    2.091E+00    2.088E+00    2.085E+00    2.081E+00    2.078E+00    2.074E+00    2.071E+00    2.068E+00
     2.064E+00    2.061E+00    2.058E+00    2.054E+00    2.051E+00    2.047E+00    2.044E+00    2.041E+00    2.037E+00    2.034E+00
     2.030E+00    2.027E+00    2.023E+00    2.020E+00    2.016E+00    2.013E+00    2.009E+00    2.006E+00    2.002E+00    1.999E+00
     1.995E+00    1.992E+00    1.988E+00    1.985E+00    1.981E+00    1.978E+00    1.974E+00    1.970E+00    1.967E+00    1.963E+00
     1.960E+00    1.956E+00    1.952E+00    1.949E+00    1.945E+00    1.942E+00    1.938E+00    1.934E+00    1.931E+00    1.927E+00
     1.923E+00    1.920E+00    1.916E+00    1.912E+00    1.909E+00    1.905E+00    1.901E+00    1.898E+00    1.894E+00    1.890E+00
     1.886E+00    1.883E+00    1.879E+00    1.875E+00    1.871E+00    1.868E+00    1.864E+00    1.860E+00    1.856E+00    1.853E+00
     1.849E+00    1.845E+00    1.841E+00    1.837E+00    1.834E+00    1.830E+00    1.826E+00    1.822E+00    1.818E+00    1.814E+00
     1.811E+00    1.807E+00    1.803E+00    1.799E+00    1.795E+00    1.791E+00    1.787E+00    1.783E+00    1.780E+00    1.776E+00
     1.772E+00    1.768E+00    1.764E+00    1.760E+00    1.756E+00    1.752E+00    1.748E+00    1.744E+00    1.740E+00    1.736E+00
     1.732E+00    1.728E+00    1.724E+00    1.720E+00    1.716E+00    1.712E+00    1.708E+00    1.704E+00    1.700E+00    1.696E+00
     1.692E+00    1.688E+00    1.684E+00    1.680E+00    1.676E+00    1.672E+00    1.668E+00    1.664E+00    1.660E+00    1.656E+00
     1.652E+00    1.648E+00    1.643E+00    1.639E+00    1.635E+00    1.631E+00    1.627E+00    1.623E+00    1.619E+00    1.615E+00
     1.611E+00    1.607E+00    1.603E+00    1.599E+00    1.594E+00    1.590E+00    1.586E+00    1.582E+00    1.578E+00    1.574E+00
     1.570E+00    1.566E+00    1.562E+00    1.558E+00    1.553E+00    1.549E+00    1.545E+00    1.541E+00
 Asp      Conc. = 1.06E+01
