 LCModel (Version 6.3-1L) Copyright: S.W. Provencher.          Ref.: Magn. Reson. Med. 30:672-679 (1993).                
 Slice#1 Row#10 Col#6  PD_05_press_1_raw_act
 36 lines in following concentration table = NCONC+1
    Conc.  %SD /Cr+PCr  Metabolite                                         
  201.993  40%   0.256 Ala                                                 
    0.000 999%   0.000 Asp                                                 
    0.000 999%   0.000 Cr                                                  
  790.497   6%   1.000 PCr                                                 
    6.608 999% 8.4E-03 GABA                                                
   66.971 157% 8.5E-02 Glc                                                 
  644.116  26%   0.815 Gln                                                 
 1.41E+03  14%   1.783 Glu                                                 
  332.258   5%   0.420 GPC                                                 
    0.000 999%   0.000 PCh                                                 
  260.143  21%   0.329 GSH                                                 
  816.010  24%   1.032 Ins                                                 
    0.000 999%   0.000 Lac                                                 
 1.73E+03   6%   2.183 NAA                                                 
  363.751  26%   0.460 NAAG                                                
   85.704  24%   0.108 Scyllo                                              
  197.556  75%   0.250 Tau                                                 
  142.459  53%   0.180 -CrCH2                                              
  332.258   5%   0.420 GPC+PCh                                             
 2.09E+03   3%   2.643 NAA+NAAG                                            
  790.497   6%   1.000 Cr+PCr                                              
 2.05E+03  14%   2.597 Glu+Gln                                             
 1.07E+03  27%   1.350 Lip13a                                              
    0.000 999%   0.000 Lip13b                                              
   50.916 271% 6.4E-02 Lip09                                               
  841.082  21%   1.064 MM09                                                
  194.164  48%   0.246 Lip20                                               
 1.60E+03  17%   2.023 MM20                                                
  224.852  37%   0.284 MM12                                                
  961.216  26%   1.216 MM14                                                
  586.080  26%   0.741 MM17                                                
 1.07E+03  27%   1.350 Lip13a+Lip13b                                       
 2.25E+03  13%   2.851 MM14+Lip13a+Lip13b+MM12                             
  891.998  18%   1.128 MM09+Lip09                                          
 1.79E+03  15%   2.268 MM20+Lip20                                          
   6 lines in following misc. output table
  FWHM = 0.038 ppm    S/N =  13                                            
  Data shift = 0.015 ppm                                                   
  Ph: -37 deg     -11.7 deg/ppm                                            
  alphaB,S = 5.5E-01,   9.9E+01                                            
   14 spline knots.   Ns = 7(1)                                            
  ( 9) 2 infls.   ( 5) 1 extrs.                                            
  498 points on ppm-axis = NY
      4.000000     3.992357     3.984714     3.977070     3.969427     3.961784     3.954141     3.946497     3.938854     3.931211
      3.923568     3.915925     3.908281     3.900638     3.892995     3.885352     3.877708     3.870065     3.862422     3.854779
      3.847136     3.839492     3.831849     3.824206     3.816563     3.808919     3.801276     3.793633     3.785990     3.778347
      3.770703     3.763060     3.755417     3.747774     3.740130     3.732487     3.724844     3.717201     3.709558     3.701914
      3.694271     3.686628     3.678985     3.671341     3.663698     3.656055     3.648412     3.640769     3.633125     3.625482
      3.617839     3.610196     3.602552     3.594909     3.587266     3.579623     3.571980     3.564336     3.556693     3.549050
      3.541407     3.533763     3.526120     3.518477     3.510834     3.503191     3.495547     3.487904     3.480261     3.472618
      3.464974     3.457331     3.449688     3.442045     3.434402     3.426758     3.419115     3.411472     3.403829     3.396185
      3.388542     3.380899     3.373256     3.365613     3.357969     3.350326     3.342683     3.335040     3.327396     3.319753
      3.312110     3.304467     3.296824     3.289180     3.281537     3.273894     3.266251     3.258607     3.250964     3.243321
      3.235678     3.228034     3.220391     3.212748     3.205105     3.197462     3.189818     3.182175     3.174532     3.166889
      3.159245     3.151602     3.143959     3.136316     3.128673     3.121029     3.113386     3.105743     3.098100     3.090456
      3.082813     3.075170     3.067527     3.059884     3.052240     3.044597     3.036954     3.029311     3.021667     3.014024
      3.006381     2.998738     2.991095     2.983451     2.975808     2.968165     2.960522     2.952878     2.945235     2.937592
      2.929949     2.922306     2.914662     2.907019     2.899376     2.891733     2.884089     2.876446     2.868803     2.861160
      2.853517     2.845873     2.838230     2.830587     2.822944     2.815300     2.807657     2.800014     2.792371     2.784728
      2.777084     2.769441     2.761798     2.754155     2.746511     2.738868     2.731225     2.723582     2.715939     2.708295
      2.700652     2.693009     2.685366     2.677722     2.670079     2.662436     2.654793     2.647150     2.639506     2.631863
      2.624220     2.616577     2.608933     2.601290     2.593647     2.586004     2.578361     2.570717     2.563074     2.555431
      2.547788     2.540144     2.532501     2.524858     2.517215     2.509572     2.501928     2.494285     2.486642     2.478999
      2.471355     2.463712     2.456069     2.448426     2.440783     2.433139     2.425496     2.417853     2.410210     2.402566
      2.394923     2.387280     2.379637     2.371994     2.364350     2.356707     2.349064     2.341421     2.333777     2.326134
      2.318491     2.310848     2.303205     2.295561     2.287918     2.280275     2.272632     2.264988     2.257345     2.249702
      2.242059     2.234416     2.226772     2.219129     2.211486     2.203843     2.196199     2.188556     2.180913     2.173270
      2.165627     2.157983     2.150340     2.142697     2.135054     2.127410     2.119767     2.112124     2.104481     2.096838
      2.089194     2.081551     2.073908     2.066265     2.058621     2.050978     2.043335     2.035692     2.028049     2.020405
      2.012762     2.005119     1.997476     1.989833     1.982190     1.974546     1.966903     1.959260     1.951617     1.943974
      1.936331     1.928688     1.921045     1.913402     1.905759     1.898115     1.890472     1.882829     1.875186     1.867543
      1.859900     1.852257     1.844614     1.836971     1.829327     1.821684     1.814041     1.806398     1.798755     1.791112
      1.783469     1.775826     1.768183     1.760540     1.752896     1.745253     1.737610     1.729967     1.722324     1.714681
      1.707038     1.699395     1.691752     1.684108     1.676465     1.668822     1.661179     1.653536     1.645893     1.638250
      1.630607     1.622964     1.615321     1.607677     1.600034     1.592391     1.584748     1.577105     1.569462     1.561819
      1.554176     1.546533     1.538890     1.531246     1.523603     1.515960     1.508317     1.500674     1.493031     1.485388
      1.477745     1.470102     1.462458     1.454815     1.447172     1.439529     1.431886     1.424243     1.416600     1.408957
      1.401314     1.393671     1.386027     1.378384     1.370741     1.363098     1.355455     1.347812     1.340169     1.332526
      1.324883     1.317240     1.309596     1.301953     1.294310     1.286667     1.279024     1.271381     1.263738     1.256095
      1.248452     1.240808     1.233165     1.225522     1.217879     1.210236     1.202593     1.194950     1.187307     1.179664
      1.172021     1.164377     1.156734     1.149091     1.141448     1.133805     1.126162     1.118519     1.110876     1.103233
      1.095590     1.087946     1.080303     1.072660     1.065017     1.057374     1.049731     1.042088     1.034445     1.026802
      1.019158     1.011515     1.003872     0.996229     0.988586     0.980943     0.973300     0.965657     0.958014     0.950371
      0.942727     0.935084     0.927441     0.919798     0.912155     0.904512     0.896869     0.889226     0.881583     0.873940
      0.866296     0.858653     0.851010     0.843367     0.835724     0.828081     0.820438     0.812795     0.805152     0.797508
      0.789865     0.782222     0.774579     0.766936     0.759293     0.751650     0.744007     0.736364     0.728721     0.721077
      0.713434     0.705791     0.698148     0.690505     0.682862     0.675219     0.667576     0.659933     0.652290     0.644646
      0.637003     0.629360     0.621717     0.614074     0.606431     0.598788     0.591145     0.583502     0.575858     0.568215
      0.560572     0.552929     0.545286     0.537643     0.530000     0.522357     0.514714     0.507071     0.499427     0.491784
      0.484141     0.476498     0.468855     0.461212     0.453569     0.445925     0.438282     0.430639     0.422996     0.415353
      0.407710     0.400067     0.392424     0.384780     0.377137     0.369494     0.361851     0.354208     0.346565     0.338922
      0.331278     0.323635     0.315992     0.308349     0.300706     0.293063     0.285420     0.277777     0.270133     0.262490
      0.254847     0.247204     0.239561     0.231918     0.224275     0.216631     0.208988     0.201345
 NY phased data points follow
  -1.60495E+01 -1.26491E+01 -1.50885E+01 -1.38525E+01 -8.98663E+00 -1.28813E+01 -8.53640E+00 -2.28873E+00  8.02502E-01  3.99531E+00
   5.05394E+00  7.02214E-01 -6.32912E-01 -1.07340E+00 -4.69100E+00 -2.72268E+00 -1.41060E+01 -1.12844E+01 -1.36571E+01 -1.01777E+01
  -1.05006E+01 -1.13254E+01 -1.12324E+01 -7.85720E+00 -1.05006E+01 -5.17919E+00 -1.27659E+01 -6.37141E+00 -5.75769E+00 -5.66911E+00
  -5.44205E+00 -4.66670E+00 -4.28249E+00 -2.31561E+00 -8.47120E+00 -6.02436E+00 -6.39898E+00 -7.35085E+00 -4.08291E+00 -3.92996E+00
  -4.02448E+00 -8.35854E+00 -7.42125E+00 -6.65867E+00 -3.44770E+00 -5.03926E+00 -3.83123E-01 -1.68579E+00 -1.64560E+00 -9.16853E-02
  -5.62537E+00 -4.94641E+00 -8.05823E+00 -5.28718E+00 -5.74976E+00 -9.41470E+00 -3.73236E+00 -9.27766E+00 -5.17033E+00 -3.53811E+00
  -6.88256E+00 -4.84347E+00 -7.94290E+00 -8.87637E+00 -7.99324E+00 -1.05038E+01 -7.55860E+00 -8.82580E+00 -4.95137E+00 -6.80957E+00
  -5.77600E+00 -8.41116E+00 -3.39764E+00 -8.98400E+00 -4.50202E+00 -6.68642E+00 -7.50489E+00 -5.77987E+00 -8.18592E+00 -6.86041E+00
  -7.07507E+00 -6.53902E+00 -6.65318E+00 -6.59271E+00 -8.20832E+00 -4.16952E+00 -1.93226E+00 -2.12723E+00 -2.89010E+00 -6.97527E+00
  -2.18220E+00 -2.62488E+00 -2.96457E+00 -2.67814E+00 -2.81867E+00 -3.05149E+00 -1.96437E+00 -3.04108E+00 -8.11198E-01  4.32952E+00
   1.56397E+01  2.19275E+01  2.79215E+01  2.73692E+01  2.10278E+01  1.42636E+01  1.31298E+01  8.46149E+00  3.06147E+00 -3.04512E+00
  -3.57402E+00 -1.97319E+00 -3.68916E+00 -4.97324E+00 -1.57595E-02 -1.92262E+00 -1.37412E+00  1.76510E+00 -1.90796E+00  5.97877E-01
  -3.54487E+00 -1.98430E+00 -2.53523E+00  1.55356E+00  5.15353E+00  1.16599E+01  2.20487E+01  2.50036E+01  2.34887E+01  1.89382E+01
   1.15933E+01  1.21477E+01  5.97597E+00  4.98810E-01 -2.58611E-01 -8.91952E-01 -6.09644E+00 -3.81777E+00 -3.81132E+00 -2.97152E+00
  -4.99220E+00 -1.97963E+00 -3.90394E+00 -4.92254E+00 -5.53098E+00 -3.94140E+00 -4.82413E+00 -7.98774E+00 -6.41334E+00 -5.03285E+00
  -5.46140E+00 -2.74726E+00 -7.05603E+00 -4.74323E+00 -5.78467E+00 -2.69051E+00 -3.27513E+00 -3.24972E+00 -1.96442E+00 -4.61837E+00
  -6.66670E+00 -6.10489E+00 -4.19903E+00 -3.56888E+00 -3.39760E+00 -3.02305E+00 -1.16208E+00 -9.07837E+00 -1.07176E+01 -6.14498E+00
  -7.89656E+00 -8.28059E+00 -9.19654E+00 -1.59097E+01 -1.17902E+01 -1.65222E+01 -1.47588E+01 -1.56593E+01 -1.31715E+01 -8.56508E+00
  -1.31759E+01 -8.00924E+00 -7.05614E+00 -5.93123E+00 -6.95899E+00 -7.16641E+00 -9.52802E+00 -2.78133E+00  4.83140E-01 -7.20020E+00
  -4.89877E+00 -2.60996E+00 -4.33466E+00 -4.14247E+00 -4.92106E+00 -4.60258E+00 -6.32063E+00 -7.64010E+00 -6.68413E+00 -7.84125E+00
  -4.65997E+00 -6.46023E+00 -1.11818E+00  1.96699E-02  1.32607E+00 -4.46994E-02 -4.07089E+00 -2.08487E+00 -4.05920E+00 -3.04498E+00
  -5.14937E+00 -5.11348E+00 -8.97643E-01  2.36379E+00  5.19605E+00  9.93338E+00  1.17322E+01  1.04660E+01  7.69352E+00  2.12867E+00
  -2.61716E+00 -3.05378E+00 -6.27858E+00 -4.18085E+00 -2.22185E+00 -1.61366E+00  5.45991E+00  3.62414E+00  3.53471E+00  4.81202E+00
   4.85090E+00  3.36121E+00  5.68326E+00  2.67759E+00  4.30320E+00  3.43184E+00  5.44690E+00  4.89571E+00  7.41633E+00  5.00488E+00
   4.83810E+00 -2.47566E+00 -2.75530E+00  1.18699E+00  1.58291E+00  2.93312E+00  3.31060E+00  8.99785E+00  6.92237E+00  8.78567E+00
   7.95520E+00  5.12237E+00  9.09546E+00  1.73417E+01  2.34917E+01  3.14155E+01  3.01934E+01  3.60142E+01  4.75982E+01  6.66124E+01
   7.91315E+01  6.95035E+01  5.62816E+01  4.62187E+01  3.70950E+01  2.54338E+01  2.02125E+01  1.66812E+01  6.93553E+00  3.50161E+00
   6.81079E+00  3.26920E+00  4.73199E+00  6.49769E+00  2.25928E+00  1.65589E+00  4.00032E+00  1.78432E+00  1.17275E+00  1.81371E+00
   1.44357E+00  6.41060E+00  3.09241E+00  3.82660E+00 -4.48936E-01 -4.41621E-01 -3.75688E-01 -1.27186E+00  3.16009E+00 -5.05581E-01
   5.87521E+00  3.01771E+00  1.50269E+00 -2.98383E-02 -1.70320E-01  7.24446E-01  1.74703E+00  4.82787E-03  1.46574E+00  3.58053E+00
   1.34943E+00  2.36269E+00  4.19920E+00 -5.24732E-01  3.88034E+00  1.24560E+00  2.89876E+00  1.67529E+00  3.21836E+00  2.70608E+00
   2.48002E+00  6.64526E+00  3.23905E+00  5.18012E+00  8.40243E+00  5.79687E+00  4.37053E+00  9.09741E+00  4.65506E+00  5.93288E+00
   4.35361E+00  3.18323E+00  4.96611E+00  2.67177E+00  4.61980E+00  4.83523E+00  7.19993E+00  5.67956E+00  2.73759E+00  2.55697E+00
   2.97319E+00  2.96447E+00  2.99257E+00  1.96427E+00  1.47212E-01  5.36827E+00  5.91603E+00  4.17348E+00  4.02151E+00  7.60565E+00
   7.78148E+00  6.83190E+00  8.09608E+00  7.02247E+00  9.38339E+00  1.00011E+01  1.06642E+01  1.21633E+01  1.35778E+01  1.15667E+01
   1.17795E+01  8.21627E+00  1.11728E+01  8.55816E+00  1.21929E+01  9.41448E+00  9.15183E+00  3.77431E+00  2.70502E+00  4.37833E+00
   1.43449E+00  1.12370E+00 -5.04630E-03  3.14581E+00  3.22240E+00  3.01582E+00  3.57616E+00  4.35174E-01  2.83861E+00  4.36023E+00
  -8.45660E-01  9.81656E-01  5.41532E-01 -8.76607E-01 -5.36607E-01 -6.72244E-01 -4.28801E-01 -2.08604E+00 -5.38835E+00 -2.12856E+00
  -4.61725E+00 -5.03120E+00 -3.74209E+00 -4.73856E+00 -8.51534E+00 -2.19808E+00 -6.58477E+00 -5.13036E+00 -5.24946E+00 -4.14630E+00
  -3.90369E+00 -3.61527E-01  1.85510E+00  7.44598E-01 -9.34441E-01 -1.27896E+00 -1.03914E+00  4.94091E+00  1.94649E+00 -1.22158E+00
   1.90189E-01  9.64468E-01  5.13285E+00  7.98170E-01  4.83789E+00  1.78030E+00  2.96757E+00  5.52500E+00  4.25804E+00  3.65296E+00
   3.90578E+00  3.58664E+00  6.08261E+00  5.39341E+00  1.03304E+00  2.93048E+00  1.44734E+00 -6.86127E-01  2.01094E+00  3.80469E+00
   1.59526E+00  2.39606E+00  2.02379E+00  1.83209E+00  2.06588E+00  8.99964E-01 -1.24966E+00 -8.02734E-01 -8.78186E-02 -4.47290E-01
  -3.12139E-01 -2.48084E+00  1.66010E+00  1.54555E+00  7.57503E-01 -1.27581E+00  3.72517E+00 -1.62882E+00 -2.53735E+00 -1.79290E+00
  -3.20462E+00  1.58982E-01 -7.10025E-01  1.82026E+00  2.33393E+00 -1.33454E-01 -2.13489E+00 -1.86221E+00 -6.32504E-03  3.51549E-01
  -2.48324E+00  2.47696E-01 -2.49736E+00 -2.19697E+00 -2.55427E-01  1.11494E+00 -2.15305E-01 -2.47998E+00  9.24866E-01 -4.64733E+00
   5.25360E-01 -1.77145E+00 -1.73909E+00  5.93211E-01  1.92721E+00  6.74168E-01 -3.90339E+00  1.00514E+00 -3.04223E+00 -2.90734E+00
  -5.41524E-01  2.62916E+00  2.19413E+00  1.42435E+00 -9.23518E-01 -1.81994E+00 -1.46130E+00 -2.05003E+00 -1.72108E+00  2.02378E-01
   3.07821E+00  1.33211E+00 -1.55114E-01  1.70080E+00  1.42379E+00  1.79978E+00 -5.60889E-01 -1.60407E+00 -3.95101E+00  9.80652E-01
   9.25808E-01 -2.71649E+00  1.33563E+00 -7.76706E-01  7.18694E-01  1.76357E+00 -2.33016E+00 -2.51149E+00
 NY points of the fit to the data follow
  -1.30854E+01 -1.31862E+01 -1.27913E+01 -1.19045E+01 -1.10159E+01 -9.70981E+00 -7.12234E+00 -3.09385E+00  1.18395E+00  3.81058E+00
   3.78029E+00  1.80588E+00 -6.53800E-01 -2.76506E+00 -4.52867E+00 -6.13286E+00 -7.66092E+00 -8.98334E+00 -9.73971E+00 -9.86399E+00
  -9.74313E+00 -9.63136E+00 -9.49918E+00 -9.29515E+00 -9.28242E+00 -9.42610E+00 -9.33689E+00 -8.55858E+00 -7.04330E+00 -5.31304E+00
  -3.87479E+00 -2.88224E+00 -2.39704E+00 -2.54497E+00 -3.42442E+00 -4.87245E+00 -6.49332E+00 -7.98328E+00 -8.98436E+00 -9.25087E+00
  -8.91575E+00 -8.30504E+00 -7.67132E+00 -6.84554E+00 -5.51522E+00 -3.77316E+00 -2.20988E+00 -1.52052E+00 -1.96456E+00 -3.18776E+00
  -4.62747E+00 -5.89720E+00 -6.84135E+00 -7.51992E+00 -7.99532E+00 -8.22844E+00 -8.12535E+00 -7.65021E+00 -6.95914E+00 -6.35273E+00
  -6.08825E+00 -6.25189E+00 -6.68612E+00 -7.16099E+00 -7.47784E+00 -7.54801E+00 -7.46315E+00 -7.32967E+00 -7.12304E+00 -6.80385E+00
  -6.43693E+00 -6.10591E+00 -5.83810E+00 -5.61062E+00 -5.42616E+00 -5.36200E+00 -5.52041E+00 -5.89071E+00 -6.29770E+00 -6.54766E+00
  -6.48535E+00 -6.28298E+00 -6.04079E+00 -5.55315E+00 -4.65162E+00 -3.55922E+00 -2.85887E+00 -2.95330E+00 -3.65300E+00 -4.41819E+00
  -4.95243E+00 -5.31059E+00 -5.60817E+00 -5.88805E+00 -5.98276E+00 -5.21658E+00 -3.57706E+00 -2.06327E+00  3.43027E-01  5.64267E+00
   1.40340E+01  2.27212E+01  2.75859E+01  2.67380E+01  2.19689E+01  1.63506E+01  1.14338E+01  7.19068E+00  3.36845E+00 -7.24520E-02
  -2.88266E+00 -4.52414E+00 -5.05251E+00 -5.23779E+00 -5.32424E+00 -5.36172E+00 -5.37775E+00 -5.36615E+00 -5.30226E+00 -5.03600E+00
  -4.01997E+00 -2.58832E+00 -1.27411E+00  1.16459E+00  6.29068E+00  1.37760E+01  2.08250E+01  2.40743E+01  2.25798E+01  1.83869E+01
   1.39972E+01  1.02575E+01  6.81395E+00  3.32267E+00 -9.59903E-02 -2.91428E+00 -4.43643E+00 -4.78385E+00 -4.59722E+00 -4.18963E+00
  -3.79192E+00 -3.53889E+00 -3.44087E+00 -3.46432E+00 -3.56242E+00 -3.69160E+00 -3.84277E+00 -4.02139E+00 -4.20307E+00 -4.36803E+00
  -4.51378E+00 -4.66177E+00 -4.81121E+00 -4.93164E+00 -4.99885E+00 -4.95558E+00 -4.81292E+00 -4.74299E+00 -4.91684E+00 -5.40013E+00
  -5.97625E+00 -6.23010E+00 -5.99719E+00 -5.53957E+00 -5.26195E+00 -5.38984E+00 -5.84419E+00 -6.36133E+00 -6.74447E+00 -6.98061E+00
  -7.14262E+00 -7.26157E+00 -7.50352E+00 -7.97610E+00 -8.53399E+00 -8.85047E+00 -8.66998E+00 -8.15672E+00 -7.78712E+00 -7.80914E+00
  -8.03313E+00 -8.04414E+00 -7.67775E+00 -7.22115E+00 -6.95861E+00 -6.80109E+00 -6.38792E+00 -5.40888E+00 -3.99487E+00 -2.62942E+00
  -1.74869E+00 -1.51785E+00 -1.77683E+00 -2.25458E+00 -2.72624E+00 -3.07536E+00 -3.22773E+00 -2.98101E+00 -2.29465E+00 -1.32863E+00
  -2.47315E-01  8.02747E-01  1.68069E+00  2.16298E+00  2.01573E+00  9.17413E-01 -1.17320E+00 -3.68913E+00 -5.74862E+00 -6.68656E+00
  -6.52093E+00 -5.68326E+00 -4.06199E+00 -1.34039E+00  2.05617E+00  4.83298E+00  5.80723E+00  4.88631E+00  2.69698E+00 -3.06563E-01
  -3.64940E+00 -6.53928E+00 -7.96361E+00 -7.39024E+00 -5.30203E+00 -2.64663E+00 -1.67524E-01  1.72218E+00  2.89432E+00  3.41949E+00
   3.55319E+00  3.43907E+00  3.19836E+00  3.08972E+00  3.31397E+00  3.85066E+00  4.53881E+00  5.11594E+00  5.29372E+00  4.86220E+00
   3.82669E+00  2.63324E+00  1.93862E+00  2.05517E+00  2.74849E+00  3.63193E+00  4.51240E+00  5.30943E+00  6.09594E+00  7.03597E+00
   7.89043E+00  8.97757E+00  1.13027E+01  1.61915E+01  2.28454E+01  2.76469E+01  3.14432E+01  3.87332E+01  5.16030E+01  6.57546E+01
   7.33009E+01  7.01280E+01  5.94097E+01  4.71533E+01  3.66601E+01  2.79749E+01  2.03322E+01  1.35079E+01  7.85471E+00  4.35316E+00
   3.10390E+00  2.63272E+00  2.46166E+00  2.44846E+00  2.43565E+00  2.32083E+00  2.13805E+00  1.93373E+00  1.72308E+00  1.51360E+00
   1.32795E+00  1.18624E+00  1.09015E+00  1.02332E+00  9.66866E-01  9.11708E-01  8.52696E-01  7.92607E-01  7.45223E-01  7.28952E-01
   7.53881E-01  8.17754E-01  9.05146E-01  1.00338E+00  1.10763E+00  1.21721E+00  1.33124E+00  1.45321E+00  1.59171E+00  1.75409E+00
   1.94159E+00  2.14950E+00  2.36850E+00  2.59043E+00  2.80812E+00  3.01568E+00  3.20871E+00  3.38280E+00  3.53406E+00  3.66180E+00
   3.76512E+00  3.84380E+00  3.89949E+00  3.93531E+00  3.95531E+00  3.96442E+00  3.96882E+00  3.97665E+00  3.99920E+00  4.05448E+00
   4.17483E+00  4.33370E+00  4.45893E+00  4.67290E+00  5.05591E+00  5.42655E+00  5.42224E+00  4.80447E+00  3.75507E+00  2.76997E+00
   2.05424E+00  1.58727E+00  1.45283E+00  1.87192E+00  2.90821E+00  4.27886E+00  5.54214E+00  6.42281E+00  6.93437E+00  7.27911E+00
   7.56601E+00  7.81405E+00  8.02104E+00  8.18954E+00  8.36688E+00  8.62292E+00  8.91965E+00  9.20704E+00  9.45392E+00  9.63652E+00
   9.73593E+00  9.73783E+00  9.63276E+00  9.41615E+00  9.08850E+00  8.65546E+00  8.12760E+00  7.51963E+00  6.84922E+00  6.13555E+00
   5.39830E+00  4.65664E+00  3.92845E+00  3.22932E+00  2.57177E+00  1.96492E+00  1.41464E+00  9.23937E-01  4.93420E-01  1.21479E-01
  -1.95301E-01 -4.61625E-01 -6.82714E-01 -8.63788E-01 -1.00976E+00 -1.12526E+00 -1.21456E+00 -1.28133E+00 -1.32841E+00 -1.35780E+00
  -1.37082E+00 -1.36845E+00 -1.35129E+00 -1.31955E+00 -1.27283E+00 -1.21037E+00 -1.13121E+00 -1.03441E+00 -9.19003E-01 -7.83896E-01
  -6.27814E-01 -4.49606E-01 -2.48473E-01 -2.41790E-02  2.23047E-01  4.92478E-01  7.82797E-01  1.09175E+00  1.41600E+00  1.75108E+00
   2.09168E+00  2.43170E+00  2.76440E+00  3.08234E+00  3.37768E+00  3.64253E+00  3.86957E+00  4.05234E+00  4.18544E+00  4.26467E+00
   4.28736E+00  4.25264E+00  4.16161E+00  4.01722E+00  3.82397E+00  3.58756E+00  3.31476E+00  3.01313E+00  2.69079E+00  2.35580E+00
   2.01583E+00  1.67775E+00  1.34769E+00  1.03089E+00  7.31657E-01  4.53145E-01  1.97357E-01 -3.47370E-02 -2.42854E-01 -4.27294E-01
  -5.88826E-01 -7.28761E-01 -8.48762E-01 -9.50672E-01 -1.03623E+00 -1.10711E+00 -1.16487E+00 -1.21118E+00 -1.24757E+00 -1.27543E+00
  -1.29582E+00 -1.30965E+00 -1.31775E+00 -1.32100E+00 -1.32016E+00 -1.31581E+00 -1.30830E+00 -1.29799E+00 -1.28522E+00 -1.27046E+00
  -1.25401E+00 -1.23605E+00 -1.21666E+00 -1.19598E+00 -1.17419E+00 -1.15154E+00 -1.12812E+00 -1.10396E+00 -1.07901E+00 -1.05337E+00
  -1.02719E+00 -1.00062E+00 -9.73637E-01 -9.46195E-01 -9.18256E-01 -8.89937E-01 -8.61357E-01 -8.32591E-01 -8.03562E-01 -7.74210E-01
  -7.44529E-01 -7.14652E-01 -6.84659E-01 -6.54555E-01 -6.24227E-01 -5.93641E-01 -5.62838E-01 -5.31953E-01 -5.01017E-01 -4.69985E-01
  -4.38742E-01 -4.07293E-01 -3.75713E-01 -3.44113E-01 -3.12466E-01 -2.80692E-01 -2.48698E-01 -2.16539E-01 -1.84298E-01 -1.52048E-01
  -1.19705E-01 -8.71804E-02 -5.44192E-02 -2.15115E-02  1.14755E-02  4.45300E-02  7.77797E-02  1.11306E-01
 NY background values follow
    -1.528E+01   -1.519E+01   -1.510E+01   -1.501E+01   -1.492E+01   -1.483E+01   -1.473E+01   -1.464E+01   -1.455E+01   -1.446E+01
    -1.437E+01   -1.428E+01   -1.419E+01   -1.409E+01   -1.400E+01   -1.391E+01   -1.382E+01   -1.373E+01   -1.364E+01   -1.355E+01
    -1.346E+01   -1.337E+01   -1.328E+01   -1.319E+01   -1.310E+01   -1.301E+01   -1.292E+01   -1.283E+01   -1.274E+01   -1.265E+01
    -1.256E+01   -1.248E+01   -1.239E+01   -1.230E+01   -1.221E+01   -1.213E+01   -1.204E+01   -1.195E+01   -1.187E+01   -1.178E+01
    -1.170E+01   -1.161E+01   -1.153E+01   -1.144E+01   -1.136E+01   -1.128E+01   -1.119E+01   -1.111E+01   -1.103E+01   -1.095E+01
    -1.087E+01   -1.079E+01   -1.071E+01   -1.063E+01   -1.055E+01   -1.047E+01   -1.039E+01   -1.031E+01   -1.024E+01   -1.016E+01
    -1.008E+01   -1.001E+01   -9.931E+00   -9.857E+00   -9.783E+00   -9.709E+00   -9.636E+00   -9.564E+00   -9.492E+00   -9.421E+00
    -9.350E+00   -9.280E+00   -9.211E+00   -9.142E+00   -9.074E+00   -9.006E+00   -8.939E+00   -8.872E+00   -8.807E+00   -8.741E+00
    -8.677E+00   -8.613E+00   -8.550E+00   -8.487E+00   -8.425E+00   -8.364E+00   -8.303E+00   -8.243E+00   -8.184E+00   -8.126E+00
    -8.068E+00   -8.011E+00   -7.954E+00   -7.899E+00   -7.844E+00   -7.789E+00   -7.736E+00   -7.682E+00   -7.630E+00   -7.578E+00
    -7.527E+00   -7.477E+00   -7.427E+00   -7.378E+00   -7.329E+00   -7.281E+00   -7.234E+00   -7.187E+00   -7.140E+00   -7.095E+00
    -7.049E+00   -7.005E+00   -6.961E+00   -6.917E+00   -6.874E+00   -6.831E+00   -6.789E+00   -6.748E+00   -6.707E+00   -6.666E+00
    -6.626E+00   -6.586E+00   -6.547E+00   -6.508E+00   -6.470E+00   -6.432E+00   -6.395E+00   -6.358E+00   -6.321E+00   -6.285E+00
    -6.249E+00   -6.213E+00   -6.178E+00   -6.143E+00   -6.109E+00   -6.075E+00   -6.041E+00   -6.008E+00   -5.974E+00   -5.942E+00
    -5.909E+00   -5.877E+00   -5.844E+00   -5.813E+00   -5.781E+00   -5.749E+00   -5.718E+00   -5.686E+00   -5.655E+00   -5.624E+00
    -5.592E+00   -5.561E+00   -5.530E+00   -5.499E+00   -5.467E+00   -5.436E+00   -5.405E+00   -5.373E+00   -5.341E+00   -5.309E+00
    -5.277E+00   -5.245E+00   -5.213E+00   -5.180E+00   -5.147E+00   -5.114E+00   -5.080E+00   -5.047E+00   -5.012E+00   -4.978E+00
    -4.943E+00   -4.907E+00   -4.871E+00   -4.835E+00   -4.798E+00   -4.761E+00   -4.723E+00   -4.685E+00   -4.646E+00   -4.607E+00
    -4.566E+00   -4.526E+00   -4.484E+00   -4.442E+00   -4.400E+00   -4.357E+00   -4.313E+00   -4.269E+00   -4.224E+00   -4.179E+00
    -4.134E+00   -4.088E+00   -4.042E+00   -3.995E+00   -3.948E+00   -3.901E+00   -3.854E+00   -3.807E+00   -3.759E+00   -3.711E+00
    -3.663E+00   -3.615E+00   -3.567E+00   -3.519E+00   -3.471E+00   -3.423E+00   -3.375E+00   -3.327E+00   -3.279E+00   -3.232E+00
    -3.184E+00   -3.137E+00   -3.090E+00   -3.043E+00   -2.997E+00   -2.951E+00   -2.905E+00   -2.860E+00   -2.815E+00   -2.770E+00
    -2.726E+00   -2.683E+00   -2.640E+00   -2.597E+00   -2.555E+00   -2.514E+00   -2.474E+00   -2.434E+00   -2.394E+00   -2.356E+00
    -2.318E+00   -2.281E+00   -2.244E+00   -2.208E+00   -2.173E+00   -2.139E+00   -2.105E+00   -2.072E+00   -2.039E+00   -2.007E+00
    -1.976E+00   -1.946E+00   -1.916E+00   -1.887E+00   -1.859E+00   -1.831E+00   -1.805E+00   -1.778E+00   -1.753E+00   -1.728E+00
    -1.704E+00   -1.681E+00   -1.658E+00   -1.636E+00   -1.615E+00   -1.594E+00   -1.574E+00   -1.555E+00   -1.537E+00   -1.519E+00
    -1.502E+00   -1.486E+00   -1.470E+00   -1.456E+00   -1.441E+00   -1.428E+00   -1.415E+00   -1.404E+00   -1.392E+00   -1.382E+00
    -1.372E+00   -1.363E+00   -1.355E+00   -1.347E+00   -1.341E+00   -1.334E+00   -1.329E+00   -1.324E+00   -1.320E+00   -1.317E+00
    -1.314E+00   -1.312E+00   -1.311E+00   -1.310E+00   -1.311E+00   -1.311E+00   -1.313E+00   -1.314E+00   -1.317E+00   -1.320E+00
    -1.324E+00   -1.329E+00   -1.334E+00   -1.339E+00   -1.346E+00   -1.352E+00   -1.360E+00   -1.368E+00   -1.377E+00   -1.386E+00
    -1.395E+00   -1.406E+00   -1.416E+00   -1.428E+00   -1.440E+00   -1.452E+00   -1.465E+00   -1.478E+00   -1.492E+00   -1.507E+00
    -1.522E+00   -1.537E+00   -1.553E+00   -1.569E+00   -1.586E+00   -1.603E+00   -1.621E+00   -1.639E+00   -1.658E+00   -1.677E+00
    -1.696E+00   -1.716E+00   -1.736E+00   -1.757E+00   -1.778E+00   -1.799E+00   -1.820E+00   -1.841E+00   -1.863E+00   -1.885E+00
    -1.907E+00   -1.929E+00   -1.951E+00   -1.974E+00   -1.996E+00   -2.018E+00   -2.041E+00   -2.063E+00   -2.086E+00   -2.108E+00
    -2.130E+00   -2.153E+00   -2.175E+00   -2.197E+00   -2.218E+00   -2.240E+00   -2.261E+00   -2.282E+00   -2.303E+00   -2.324E+00
    -2.344E+00   -2.364E+00   -2.383E+00   -2.403E+00   -2.421E+00   -2.440E+00   -2.458E+00   -2.475E+00   -2.492E+00   -2.508E+00
    -2.524E+00   -2.540E+00   -2.554E+00   -2.568E+00   -2.582E+00   -2.595E+00   -2.607E+00   -2.619E+00   -2.630E+00   -2.641E+00
    -2.650E+00   -2.660E+00   -2.668E+00   -2.676E+00   -2.683E+00   -2.690E+00   -2.696E+00   -2.701E+00   -2.706E+00   -2.710E+00
    -2.713E+00   -2.716E+00   -2.718E+00   -2.719E+00   -2.719E+00   -2.719E+00   -2.718E+00   -2.717E+00   -2.714E+00   -2.711E+00
    -2.707E+00   -2.703E+00   -2.698E+00   -2.692E+00   -2.685E+00   -2.678E+00   -2.669E+00   -2.660E+00   -2.651E+00   -2.640E+00
    -2.629E+00   -2.617E+00   -2.604E+00   -2.591E+00   -2.576E+00   -2.561E+00   -2.545E+00   -2.528E+00   -2.511E+00   -2.492E+00
    -2.473E+00   -2.453E+00   -2.433E+00   -2.411E+00   -2.390E+00   -2.367E+00   -2.344E+00   -2.320E+00   -2.295E+00   -2.270E+00
    -2.244E+00   -2.218E+00   -2.191E+00   -2.164E+00   -2.136E+00   -2.108E+00   -2.079E+00   -2.050E+00   -2.020E+00   -1.990E+00
    -1.960E+00   -1.929E+00   -1.898E+00   -1.867E+00   -1.835E+00   -1.803E+00   -1.771E+00   -1.738E+00   -1.705E+00   -1.672E+00
    -1.639E+00   -1.606E+00   -1.572E+00   -1.538E+00   -1.505E+00   -1.471E+00   -1.437E+00   -1.403E+00   -1.369E+00   -1.334E+00
    -1.300E+00   -1.266E+00   -1.232E+00   -1.198E+00   -1.164E+00   -1.130E+00   -1.096E+00   -1.062E+00   -1.028E+00   -9.946E-01
    -9.608E-01   -9.271E-01   -8.934E-01   -8.598E-01   -8.261E-01   -7.926E-01   -7.590E-01   -7.255E-01   -6.921E-01   -6.586E-01
    -6.252E-01   -5.919E-01   -5.586E-01   -5.253E-01   -4.920E-01   -4.588E-01   -4.256E-01   -3.924E-01   -3.592E-01   -3.261E-01
    -2.930E-01   -2.600E-01   -2.269E-01   -1.939E-01   -1.610E-01   -1.280E-01   -9.507E-02   -6.217E-02   -2.929E-02    3.569E-03
     3.640E-02    6.922E-02    1.020E-01    1.348E-01    1.675E-01    2.003E-01    2.330E-01    2.657E-01
 Ala      Conc. = 2.02E+02
