 LCModel (Version 6.3-1L) Copyright: S.W. Provencher.          Ref.: Magn. Reson. Med. 30:672-679 (1993).                
 Slice#3 Row#5 Col#9  PD_05_press_1_raw_act
 36 lines in following concentration table = NCONC+1
    Conc.  %SD /Cr+PCr  Metabolite                                         
  133.720  63% 8.0E-02 Ala                                                 
    0.000 999%   0.000 Asp                                                 
  995.760  18%   0.594 Cr                                                  
  680.389  27%   0.406 PCr                                                 
    0.000 999%   0.000 GABA                                                
    0.000 999%   0.000 Glc                                                 
  584.260  31%   0.349 Gln                                                 
 1.64E+03  13%   0.976 Glu                                                 
  507.882   4%   0.303 GPC                                                 
    0.000 999%   0.000 PCh                                                 
  554.920  11%   0.331 GSH                                                 
 1.01E+03  22%   0.603 Ins                                                 
    0.000 999%   0.000 Lac                                                 
 2.00E+03   5%   1.191 NAA                                                 
  315.912  36%   0.188 NAAG                                                
   16.610 136% 9.9E-03 Scyllo                                              
    0.000 999%   0.000 Tau                                                 
  150.332  64% 9.0E-02 -CrCH2                                              
  507.882   4%   0.303 GPC+PCh                                             
 2.31E+03   3%   1.380 NAA+NAAG                                            
 1.68E+03   3%   1.000 Cr+PCr                                              
 2.22E+03  13%   1.325 Glu+Gln                                             
    0.000 999%   0.000 Lip13a                                              
   92.723  77% 5.5E-02 Lip13b                                              
    0.000 999%   0.000 Lip09                                               
 1.05E+03  16%   0.629 MM09                                                
   17.458 185% 1.0E-02 Lip20                                               
 2.25E+03  13%   1.344 MM20                                                
  310.712  30%   0.185 MM12                                                
  409.243  54%   0.244 MM14                                                
  647.173  26%   0.386 MM17                                                
   92.723  77% 5.5E-02 Lip13a+Lip13b                                       
  812.678  34%   0.485 MM14+Lip13a+Lip13b+MM12                             
 1.05E+03  16%   0.629 MM09+Lip09                                          
 2.27E+03  13%   1.354 MM20+Lip20                                          
   6 lines in following misc. output table
  FWHM = 0.046 ppm    S/N =  14                                            
  Data shift = 0.000 ppm                                                   
  Ph:  20 deg      -0.2 deg/ppm                                            
  alphaB,S = 6.5E-01,   1.0E+02                                            
   14 spline knots.   Ns = 7(1)                                            
  ( 9) 3 infls.   ( 5) 1 extrs.                                            
  498 points on ppm-axis = NY
      4.000000     3.992357     3.984714     3.977070     3.969427     3.961784     3.954141     3.946497     3.938854     3.931211
      3.923568     3.915925     3.908281     3.900638     3.892995     3.885352     3.877708     3.870065     3.862422     3.854779
      3.847136     3.839492     3.831849     3.824206     3.816563     3.808919     3.801276     3.793633     3.785990     3.778347
      3.770703     3.763060     3.755417     3.747774     3.740130     3.732487     3.724844     3.717201     3.709558     3.701914
      3.694271     3.686628     3.678985     3.671341     3.663698     3.656055     3.648412     3.640769     3.633125     3.625482
      3.617839     3.610196     3.602552     3.594909     3.587266     3.579623     3.571980     3.564336     3.556693     3.549050
      3.541407     3.533763     3.526120     3.518477     3.510834     3.503191     3.495547     3.487904     3.480261     3.472618
      3.464974     3.457331     3.449688     3.442045     3.434402     3.426758     3.419115     3.411472     3.403829     3.396185
      3.388542     3.380899     3.373256     3.365613     3.357969     3.350326     3.342683     3.335040     3.327396     3.319753
      3.312110     3.304467     3.296824     3.289180     3.281537     3.273894     3.266251     3.258607     3.250964     3.243321
      3.235678     3.228034     3.220391     3.212748     3.205105     3.197462     3.189818     3.182175     3.174532     3.166889
      3.159245     3.151602     3.143959     3.136316     3.128673     3.121029     3.113386     3.105743     3.098100     3.090456
      3.082813     3.075170     3.067527     3.059884     3.052240     3.044597     3.036954     3.029311     3.021667     3.014024
      3.006381     2.998738     2.991095     2.983451     2.975808     2.968165     2.960522     2.952878     2.945235     2.937592
      2.929949     2.922306     2.914662     2.907019     2.899376     2.891733     2.884089     2.876446     2.868803     2.861160
      2.853517     2.845873     2.838230     2.830587     2.822944     2.815300     2.807657     2.800014     2.792371     2.784728
      2.777084     2.769441     2.761798     2.754155     2.746511     2.738868     2.731225     2.723582     2.715939     2.708295
      2.700652     2.693009     2.685366     2.677722     2.670079     2.662436     2.654793     2.647150     2.639506     2.631863
      2.624220     2.616577     2.608933     2.601290     2.593647     2.586004     2.578361     2.570717     2.563074     2.555431
      2.547788     2.540144     2.532501     2.524858     2.517215     2.509572     2.501928     2.494285     2.486642     2.478999
      2.471355     2.463712     2.456069     2.448426     2.440783     2.433139     2.425496     2.417853     2.410210     2.402566
      2.394923     2.387280     2.379637     2.371994     2.364350     2.356707     2.349064     2.341421     2.333777     2.326134
      2.318491     2.310848     2.303205     2.295561     2.287918     2.280275     2.272632     2.264988     2.257345     2.249702
      2.242059     2.234416     2.226772     2.219129     2.211486     2.203843     2.196199     2.188556     2.180913     2.173270
      2.165627     2.157983     2.150340     2.142697     2.135054     2.127410     2.119767     2.112124     2.104481     2.096838
      2.089194     2.081551     2.073908     2.066265     2.058621     2.050978     2.043335     2.035692     2.028049     2.020405
      2.012762     2.005119     1.997476     1.989833     1.982190     1.974546     1.966903     1.959260     1.951617     1.943974
      1.936331     1.928688     1.921045     1.913402     1.905759     1.898115     1.890472     1.882829     1.875186     1.867543
      1.859900     1.852257     1.844614     1.836971     1.829327     1.821684     1.814041     1.806398     1.798755     1.791112
      1.783469     1.775826     1.768183     1.760540     1.752896     1.745253     1.737610     1.729967     1.722324     1.714681
      1.707038     1.699395     1.691752     1.684108     1.676465     1.668822     1.661179     1.653536     1.645893     1.638250
      1.630607     1.622964     1.615321     1.607677     1.600034     1.592391     1.584748     1.577105     1.569462     1.561819
      1.554176     1.546533     1.538890     1.531246     1.523603     1.515960     1.508317     1.500674     1.493031     1.485388
      1.477745     1.470102     1.462458     1.454815     1.447172     1.439529     1.431886     1.424243     1.416600     1.408957
      1.401314     1.393671     1.386027     1.378384     1.370741     1.363098     1.355455     1.347812     1.340169     1.332526
      1.324883     1.317240     1.309596     1.301953     1.294310     1.286667     1.279024     1.271381     1.263738     1.256095
      1.248452     1.240808     1.233165     1.225522     1.217879     1.210236     1.202593     1.194950     1.187307     1.179664
      1.172021     1.164377     1.156734     1.149091     1.141448     1.133805     1.126162     1.118519     1.110876     1.103233
      1.095590     1.087946     1.080303     1.072660     1.065017     1.057374     1.049731     1.042088     1.034445     1.026802
      1.019158     1.011515     1.003872     0.996229     0.988586     0.980943     0.973300     0.965657     0.958014     0.950371
      0.942727     0.935084     0.927441     0.919798     0.912155     0.904512     0.896869     0.889226     0.881583     0.873940
      0.866296     0.858653     0.851010     0.843367     0.835724     0.828081     0.820438     0.812795     0.805152     0.797508
      0.789865     0.782222     0.774579     0.766936     0.759293     0.751650     0.744007     0.736364     0.728721     0.721077
      0.713434     0.705791     0.698148     0.690505     0.682862     0.675219     0.667576     0.659933     0.652290     0.644646
      0.637003     0.629360     0.621717     0.614074     0.606431     0.598788     0.591145     0.583502     0.575858     0.568215
      0.560572     0.552929     0.545286     0.537643     0.530000     0.522357     0.514714     0.507071     0.499427     0.491784
      0.484141     0.476498     0.468855     0.461212     0.453569     0.445925     0.438282     0.430639     0.422996     0.415353
      0.407710     0.400067     0.392424     0.384780     0.377137     0.369494     0.361851     0.354208     0.346565     0.338922
      0.331278     0.323635     0.315992     0.308349     0.300706     0.293063     0.285420     0.277777     0.270133     0.262490
      0.254847     0.247204     0.239561     0.231918     0.224275     0.216631     0.208988     0.201345
 NY phased data points follow
   3.56452E+01  3.82557E+01  4.09344E+01  4.02176E+01  4.07043E+01  4.70316E+01  5.15010E+01  5.94822E+01  6.30742E+01  6.48838E+01
   6.87174E+01  6.59034E+01  6.22981E+01  5.77501E+01  5.12684E+01  4.51983E+01  4.03287E+01  4.01705E+01  3.62582E+01  3.56399E+01
   3.59445E+01  3.87936E+01  3.60944E+01  3.65355E+01  3.98494E+01  4.03164E+01  4.00608E+01  4.35481E+01  3.90087E+01  4.37962E+01
   4.23034E+01  4.30424E+01  3.70146E+01  3.91277E+01  3.70664E+01  3.23421E+01  3.44225E+01  3.44029E+01  3.58767E+01  3.44277E+01
   3.03227E+01  3.60860E+01  3.16369E+01  3.47315E+01  3.61074E+01  3.78547E+01  4.08505E+01  4.19358E+01  4.44880E+01  3.55450E+01
   3.44707E+01  3.40984E+01  2.74826E+01  2.85007E+01  2.87788E+01  2.97220E+01  2.90867E+01  2.64097E+01  2.73123E+01  2.74461E+01
   2.48815E+01  2.03822E+01  1.82933E+01  1.81133E+01  1.64393E+01  1.82938E+01  1.81409E+01  1.59679E+01  1.69403E+01  1.96255E+01
   1.60768E+01  1.83665E+01  1.73825E+01  1.81137E+01  1.68979E+01  1.58883E+01  2.02464E+01  1.76947E+01  1.56735E+01  1.53330E+01
   1.55729E+01  1.86449E+01  1.46313E+01  1.56138E+01  1.82389E+01  1.79137E+01  1.84891E+01  1.65815E+01  1.65334E+01  1.75087E+01
   1.58630E+01  1.70774E+01  1.99091E+01  2.03585E+01  2.13581E+01  2.57372E+01  2.38100E+01  2.66144E+01  2.59835E+01  3.79445E+01
   4.41830E+01  5.58714E+01  6.26184E+01  6.34328E+01  5.83345E+01  5.20315E+01  4.03954E+01  3.44891E+01  2.53459E+01  2.43004E+01
   2.48188E+01  1.56501E+01  1.65568E+01  1.87306E+01  1.73520E+01  1.70447E+01  1.73830E+01  2.14740E+01  2.21835E+01  2.63250E+01
   2.83513E+01  2.97631E+01  3.12440E+01  4.13116E+01  5.22619E+01  6.47260E+01  7.04812E+01  6.74172E+01  6.34114E+01  5.27642E+01
   4.44910E+01  3.52177E+01  2.90668E+01  2.75756E+01  1.94102E+01  1.66838E+01  1.46063E+01  1.58247E+01  1.51019E+01  1.55279E+01
   1.46516E+01  1.65935E+01  1.42521E+01  1.58340E+01  1.34450E+01  1.47071E+01  1.16588E+01  1.20529E+01  1.20156E+01  1.37346E+01
   1.22306E+01  1.01127E+01  9.04999E+00  1.27509E+01  8.31094E+00  1.02015E+01  7.58640E+00  1.23645E+01  7.40591E+00  8.59250E+00
   7.20718E+00  7.92039E+00  4.05779E+00  9.66748E+00  1.16780E+01  1.04920E+01  8.87651E+00  1.08334E+01  5.83399E+00  4.22771E+00
   5.15555E+00  6.32133E+00  1.41358E+00  1.50978E+00  1.55777E+00 -4.46025E+00  3.77959E-01  6.74476E-02  1.62992E+00 -3.58919E-01
   2.07129E+00  1.29371E+00 -2.07808E+00  3.16532E+00  4.09026E-01  3.36754E+00  2.65011E+00  4.56969E+00  6.58829E+00  1.03831E+01
   1.40169E+01  1.31215E+01  1.17239E+01  1.27312E+01  1.20237E+01  9.94800E+00  1.04333E+01  1.02258E+01  6.90111E+00  8.72949E+00
   6.51782E+00  9.79784E+00  1.19186E+01  1.16025E+01  8.96986E+00  8.99071E+00  9.20562E+00  8.26340E+00  4.00437E+00  2.77673E+00
   2.47549E+00  5.27688E+00  7.54850E+00  1.14473E+01  1.61833E+01  1.62366E+01  1.62086E+01  1.50887E+01  1.03875E+01  8.47820E+00
   3.34906E+00  3.38607E+00  3.11572E+00  6.12410E+00  6.76018E+00  9.39773E+00  9.67536E+00  1.34011E+01  1.83677E+01  1.67850E+01
   1.46451E+01  1.74324E+01  1.09910E+01  1.44737E+01  1.06638E+01  1.18298E+01  1.14866E+01  1.33042E+01  1.28870E+01  1.32637E+01
   1.20395E+01  1.14043E+01  9.23567E+00  1.30896E+01  1.21600E+01  1.33306E+01  1.44954E+01  1.57969E+01  2.03230E+01  2.25248E+01
   2.07518E+01  2.57233E+01  3.08338E+01  3.16480E+01  3.58074E+01  4.39943E+01  5.38986E+01  6.36237E+01  7.69060E+01  8.50617E+01
   8.70144E+01  8.13499E+01  6.45946E+01  5.19233E+01  3.94749E+01  2.89520E+01  2.15279E+01  1.66162E+01  1.34133E+01  1.07999E+01
   1.35505E+01  9.35943E+00  1.28650E+01  1.28834E+01  1.44636E+01  1.13644E+01  1.27036E+01  1.30689E+01  1.10039E+01  1.19353E+01
   8.61336E+00  1.16698E+01  6.96017E+00  1.01911E+01  5.25120E+00  1.11298E+01  6.15761E+00  6.73161E+00  7.37524E+00  9.47639E+00
   8.58514E+00  7.70844E+00  9.05343E+00  8.62879E+00  8.41527E+00  9.05168E+00  3.45569E+00  7.55176E+00  6.74087E+00  1.03198E+01
   4.83348E+00  8.57579E+00  6.46471E+00  6.96139E+00  7.39739E+00  8.93388E+00  8.80285E+00  1.20179E+01  9.79348E+00  7.49777E+00
   1.29558E+01  1.03229E+01  1.05000E+01  9.43267E+00  9.22770E+00  9.81846E+00  8.41554E+00  1.06087E+01  8.26771E+00  7.88455E+00
   9.03657E+00  7.55357E+00  5.67936E+00  9.37920E+00  6.12437E+00  4.59644E+00  4.61841E+00  4.60609E+00  4.38471E+00  1.34483E+00
   3.76178E+00  4.28504E+00  4.73068E+00  2.94911E+00  6.40765E+00  4.53935E+00  5.33218E+00  4.81142E+00  3.61772E+00  5.45841E+00
   5.40515E+00  6.25362E+00  5.79129E+00  2.30673E+00  4.85479E+00  5.08734E+00  8.49917E+00  6.33873E+00  4.45946E+00  3.28040E+00
   3.45762E+00  4.24358E+00  6.79244E+00  6.61520E+00  7.46499E+00  5.10833E+00  3.35712E+00  5.54215E+00  3.48358E+00  5.86574E+00
   4.87049E+00  4.01877E+00  2.12062E+00  3.25412E+00  7.96486E-01  1.85201E+00  2.86084E+00  5.36279E+00  3.45277E+00  2.58142E+00
   5.68454E+00  4.42907E+00  4.43162E+00  4.37417E+00  6.98835E+00  3.01592E+00  4.64319E+00  3.12076E+00 -3.87519E-01  1.66827E+00
   2.54720E+00  2.93660E-01  3.00564E+00 -1.98340E+00  1.85660E+00 -2.18738E+00  1.69005E+00  6.20075E-01  2.53400E+00 -1.14488E+00
  -3.23411E-01  2.43703E+00  4.71393E+00  8.23103E-02  1.88830E+00  1.82521E+00  4.44562E+00  5.01343E+00  4.99859E+00  4.30883E+00
   4.38643E+00  7.64540E+00  5.92739E+00  5.80241E+00  8.88241E+00  7.66558E+00  7.92414E+00  7.70614E+00  9.74600E+00  7.14830E+00
   9.58484E+00  8.84599E+00  8.62756E+00  7.24201E+00  8.42040E+00  4.05633E+00  4.35255E+00  7.04020E+00  3.38529E+00  4.27850E+00
   7.46641E+00  3.96887E+00  1.35264E+00  4.07015E+00  4.48516E+00  6.37690E+00  4.38126E+00  4.16230E+00  4.09280E+00  3.75906E+00
   8.04818E+00  3.35180E+00  4.22660E+00  3.30602E+00  5.10708E-01  3.40488E+00  5.93627E+00  2.91077E+00  2.12324E+00  5.27248E+00
   2.83489E+00  3.02641E+00  9.88198E-01  3.42922E+00  4.54227E+00  2.89086E+00  2.22098E-01  3.83037E+00  2.16120E+00  5.81401E+00
   1.46283E+00 -9.36678E-01  3.00876E+00  1.10397E+00  3.90682E+00  2.58101E+00 -4.12449E-01 -3.56745E-01  2.85850E+00  2.17305E+00
   3.71440E+00  7.67912E-01  2.39648E+00  9.19617E-01  1.08996E+00 -1.06896E+00  2.45257E+00  4.06631E+00  5.28976E+00  2.50677E+00
   5.00803E+00  2.46002E+00  4.08571E+00 -1.26507E+00  2.90015E-01 -1.52596E+00 -5.97625E-01  2.74654E+00  4.15470E+00  1.02351E+00
   8.79671E-01 -8.21179E-01  1.52280E+00  2.84068E+00  2.24020E+00  1.87864E+00  1.56216E+00  3.18685E+00  2.68206E+00  2.96089E+00
   5.01576E-01  4.32609E+00 -2.16704E-01  1.46951E+00  3.92844E+00  2.05386E+00 -1.04563E+00  4.35804E+00
 NY points of the fit to the data follow
   3.75704E+01  3.77988E+01  3.89130E+01  4.06413E+01  4.37240E+01  4.75816E+01  5.20886E+01  5.73721E+01  6.26828E+01  6.66445E+01
   6.79652E+01  6.61489E+01  6.18324E+01  5.63257E+01  5.09531E+01  4.64361E+01  4.28426E+01  4.01764E+01  3.82489E+01  3.67366E+01
   3.57734E+01  3.51012E+01  3.51118E+01  3.54674E+01  3.56463E+01  3.62923E+01  3.77777E+01  3.98523E+01  4.19315E+01  4.33916E+01
   4.39549E+01  4.35061E+01  4.21425E+01  4.01786E+01  3.77764E+01  3.52912E+01  3.30576E+01  3.11558E+01  3.00014E+01  2.98150E+01
   3.03326E+01  3.11303E+01  3.19085E+01  3.28139E+01  3.39480E+01  3.51226E+01  3.59308E+01  3.59121E+01  3.49210E+01  3.32119E+01
   3.11586E+01  2.92116E+01  2.77782E+01  2.68603E+01  2.62711E+01  2.59452E+01  2.59009E+01  2.60972E+01  2.63410E+01  2.64254E+01
   2.62108E+01  2.56318E+01  2.47886E+01  2.38584E+01  2.30963E+01  2.26701E+01  2.25001E+01  2.24965E+01  2.26156E+01  2.27863E+01
   2.29224E+01  2.29367E+01  2.27757E+01  2.24539E+01  2.20304E+01  2.15801E+01  2.11630E+01  2.08041E+01  2.05068E+01  2.02317E+01
   1.99231E+01  1.95657E+01  1.91944E+01  1.88103E+01  1.83451E+01  1.77593E+01  1.71108E+01  1.65361E+01  1.61624E+01  1.61003E+01
   1.62970E+01  1.66442E+01  1.70633E+01  1.74950E+01  1.80044E+01  1.93970E+01  2.30606E+01  2.68905E+01  3.08425E+01  3.70746E+01
   4.59586E+01  5.54754E+01  6.22887E+01  6.37686E+01  5.95388E+01  5.14442E+01  4.22445E+01  3.40268E+01  2.77422E+01  2.33404E+01
   1.99684E+01  1.73734E+01  1.61619E+01  1.57756E+01  1.56185E+01  1.55609E+01  1.55866E+01  1.57650E+01  1.63873E+01  1.88532E+01
   2.37397E+01  2.84703E+01  3.40928E+01  4.25504E+01  5.33260E+01  6.36222E+01  6.98038E+01  6.95308E+01  6.32688E+01  5.37082E+01
   4.37713E+01  3.51821E+01  2.84760E+01  2.31479E+01  1.85160E+01  1.50272E+01  1.34831E+01  1.31900E+01  1.35874E+01  1.42624E+01
   1.48211E+01  1.50638E+01  1.49832E+01  1.46238E+01  1.41090E+01  1.35706E+01  1.30483E+01  1.25378E+01  1.20600E+01  1.16212E+01
   1.12320E+01  1.08848E+01  1.05956E+01  1.03283E+01  1.00484E+01  9.87279E+00  9.74907E+00  9.56201E+00  9.24791E+00  8.73513E+00
   8.26299E+00  8.06969E+00  8.14258E+00  8.26791E+00  8.23414E+00  7.94023E+00  7.40782E+00  6.77579E+00  6.19380E+00  5.68327E+00
   5.32374E+00  5.07229E+00  4.70483E+00  4.20099E+00  3.70595E+00  3.47508E+00  3.56903E+00  3.78720E+00  3.90207E+00  3.81472E+00
   3.58874E+00  3.53557E+00  3.71419E+00  4.04264E+00  4.50621E+00  5.16734E+00  6.15208E+00  7.50167E+00  9.04317E+00  1.03448E+01
   1.09782E+01  1.08813E+01  1.02377E+01  9.24229E+00  8.21190E+00  7.44858E+00  7.18398E+00  7.53707E+00  8.42925E+00  9.69186E+00
   1.10568E+01  1.22953E+01  1.31363E+01  1.31744E+01  1.25662E+01  1.13095E+01  9.30372E+00  7.06408E+00  5.19794E+00  4.36179E+00
   4.53978E+00  5.65280E+00  7.86062E+00  1.07978E+01  1.35863E+01  1.51436E+01  1.49202E+01  1.32461E+01  1.05494E+01  7.13646E+00
   3.94002E+00  1.89355E+00  1.51680E+00  2.77686E+00  5.09534E+00  7.91031E+00  1.04984E+01  1.22533E+01  1.30530E+01  1.31796E+01
   1.31970E+01  1.32185E+01  1.33106E+01  1.36438E+01  1.41776E+01  1.45900E+01  1.45461E+01  1.42178E+01  1.37366E+01  1.30384E+01
   1.22297E+01  1.17148E+01  1.17882E+01  1.24703E+01  1.35449E+01  1.47263E+01  1.58162E+01  1.66266E+01  1.73054E+01  1.82876E+01
   1.93949E+01  2.09110E+01  2.41325E+01  3.14893E+01  3.96483E+01  4.65482E+01  5.47097E+01  6.53449E+01  7.65939E+01  8.45294E+01
   8.56610E+01  7.91252E+01  6.70779E+01  5.31816E+01  4.05387E+01  3.08014E+01  2.39817E+01  1.87767E+01  1.45243E+01  1.22129E+01
   1.13227E+01  1.08579E+01  1.06003E+01  1.04569E+01  1.03128E+01  1.00963E+01  9.81781E+00  9.49165E+00  9.14550E+00  8.82038E+00
   8.54322E+00  8.31256E+00  8.12335E+00  7.96974E+00  7.83882E+00  7.71903E+00  7.60005E+00  7.48764E+00  7.39959E+00  7.34802E+00
   7.33472E+00  7.35751E+00  7.40857E+00  7.48172E+00  7.56775E+00  7.66117E+00  7.76249E+00  7.87483E+00  8.00245E+00  8.14687E+00
   8.30584E+00  8.47454E+00  8.64321E+00  8.80104E+00  8.93910E+00  9.05092E+00  9.13273E+00  9.18076E+00  9.19155E+00  9.16512E+00
   9.10250E+00  9.00519E+00  8.87637E+00  8.72042E+00  8.54305E+00  8.35139E+00  8.15399E+00  7.96093E+00  7.78636E+00  7.65667E+00
   7.59994E+00  7.51239E+00  7.38586E+00  7.30707E+00  7.23315E+00  7.03602E+00  6.60187E+00  5.91819E+00  5.18131E+00  4.56141E+00
   4.08497E+00  3.83927E+00  3.90392E+00  4.27083E+00  4.82051E+00  5.38818E+00  5.84187E+00  6.06923E+00  6.06120E+00  5.90436E+00
   5.68573E+00  5.46907E+00  5.26831E+00  5.06470E+00  4.89012E+00  4.77693E+00  4.71003E+00  4.68182E+00  4.68947E+00  4.72933E+00
   4.79487E+00  4.87573E+00  4.95844E+00  5.02763E+00  5.06844E+00  5.06862E+00  5.02082E+00  4.92373E+00  4.78245E+00  4.60718E+00
   4.41127E+00  4.20848E+00  4.01094E+00  3.82747E+00  3.66321E+00  3.51964E+00  3.39554E+00  3.28775E+00  3.19250E+00  3.10613E+00
   3.02588E+00  2.94985E+00  2.87717E+00  2.80757E+00  2.74149E+00  2.67975E+00  2.62361E+00  2.57436E+00  2.53342E+00  2.50202E+00
   2.48150E+00  2.47317E+00  2.47848E+00  2.49871E+00  2.53522E+00  2.58920E+00  2.66202E+00  2.75502E+00  2.86962E+00  3.00698E+00
   3.16818E+00  3.35397E+00  3.56493E+00  3.80117E+00  4.06229E+00  4.34707E+00  4.65351E+00  4.97869E+00  5.31886E+00  5.66925E+00
   6.02417E+00  6.37694E+00  6.72027E+00  7.04636E+00  7.34737E+00  7.61547E+00  7.84334E+00  8.02433E+00  8.15305E+00  8.22543E+00
   8.23921E+00  8.19372E+00  8.09014E+00  7.93126E+00  7.72161E+00  7.46701E+00  7.17447E+00  6.85153E+00  6.50615E+00  6.14623E+00
   5.77951E+00  5.41312E+00  5.05345E+00  4.70581E+00  4.37459E+00  4.06304E+00  3.77359E+00  3.50763E+00  3.26581E+00  3.04792E+00
   2.85329E+00  2.68080E+00  2.52915E+00  2.39672E+00  2.28186E+00  2.18275E+00  2.09777E+00  2.02530E+00  1.96397E+00  1.91238E+00
   1.86931E+00  1.83357E+00  1.80426E+00  1.78051E+00  1.76166E+00  1.74699E+00  1.73594E+00  1.72792E+00  1.72260E+00  1.71957E+00
   1.71860E+00  1.71929E+00  1.72140E+00  1.72466E+00  1.72902E+00  1.73431E+00  1.74048E+00  1.74732E+00  1.75475E+00  1.76268E+00
   1.77113E+00  1.78002E+00  1.78932E+00  1.79890E+00  1.80875E+00  1.81884E+00  1.82923E+00  1.83983E+00  1.85064E+00  1.86156E+00
   1.87263E+00  1.88385E+00  1.89528E+00  1.90684E+00  1.91853E+00  1.93029E+00  1.94219E+00  1.95422E+00  1.96644E+00  1.97876E+00
   1.99120E+00  2.00371E+00  2.01641E+00  2.02926E+00  2.04233E+00  2.05552E+00  2.06887E+00  2.08236E+00  2.09610E+00  2.11007E+00
   2.12430E+00  2.13871E+00  2.15337E+00  2.16829E+00  2.18357E+00  2.19919E+00  2.21517E+00  2.23146E+00
 NY background values follow
     3.436E+01    3.414E+01    3.393E+01    3.371E+01    3.350E+01    3.328E+01    3.307E+01    3.285E+01    3.264E+01    3.242E+01
     3.221E+01    3.199E+01    3.177E+01    3.156E+01    3.134E+01    3.112E+01    3.091E+01    3.069E+01    3.047E+01    3.026E+01
     3.004E+01    2.982E+01    2.961E+01    2.939E+01    2.918E+01    2.896E+01    2.874E+01    2.853E+01    2.831E+01    2.810E+01
     2.788E+01    2.767E+01    2.745E+01    2.724E+01    2.703E+01    2.681E+01    2.660E+01    2.639E+01    2.618E+01    2.597E+01
     2.576E+01    2.555E+01    2.534E+01    2.513E+01    2.492E+01    2.471E+01    2.450E+01    2.430E+01    2.409E+01    2.389E+01
     2.368E+01    2.348E+01    2.328E+01    2.308E+01    2.288E+01    2.268E+01    2.248E+01    2.228E+01    2.208E+01    2.189E+01
     2.170E+01    2.150E+01    2.131E+01    2.112E+01    2.093E+01    2.074E+01    2.055E+01    2.037E+01    2.018E+01    2.000E+01
     1.982E+01    1.964E+01    1.946E+01    1.928E+01    1.911E+01    1.893E+01    1.876E+01    1.859E+01    1.842E+01    1.826E+01
     1.809E+01    1.793E+01    1.776E+01    1.760E+01    1.745E+01    1.729E+01    1.713E+01    1.698E+01    1.683E+01    1.668E+01
     1.654E+01    1.639E+01    1.625E+01    1.611E+01    1.597E+01    1.583E+01    1.570E+01    1.556E+01    1.543E+01    1.530E+01
     1.518E+01    1.505E+01    1.493E+01    1.480E+01    1.468E+01    1.456E+01    1.444E+01    1.433E+01    1.421E+01    1.410E+01
     1.398E+01    1.387E+01    1.376E+01    1.365E+01    1.354E+01    1.343E+01    1.333E+01    1.322E+01    1.312E+01    1.301E+01
     1.291E+01    1.281E+01    1.270E+01    1.260E+01    1.250E+01    1.240E+01    1.230E+01    1.221E+01    1.211E+01    1.201E+01
     1.191E+01    1.181E+01    1.172E+01    1.162E+01    1.152E+01    1.143E+01    1.133E+01    1.123E+01    1.114E+01    1.104E+01
     1.095E+01    1.085E+01    1.076E+01    1.066E+01    1.057E+01    1.047E+01    1.038E+01    1.028E+01    1.019E+01    1.010E+01
     1.001E+01    9.917E+00    9.827E+00    9.738E+00    9.649E+00    9.561E+00    9.474E+00    9.388E+00    9.303E+00    9.219E+00
     9.136E+00    9.054E+00    8.973E+00    8.893E+00    8.815E+00    8.737E+00    8.661E+00    8.586E+00    8.513E+00    8.441E+00
     8.370E+00    8.301E+00    8.233E+00    8.167E+00    8.103E+00    8.040E+00    7.979E+00    7.919E+00    7.862E+00    7.806E+00
     7.752E+00    7.699E+00    7.649E+00    7.601E+00    7.554E+00    7.509E+00    7.466E+00    7.425E+00    7.385E+00    7.346E+00
     7.310E+00    7.275E+00    7.241E+00    7.208E+00    7.177E+00    7.148E+00    7.119E+00    7.092E+00    7.066E+00    7.041E+00
     7.018E+00    6.995E+00    6.973E+00    6.953E+00    6.933E+00    6.914E+00    6.896E+00    6.878E+00    6.862E+00    6.846E+00
     6.831E+00    6.816E+00    6.802E+00    6.789E+00    6.776E+00    6.763E+00    6.751E+00    6.739E+00    6.727E+00    6.716E+00
     6.705E+00    6.694E+00    6.683E+00    6.672E+00    6.661E+00    6.651E+00    6.640E+00    6.629E+00    6.618E+00    6.606E+00
     6.595E+00    6.584E+00    6.572E+00    6.560E+00    6.548E+00    6.535E+00    6.523E+00    6.510E+00    6.497E+00    6.483E+00
     6.469E+00    6.455E+00    6.440E+00    6.425E+00    6.410E+00    6.394E+00    6.378E+00    6.361E+00    6.344E+00    6.326E+00
     6.308E+00    6.290E+00    6.270E+00    6.250E+00    6.230E+00    6.209E+00    6.187E+00    6.165E+00    6.142E+00    6.119E+00
     6.094E+00    6.069E+00    6.044E+00    6.017E+00    5.990E+00    5.962E+00    5.933E+00    5.904E+00    5.873E+00    5.842E+00
     5.810E+00    5.777E+00    5.743E+00    5.708E+00    5.672E+00    5.636E+00    5.598E+00    5.560E+00    5.521E+00    5.481E+00
     5.441E+00    5.399E+00    5.357E+00    5.314E+00    5.271E+00    5.226E+00    5.181E+00    5.136E+00    5.090E+00    5.043E+00
     4.995E+00    4.947E+00    4.898E+00    4.849E+00    4.799E+00    4.749E+00    4.698E+00    4.647E+00    4.595E+00    4.542E+00
     4.490E+00    4.436E+00    4.383E+00    4.328E+00    4.274E+00    4.219E+00    4.164E+00    4.108E+00    4.052E+00    3.996E+00
     3.940E+00    3.883E+00    3.826E+00    3.768E+00    3.711E+00    3.653E+00    3.595E+00    3.537E+00    3.478E+00    3.420E+00
     3.361E+00    3.303E+00    3.244E+00    3.185E+00    3.126E+00    3.068E+00    3.009E+00    2.950E+00    2.892E+00    2.833E+00
     2.775E+00    2.717E+00    2.659E+00    2.601E+00    2.544E+00    2.487E+00    2.430E+00    2.374E+00    2.318E+00    2.262E+00
     2.207E+00    2.152E+00    2.098E+00    2.044E+00    1.991E+00    1.938E+00    1.886E+00    1.834E+00    1.783E+00    1.733E+00
     1.683E+00    1.635E+00    1.586E+00    1.539E+00    1.493E+00    1.447E+00    1.402E+00    1.358E+00    1.315E+00    1.273E+00
     1.231E+00    1.191E+00    1.152E+00    1.114E+00    1.076E+00    1.040E+00    1.005E+00    9.708E-01    9.377E-01    9.056E-01
     8.745E-01    8.445E-01    8.155E-01    7.876E-01    7.606E-01    7.347E-01    7.099E-01    6.861E-01    6.633E-01    6.416E-01
     6.210E-01    6.013E-01    5.828E-01    5.653E-01    5.488E-01    5.334E-01    5.191E-01    5.058E-01    4.935E-01    4.824E-01
     4.723E-01    4.632E-01    4.553E-01    4.484E-01    4.426E-01    4.378E-01    4.341E-01    4.315E-01    4.300E-01    4.296E-01
     4.302E-01    4.319E-01    4.347E-01    4.386E-01    4.436E-01    4.497E-01    4.568E-01    4.651E-01    4.744E-01    4.848E-01
     4.962E-01    5.086E-01    5.219E-01    5.361E-01    5.512E-01    5.672E-01    5.840E-01    6.015E-01    6.198E-01    6.388E-01
     6.585E-01    6.788E-01    6.997E-01    7.212E-01    7.432E-01    7.658E-01    7.888E-01    8.122E-01    8.361E-01    8.603E-01
     8.849E-01    9.097E-01    9.349E-01    9.602E-01    9.858E-01    1.012E+00    1.037E+00    1.063E+00    1.089E+00    1.115E+00
     1.142E+00    1.168E+00    1.194E+00    1.219E+00    1.245E+00    1.271E+00    1.296E+00    1.321E+00    1.346E+00    1.370E+00
     1.395E+00    1.418E+00    1.442E+00    1.465E+00    1.487E+00    1.509E+00    1.531E+00    1.553E+00    1.574E+00    1.594E+00
     1.614E+00    1.634E+00    1.654E+00    1.673E+00    1.693E+00    1.711E+00    1.730E+00    1.748E+00    1.766E+00    1.784E+00
     1.801E+00    1.819E+00    1.836E+00    1.853E+00    1.870E+00    1.887E+00    1.903E+00    1.920E+00    1.936E+00    1.952E+00
     1.969E+00    1.985E+00    2.001E+00    2.017E+00    2.033E+00    2.049E+00    2.065E+00    2.081E+00    2.097E+00    2.113E+00
     2.129E+00    2.145E+00    2.161E+00    2.177E+00    2.194E+00    2.210E+00    2.227E+00    2.243E+00
 Ala      Conc. = 1.34E+02
