 LCModel (Version 6.3-1L) Copyright: S.W. Provencher.          Ref.: Magn. Reson. Med. 30:672-679 (1993).                
 Slice#2 Row#7 Col#13  PD_05_press_1_raw_act
 36 lines in following concentration table = NCONC+1
    Conc.  %SD /Cr+PCr  Metabolite                                         
 3.63E+03  24%   0.000 Ala                                                 
    1.935 124%   0.000 Asp                                                 
    0.000 999%   0.000 Cr                                                  
    0.000 999%   0.000 PCr                                                 
    1.162 123%   0.000 GABA                                                
    1.164 123%   0.000 Glc                                                 
  439.862  82%   0.000 Gln                                                 
 2.23E+03  21%   0.000 Glu                                                 
    0.000 999%   0.000 GPC                                                 
   12.899 113%   0.000 PCh                                                 
    0.000 999%   0.000 GSH                                                 
   12.028 999%   0.000 Ins                                                 
 1.35E+03  70%   0.000 Lac                                                 
    0.000 999%   0.000 NAA                                                 
    0.000 999%   0.000 NAAG                                                
    0.393 122%   0.000 Scyllo                                              
    1.949 122%   0.000 Tau                                                 
    0.000 999%   0.000 -CrCH2                                              
   12.899 113%   0.000 GPC+PCh                                             
    0.000 999%   0.000 NAA+NAAG                                            
    0.000 999%   0.000 Cr+PCr                                              
 2.67E+03  24%   0.000 Glu+Gln                                             
 1.28E+04  17%   0.000 Lip13a                                              
    0.000 999%   0.000 Lip13b                                              
 3.29E+03  18%   0.000 Lip09                                               
 2.84E+03  19%   0.000 MM09                                                
  407.056  79%   0.000 Lip20                                               
 1.65E+03  17%   0.000 MM20                                                
 1.70E+03  32%   0.000 MM12                                                
 1.01E+04  16%   0.000 MM14                                                
 8.59E+03  12%   0.000+MM17                                                
 1.28E+04  17%   0.000 Lip13a+Lip13b                                       
 2.46E+04   8%   0.000 MM14+Lip13a+Lip13b+MM12                             
 6.12E+03  11%   0.000 MM09+Lip09                                          
 2.06E+03  13%   0.000 MM20+Lip20                                          
   6 lines in following misc. output table
  FWHM = 0.168 ppm    S/N =  24                                            
  Data shift = 0.130 ppm                                                   
  Ph:   6 deg      -7.1 deg/ppm                                            
  alphaB,S = 8.5E+01,   3.7E+02                                            
    6 spline knots.   Ns = 9(2)                                            
   2 inflections.     1 extrema                                            
  498 points on ppm-axis = NY
      4.000000     3.992357     3.984714     3.977070     3.969427     3.961784     3.954141     3.946497     3.938854     3.931211
      3.923568     3.915925     3.908281     3.900638     3.892995     3.885352     3.877708     3.870065     3.862422     3.854779
      3.847136     3.839492     3.831849     3.824206     3.816563     3.808919     3.801276     3.793633     3.785990     3.778347
      3.770703     3.763060     3.755417     3.747774     3.740130     3.732487     3.724844     3.717201     3.709558     3.701914
      3.694271     3.686628     3.678985     3.671341     3.663698     3.656055     3.648412     3.640769     3.633125     3.625482
      3.617839     3.610196     3.602552     3.594909     3.587266     3.579623     3.571980     3.564336     3.556693     3.549050
      3.541407     3.533763     3.526120     3.518477     3.510834     3.503191     3.495547     3.487904     3.480261     3.472618
      3.464974     3.457331     3.449688     3.442045     3.434402     3.426758     3.419115     3.411472     3.403829     3.396185
      3.388542     3.380899     3.373256     3.365613     3.357969     3.350326     3.342683     3.335040     3.327396     3.319753
      3.312110     3.304467     3.296824     3.289180     3.281537     3.273894     3.266251     3.258607     3.250964     3.243321
      3.235678     3.228034     3.220391     3.212748     3.205105     3.197462     3.189818     3.182175     3.174532     3.166889
      3.159245     3.151602     3.143959     3.136316     3.128673     3.121029     3.113386     3.105743     3.098100     3.090456
      3.082813     3.075170     3.067527     3.059884     3.052240     3.044597     3.036954     3.029311     3.021667     3.014024
      3.006381     2.998738     2.991095     2.983451     2.975808     2.968165     2.960522     2.952878     2.945235     2.937592
      2.929949     2.922306     2.914662     2.907019     2.899376     2.891733     2.884089     2.876446     2.868803     2.861160
      2.853517     2.845873     2.838230     2.830587     2.822944     2.815300     2.807657     2.800014     2.792371     2.784728
      2.777084     2.769441     2.761798     2.754155     2.746511     2.738868     2.731225     2.723582     2.715939     2.708295
      2.700652     2.693009     2.685366     2.677722     2.670079     2.662436     2.654793     2.647150     2.639506     2.631863
      2.624220     2.616577     2.608933     2.601290     2.593647     2.586004     2.578361     2.570717     2.563074     2.555431
      2.547788     2.540144     2.532501     2.524858     2.517215     2.509572     2.501928     2.494285     2.486642     2.478999
      2.471355     2.463712     2.456069     2.448426     2.440783     2.433139     2.425496     2.417853     2.410210     2.402566
      2.394923     2.387280     2.379637     2.371994     2.364350     2.356707     2.349064     2.341421     2.333777     2.326134
      2.318491     2.310848     2.303205     2.295561     2.287918     2.280275     2.272632     2.264988     2.257345     2.249702
      2.242059     2.234416     2.226772     2.219129     2.211486     2.203843     2.196199     2.188556     2.180913     2.173270
      2.165627     2.157983     2.150340     2.142697     2.135054     2.127410     2.119767     2.112124     2.104481     2.096838
      2.089194     2.081551     2.073908     2.066265     2.058621     2.050978     2.043335     2.035692     2.028049     2.020405
      2.012762     2.005119     1.997476     1.989833     1.982190     1.974546     1.966903     1.959260     1.951617     1.943974
      1.936331     1.928688     1.921045     1.913402     1.905759     1.898115     1.890472     1.882829     1.875186     1.867543
      1.859900     1.852257     1.844614     1.836971     1.829327     1.821684     1.814041     1.806398     1.798755     1.791112
      1.783469     1.775826     1.768183     1.760540     1.752896     1.745253     1.737610     1.729967     1.722324     1.714681
      1.707038     1.699395     1.691752     1.684108     1.676465     1.668822     1.661179     1.653536     1.645893     1.638250
      1.630607     1.622964     1.615321     1.607677     1.600034     1.592391     1.584748     1.577105     1.569462     1.561819
      1.554176     1.546533     1.538890     1.531246     1.523603     1.515960     1.508317     1.500674     1.493031     1.485388
      1.477745     1.470102     1.462458     1.454815     1.447172     1.439529     1.431886     1.424243     1.416600     1.408957
      1.401314     1.393671     1.386027     1.378384     1.370741     1.363098     1.355455     1.347812     1.340169     1.332526
      1.324883     1.317240     1.309596     1.301953     1.294310     1.286667     1.279024     1.271381     1.263738     1.256095
      1.248452     1.240808     1.233165     1.225522     1.217879     1.210236     1.202593     1.194950     1.187307     1.179664
      1.172021     1.164377     1.156734     1.149091     1.141448     1.133805     1.126162     1.118519     1.110876     1.103233
      1.095590     1.087946     1.080303     1.072660     1.065017     1.057374     1.049731     1.042088     1.034445     1.026802
      1.019158     1.011515     1.003872     0.996229     0.988586     0.980943     0.973300     0.965657     0.958014     0.950371
      0.942727     0.935084     0.927441     0.919798     0.912155     0.904512     0.896869     0.889226     0.881583     0.873940
      0.866296     0.858653     0.851010     0.843367     0.835724     0.828081     0.820438     0.812795     0.805152     0.797508
      0.789865     0.782222     0.774579     0.766936     0.759293     0.751650     0.744007     0.736364     0.728721     0.721077
      0.713434     0.705791     0.698148     0.690505     0.682862     0.675219     0.667576     0.659933     0.652290     0.644646
      0.637003     0.629360     0.621717     0.614074     0.606431     0.598788     0.591145     0.583502     0.575858     0.568215
      0.560572     0.552929     0.545286     0.537643     0.530000     0.522357     0.514714     0.507071     0.499427     0.491784
      0.484141     0.476498     0.468855     0.461212     0.453569     0.445925     0.438282     0.430639     0.422996     0.415353
      0.407710     0.400067     0.392424     0.384780     0.377137     0.369494     0.361851     0.354208     0.346565     0.338922
      0.331278     0.323635     0.315992     0.308349     0.300706     0.293063     0.285420     0.277777     0.270133     0.262490
      0.254847     0.247204     0.239561     0.231918     0.224275     0.216631     0.208988     0.201345
 NY phased data points follow
   2.89641E+00  4.04842E+00  4.24532E+00  4.01232E+00  5.51242E+00  2.41906E+00  5.00869E+00  3.73186E+00  3.34828E+00  3.44079E+00
   4.13439E+00  4.40026E+00  4.32481E+00  4.68608E+00  3.89938E+00  3.13871E+00  4.19680E+00  4.25593E+00  5.37177E+00  3.52184E+00
   4.54442E+00  5.77916E+00  5.42919E+00  5.09399E+00  3.69499E+00  6.78289E+00  5.64221E+00  4.91116E+00  4.92322E+00  3.04508E+00
   5.91107E+00  5.72991E+00  4.75125E+00  4.38685E+00  3.85141E+00  4.31454E+00  3.12484E+00  3.28974E+00  3.44492E+00  3.04214E+00
   5.18630E+00  3.42661E+00  2.11688E+00  4.63046E+00  4.97023E+00  3.83976E+00  3.11662E+00  3.36374E+00  3.76404E+00  4.73690E+00
   3.82154E+00  5.41935E+00  4.03539E+00  4.65908E+00  4.95947E+00  3.06916E+00  3.31385E+00  3.40085E+00  4.62631E+00  4.33492E+00
   5.61235E+00  3.97919E+00  4.46780E+00  4.98432E+00  3.54711E+00  4.51011E+00  3.19678E+00  4.09224E+00  2.92514E+00  4.68982E+00
   3.22386E+00  4.33496E+00  3.21635E+00  2.92844E+00  3.64808E+00  3.59207E+00  4.35781E+00  3.30708E+00  5.79696E+00  2.46780E+00
   3.14774E+00  1.55120E+00  3.03740E+00  3.31516E+00  4.50525E+00  5.18677E+00  5.76270E+00  5.54257E+00  7.34992E+00  7.21276E+00
   4.16771E+00  4.04640E+00  3.50408E+00  2.98901E+00  4.38757E+00  3.11206E+00  5.81944E+00  4.17046E+00  5.46966E+00  4.58828E+00
   4.33770E+00  4.03466E+00  2.98918E+00  2.88084E+00  3.98009E+00  2.42099E+00  1.85002E+00  4.59964E+00  3.61400E+00  4.09603E+00
   5.78271E+00  6.25060E+00  4.95221E+00  4.62859E+00  3.55657E+00  3.08958E+00  3.10173E+00  4.61462E+00  3.99932E+00  5.41706E+00
   3.77606E+00  5.16076E+00  3.23291E+00  2.08085E+00  3.05027E+00  2.25095E+00  5.08061E+00  2.91510E+00  6.68910E+00  4.61311E+00
   5.09449E+00  4.93288E+00  3.14785E+00  5.55008E+00  2.76428E+00  4.63103E+00  3.11820E+00  5.00645E+00  4.28507E+00  3.77951E+00
   4.07657E+00  5.18870E+00  4.97928E+00  5.89047E+00  5.25910E+00  5.30225E+00  4.46892E+00  3.83921E+00  3.44022E+00  4.02745E+00
   6.66006E+00  5.81617E+00  4.35970E+00  4.30943E+00  6.08607E+00  4.35421E+00  4.60946E+00  6.08496E+00  5.29230E+00  3.63528E+00
   4.43294E+00  3.41493E+00  3.52636E+00  4.88396E+00  3.70382E+00  5.19539E+00  3.72401E+00  3.60005E+00  4.24082E+00  4.12274E+00
   2.11088E+00  4.91644E+00  3.26511E+00  5.05412E+00  5.39995E+00  4.13454E+00  4.51426E+00  4.43006E+00  4.98179E+00  5.66085E+00
   4.09119E+00  5.53090E+00  5.53628E+00  5.07728E+00  5.87281E+00  3.71781E+00  5.72956E+00  4.14977E+00  4.78531E+00  4.49032E+00
   4.71988E+00  3.95421E+00  4.58191E+00  4.01566E+00  3.46134E+00  5.46406E+00  6.82209E+00  5.70120E+00  3.94532E+00  6.12249E+00
   5.42566E+00  6.02494E+00  6.63248E+00  5.69190E+00  4.05681E+00  4.29058E+00  6.07737E+00  5.98624E+00  5.25314E+00  4.90622E+00
   6.28203E+00  5.54593E+00  6.73703E+00  5.08639E+00  4.33275E+00  6.80592E+00  6.46097E+00  5.49385E+00  6.95975E+00  7.21903E+00
   7.04113E+00  5.74100E+00  7.62639E+00  8.98800E+00  6.57861E+00  7.17906E+00  7.59453E+00  8.34839E+00  8.38573E+00  9.98811E+00
   8.05980E+00  1.05178E+01  8.99361E+00  9.88747E+00  9.28346E+00  9.76243E+00  9.71394E+00  1.04427E+01  1.22867E+01  1.08102E+01
   1.25880E+01  1.59073E+01  1.69009E+01  1.96538E+01  1.89954E+01  1.91013E+01  1.91482E+01  1.52437E+01  1.39679E+01  1.25953E+01
   1.50484E+01  1.69076E+01  1.66818E+01  1.51967E+01  1.71186E+01  1.68492E+01  1.56667E+01  1.46566E+01  1.60593E+01  1.63889E+01
   1.85950E+01  1.61068E+01  1.88794E+01  1.77015E+01  1.70103E+01  1.89959E+01  1.77309E+01  1.94110E+01  2.00034E+01  1.96087E+01
   2.01723E+01  2.00460E+01  2.06357E+01  2.22566E+01  2.30806E+01  2.39178E+01  2.36439E+01  2.56763E+01  2.55162E+01  2.62482E+01
   2.59581E+01  2.62834E+01  2.62107E+01  2.93685E+01  2.80544E+01  2.96274E+01  3.17266E+01  3.19307E+01  3.25064E+01  3.09618E+01
   3.37243E+01  3.49123E+01  3.64841E+01  3.61861E+01  3.89171E+01  3.86995E+01  4.12877E+01  4.09157E+01  4.37642E+01  4.23345E+01
   4.41195E+01  4.41494E+01  4.71203E+01  4.92460E+01  4.82492E+01  5.09000E+01  5.05084E+01  5.02260E+01  5.13877E+01  5.19772E+01
   5.47465E+01  5.47440E+01  5.52851E+01  5.63207E+01  5.79245E+01  5.72759E+01  6.10227E+01  6.02729E+01  6.28337E+01  6.57529E+01
   6.65862E+01  6.86173E+01  7.07369E+01  7.11764E+01  7.01034E+01  7.24500E+01  7.48516E+01  7.29254E+01  7.54448E+01  7.59928E+01
   7.41989E+01  7.43439E+01  7.45067E+01  7.57903E+01  7.62582E+01  7.45626E+01  7.65976E+01  7.60231E+01  7.60497E+01  7.55133E+01
   7.19419E+01  7.32529E+01  7.34845E+01  7.31831E+01  7.09281E+01  7.12001E+01  7.02469E+01  7.04672E+01  6.85927E+01  6.82826E+01
   6.79876E+01  6.56828E+01  6.48657E+01  6.24759E+01  6.22677E+01  6.01833E+01  5.78048E+01  5.68607E+01  5.78345E+01  5.74712E+01
   5.62887E+01  5.63336E+01  5.65205E+01  5.49463E+01  5.47121E+01  5.44899E+01  5.33088E+01  5.47868E+01  5.57479E+01  5.21693E+01
   4.98055E+01  5.04518E+01  5.05459E+01  5.07834E+01  4.78777E+01  5.00517E+01  4.70647E+01  4.71930E+01  4.67542E+01  4.62455E+01
   4.52783E+01  4.48986E+01  4.35767E+01  4.30827E+01  4.18991E+01  4.15706E+01  4.02896E+01  4.04810E+01  3.84719E+01  3.72212E+01
   3.66994E+01  3.76494E+01  3.44601E+01  3.50008E+01  3.47109E+01  3.38890E+01  3.32262E+01  3.09465E+01  3.05969E+01  2.96254E+01
   2.77215E+01  3.03317E+01  2.70794E+01  2.70780E+01  2.57570E+01  2.65684E+01  2.42218E+01  2.48191E+01  2.29961E+01  2.16787E+01
   2.10293E+01  2.17314E+01  1.91216E+01  1.87634E+01  1.83235E+01  1.74762E+01  1.67968E+01  1.62489E+01  1.60535E+01  1.55313E+01
   1.55095E+01  1.40883E+01  1.47811E+01  1.35485E+01  1.21848E+01  1.09065E+01  1.23125E+01  1.32524E+01  1.32385E+01  1.13022E+01
   1.15488E+01  1.02329E+01  1.06996E+01  9.56653E+00  1.08954E+01  9.51389E+00  9.51158E+00  8.26782E+00  8.42272E+00  6.49243E+00
   7.44269E+00  6.39450E+00  6.84575E+00  4.95628E+00  6.47670E+00  6.72658E+00  7.21285E+00  7.03186E+00  5.03807E+00  5.16793E+00
   4.89743E+00  5.48075E+00  5.69584E+00  5.26878E+00  7.18623E+00  5.07252E+00  3.77570E+00  2.48941E+00  3.11840E+00  4.73534E+00
   4.66183E+00  4.40253E+00  3.65229E+00  3.65062E+00  2.26476E+00  3.81136E+00  2.46319E+00 -5.32744E-01  3.19504E+00  2.42501E+00
   2.28088E+00  2.74727E+00  3.37185E-01  2.03417E+00  1.94675E+00  3.04230E-01 -7.09706E-01 -1.07929E+00  1.91612E+00  2.49152E+00
   1.29433E-01  1.13748E+00  2.48597E+00 -1.03712E+00 -3.32919E-01  1.36695E+00  2.18260E+00  1.10914E+00  1.22520E+00 -4.31413E-02
   7.91856E-01  5.56553E-02  4.94983E-01 -8.92243E-02 -6.57241E-03  1.04655E-01  1.20281E-01 -3.29509E-01
 NY points of the fit to the data follow
   3.46000E+00  3.78435E+00  3.49119E+00  3.81772E+00  3.61214E+00  3.96041E+00  3.83448E+00  4.22028E+00  4.05212E+00  4.34923E+00
   4.05024E+00  4.27479E+00  3.88425E+00  4.15310E+00  3.75270E+00  4.25085E+00  3.95454E+00  4.59316E+00  4.25229E+00  4.90826E+00
   4.41348E+00  5.05755E+00  4.44655E+00  5.05967E+00  4.40398E+00  4.97786E+00  4.33477E+00  4.85943E+00  4.28543E+00  4.77196E+00
   4.35288E+00  4.78906E+00  4.52239E+00  4.82241E+00  4.68006E+00  4.81005E+00  4.77017E+00  4.69091E+00  4.73572E+00  4.50579E+00
   4.65637E+00  4.35925E+00  4.65108E+00  4.34429E+00  4.76200E+00  4.48368E+00  4.95060E+00  4.68932E+00  4.99269E+00  4.59580E+00
   4.69974E+00  4.23723E+00  4.23678E+00  3.84577E+00  3.86808E+00  3.72784E+00  3.86453E+00  3.82388E+00  3.90057E+00  3.87494E+00
   3.86749E+00  3.83777E+00  3.79826E+00  3.75616E+00  3.72202E+00  3.68774E+00  3.66167E+00  3.63437E+00  3.61534E+00  3.59368E+00
   3.57985E+00  3.56100E+00  3.55030E+00  3.53273E+00  3.52446E+00  3.50820E+00  3.50169E+00  3.48701E+00  3.48225E+00  3.46925E+00
   3.46597E+00  3.45514E+00  3.45360E+00  3.44528E+00  3.44808E+00  3.45637E+00  3.46975E+00  3.48256E+00  3.50268E+00  3.51639E+00
   3.54250E+00  3.55838E+00  3.59238E+00  3.61401E+00  3.65831E+00  3.68311E+00  3.73757E+00  3.76321E+00  3.82747E+00  3.85144E+00
   3.92378E+00  3.94152E+00  4.01862E+00  4.02624E+00  4.10444E+00  4.10122E+00  4.17766E+00  4.16519E+00  4.23855E+00  4.22298E+00
   4.29301E+00  4.27557E+00  4.34141E+00  4.32728E+00  4.38918E+00  4.37957E+00  4.43663E+00  4.43387E+00  4.48626E+00  4.49322E+00
   4.54147E+00  4.55877E+00  4.60380E+00  4.63473E+00  4.67993E+00  4.72759E+00  4.77314E+00  4.81442E+00  4.85147E+00  4.88309E+00
   4.90972E+00  4.93041E+00  4.94595E+00  4.95558E+00  4.96035E+00  4.95971E+00  4.95486E+00  4.94542E+00  4.93269E+00  4.91645E+00
   4.89794E+00  4.87709E+00  4.85499E+00  4.83169E+00  4.80804E+00  4.78415E+00  4.76057E+00  4.73745E+00  4.71504E+00  4.69357E+00
   4.67287E+00  4.65339E+00  4.63454E+00  4.61681E+00  4.59938E+00  4.58303E+00  4.56658E+00  4.55137E+00  4.53547E+00  4.52083E+00
   4.50502E+00  4.49055E+00  4.47465E+00  4.46017E+00  4.44459E+00  4.43063E+00  4.41601E+00  4.40310E+00  4.38962E+00  4.37810E+00
   4.36707E+00  4.35748E+00  4.34980E+00  4.34280E+00  4.33939E+00  4.33496E+00  4.33148E+00  4.32938E+00  4.32272E+00  4.32008E+00
   4.31656E+00  4.31762E+00  4.32107E+00  4.33754E+00  4.36116E+00  4.39692E+00  4.43591E+00  4.50045E+00  4.56020E+00  4.62611E+00
   4.67983E+00  4.74390E+00  4.71588E+00  4.79858E+00  4.74137E+00  4.87908E+00  4.85095E+00  5.09719E+00  5.20690E+00  5.51393E+00
   5.60226E+00  5.91182E+00  5.91861E+00  6.17897E+00  6.02718E+00  6.21407E+00  6.05846E+00  6.29805E+00  6.17708E+00  6.47883E+00
   6.39904E+00  6.71762E+00  6.64951E+00  6.90820E+00  6.81101E+00  7.01052E+00  6.84747E+00  7.00087E+00  6.77815E+00  6.93987E+00
   6.72472E+00  6.98236E+00  6.85177E+00  7.23137E+00  7.19361E+00  7.63548E+00  7.70587E+00  8.19741E+00  8.32225E+00  8.78593E+00
   8.94399E+00  9.39204E+00  9.53824E+00  9.95609E+00  1.02450E+01  1.06934E+01  1.12339E+01  1.16828E+01  1.24793E+01  1.27781E+01
   1.35724E+01  1.36377E+01  1.43774E+01  1.42268E+01  1.48839E+01  1.46093E+01  1.53187E+01  1.50958E+01  1.57852E+01  1.56267E+01
   1.62616E+01  1.61649E+01  1.66956E+01  1.66377E+01  1.70315E+01  1.70453E+01  1.73066E+01  1.74116E+01  1.75445E+01  1.77633E+01
   1.77993E+01  1.81211E+01  1.80702E+01  1.84515E+01  1.83626E+01  1.87629E+01  1.87042E+01  1.91630E+01  1.91597E+01  1.96572E+01
   1.97404E+01  2.02751E+01  2.04329E+01  2.10066E+01  2.12768E+01  2.19250E+01  2.23322E+01  2.30493E+01  2.35801E+01  2.43578E+01
   2.50050E+01  2.58488E+01  2.66490E+01  2.75812E+01  2.85223E+01  2.95226E+01  3.05741E+01  3.16180E+01  3.27175E+01  3.37950E+01
   3.49097E+01  3.59847E+01  3.70777E+01  3.81217E+01  3.91628E+01  4.01574E+01  4.11349E+01  4.20599E+01  4.29518E+01  4.37942E+01
   4.45992E+01  4.53666E+01  4.61058E+01  4.68301E+01  4.75578E+01  4.83111E+01  4.91242E+01  5.00507E+01  5.12041E+01  5.26270E+01
   5.36221E+01  5.50201E+01  5.58444E+01  5.72227E+01  5.79439E+01  5.93287E+01  5.99242E+01  6.19426E+01  6.28148E+01  6.51166E+01
   6.60174E+01  6.82783E+01  6.89628E+01  7.09757E+01  7.12838E+01  7.29689E+01  7.30246E+01  7.42861E+01  7.42992E+01  7.52520E+01
   7.52027E+01  7.56546E+01  7.57668E+01  7.57654E+01  7.60081E+01  7.54035E+01  7.57741E+01  7.49456E+01  7.53621E+01  7.41401E+01
   7.44677E+01  7.30230E+01  7.33193E+01  7.17579E+01  7.19073E+01  7.04565E+01  7.05427E+01  6.93477E+01  6.92173E+01  6.82674E+01
   6.73137E+01  6.61103E+01  6.46574E+01  6.34807E+01  6.16959E+01  6.07359E+01  5.89729E+01  5.87211E+01  5.75266E+01  5.74314E+01
   5.64806E+01  5.64166E+01  5.56391E+01  5.55124E+01  5.48397E+01  5.46372E+01  5.40594E+01  5.37824E+01  5.32331E+01  5.28495E+01
   5.21017E+01  5.13545E+01  5.05071E+01  4.95435E+01  4.86731E+01  4.76904E+01  4.69014E+01  4.62207E+01  4.56015E+01  4.50232E+01
   4.44716E+01  4.39348E+01  4.34014E+01  4.28607E+01  4.23023E+01  4.17169E+01  4.10966E+01  4.04350E+01  3.97281E+01  3.89738E+01
   3.81727E+01  3.73272E+01  3.64420E+01  3.55235E+01  3.45793E+01  3.36179E+01  3.26484E+01  3.16794E+01  3.07192E+01  2.97755E+01
   2.88544E+01  2.79610E+01  2.70989E+01  2.62704E+01  2.54764E+01  2.47165E+01  2.39893E+01  2.32929E+01  2.26243E+01  2.19805E+01
   2.13582E+01  2.07541E+01  2.01650E+01  1.95882E+01  1.90211E+01  1.84616E+01  1.79082E+01  1.73598E+01  1.68156E+01  1.62753E+01
   1.57391E+01  1.52074E+01  1.46806E+01  1.41598E+01  1.36458E+01  1.31397E+01  1.26425E+01  1.21552E+01  1.16789E+01  1.12143E+01
   1.07624E+01  1.03238E+01  9.89900E+00  9.48846E+00  9.09247E+00  8.71120E+00  8.34470E+00  7.99292E+00  7.65570E+00  7.33283E+00
   7.02400E+00  6.72886E+00  6.44700E+00  6.17798E+00  5.92132E+00  5.67654E+00  5.44315E+00  5.22065E+00  5.00852E+00  4.80629E+00
   4.61345E+00  4.42955E+00  4.25411E+00  4.08672E+00  3.92693E+00  3.77435E+00  3.62858E+00  3.48928E+00  3.35608E+00  3.22866E+00
   3.10670E+00  2.98991E+00  2.87801E+00  2.77076E+00  2.66789E+00  2.56918E+00  2.47440E+00  2.38336E+00  2.29586E+00  2.21173E+00
   2.13078E+00  2.05288E+00  1.97785E+00  1.90556E+00  1.83589E+00  1.76871E+00  1.70390E+00  1.64135E+00  1.58095E+00  1.52263E+00
   1.46628E+00  1.41182E+00  1.35917E+00  1.30825E+00  1.25901E+00  1.21138E+00  1.16530E+00  1.12072E+00  1.07758E+00  1.03585E+00
   9.95488E-01  9.56467E-01  9.18759E-01  8.82347E-01  8.47222E-01  8.13390E-01  7.80871E-01  7.49710E-01
 NY background values follow
     4.464E+00    4.457E+00    4.450E+00    4.442E+00    4.435E+00    4.428E+00    4.421E+00    4.413E+00    4.406E+00    4.399E+00
     4.391E+00    4.384E+00    4.377E+00    4.369E+00    4.362E+00    4.355E+00    4.347E+00    4.340E+00    4.333E+00    4.325E+00
     4.318E+00    4.311E+00    4.303E+00    4.296E+00    4.288E+00    4.281E+00    4.274E+00    4.266E+00    4.259E+00    4.252E+00
     4.244E+00    4.237E+00    4.229E+00    4.222E+00    4.215E+00    4.207E+00    4.200E+00    4.192E+00    4.185E+00    4.178E+00
     4.170E+00    4.163E+00    4.155E+00    4.148E+00    4.140E+00    4.133E+00    4.126E+00    4.118E+00    4.111E+00    4.103E+00
     4.096E+00    4.088E+00    4.081E+00    4.074E+00    4.066E+00    4.059E+00    4.051E+00    4.044E+00    4.036E+00    4.029E+00
     4.021E+00    4.014E+00    4.007E+00    3.999E+00    3.992E+00    3.984E+00    3.977E+00    3.969E+00    3.962E+00    3.954E+00
     3.947E+00    3.939E+00    3.932E+00    3.924E+00    3.917E+00    3.909E+00    3.902E+00    3.895E+00    3.887E+00    3.880E+00
     3.872E+00    3.865E+00    3.857E+00    3.850E+00    3.842E+00    3.835E+00    3.827E+00    3.820E+00    3.812E+00    3.805E+00
     3.797E+00    3.790E+00    3.782E+00    3.775E+00    3.768E+00    3.760E+00    3.753E+00    3.745E+00    3.738E+00    3.730E+00
     3.723E+00    3.715E+00    3.708E+00    3.700E+00    3.693E+00    3.685E+00    3.678E+00    3.670E+00    3.663E+00    3.655E+00
     3.648E+00    3.641E+00    3.633E+00    3.626E+00    3.618E+00    3.611E+00    3.603E+00    3.596E+00    3.588E+00    3.581E+00
     3.573E+00    3.566E+00    3.559E+00    3.551E+00    3.544E+00    3.536E+00    3.529E+00    3.521E+00    3.514E+00    3.507E+00
     3.499E+00    3.492E+00    3.484E+00    3.477E+00    3.469E+00    3.462E+00    3.455E+00    3.447E+00    3.440E+00    3.432E+00
     3.425E+00    3.418E+00    3.410E+00    3.403E+00    3.395E+00    3.388E+00    3.381E+00    3.373E+00    3.366E+00    3.358E+00
     3.351E+00    3.344E+00    3.336E+00    3.329E+00    3.322E+00    3.314E+00    3.307E+00    3.299E+00    3.292E+00    3.285E+00
     3.277E+00    3.270E+00    3.263E+00    3.255E+00    3.248E+00    3.241E+00    3.233E+00    3.226E+00    3.219E+00    3.212E+00
     3.204E+00    3.197E+00    3.190E+00    3.182E+00    3.175E+00    3.168E+00    3.160E+00    3.153E+00    3.146E+00    3.139E+00
     3.131E+00    3.124E+00    3.117E+00    3.110E+00    3.102E+00    3.095E+00    3.088E+00    3.081E+00    3.073E+00    3.066E+00
     3.059E+00    3.052E+00    3.044E+00    3.037E+00    3.030E+00    3.023E+00    3.015E+00    3.008E+00    3.001E+00    2.994E+00
     2.986E+00    2.979E+00    2.972E+00    2.965E+00    2.958E+00    2.950E+00    2.943E+00    2.936E+00    2.929E+00    2.921E+00
     2.914E+00    2.907E+00    2.900E+00    2.893E+00    2.885E+00    2.878E+00    2.871E+00    2.864E+00    2.857E+00    2.849E+00
     2.842E+00    2.835E+00    2.828E+00    2.821E+00    2.813E+00    2.806E+00    2.799E+00    2.792E+00    2.785E+00    2.777E+00
     2.770E+00    2.763E+00    2.756E+00    2.749E+00    2.741E+00    2.734E+00    2.727E+00    2.720E+00    2.713E+00    2.705E+00
     2.698E+00    2.691E+00    2.684E+00    2.676E+00    2.669E+00    2.662E+00    2.655E+00    2.648E+00    2.640E+00    2.633E+00
     2.626E+00    2.619E+00    2.612E+00    2.604E+00    2.597E+00    2.590E+00    2.583E+00    2.575E+00    2.568E+00    2.561E+00
     2.554E+00    2.546E+00    2.539E+00    2.532E+00    2.525E+00    2.517E+00    2.510E+00    2.503E+00    2.496E+00    2.488E+00
     2.481E+00    2.474E+00    2.467E+00    2.459E+00    2.452E+00    2.445E+00    2.437E+00    2.430E+00    2.423E+00    2.416E+00
     2.408E+00    2.401E+00    2.394E+00    2.386E+00    2.379E+00    2.372E+00    2.364E+00    2.357E+00    2.350E+00    2.342E+00
     2.335E+00    2.328E+00    2.320E+00    2.313E+00    2.306E+00    2.298E+00    2.291E+00    2.283E+00    2.276E+00    2.269E+00
     2.261E+00    2.254E+00    2.247E+00    2.239E+00    2.232E+00    2.224E+00    2.217E+00    2.209E+00    2.202E+00    2.195E+00
     2.187E+00    2.180E+00    2.172E+00    2.165E+00    2.157E+00    2.150E+00    2.142E+00    2.135E+00    2.127E+00    2.120E+00
     2.112E+00    2.105E+00    2.097E+00    2.090E+00    2.082E+00    2.075E+00    2.067E+00    2.060E+00    2.052E+00    2.045E+00
     2.037E+00    2.030E+00    2.022E+00    2.014E+00    2.007E+00    1.999E+00    1.992E+00    1.984E+00    1.976E+00    1.969E+00
     1.961E+00    1.953E+00    1.946E+00    1.938E+00    1.930E+00    1.923E+00    1.915E+00    1.907E+00    1.900E+00    1.892E+00
     1.884E+00    1.877E+00    1.869E+00    1.861E+00    1.853E+00    1.846E+00    1.838E+00    1.830E+00    1.822E+00    1.815E+00
     1.807E+00    1.799E+00    1.791E+00    1.784E+00    1.776E+00    1.768E+00    1.760E+00    1.752E+00    1.745E+00    1.737E+00
     1.729E+00    1.721E+00    1.713E+00    1.705E+00    1.698E+00    1.690E+00    1.682E+00    1.674E+00    1.666E+00    1.658E+00
     1.650E+00    1.642E+00    1.635E+00    1.627E+00    1.619E+00    1.611E+00    1.603E+00    1.595E+00    1.587E+00    1.579E+00
     1.571E+00    1.563E+00    1.555E+00    1.547E+00    1.539E+00    1.531E+00    1.523E+00    1.515E+00    1.507E+00    1.499E+00
     1.491E+00    1.483E+00    1.475E+00    1.467E+00    1.459E+00    1.451E+00    1.443E+00    1.435E+00    1.427E+00    1.419E+00
     1.411E+00    1.403E+00    1.395E+00    1.387E+00    1.379E+00    1.371E+00    1.363E+00    1.355E+00    1.347E+00    1.339E+00
     1.331E+00    1.322E+00    1.314E+00    1.306E+00    1.298E+00    1.290E+00    1.282E+00    1.274E+00    1.266E+00    1.257E+00
     1.249E+00    1.241E+00    1.233E+00    1.225E+00    1.217E+00    1.209E+00    1.200E+00    1.192E+00    1.184E+00    1.176E+00
     1.168E+00    1.159E+00    1.151E+00    1.143E+00    1.135E+00    1.127E+00    1.118E+00    1.110E+00    1.102E+00    1.094E+00
     1.086E+00    1.077E+00    1.069E+00    1.061E+00    1.053E+00    1.044E+00    1.036E+00    1.028E+00    1.020E+00    1.011E+00
     1.003E+00    9.949E-01    9.866E-01    9.784E-01    9.701E-01    9.618E-01    9.535E-01    9.453E-01    9.370E-01    9.287E-01
     9.204E-01    9.121E-01    9.038E-01    8.955E-01    8.872E-01    8.789E-01    8.706E-01    8.622E-01    8.539E-01    8.456E-01
     8.373E-01    8.289E-01    8.206E-01    8.123E-01    8.039E-01    7.956E-01    7.872E-01    7.789E-01    7.706E-01    7.622E-01
     7.538E-01    7.455E-01    7.371E-01    7.288E-01    7.204E-01    7.120E-01    7.037E-01    6.953E-01
 Ala      Conc. = 3.63E+03
