 LCModel (Version 6.3-1L) Copyright: S.W. Provencher.          Ref.: Magn. Reson. Med. 30:672-679 (1993).                
 Slice#1 Row#3 Col#1  PD_05_press_1_raw_act
 36 lines in following concentration table = NCONC+1
    Conc.  %SD /Cr+PCr  Metabolite                                         
   18.870 175%   0.413 Ala                                                 
    7.322 244%   0.160 Asp                                                 
    0.000 999%   0.000 Cr                                                  
   45.709  34%   1.000 PCr                                                 
    5.125 210%   0.112 GABA                                                
    4.640 232%   0.102 Glc                                                 
   22.837 295%   0.500 Gln                                                 
   58.873 129%   1.288 Glu                                                 
   15.946  39%   0.349 GPC                                                 
    0.000 999%   0.000 PCh                                                 
   68.770  36%   1.505 GSH                                                 
   88.743  80%   1.941 Ins                                                 
    0.000 999%   0.000 Lac                                                 
   98.302  20%   2.151 NAA                                                 
    0.000 999%   0.000 NAAG                                                
    1.934 175% 4.2E-02 Scyllo                                              
    3.882 455% 8.5E-02 Tau                                                 
    0.000 999%   0.000 -CrCH2                                              
   15.946  39%   0.349 GPC+PCh                                             
   98.302  20%   2.151 NAA+NAAG                                            
   45.709  34%   1.000 Cr+PCr                                              
   81.710 130%   1.788 Glu+Gln                                             
  387.511  22%   8.478 Lip13a                                              
    0.000 999%   0.000 Lip13b                                              
  103.466  22%   2.264 Lip09                                               
    0.000 999%   0.000 MM09                                                
   58.126  22%   1.272 Lip20                                               
    0.000 999%   0.000 MM20                                                
    0.000 999%   0.000 MM12                                                
  285.454  18%   6.245+MM14                                                
    0.000 999%   0.000 MM17                                                
  387.511  22%   8.478 Lip13a+Lip13b                                       
  672.965  10%  14.723 MM14+Lip13a+Lip13b+MM12                             
  103.466  22%   2.264 MM09+Lip09                                          
   58.126  22%   1.272 MM20+Lip20                                          
   6 lines in following misc. output table
  FWHM = 0.061 ppm    S/N =   1                                            
  Data shift = 0.008 ppm                                                   
  Ph: 153 deg       3.9 deg/ppm                                            
  alphaB,S = 4.1E+01,   4.6E+01                                            
   14 spline knots.   Ns = 8(1)                                            
  ( 3) 2 infls.   ( 2) 2 extrs.                                            
  498 points on ppm-axis = NY
      4.000000     3.992357     3.984714     3.977070     3.969427     3.961784     3.954141     3.946497     3.938854     3.931211
      3.923568     3.915925     3.908281     3.900638     3.892995     3.885352     3.877708     3.870065     3.862422     3.854779
      3.847136     3.839492     3.831849     3.824206     3.816563     3.808919     3.801276     3.793633     3.785990     3.778347
      3.770703     3.763060     3.755417     3.747774     3.740130     3.732487     3.724844     3.717201     3.709558     3.701914
      3.694271     3.686628     3.678985     3.671341     3.663698     3.656055     3.648412     3.640769     3.633125     3.625482
      3.617839     3.610196     3.602552     3.594909     3.587266     3.579623     3.571980     3.564336     3.556693     3.549050
      3.541407     3.533763     3.526120     3.518477     3.510834     3.503191     3.495547     3.487904     3.480261     3.472618
      3.464974     3.457331     3.449688     3.442045     3.434402     3.426758     3.419115     3.411472     3.403829     3.396185
      3.388542     3.380899     3.373256     3.365613     3.357969     3.350326     3.342683     3.335040     3.327396     3.319753
      3.312110     3.304467     3.296824     3.289180     3.281537     3.273894     3.266251     3.258607     3.250964     3.243321
      3.235678     3.228034     3.220391     3.212748     3.205105     3.197462     3.189818     3.182175     3.174532     3.166889
      3.159245     3.151602     3.143959     3.136316     3.128673     3.121029     3.113386     3.105743     3.098100     3.090456
      3.082813     3.075170     3.067527     3.059884     3.052240     3.044597     3.036954     3.029311     3.021667     3.014024
      3.006381     2.998738     2.991095     2.983451     2.975808     2.968165     2.960522     2.952878     2.945235     2.937592
      2.929949     2.922306     2.914662     2.907019     2.899376     2.891733     2.884089     2.876446     2.868803     2.861160
      2.853517     2.845873     2.838230     2.830587     2.822944     2.815300     2.807657     2.800014     2.792371     2.784728
      2.777084     2.769441     2.761798     2.754155     2.746511     2.738868     2.731225     2.723582     2.715939     2.708295
      2.700652     2.693009     2.685366     2.677722     2.670079     2.662436     2.654793     2.647150     2.639506     2.631863
      2.624220     2.616577     2.608933     2.601290     2.593647     2.586004     2.578361     2.570717     2.563074     2.555431
      2.547788     2.540144     2.532501     2.524858     2.517215     2.509572     2.501928     2.494285     2.486642     2.478999
      2.471355     2.463712     2.456069     2.448426     2.440783     2.433139     2.425496     2.417853     2.410210     2.402566
      2.394923     2.387280     2.379637     2.371994     2.364350     2.356707     2.349064     2.341421     2.333777     2.326134
      2.318491     2.310848     2.303205     2.295561     2.287918     2.280275     2.272632     2.264988     2.257345     2.249702
      2.242059     2.234416     2.226772     2.219129     2.211486     2.203843     2.196199     2.188556     2.180913     2.173270
      2.165627     2.157983     2.150340     2.142697     2.135054     2.127410     2.119767     2.112124     2.104481     2.096838
      2.089194     2.081551     2.073908     2.066265     2.058621     2.050978     2.043335     2.035692     2.028049     2.020405
      2.012762     2.005119     1.997476     1.989833     1.982190     1.974546     1.966903     1.959260     1.951617     1.943974
      1.936331     1.928688     1.921045     1.913402     1.905759     1.898115     1.890472     1.882829     1.875186     1.867543
      1.859900     1.852257     1.844614     1.836971     1.829327     1.821684     1.814041     1.806398     1.798755     1.791112
      1.783469     1.775826     1.768183     1.760540     1.752896     1.745253     1.737610     1.729967     1.722324     1.714681
      1.707038     1.699395     1.691752     1.684108     1.676465     1.668822     1.661179     1.653536     1.645893     1.638250
      1.630607     1.622964     1.615321     1.607677     1.600034     1.592391     1.584748     1.577105     1.569462     1.561819
      1.554176     1.546533     1.538890     1.531246     1.523603     1.515960     1.508317     1.500674     1.493031     1.485388
      1.477745     1.470102     1.462458     1.454815     1.447172     1.439529     1.431886     1.424243     1.416600     1.408957
      1.401314     1.393671     1.386027     1.378384     1.370741     1.363098     1.355455     1.347812     1.340169     1.332526
      1.324883     1.317240     1.309596     1.301953     1.294310     1.286667     1.279024     1.271381     1.263738     1.256095
      1.248452     1.240808     1.233165     1.225522     1.217879     1.210236     1.202593     1.194950     1.187307     1.179664
      1.172021     1.164377     1.156734     1.149091     1.141448     1.133805     1.126162     1.118519     1.110876     1.103233
      1.095590     1.087946     1.080303     1.072660     1.065017     1.057374     1.049731     1.042088     1.034445     1.026802
      1.019158     1.011515     1.003872     0.996229     0.988586     0.980943     0.973300     0.965657     0.958014     0.950371
      0.942727     0.935084     0.927441     0.919798     0.912155     0.904512     0.896869     0.889226     0.881583     0.873940
      0.866296     0.858653     0.851010     0.843367     0.835724     0.828081     0.820438     0.812795     0.805152     0.797508
      0.789865     0.782222     0.774579     0.766936     0.759293     0.751650     0.744007     0.736364     0.728721     0.721077
      0.713434     0.705791     0.698148     0.690505     0.682862     0.675219     0.667576     0.659933     0.652290     0.644646
      0.637003     0.629360     0.621717     0.614074     0.606431     0.598788     0.591145     0.583502     0.575858     0.568215
      0.560572     0.552929     0.545286     0.537643     0.530000     0.522357     0.514714     0.507071     0.499427     0.491784
      0.484141     0.476498     0.468855     0.461212     0.453569     0.445925     0.438282     0.430639     0.422996     0.415353
      0.407710     0.400067     0.392424     0.384780     0.377137     0.369494     0.361851     0.354208     0.346565     0.338922
      0.331278     0.323635     0.315992     0.308349     0.300706     0.293063     0.285420     0.277777     0.270133     0.262490
      0.254847     0.247204     0.239561     0.231918     0.224275     0.216631     0.208988     0.201345
 NY phased data points follow
   6.20290E+00  4.11515E+00  4.82052E+00  6.38966E+00  6.63184E+00  5.41389E+00  3.97690E+00  7.13053E+00  6.31773E+00  3.88749E+00
   7.11998E+00  6.81490E+00  5.29567E+00  3.35552E+00  6.34482E+00  6.10163E+00  2.14535E+00  6.90954E+00  4.63100E+00  6.09616E+00
   7.41670E+00  3.78560E+00  4.51164E+00  3.70891E+00  5.44296E+00  2.80914E+00  2.00960E+00  5.78278E+00  5.49661E+00  4.30836E+00
   5.28539E+00  3.86544E+00  5.96599E+00  5.53781E+00  3.83071E+00  4.98188E+00  5.10675E+00  3.65606E+00  3.88870E+00  4.58767E+00
   4.41425E+00  3.84978E+00  3.87135E+00  3.50305E+00  3.39097E+00  3.62604E+00  4.34269E+00  3.32877E+00  4.04434E+00  4.34854E+00
   3.67919E+00  4.00806E+00  4.56962E+00  2.93397E+00  2.42340E+00  2.53673E+00  4.70240E+00  2.65907E+00  4.38887E+00  2.48008E+00
   4.82947E+00  2.80705E+00  1.87229E+00  3.17736E+00  3.48782E+00  1.72931E+00  4.44304E+00  4.02295E+00  4.51928E+00  2.71340E+00
   1.53805E+00  3.08205E+00  1.94660E+00  3.59181E+00  2.10782E+00  1.67051E+00  5.00597E+00  1.66636E+00  3.66475E+00  7.59609E-01
   4.08006E+00  2.14425E+00  2.82219E+00  3.31816E+00  1.31954E+00  2.80976E+00  3.58610E+00  2.67472E+00  3.45987E+00  3.05050E+00
   2.47900E+00  3.38194E+00  3.49298E+00  1.33117E+00  1.41405E+00  2.00995E+00  3.21473E+00  1.49594E+00  2.36866E+00  2.23592E+00
   4.12832E+00  4.56339E+00  3.81042E+00  4.52284E+00  4.32751E+00  2.36031E+00  3.31772E+00  5.79024E+00  2.77872E+00  2.10313E+00
   2.88464E+00  1.61811E+00  2.20548E+00  3.58605E+00  2.44825E+00  7.80833E-01  4.44396E+00  2.35319E+00  3.55915E+00  1.84145E+00
  -4.06462E-03  9.71703E-01  2.92620E+00  2.41077E+00  2.28558E+00  2.20108E+00  4.90590E+00  1.19459E+00  4.18476E+00  3.70416E+00
   6.49352E+00  2.80783E+00  3.65016E+00  4.28260E+00  3.94734E+00  2.11093E+00  5.23000E+00  2.22412E+00  4.21432E+00  3.51410E+00
   9.06218E-01  1.85475E+00  2.45027E+00  5.00214E+00  2.91527E+00  1.13468E+00  1.57403E+00  2.09244E+00  2.92611E+00  2.26468E+00
   3.56752E+00  1.84139E-01  1.09231E+00  5.67013E-01  6.24584E+00  9.10171E-01  3.02528E+00 -8.11812E-01  4.07603E+00  2.12949E+00
   2.30627E+00  2.10678E+00  1.76733E+00  9.01129E-01  1.20913E+00  1.37330E+00  1.14617E+00  3.84729E-01  1.74432E+00  1.47716E+00
   1.72104E+00  3.07152E+00 -2.65693E-01  2.42590E+00  1.25614E+00  2.70933E+00  3.00676E+00  2.10404E+00  3.13682E+00  3.11950E+00
  -1.06656E+00  8.96533E-01  9.69972E-01 -1.86521E-01  1.55660E+00  2.80198E-03 -3.08173E-01  1.14632E+00  1.86968E+00  3.40215E-01
   1.42032E+00  3.40610E+00  1.01968E+00  2.08571E+00  2.79372E+00  2.35384E+00  2.20742E+00  1.75011E+00 -8.41040E-01  1.00609E+00
   2.83715E+00  8.90066E-01  2.21980E+00  1.54250E+00  4.18371E+00 -8.75680E-01  7.51258E-01  2.26350E+00  3.79174E-01  8.37061E-01
   1.17290E+00  2.15954E+00  2.69269E+00  7.28465E-01  1.55027E+00  1.72528E+00  2.50592E+00  1.22030E+00  1.17813E+00  7.32876E-01
   2.80137E+00  1.16889E+00  1.27176E+00  2.68162E+00  2.91688E+00  1.81662E+00  7.41620E-01  2.69518E+00  3.48331E+00  1.96445E+00
   1.61672E+00  2.54139E-01  2.67706E+00  3.05108E+00  2.89266E+00  1.64219E+00  1.74593E+00  3.78568E+00  1.51147E+00  2.11548E+00
  -1.28865E+00  2.39829E-01  2.49746E+00  2.02351E-01  3.79972E+00  1.00300E+00  1.21768E+00  4.93104E-01  3.01907E+00  2.17731E+00
   3.43379E+00  2.99945E+00  4.49806E-01  3.98050E-01  6.91783E-01  3.50605E+00  2.29094E+00  2.68390E+00  4.18514E+00  5.46052E+00
   4.80980E+00  5.49363E+00  5.21167E+00  3.52504E+00  2.75504E+00  4.17805E+00  1.43485E+00  1.92848E+00  8.36667E-01  1.95232E+00
   1.77047E+00  3.61135E+00  1.79169E-01 -7.97601E-01  1.07730E+00  7.92059E-01  8.72448E-02  5.26729E-01  1.67331E+00 -1.66641E-01
  -4.33118E-01  3.66959E-01  1.18276E+00  5.20335E-01  1.84550E+00  6.70998E-01  7.12832E-01  7.13862E-01 -9.62580E-02 -3.64854E-01
   7.66758E-01  1.07301E+00  1.82851E+00  1.22176E+00 -4.47521E-01  1.47294E+00  2.31048E+00  7.22841E-01  1.14820E+00  1.21224E+00
   7.49012E-01  2.04780E+00  1.44365E+00  3.24714E+00  2.21796E-01  8.34277E-01  2.66943E+00 -2.51537E-01  1.36869E+00  3.15214E+00
   2.46431E+00  1.40592E+00  2.89148E+00  1.80404E+00  1.85707E+00  2.48704E+00  2.99124E+00  1.24109E+00  7.03178E-01  9.85056E-01
   9.76103E-01  1.88930E+00  3.52162E+00  2.99908E+00  2.32177E+00  2.83185E+00  4.48240E+00  2.89714E+00  3.91461E+00  2.77493E+00
   3.38831E+00  3.59342E+00  3.83473E+00  4.83882E+00  3.85012E+00  3.19147E+00  4.95655E+00  2.81900E+00  4.63282E+00  3.22901E+00
   4.48708E+00  2.35066E+00  2.46265E+00  2.10600E+00  1.80079E+00  1.39111E+00  2.66128E+00  1.28860E+00  6.68309E-01  3.00046E+00
   2.32529E+00 -1.83428E+00  3.60690E-02 -1.24420E+00 -2.43185E+00 -4.37047E-01 -1.40588E+00 -3.03102E+00 -1.50835E+00 -2.05237E+00
  -2.01049E+00 -8.66778E-02 -5.32643E-02  1.36846E+00  9.38584E-02 -1.41555E+00  6.35556E-01 -9.23347E-01 -2.23919E+00 -2.70493E+00
   3.48530E-01 -4.68369E-01 -3.94812E-01 -2.57571E+00 -2.42212E+00 -1.39288E+00  3.13118E-01 -2.01293E+00 -1.24448E+00 -2.35751E+00
  -4.46489E+00 -1.48516E+00 -9.57503E-01 -5.36114E-01 -6.76725E-01  2.76414E-02 -1.23637E+00 -8.61321E-01 -2.56805E+00 -2.12681E+00
  -1.24961E+00 -1.07602E+00 -1.33403E+00  1.35311E+00 -1.14708E+00  1.36837E+00  1.97468E+00  6.69846E-01 -4.88557E-01 -1.60289E+00
  -4.23725E-01  1.90832E+00 -1.07885E+00  3.19213E+00  2.30990E+00  2.11469E+00  1.70316E+00  2.15172E+00  9.50527E-01  1.94546E+00
   1.56557E+00  6.66330E-01  1.42766E+00  6.17694E-01  2.07819E-01 -7.41050E-01  4.69304E-02 -1.96530E+00 -2.41135E+00 -1.14777E+00
   8.03094E-01  3.53405E-01  2.09363E-01  7.41878E-01  1.07137E-01 -9.15902E-01  9.01523E-01  8.20239E-02 -2.71180E-01 -2.89605E-01
  -2.91704E+00  1.10957E+00 -3.10079E+00 -6.37461E-01 -1.68428E+00 -5.98149E-01  1.45170E+00 -1.41750E+00  1.73042E+00 -5.80576E-01
  -2.18993E+00 -1.04056E+00 -1.74056E+00 -2.77739E-01 -1.02596E-01  6.22443E-01 -1.85967E+00 -1.29249E+00 -3.86441E-01  1.15060E-01
   1.26636E+00 -1.29379E+00 -8.27556E-01  6.31115E-01  1.77896E+00 -1.40697E-01  1.31965E+00 -8.85896E-03 -1.31738E+00 -3.34282E-01
   3.71289E-01 -2.52751E-01 -1.63563E+00 -2.47106E-01 -3.62904E-01  9.65869E-03  3.67976E-01  5.66823E-01 -1.97625E+00 -2.94160E-01
  -2.20981E+00  1.33298E+00 -2.38257E-01 -4.31137E-01 -1.11770E+00 -4.11674E-01 -4.27511E-01  8.08191E-02 -1.77255E+00  2.95364E-01
  -5.50201E-01 -7.90776E-01 -2.65730E-01  7.12363E-01 -1.75454E+00  1.38722E+00  1.66632E+00  3.38892E-01 -1.49611E+00 -1.26555E-01
  -3.31805E-01  2.32229E-01 -4.62015E-01 -1.92230E-01  1.33515E+00 -2.36651E+00  1.11521E+00  7.82755E-01
 NY points of the fit to the data follow
   4.37936E+00  4.23518E+00  4.09312E+00  4.02745E+00  4.05756E+00  4.17909E+00  4.37649E+00  4.60499E+00  4.81475E+00  4.97367E+00
   5.06918E+00  5.09563E+00  5.05419E+00  4.95099E+00  4.78931E+00  4.57952E+00  4.35409E+00  4.14802E+00  4.00185E+00  3.95671E+00
   3.96765E+00  3.94997E+00  3.84305E+00  3.70361E+00  3.64101E+00  3.70983E+00  3.91387E+00  4.23012E+00  4.60281E+00  4.95489E+00
   5.22901E+00  5.40090E+00  5.46207E+00  5.41513E+00  5.26098E+00  5.00306E+00  4.65194E+00  4.24528E+00  3.84155E+00  3.52493E+00
   3.37485E+00  3.33558E+00  3.37125E+00  3.48070E+00  3.63790E+00  3.80143E+00  3.93879E+00  4.03759E+00  4.08644E+00  4.07918E+00
   4.01982E+00  3.91294E+00  3.76987E+00  3.60691E+00  3.44230E+00  3.30744E+00  3.23598E+00  3.24600E+00  3.31858E+00  3.40334E+00
   3.46302E+00  3.48641E+00  3.47852E+00  3.44739E+00  3.39897E+00  3.34353E+00  3.29208E+00  3.25011E+00  3.22270E+00  3.22107E+00
   3.24571E+00  3.28413E+00  3.32328E+00  3.34919E+00  3.35581E+00  3.34330E+00  3.31619E+00  3.28002E+00  3.23757E+00  3.20068E+00
   3.17701E+00  3.16603E+00  3.16112E+00  3.14789E+00  3.11872E+00  3.07478E+00  3.02157E+00  2.96693E+00  2.91765E+00  2.88101E+00
   2.86253E+00  2.86154E+00  2.87305E+00  2.88686E+00  2.87399E+00  2.81711E+00  2.79755E+00  2.87671E+00  3.05903E+00  3.32009E+00
   3.62016E+00  3.90202E+00  4.11423E+00  4.23265E+00  4.25289E+00  4.17813E+00  4.02302E+00  3.79628E+00  3.50157E+00  3.16383E+00
   2.83263E+00  2.56943E+00  2.44346E+00  2.45865E+00  2.49925E+00  2.52811E+00  2.54393E+00  2.54298E+00  2.51319E+00  2.43512E+00
   2.37857E+00  2.43057E+00  2.61194E+00  2.89356E+00  3.22541E+00  3.54252E+00  3.79546E+00  3.97881E+00  4.09235E+00  4.11920E+00
   4.04458E+00  3.85459E+00  3.53800E+00  3.11682E+00  2.65835E+00  2.25552E+00  1.99769E+00  1.92847E+00  1.94885E+00  1.99347E+00
   2.05537E+00  2.13442E+00  2.23295E+00  2.34876E+00  2.45316E+00  2.50399E+00  2.49442E+00  2.43544E+00  2.34321E+00  2.24738E+00
   2.16860E+00  2.11587E+00  2.08964E+00  2.07723E+00  2.07002E+00  2.06015E+00  2.04383E+00  2.02084E+00  1.99961E+00  1.98696E+00
   1.98147E+00  1.98008E+00  1.97940E+00  1.97599E+00  1.96756E+00  1.95546E+00  1.94554E+00  1.94055E+00  1.93904E+00  1.93240E+00
   1.90857E+00  1.86725E+00  1.82356E+00  1.79070E+00  1.77085E+00  1.75971E+00  1.74814E+00  1.73927E+00  1.73517E+00  1.73315E+00
   1.72567E+00  1.70707E+00  1.67859E+00  1.64921E+00  1.63425E+00  1.65168E+00  1.71205E+00  1.81558E+00  1.94902E+00  2.08651E+00
   2.20005E+00  2.25408E+00  2.24194E+00  2.17729E+00  2.07618E+00  1.95159E+00  1.82634E+00  1.72674E+00  1.67937E+00  1.69876E+00
   1.77944E+00  1.90277E+00  2.04051E+00  2.15264E+00  2.21215E+00  2.21183E+00  2.14792E+00  2.02519E+00  1.87417E+00  1.75930E+00
   1.70393E+00  1.70594E+00  1.75594E+00  1.84094E+00  1.93927E+00  2.01559E+00  2.03816E+00  1.99962E+00  1.91754E+00  1.80850E+00
   1.69467E+00  1.60715E+00  1.56125E+00  1.56518E+00  1.61845E+00  1.69865E+00  1.77922E+00  1.83290E+00  1.85775E+00  1.85329E+00
   1.83235E+00  1.82180E+00  1.83481E+00  1.87442E+00  1.93536E+00  1.99352E+00  2.02098E+00  2.00147E+00  1.93543E+00  1.83878E+00
   1.72776E+00  1.61951E+00  1.54093E+00  1.51231E+00  1.53201E+00  1.59129E+00  1.68327E+00  1.79941E+00  1.91075E+00  1.98319E+00
   2.00829E+00  1.96895E+00  1.81769E+00  1.67025E+00  1.74368E+00  2.10559E+00  2.68179E+00  3.34881E+00  3.96647E+00  4.40210E+00
   4.58812E+00  4.52194E+00  4.22836E+00  3.75285E+00  3.14517E+00  2.43802E+00  1.67415E+00  9.45315E-01  3.67382E-01  5.79427E-02
   8.44837E-02  2.60595E-01  4.04617E-01  5.16345E-01  6.06460E-01  6.77815E-01  7.35324E-01  7.81763E-01  8.17612E-01  8.43974E-01
   8.63119E-01  8.77754E-01  8.90886E-01  9.05666E-01  9.22917E-01  9.41918E-01  9.62232E-01  9.83030E-01  1.00322E+00  1.02224E+00
   1.03970E+00  1.05578E+00  1.07103E+00  1.08583E+00  1.10060E+00  1.11586E+00  1.13183E+00  1.14847E+00  1.16585E+00  1.18420E+00
   1.20359E+00  1.22397E+00  1.24550E+00  1.26835E+00  1.29266E+00  1.31870E+00  1.34674E+00  1.37707E+00  1.41006E+00  1.44608E+00
   1.48556E+00  1.52897E+00  1.57680E+00  1.62953E+00  1.68757E+00  1.75131E+00  1.82097E+00  1.89656E+00  1.97780E+00  2.06888E+00
   2.18405E+00  2.32138E+00  2.46396E+00  2.59552E+00  2.70521E+00  2.78646E+00  2.83611E+00  2.85014E+00  2.84170E+00  2.83473E+00
   2.84555E+00  2.87867E+00  2.93157E+00  2.99837E+00  3.07018E+00  3.13624E+00  3.18485E+00  3.19662E+00  3.14866E+00  3.04755E+00
   2.90286E+00  2.71988E+00  2.50766E+00  2.27948E+00  2.05417E+00  1.85160E+00  1.66355E+00  1.47898E+00  1.29662E+00  1.11706E+00
   9.41079E-01  7.69422E-01  6.02761E-01  4.41719E-01  2.86905E-01  1.38939E-01 -1.53527E-03 -1.33854E-01 -2.57347E-01 -3.71366E-01
  -4.75320E-01 -5.68715E-01 -6.51194E-01 -7.22562E-01 -7.82804E-01 -8.32091E-01 -8.70777E-01 -8.99387E-01 -9.18589E-01 -9.29165E-01
  -9.31973E-01 -9.27911E-01 -9.17884E-01 -9.02774E-01 -8.83418E-01 -8.60583E-01 -8.34950E-01 -8.07110E-01 -7.77557E-01 -7.46699E-01
  -7.14850E-01 -6.82247E-01 -6.49050E-01 -6.15356E-01 -5.81215E-01 -5.46639E-01 -5.11613E-01 -4.76110E-01 -4.40102E-01 -4.03580E-01
  -3.66571E-01 -3.29153E-01 -2.91473E-01 -2.53761E-01 -2.16346E-01 -1.79670E-01 -1.44295E-01 -1.10899E-01 -8.02701E-02 -5.32846E-02
  -3.08797E-02 -1.40160E-02 -3.62950E-03 -5.74329E-04 -5.56390E-03 -1.91143E-02 -4.14946E-02 -7.26869E-02 -1.12362E-01 -1.59867E-01
  -2.14244E-01 -2.74261E-01 -3.38469E-01 -4.05269E-01 -4.72989E-01 -5.39968E-01 -6.04632E-01 -6.65570E-01 -7.21589E-01 -7.71763E-01
  -8.15444E-01 -8.52272E-01 -8.82156E-01 -9.05254E-01 -9.21927E-01 -9.32696E-01 -9.38192E-01 -9.39111E-01 -9.36169E-01 -9.30073E-01
  -9.21490E-01 -9.11024E-01 -8.99208E-01 -8.86493E-01 -8.73254E-01 -8.59793E-01 -8.46344E-01 -8.33083E-01 -8.20133E-01 -8.07577E-01
  -7.95467E-01 -7.83832E-01 -7.72681E-01 -7.62010E-01 -7.51803E-01 -7.42040E-01 -7.32699E-01 -7.23758E-01 -7.15190E-01 -7.06972E-01
  -6.99077E-01 -6.91484E-01 -6.84170E-01 -6.77119E-01 -6.70310E-01 -6.63727E-01 -6.57352E-01 -6.51171E-01 -6.45172E-01 -6.39343E-01
  -6.33671E-01 -6.28146E-01 -6.22756E-01 -6.17494E-01 -6.12350E-01 -6.07319E-01 -6.02390E-01 -5.97555E-01 -5.92808E-01 -5.88144E-01
  -5.83558E-01 -5.79043E-01 -5.74592E-01 -5.70201E-01 -5.65865E-01 -5.61580E-01 -5.57342E-01 -5.53146E-01 -5.48988E-01 -5.44862E-01
  -5.40767E-01 -5.36699E-01 -5.32655E-01 -5.28630E-01 -5.24620E-01 -5.20621E-01 -5.16631E-01 -5.12648E-01 -5.08666E-01 -5.04683E-01
  -5.00693E-01 -4.96694E-01 -4.92683E-01 -4.88657E-01 -4.84610E-01 -4.80537E-01 -4.76433E-01 -4.72295E-01
 NY background values follow
     3.837E+00    3.826E+00    3.814E+00    3.802E+00    3.791E+00    3.779E+00    3.768E+00    3.756E+00    3.744E+00    3.733E+00
     3.721E+00    3.709E+00    3.697E+00    3.686E+00    3.674E+00    3.662E+00    3.651E+00    3.639E+00    3.627E+00    3.615E+00
     3.604E+00    3.592E+00    3.580E+00    3.568E+00    3.557E+00    3.545E+00    3.533E+00    3.521E+00    3.510E+00    3.498E+00
     3.486E+00    3.474E+00    3.462E+00    3.451E+00    3.439E+00    3.427E+00    3.415E+00    3.403E+00    3.392E+00    3.380E+00
     3.368E+00    3.356E+00    3.344E+00    3.332E+00    3.321E+00    3.309E+00    3.297E+00    3.285E+00    3.273E+00    3.261E+00
     3.250E+00    3.238E+00    3.226E+00    3.214E+00    3.202E+00    3.190E+00    3.178E+00    3.167E+00    3.155E+00    3.143E+00
     3.131E+00    3.119E+00    3.107E+00    3.096E+00    3.084E+00    3.072E+00    3.060E+00    3.048E+00    3.036E+00    3.025E+00
     3.013E+00    3.001E+00    2.989E+00    2.977E+00    2.965E+00    2.954E+00    2.942E+00    2.930E+00    2.918E+00    2.906E+00
     2.895E+00    2.883E+00    2.871E+00    2.859E+00    2.847E+00    2.836E+00    2.824E+00    2.812E+00    2.800E+00    2.789E+00
     2.777E+00    2.765E+00    2.753E+00    2.742E+00    2.730E+00    2.718E+00    2.707E+00    2.695E+00    2.683E+00    2.671E+00
     2.660E+00    2.648E+00    2.636E+00    2.625E+00    2.613E+00    2.601E+00    2.590E+00    2.578E+00    2.566E+00    2.555E+00
     2.543E+00    2.532E+00    2.520E+00    2.508E+00    2.497E+00    2.485E+00    2.474E+00    2.462E+00    2.451E+00    2.439E+00
     2.428E+00    2.416E+00    2.405E+00    2.393E+00    2.382E+00    2.370E+00    2.359E+00    2.347E+00    2.336E+00    2.324E+00
     2.313E+00    2.302E+00    2.290E+00    2.279E+00    2.267E+00    2.256E+00    2.245E+00    2.233E+00    2.222E+00    2.211E+00
     2.200E+00    2.188E+00    2.177E+00    2.166E+00    2.154E+00    2.143E+00    2.132E+00    2.121E+00    2.110E+00    2.098E+00
     2.087E+00    2.076E+00    2.065E+00    2.054E+00    2.043E+00    2.032E+00    2.021E+00    2.010E+00    1.999E+00    1.988E+00
     1.977E+00    1.966E+00    1.955E+00    1.944E+00    1.933E+00    1.922E+00    1.911E+00    1.900E+00    1.889E+00    1.878E+00
     1.867E+00    1.857E+00    1.846E+00    1.835E+00    1.824E+00    1.813E+00    1.803E+00    1.792E+00    1.781E+00    1.771E+00
     1.760E+00    1.749E+00    1.739E+00    1.728E+00    1.717E+00    1.707E+00    1.696E+00    1.686E+00    1.675E+00    1.665E+00
     1.654E+00    1.644E+00    1.633E+00    1.623E+00    1.613E+00    1.602E+00    1.592E+00    1.582E+00    1.571E+00    1.561E+00
     1.551E+00    1.541E+00    1.530E+00    1.520E+00    1.510E+00    1.500E+00    1.490E+00    1.479E+00    1.469E+00    1.459E+00
     1.449E+00    1.439E+00    1.429E+00    1.419E+00    1.409E+00    1.399E+00    1.389E+00    1.380E+00    1.370E+00    1.360E+00
     1.350E+00    1.340E+00    1.330E+00    1.321E+00    1.311E+00    1.301E+00    1.292E+00    1.282E+00    1.272E+00    1.263E+00
     1.253E+00    1.244E+00    1.234E+00    1.225E+00    1.215E+00    1.206E+00    1.196E+00    1.187E+00    1.178E+00    1.168E+00
     1.159E+00    1.150E+00    1.140E+00    1.131E+00    1.122E+00    1.113E+00    1.104E+00    1.094E+00    1.085E+00    1.076E+00
     1.067E+00    1.058E+00    1.049E+00    1.040E+00    1.031E+00    1.022E+00    1.013E+00    1.005E+00    9.957E-01    9.869E-01
     9.781E-01    9.694E-01    9.607E-01    9.520E-01    9.433E-01    9.347E-01    9.261E-01    9.175E-01    9.090E-01    9.005E-01
     8.920E-01    8.836E-01    8.751E-01    8.667E-01    8.584E-01    8.500E-01    8.417E-01    8.335E-01    8.252E-01    8.170E-01
     8.088E-01    8.007E-01    7.926E-01    7.845E-01    7.764E-01    7.684E-01    7.604E-01    7.524E-01    7.445E-01    7.366E-01
     7.287E-01    7.209E-01    7.131E-01    7.053E-01    6.976E-01    6.899E-01    6.822E-01    6.745E-01    6.669E-01    6.594E-01
     6.518E-01    6.443E-01    6.368E-01    6.294E-01    6.219E-01    6.146E-01    6.072E-01    5.999E-01    5.926E-01    5.854E-01
     5.782E-01    5.710E-01    5.638E-01    5.567E-01    5.496E-01    5.426E-01    5.356E-01    5.286E-01    5.216E-01    5.147E-01
     5.079E-01    5.010E-01    4.942E-01    4.874E-01    4.807E-01    4.740E-01    4.673E-01    4.607E-01    4.541E-01    4.476E-01
     4.410E-01    4.345E-01    4.281E-01    4.217E-01    4.153E-01    4.090E-01    4.026E-01    3.964E-01    3.901E-01    3.839E-01
     3.778E-01    3.716E-01    3.655E-01    3.595E-01    3.535E-01    3.475E-01    3.415E-01    3.356E-01    3.298E-01    3.239E-01
     3.181E-01    3.124E-01    3.066E-01    3.009E-01    2.953E-01    2.897E-01    2.841E-01    2.786E-01    2.731E-01    2.676E-01
     2.622E-01    2.568E-01    2.515E-01    2.461E-01    2.409E-01    2.356E-01    2.304E-01    2.253E-01    2.202E-01    2.151E-01
     2.101E-01    2.050E-01    2.001E-01    1.952E-01    1.903E-01    1.854E-01    1.806E-01    1.758E-01    1.711E-01    1.664E-01
     1.618E-01    1.572E-01    1.526E-01    1.481E-01    1.436E-01    1.391E-01    1.347E-01    1.303E-01    1.260E-01    1.217E-01
     1.174E-01    1.132E-01    1.090E-01    1.049E-01    1.008E-01    9.675E-02    9.273E-02    8.876E-02    8.483E-02    8.093E-02
     7.708E-02    7.326E-02    6.949E-02    6.576E-02    6.207E-02    5.842E-02    5.481E-02    5.124E-02    4.771E-02    4.422E-02
     4.078E-02    3.737E-02    3.401E-02    3.069E-02    2.741E-02    2.417E-02    2.097E-02    1.781E-02    1.470E-02    1.162E-02
     8.588E-03    5.597E-03    2.648E-03   -2.602E-04   -3.126E-03   -5.951E-03   -8.733E-03   -1.147E-02   -1.417E-02   -1.683E-02
    -1.944E-02   -2.202E-02   -2.455E-02   -2.704E-02   -2.948E-02   -3.189E-02   -3.425E-02   -3.657E-02   -3.885E-02   -4.108E-02
    -4.327E-02   -4.542E-02   -4.753E-02   -4.959E-02   -5.162E-02   -5.360E-02   -5.553E-02   -5.743E-02   -5.928E-02   -6.109E-02
    -6.285E-02   -6.458E-02   -6.626E-02   -6.790E-02   -6.949E-02   -7.104E-02   -7.255E-02   -7.402E-02   -7.544E-02   -7.682E-02
    -7.816E-02   -7.945E-02   -8.070E-02   -8.191E-02   -8.307E-02   -8.419E-02   -8.527E-02   -8.630E-02   -8.729E-02   -8.824E-02
    -8.914E-02   -9.000E-02   -9.082E-02   -9.159E-02   -9.232E-02   -9.301E-02   -9.365E-02   -9.425E-02   -9.480E-02   -9.532E-02
    -9.578E-02   -9.621E-02   -9.659E-02   -9.693E-02   -9.722E-02   -9.747E-02   -9.768E-02   -9.784E-02   -9.796E-02   -9.803E-02
    -9.806E-02   -9.805E-02   -9.799E-02   -9.789E-02   -9.775E-02   -9.756E-02   -9.733E-02   -9.705E-02
 Ala      Conc. = 1.89E+01
