 LCModel (Version 6.3-1L) Copyright: S.W. Provencher.          Ref.: Magn. Reson. Med. 30:672-679 (1993).                
 Slice#3 Row#7 Col#11  PD_05_press_1_raw_act
 36 lines in following concentration table = NCONC+1
    Conc.  %SD /Cr+PCr  Metabolite                                         
   32.000 205% 3.6E-02 Ala                                                 
    0.000 999%   0.000 Asp                                                 
  305.339  57%   0.342 Cr                                                  
  587.482  31%   0.658 PCr                                                 
    0.000 999%   0.000 GABA                                                
    0.000 999%   0.000 Glc                                                 
  253.241  55%   0.284 Gln                                                 
 1.08E+03  15%   1.208 Glu                                                 
  248.019   6%   0.278 GPC                                                 
    0.000 999%   0.000 PCh                                                 
  225.972  20%   0.253 GSH                                                 
  665.820  25%   0.746 Ins                                                 
    0.000 999%   0.000 Lac                                                 
 1.60E+03   6%   1.787 NAA                                                 
  100.170 104%   0.112 NAAG                                                
   62.694  28% 7.0E-02 Scyllo                                              
    0.000 999%   0.000 Tau                                                 
  487.192  16%   0.546 -CrCH2                                              
  248.019   6%   0.278 GPC+PCh                                             
 1.70E+03   3%   1.899 NAA+NAAG                                            
  892.821   4%   1.000 Cr+PCr                                              
 1.33E+03  17%   1.491 Glu+Gln                                             
    0.000 999%   0.000 Lip13a                                              
    0.000 999%   0.000 Lip13b                                              
    0.000 999%   0.000 Lip09                                               
 1.00E+03  15%   1.125 MM09                                                
 1.97E-02 999% 2.2E-05 Lip20                                               
 2.97E+03  10%   3.324 MM20                                                
   10.464 999% 1.2E-02 MM12                                                
    0.000 999%   0.000 MM14                                                
  863.493  22%   0.967 MM17                                                
    0.000 999%   0.000 Lip13a+Lip13b                                       
   10.464 999% 1.2E-02 MM14+Lip13a+Lip13b+MM12                             
 1.00E+03  15%   1.125 MM09+Lip09                                          
 2.97E+03  10%   3.324 MM20+Lip20                                          
   6 lines in following misc. output table
  FWHM = 0.046 ppm    S/N =  14                                            
  Data shift = 0.008 ppm                                                   
  Ph:  -1 deg      -9.2 deg/ppm                                            
  alphaB,S = 3.4E-01,   9.6E+01                                            
   14 spline knots.   Ns = 7(1)                                            
  (11) 3 infls.   ( 3) 1 extrs.                                            
  498 points on ppm-axis = NY
      4.000000     3.992357     3.984714     3.977070     3.969427     3.961784     3.954141     3.946497     3.938854     3.931211
      3.923568     3.915925     3.908281     3.900638     3.892995     3.885352     3.877708     3.870065     3.862422     3.854779
      3.847136     3.839492     3.831849     3.824206     3.816563     3.808919     3.801276     3.793633     3.785990     3.778347
      3.770703     3.763060     3.755417     3.747774     3.740130     3.732487     3.724844     3.717201     3.709558     3.701914
      3.694271     3.686628     3.678985     3.671341     3.663698     3.656055     3.648412     3.640769     3.633125     3.625482
      3.617839     3.610196     3.602552     3.594909     3.587266     3.579623     3.571980     3.564336     3.556693     3.549050
      3.541407     3.533763     3.526120     3.518477     3.510834     3.503191     3.495547     3.487904     3.480261     3.472618
      3.464974     3.457331     3.449688     3.442045     3.434402     3.426758     3.419115     3.411472     3.403829     3.396185
      3.388542     3.380899     3.373256     3.365613     3.357969     3.350326     3.342683     3.335040     3.327396     3.319753
      3.312110     3.304467     3.296824     3.289180     3.281537     3.273894     3.266251     3.258607     3.250964     3.243321
      3.235678     3.228034     3.220391     3.212748     3.205105     3.197462     3.189818     3.182175     3.174532     3.166889
      3.159245     3.151602     3.143959     3.136316     3.128673     3.121029     3.113386     3.105743     3.098100     3.090456
      3.082813     3.075170     3.067527     3.059884     3.052240     3.044597     3.036954     3.029311     3.021667     3.014024
      3.006381     2.998738     2.991095     2.983451     2.975808     2.968165     2.960522     2.952878     2.945235     2.937592
      2.929949     2.922306     2.914662     2.907019     2.899376     2.891733     2.884089     2.876446     2.868803     2.861160
      2.853517     2.845873     2.838230     2.830587     2.822944     2.815300     2.807657     2.800014     2.792371     2.784728
      2.777084     2.769441     2.761798     2.754155     2.746511     2.738868     2.731225     2.723582     2.715939     2.708295
      2.700652     2.693009     2.685366     2.677722     2.670079     2.662436     2.654793     2.647150     2.639506     2.631863
      2.624220     2.616577     2.608933     2.601290     2.593647     2.586004     2.578361     2.570717     2.563074     2.555431
      2.547788     2.540144     2.532501     2.524858     2.517215     2.509572     2.501928     2.494285     2.486642     2.478999
      2.471355     2.463712     2.456069     2.448426     2.440783     2.433139     2.425496     2.417853     2.410210     2.402566
      2.394923     2.387280     2.379637     2.371994     2.364350     2.356707     2.349064     2.341421     2.333777     2.326134
      2.318491     2.310848     2.303205     2.295561     2.287918     2.280275     2.272632     2.264988     2.257345     2.249702
      2.242059     2.234416     2.226772     2.219129     2.211486     2.203843     2.196199     2.188556     2.180913     2.173270
      2.165627     2.157983     2.150340     2.142697     2.135054     2.127410     2.119767     2.112124     2.104481     2.096838
      2.089194     2.081551     2.073908     2.066265     2.058621     2.050978     2.043335     2.035692     2.028049     2.020405
      2.012762     2.005119     1.997476     1.989833     1.982190     1.974546     1.966903     1.959260     1.951617     1.943974
      1.936331     1.928688     1.921045     1.913402     1.905759     1.898115     1.890472     1.882829     1.875186     1.867543
      1.859900     1.852257     1.844614     1.836971     1.829327     1.821684     1.814041     1.806398     1.798755     1.791112
      1.783469     1.775826     1.768183     1.760540     1.752896     1.745253     1.737610     1.729967     1.722324     1.714681
      1.707038     1.699395     1.691752     1.684108     1.676465     1.668822     1.661179     1.653536     1.645893     1.638250
      1.630607     1.622964     1.615321     1.607677     1.600034     1.592391     1.584748     1.577105     1.569462     1.561819
      1.554176     1.546533     1.538890     1.531246     1.523603     1.515960     1.508317     1.500674     1.493031     1.485388
      1.477745     1.470102     1.462458     1.454815     1.447172     1.439529     1.431886     1.424243     1.416600     1.408957
      1.401314     1.393671     1.386027     1.378384     1.370741     1.363098     1.355455     1.347812     1.340169     1.332526
      1.324883     1.317240     1.309596     1.301953     1.294310     1.286667     1.279024     1.271381     1.263738     1.256095
      1.248452     1.240808     1.233165     1.225522     1.217879     1.210236     1.202593     1.194950     1.187307     1.179664
      1.172021     1.164377     1.156734     1.149091     1.141448     1.133805     1.126162     1.118519     1.110876     1.103233
      1.095590     1.087946     1.080303     1.072660     1.065017     1.057374     1.049731     1.042088     1.034445     1.026802
      1.019158     1.011515     1.003872     0.996229     0.988586     0.980943     0.973300     0.965657     0.958014     0.950371
      0.942727     0.935084     0.927441     0.919798     0.912155     0.904512     0.896869     0.889226     0.881583     0.873940
      0.866296     0.858653     0.851010     0.843367     0.835724     0.828081     0.820438     0.812795     0.805152     0.797508
      0.789865     0.782222     0.774579     0.766936     0.759293     0.751650     0.744007     0.736364     0.728721     0.721077
      0.713434     0.705791     0.698148     0.690505     0.682862     0.675219     0.667576     0.659933     0.652290     0.644646
      0.637003     0.629360     0.621717     0.614074     0.606431     0.598788     0.591145     0.583502     0.575858     0.568215
      0.560572     0.552929     0.545286     0.537643     0.530000     0.522357     0.514714     0.507071     0.499427     0.491784
      0.484141     0.476498     0.468855     0.461212     0.453569     0.445925     0.438282     0.430639     0.422996     0.415353
      0.407710     0.400067     0.392424     0.384780     0.377137     0.369494     0.361851     0.354208     0.346565     0.338922
      0.331278     0.323635     0.315992     0.308349     0.300706     0.293063     0.285420     0.277777     0.270133     0.262490
      0.254847     0.247204     0.239561     0.231918     0.224275     0.216631     0.208988     0.201345
 NY phased data points follow
   5.15678E+00  6.52178E+00  7.80787E+00  5.19043E+00  7.92528E+00  7.99005E+00  1.06557E+01  1.15098E+01  9.39969E+00  1.26712E+01
   1.49247E+01  1.53192E+01  1.72649E+01  1.41664E+01  1.31465E+01  1.12350E+01  8.08200E+00  1.10883E+01  6.49738E+00  8.11594E+00
   5.02968E+00  5.91591E+00  6.38400E+00  8.74264E+00  7.23153E+00  8.57454E+00  8.48930E+00  1.11940E+01  7.57778E+00  8.73898E+00
   9.12009E+00  1.11343E+01  1.11904E+01  9.51431E+00  9.83965E+00  1.00777E+01  1.22922E+01  1.01174E+01  7.95960E+00  7.89567E+00
   1.14927E+01  9.36861E+00  1.01371E+01  1.03971E+01  1.12601E+01  1.00594E+01  1.18667E+01  1.40645E+01  1.39884E+01  1.24408E+01
   1.30915E+01  1.36751E+01  7.58511E+00  9.64363E+00  1.00139E+01  7.92420E+00  7.53632E+00  1.11116E+01  8.61442E+00  7.78045E+00
   6.88676E+00  6.69270E+00  4.28447E+00  4.26558E+00  3.62231E+00  1.42747E+00  3.51331E+00  3.32362E+00  4.16683E+00  3.03467E+00
   5.66104E+00  5.34840E+00  4.85246E+00  3.96012E+00  4.14658E+00  3.39752E+00  4.93934E+00  5.02159E+00  5.51643E-01  3.37169E-01
   2.73094E+00  5.18773E+00  1.79191E+00  6.16203E+00  6.59921E+00  6.08789E+00  6.37009E+00  9.32521E+00  4.77992E+00  8.68726E+00
   7.07930E+00  5.61815E+00  4.93805E+00  4.84060E+00  6.25098E+00  7.69129E+00  7.01248E+00  1.17955E+01  1.23547E+01  1.14403E+01
   1.82039E+01  2.23009E+01  2.51730E+01  3.01360E+01  2.68352E+01  2.41290E+01  2.07030E+01  1.51072E+01  1.31737E+01  9.33411E+00
   6.48700E+00  6.10974E+00  7.50315E+00  6.87967E+00  6.25784E+00  7.52948E+00  5.12214E+00  5.65466E+00  6.80841E+00  9.70033E+00
   1.00485E+01  1.07638E+01  1.37823E+01  1.49867E+01  2.12687E+01  3.15591E+01  3.49064E+01  3.92542E+01  3.77192E+01  3.51614E+01
   3.03846E+01  2.21905E+01  1.79270E+01  1.48649E+01  1.23354E+01  9.39525E+00  9.92084E+00  8.56743E+00  1.13177E+01  5.63304E+00
   1.01849E+01  6.55367E+00  1.19784E+01  1.02735E+01  6.81984E+00  9.18406E+00  9.04248E+00  8.35445E+00  8.49834E+00  9.82247E+00
   7.13034E+00  8.40321E+00  9.39352E+00  8.44189E+00  9.82185E+00  8.34524E+00  7.62908E+00  8.67209E+00  9.28182E+00  7.57354E+00
   8.39354E+00  9.01600E+00  6.90271E+00  6.91512E+00  5.62650E+00  7.04278E+00  1.07450E+01  6.81335E+00  5.46154E+00  6.83260E+00
   5.58061E+00  4.26181E+00  4.36851E+00 -2.54638E-02  6.19701E-01 -7.57856E-01 -1.80045E+00  1.06042E+00  1.03277E+00  5.42280E+00
   3.78613E+00  4.13053E+00  2.77378E+00  4.67711E+00  6.28075E+00  4.66566E+00  6.58449E+00  5.42863E+00  3.24934E+00  7.16125E+00
   9.12058E+00  9.87213E+00  1.16356E+01  1.24796E+01  9.26185E+00  7.73124E+00  1.05345E+01  9.91729E+00  5.63808E+00  7.05145E+00
   8.34767E+00  8.62389E+00  1.15857E+01  1.11039E+01  1.52356E+01  1.43212E+01  1.18941E+01  1.28493E+01  9.73095E+00  1.04611E+01
   9.58018E+00  1.46975E+01  1.64785E+01  1.77876E+01  2.26173E+01  2.04553E+01  2.10942E+01  2.20380E+01  1.79239E+01  1.53437E+01
   1.53819E+01  1.08051E+01  1.08331E+01  1.13185E+01  1.40495E+01  1.59861E+01  1.68046E+01  1.74730E+01  1.75046E+01  1.99757E+01
   1.92277E+01  1.72350E+01  1.85984E+01  1.93597E+01  1.70096E+01  2.03115E+01  1.94266E+01  1.76294E+01  1.78884E+01  1.40895E+01
   1.63626E+01  1.50199E+01  1.55692E+01  1.32485E+01  1.69717E+01  1.93175E+01  1.89269E+01  2.30104E+01  2.26754E+01  2.12727E+01
   2.41412E+01  2.24611E+01  2.52674E+01  2.82061E+01  3.23283E+01  3.89955E+01  4.64313E+01  5.14126E+01  6.38851E+01  7.74120E+01
   7.76417E+01  7.25430E+01  6.26038E+01  5.18170E+01  4.22408E+01  3.35153E+01  2.42355E+01  2.27706E+01  1.91721E+01  1.88542E+01
   1.54295E+01  1.63886E+01  1.62222E+01  1.82485E+01  1.84579E+01  1.75120E+01  1.53766E+01  1.76840E+01  1.65429E+01  1.55953E+01
   1.64320E+01  1.27577E+01  1.35382E+01  1.31639E+01  1.25009E+01  1.28991E+01  1.28385E+01  1.30686E+01  1.10664E+01  1.17968E+01
   1.41277E+01  1.37081E+01  1.16969E+01  1.09851E+01  1.32146E+01  1.01297E+01  1.27043E+01  1.02399E+01  1.11925E+01  1.16707E+01
   1.12589E+01  1.26420E+01  9.14179E+00  8.50984E+00  1.00321E+01  1.02758E+01  1.18498E+01  1.31269E+01  9.78577E+00  1.00472E+01
   9.15097E+00  1.08964E+01  9.51210E+00  8.50760E+00  1.00471E+01  9.67206E+00  9.70225E+00  9.59652E+00  9.12258E+00  6.39689E+00
   8.62075E+00  7.01294E+00  5.88983E+00  5.65247E+00  4.95722E+00  3.95107E+00  4.38405E+00  2.84548E+00  5.18882E+00  4.24039E+00
   3.92096E+00  4.33789E+00  2.60050E+00  1.78024E+00 -1.01351E+00  1.05744E+00  2.37998E+00  3.69983E+00  9.13620E-01  1.27518E+00
   1.81074E+00  5.09994E+00  2.40485E+00  2.39385E+00  1.65712E+00  2.27819E+00 -3.81932E-01 -1.89160E+00  1.26340E+00 -1.79158E+00
  -9.14659E-01 -3.21190E+00  1.07381E-02 -3.40826E+00  6.49689E-01 -7.33197E-01 -4.36373E+00 -2.36241E+00 -2.70824E+00 -3.59063E+00
  -3.16187E+00 -4.32687E+00 -6.33927E-01 -9.95578E-01 -1.20506E+00 -9.27572E-01 -1.83562E+00  1.57613E+00  8.07934E-01  6.44181E-01
   2.36487E+00  4.78355E+00 -7.16173E-02  1.12175E+00  9.88262E-01  3.99436E+00  8.01182E-01 -5.14096E-02  4.90893E-01  1.65889E+00
  -2.00607E+00  1.43035E+00  1.09336E-01 -1.17503E+00  1.38373E+00  4.12227E-01  2.63432E+00  6.98081E-02 -6.34343E-02 -5.11033E-01
   2.45395E+00  3.29239E+00  3.57933E+00  1.75441E+00  4.62982E+00  4.85249E+00  3.81929E+00  3.66530E+00  4.27089E+00  5.34278E+00
   5.57735E+00  5.93129E+00  5.23111E+00  5.06196E+00  5.23421E+00  6.43441E+00  9.32792E+00  4.19122E+00  5.35793E+00  7.44629E+00
   3.54594E+00  3.71923E+00  3.70880E+00  2.29420E+00  4.48854E+00  5.35378E+00  5.37194E+00  6.59078E-01  2.33693E+00  2.37508E+00
   3.67038E+00  1.98433E+00  3.17878E-01  4.56233E+00  2.45380E+00  6.93079E-01  4.63617E-01  3.01618E+00  7.52320E-01 -4.90664E-01
   3.70775E+00  2.29577E+00  2.47533E+00  7.59849E-01  2.63024E+00  2.61153E+00 -8.78289E-01  9.24646E-01 -1.39956E+00  1.55776E+00
   2.31637E+00  3.17409E-01  6.79532E-01 -9.99504E-02 -1.39665E+00  1.88400E+00  1.33100E+00  4.29999E-01  1.63947E+00 -1.29395E+00
  -1.42297E+00 -1.44498E+00  2.98707E+00  1.80046E-01 -2.60959E+00  1.06718E+00 -2.92307E-01  2.87924E-01  7.65265E-01 -4.05562E-03
  -9.88763E-02 -2.17486E+00 -1.38446E+00 -1.07970E+00 -1.96678E+00  6.58493E-01 -2.75927E+00 -6.09685E-01  4.00564E-01 -8.35848E-01
   1.53672E+00  7.20294E-01  1.81760E+00  3.85313E-01 -6.80805E-01  2.40836E+00  1.81488E+00  1.59899E+00 -1.17785E+00 -2.52248E+00
   1.25875E-01  1.43733E+00 -4.99850E-02 -5.30600E-01  3.03373E-01 -7.64097E-01 -1.06404E+00  1.20862E+00  1.97708E-01  6.97711E-01
  -1.21120E+00  1.74301E+00 -3.26051E-01 -1.11043E-02 -7.87248E-01 -2.33690E+00 -1.05130E+00 -9.11703E-01
 NY points of the fit to the data follow
   6.46795E+00  6.21059E+00  6.16464E+00  6.35292E+00  6.87144E+00  7.79993E+00  8.95400E+00  1.02733E+01  1.18178E+01  1.35163E+01
   1.50132E+01  1.57862E+01  1.55767E+01  1.45566E+01  1.31348E+01  1.16693E+01  1.03714E+01  9.33035E+00  8.58650E+00  8.10842E+00
   7.82600E+00  7.57492E+00  7.32403E+00  7.27647E+00  7.36987E+00  7.47266E+00  7.67118E+00  8.21554E+00  9.26163E+00  1.05720E+01
   1.17840E+01  1.26168E+01  1.29058E+01  1.25802E+01  1.16614E+01  1.03325E+01  8.92472E+00  7.69788E+00  6.82103E+00  6.43559E+00
   6.58016E+00  7.13108E+00  7.83991E+00  8.56536E+00  9.36404E+00  1.03000E+01  1.12213E+01  1.17862E+01  1.17233E+01  1.10237E+01
   9.90248E+00  8.63742E+00  7.51166E+00  6.71194E+00  6.27526E+00  6.15386E+00  6.25829E+00  6.52455E+00  6.87591E+00  7.18888E+00
   7.33441E+00  7.23006E+00  6.88738E+00  6.39858E+00  5.90421E+00  5.55565E+00  5.41103E+00  5.44508E+00  5.60416E+00  5.83605E+00
   6.08410E+00  6.27562E+00  6.34838E+00  6.28626E+00  6.12688E+00  5.92350E+00  5.72076E+00  5.54524E+00  5.41577E+00  5.38347E+00
   5.52497E+00  5.72255E+00  5.91205E+00  6.18433E+00  6.62154E+00  7.11481E+00  7.38801E+00  7.24630E+00  6.73624E+00  6.08432E+00
   5.49566E+00  5.05862E+00  4.80021E+00  4.70472E+00  4.75024E+00  5.17360E+00  6.59100E+00  8.49302E+00  1.05864E+01  1.34546E+01
   1.77436E+01  2.29849E+01  2.73776E+01  2.91452E+01  2.78517E+01  2.43807E+01  1.99783E+01  1.56400E+01  1.20133E+01  9.39963E+00
   7.78799E+00  6.92129E+00  6.55493E+00  6.40836E+00  6.33580E+00  6.29968E+00  6.28589E+00  6.29417E+00  6.36400E+00  6.76591E+00
   8.40143E+00  1.10483E+01  1.40074E+01  1.76673E+01  2.28587E+01  2.94234E+01  3.54797E+01  3.86598E+01  3.79331E+01  3.41142E+01
   2.88076E+01  2.33521E+01  1.85750E+01  1.48365E+01  1.21696E+01  1.03960E+01  9.34279E+00  8.82057E+00  8.67146E+00  8.80772E+00
   9.09422E+00  9.37070E+00  9.52346E+00  9.51304E+00  9.36495E+00  9.13858E+00  8.89509E+00  8.66895E+00  8.47162E+00  8.30814E+00
   8.17318E+00  8.06061E+00  7.96801E+00  7.87349E+00  7.74331E+00  7.63008E+00  7.55244E+00  7.47214E+00  7.33003E+00  7.06510E+00
   6.79998E+00  6.72201E+00  6.88845E+00  7.15837E+00  7.32111E+00  7.26181E+00  7.00543E+00  6.64607E+00  6.25519E+00  5.86011E+00
   5.54683E+00  5.36107E+00  5.21385E+00  5.00475E+00  4.74424E+00  4.62519E+00  4.76797E+00  5.07790E+00  5.33667E+00  5.42245E+00
   5.38807E+00  5.42469E+00  5.58272E+00  5.78589E+00  6.00600E+00  6.33757E+00  6.92110E+00  7.79187E+00  8.85052E+00  9.91762E+00
   1.07927E+01  1.12863E+01  1.14112E+01  1.12813E+01  1.10111E+01  1.06768E+01  1.03948E+01  1.03219E+01  1.05413E+01  1.10612E+01
   1.18013E+01  1.26319E+01  1.33965E+01  1.38280E+01  1.38142E+01  1.33076E+01  1.23260E+01  1.10997E+01  9.94802E+00  9.26729E+00
   9.21745E+00  9.74591E+00  1.09174E+01  1.27224E+01  1.48063E+01  1.64133E+01  1.68755E+01  1.61206E+01  1.45064E+01  1.23543E+01
   1.00612E+01  8.22147E+00  7.46037E+00  8.06964E+00  9.74841E+00  1.18963E+01  1.40021E+01  1.57057E+01  1.67934E+01  1.72299E+01
   1.72423E+01  1.71309E+01  1.70978E+01  1.72400E+01  1.75826E+01  1.80741E+01  1.85359E+01  1.88192E+01  1.88518E+01  1.86448E+01
   1.82581E+01  1.78812E+01  1.77702E+01  1.80739E+01  1.87423E+01  1.95798E+01  2.04052E+01  2.10698E+01  2.15076E+01  2.18212E+01
   2.21105E+01  2.25539E+01  2.38616E+01  2.77734E+01  3.33794E+01  3.91539E+01  4.56700E+01  5.43775E+01  6.48780E+01  7.36696E+01
   7.67912E+01  7.30110E+01  6.42137E+01  5.32777E+01  4.24937E+01  3.33367E+01  2.65178E+01  2.20601E+01  1.93847E+01  1.79143E+01
   1.70489E+01  1.64335E+01  1.59893E+01  1.56584E+01  1.53683E+01  1.50635E+01  1.47278E+01  1.43621E+01  1.39743E+01  1.35821E+01
   1.32124E+01  1.28870E+01  1.26134E+01  1.23851E+01  1.21905E+01  1.20209E+01  1.18709E+01  1.17386E+01  1.16266E+01  1.15397E+01
   1.14815E+01  1.14515E+01  1.14448E+01  1.14552E+01  1.14770E+01  1.15036E+01  1.15298E+01  1.15512E+01  1.15656E+01  1.15708E+01
   1.15637E+01  1.15395E+01  1.14929E+01  1.14184E+01  1.13121E+01  1.11713E+01  1.09953E+01  1.07845E+01  1.05409E+01  1.02676E+01
   9.96847E+00  9.64758E+00  9.30941E+00  8.95828E+00  8.59920E+00  8.23700E+00  7.87677E+00  7.52298E+00  7.18056E+00  6.85577E+00
   6.55793E+00  6.27681E+00  5.99876E+00  5.73169E+00  5.47984E+00  5.22448E+00  4.92994E+00  4.57555E+00  4.19181E+00  3.83394E+00
   3.52471E+00  3.27323E+00  3.09516E+00  3.00610E+00  2.99526E+00  3.01573E+00  3.01440E+00  2.96102E+00  2.85451E+00  2.70937E+00
   2.54305E+00  2.37111E+00  2.20593E+00  2.05343E+00  1.91476E+00  1.78848E+00  1.67084E+00  1.55939E+00  1.45333E+00  1.35200E+00
   1.25523E+00  1.16250E+00  1.07373E+00  9.88614E-01  9.07380E-01  8.29899E-01  7.56314E-01  6.86329E-01  6.20080E-01  5.57478E-01
   4.98881E-01  4.44235E-01  3.93750E-01  3.47214E-01  3.04856E-01  2.66679E-01  2.33092E-01  2.04073E-01  1.79913E-01  1.60613E-01
   1.46697E-01  1.38461E-01  1.36573E-01  1.41302E-01  1.53307E-01  1.73046E-01  2.01534E-01  2.39548E-01  2.88235E-01  3.48399E-01
   4.21299E-01  5.08032E-01  6.10188E-01  7.29014E-01  8.65991E-01  1.02213E+00  1.19870E+00  1.39650E+00  1.61636E+00  1.85826E+00
   2.12186E+00  2.40579E+00  2.70833E+00  3.02665E+00  3.35730E+00  3.69551E+00  4.03591E+00  4.37206E+00  4.69732E+00  5.00440E+00
   5.28614E+00  5.53513E+00  5.74476E+00  5.90897E+00  6.02321E+00  6.08395E+00  6.08943E+00  6.03912E+00  5.93452E+00  5.77847E+00
   5.57561E+00  5.33143E+00  5.05256E+00  4.74589E+00  4.41899E+00  4.07912E+00  3.73361E+00  3.38880E+00  3.05054E+00  2.72349E+00
   2.41179E+00  2.11836E+00  1.84548E+00  1.59419E+00  1.36509E+00  1.15784E+00  9.72025E-01  8.06545E-01  6.60288E-01  5.31578E-01
   4.18977E-01  3.20780E-01  2.35704E-01  1.62200E-01  9.90586E-02  4.48130E-02 -1.52663E-03 -4.10722E-02 -7.44730E-02 -1.02642E-01
  -1.26151E-01 -1.45816E-01 -1.61997E-01 -1.75240E-01 -1.85722E-01 -1.93957E-01 -2.00155E-01 -2.04780E-01 -2.07875E-01 -2.09730E-01
  -2.10339E-01 -2.10061E-01 -2.08952E-01 -2.07299E-01 -2.04979E-01 -2.02161E-01 -1.98763E-01 -1.95059E-01 -1.90997E-01 -1.86756E-01
  -1.82156E-01 -1.77348E-01 -1.72242E-01 -1.67082E-01 -1.61760E-01 -1.56400E-01 -1.50808E-01 -1.45146E-01 -1.39332E-01 -1.33580E-01
  -1.27736E-01 -1.21897E-01 -1.15875E-01 -1.09850E-01 -1.03738E-01 -9.77207E-02 -9.16112E-02 -8.55004E-02 -7.92252E-02 -7.29831E-02
  -6.66777E-02 -6.04531E-02 -5.41004E-02 -4.77176E-02 -4.11674E-02 -3.46523E-02 -2.80521E-02 -2.14772E-02 -1.47119E-02 -7.87421E-03
  -8.48849E-04  6.17147E-03  1.33396E-02  2.05736E-02  2.80847E-02  3.57348E-02  4.36323E-02  5.16130E-02
 NY background values follow
     5.707E+00    5.693E+00    5.680E+00    5.666E+00    5.653E+00    5.639E+00    5.626E+00    5.613E+00    5.599E+00    5.586E+00
     5.572E+00    5.559E+00    5.545E+00    5.532E+00    5.519E+00    5.505E+00    5.492E+00    5.478E+00    5.464E+00    5.451E+00
     5.437E+00    5.423E+00    5.410E+00    5.396E+00    5.382E+00    5.368E+00    5.354E+00    5.340E+00    5.326E+00    5.312E+00
     5.297E+00    5.283E+00    5.268E+00    5.254E+00    5.239E+00    5.225E+00    5.210E+00    5.195E+00    5.180E+00    5.165E+00
     5.149E+00    5.134E+00    5.118E+00    5.103E+00    5.087E+00    5.071E+00    5.055E+00    5.039E+00    5.023E+00    5.007E+00
     4.990E+00    4.974E+00    4.958E+00    4.941E+00    4.925E+00    4.909E+00    4.893E+00    4.877E+00    4.861E+00    4.846E+00
     4.831E+00    4.816E+00    4.801E+00    4.787E+00    4.773E+00    4.759E+00    4.746E+00    4.733E+00    4.720E+00    4.708E+00
     4.697E+00    4.686E+00    4.675E+00    4.666E+00    4.656E+00    4.648E+00    4.640E+00    4.633E+00    4.626E+00    4.620E+00
     4.615E+00    4.611E+00    4.607E+00    4.605E+00    4.603E+00    4.602E+00    4.602E+00    4.603E+00    4.605E+00    4.608E+00
     4.612E+00    4.617E+00    4.623E+00    4.631E+00    4.639E+00    4.648E+00    4.658E+00    4.670E+00    4.682E+00    4.695E+00
     4.709E+00    4.724E+00    4.740E+00    4.757E+00    4.775E+00    4.794E+00    4.813E+00    4.834E+00    4.855E+00    4.877E+00
     4.900E+00    4.924E+00    4.949E+00    4.974E+00    5.000E+00    5.027E+00    5.055E+00    5.083E+00    5.113E+00    5.142E+00
     5.173E+00    5.204E+00    5.236E+00    5.269E+00    5.302E+00    5.336E+00    5.370E+00    5.406E+00    5.441E+00    5.478E+00
     5.514E+00    5.552E+00    5.590E+00    5.628E+00    5.667E+00    5.707E+00    5.747E+00    5.787E+00    5.828E+00    5.870E+00
     5.912E+00    5.955E+00    5.998E+00    6.041E+00    6.085E+00    6.130E+00    6.175E+00    6.221E+00    6.268E+00    6.315E+00
     6.362E+00    6.410E+00    6.459E+00    6.508E+00    6.558E+00    6.609E+00    6.660E+00    6.712E+00    6.764E+00    6.817E+00
     6.871E+00    6.926E+00    6.981E+00    7.036E+00    7.093E+00    7.150E+00    7.208E+00    7.266E+00    7.326E+00    7.386E+00
     7.446E+00    7.508E+00    7.570E+00    7.633E+00    7.697E+00    7.761E+00    7.826E+00    7.892E+00    7.959E+00    8.027E+00
     8.095E+00    8.164E+00    8.234E+00    8.305E+00    8.376E+00    8.448E+00    8.520E+00    8.593E+00    8.666E+00    8.739E+00
     8.812E+00    8.886E+00    8.959E+00    9.033E+00    9.106E+00    9.179E+00    9.251E+00    9.324E+00    9.395E+00    9.466E+00
     9.537E+00    9.607E+00    9.675E+00    9.743E+00    9.811E+00    9.877E+00    9.941E+00    1.001E+01    1.007E+01    1.013E+01
     1.019E+01    1.025E+01    1.030E+01    1.036E+01    1.041E+01    1.046E+01    1.051E+01    1.056E+01    1.060E+01    1.064E+01
     1.069E+01    1.072E+01    1.076E+01    1.079E+01    1.082E+01    1.085E+01    1.088E+01    1.090E+01    1.092E+01    1.094E+01
     1.095E+01    1.096E+01    1.097E+01    1.098E+01    1.098E+01    1.098E+01    1.098E+01    1.097E+01    1.097E+01    1.096E+01
     1.094E+01    1.093E+01    1.091E+01    1.089E+01    1.087E+01    1.084E+01    1.082E+01    1.079E+01    1.075E+01    1.072E+01
     1.068E+01    1.064E+01    1.060E+01    1.056E+01    1.051E+01    1.046E+01    1.041E+01    1.036E+01    1.030E+01    1.024E+01
     1.018E+01    1.012E+01    1.005E+01    9.987E+00    9.918E+00    9.847E+00    9.774E+00    9.699E+00    9.621E+00    9.542E+00
     9.460E+00    9.376E+00    9.291E+00    9.203E+00    9.114E+00    9.022E+00    8.929E+00    8.834E+00    8.738E+00    8.639E+00
     8.539E+00    8.438E+00    8.335E+00    8.231E+00    8.125E+00    8.018E+00    7.909E+00    7.799E+00    7.688E+00    7.576E+00
     7.463E+00    7.348E+00    7.233E+00    7.117E+00    6.999E+00    6.881E+00    6.762E+00    6.643E+00    6.522E+00    6.401E+00
     6.279E+00    6.157E+00    6.034E+00    5.911E+00    5.787E+00    5.663E+00    5.539E+00    5.414E+00    5.290E+00    5.165E+00
     5.040E+00    4.914E+00    4.789E+00    4.664E+00    4.539E+00    4.414E+00    4.289E+00    4.165E+00    4.041E+00    3.917E+00
     3.793E+00    3.670E+00    3.548E+00    3.426E+00    3.304E+00    3.183E+00    3.063E+00    2.944E+00    2.825E+00    2.708E+00
     2.591E+00    2.475E+00    2.360E+00    2.246E+00    2.133E+00    2.022E+00    1.911E+00    1.802E+00    1.695E+00    1.588E+00
     1.483E+00    1.379E+00    1.277E+00    1.177E+00    1.078E+00    9.807E-01    8.852E-01    7.915E-01    6.995E-01    6.094E-01
     5.213E-01    4.351E-01    3.509E-01    2.688E-01    1.888E-01    1.110E-01    3.546E-02   -3.785E-02   -1.088E-01   -1.774E-01
    -2.436E-01   -3.073E-01   -3.685E-01   -4.271E-01   -4.833E-01   -5.370E-01   -5.883E-01   -6.373E-01   -6.839E-01   -7.283E-01
    -7.704E-01   -8.104E-01   -8.482E-01   -8.839E-01   -9.175E-01   -9.491E-01   -9.788E-01   -1.007E+00   -1.032E+00   -1.056E+00
    -1.078E+00   -1.099E+00   -1.118E+00   -1.135E+00   -1.150E+00   -1.164E+00   -1.176E+00   -1.187E+00   -1.196E+00   -1.204E+00
    -1.210E+00   -1.215E+00   -1.219E+00   -1.222E+00   -1.223E+00   -1.223E+00   -1.222E+00   -1.220E+00   -1.217E+00   -1.213E+00
    -1.208E+00   -1.202E+00   -1.196E+00   -1.188E+00   -1.180E+00   -1.170E+00   -1.161E+00   -1.150E+00   -1.139E+00   -1.127E+00
    -1.115E+00   -1.102E+00   -1.089E+00   -1.075E+00   -1.061E+00   -1.046E+00   -1.031E+00   -1.015E+00   -9.987E-01   -9.822E-01
    -9.654E-01   -9.482E-01   -9.308E-01   -9.130E-01   -8.949E-01   -8.767E-01   -8.582E-01   -8.394E-01   -8.205E-01   -8.015E-01
    -7.823E-01   -7.630E-01   -7.436E-01   -7.242E-01   -7.047E-01   -6.851E-01   -6.656E-01   -6.461E-01   -6.266E-01   -6.072E-01
    -5.878E-01   -5.686E-01   -5.495E-01   -5.306E-01   -5.118E-01   -4.932E-01   -4.749E-01   -4.567E-01   -4.389E-01   -4.213E-01
    -4.040E-01   -3.871E-01   -3.705E-01   -3.542E-01   -3.384E-01   -3.228E-01   -3.076E-01   -2.927E-01   -2.782E-01   -2.640E-01
    -2.500E-01   -2.364E-01   -2.231E-01   -2.100E-01   -1.972E-01   -1.846E-01   -1.724E-01   -1.603E-01   -1.485E-01   -1.369E-01
    -1.255E-01   -1.144E-01   -1.034E-01   -9.266E-02   -8.208E-02   -7.167E-02   -6.143E-02   -5.134E-02   -4.140E-02   -3.160E-02
    -2.194E-02   -1.239E-02   -2.960E-03    6.367E-03    1.560E-02    2.474E-02    3.380E-02    4.279E-02    5.172E-02    6.060E-02
     6.943E-02    7.823E-02    8.699E-02    9.574E-02    1.045E-01    1.132E-01    1.220E-01    1.307E-01
 Ala      Conc. = 3.20E+01
