 LCModel (Version 6.3-1L) Copyright: S.W. Provencher.          Ref.: Magn. Reson. Med. 30:672-679 (1993).                
 Slice#2 Row#3 Col#6  PD_05_press_1_raw_act
 36 lines in following concentration table = NCONC+1
    Conc.  %SD /Cr+PCr  Metabolite                                         
    0.000 999%   0.000 Ala                                                 
    0.000 999%   0.000 Asp                                                 
    0.000 999%   0.000 Cr                                                  
 1.68E+03   3%   1.000 PCr                                                 
    0.000 999%   0.000 GABA                                                
    0.000 999%   0.000 Glc                                                 
  883.843  30%   0.525 Gln                                                 
  772.899  38%   0.459 Glu                                                 
  663.459   3%   0.394 GPC                                                 
    0.000 999%   0.000 PCh                                                 
  587.824  12%   0.349 GSH                                                 
 1.88E+03  14%   1.115 Ins                                                 
  128.132 107% 7.6E-02 Lac                                                 
 2.53E+03   3%   1.501 NAA                                                 
    0.000 999%   0.000 NAAG                                                
  185.443  15%   0.110 Scyllo                                              
    0.000 999%   0.000 Tau                                                 
  965.358  11%   0.573 -CrCH2                                              
  663.459   3%   0.394 GPC+PCh                                             
 2.53E+03   3%   1.501 NAA+NAAG                                            
 1.68E+03   3%   1.000 Cr+PCr                                              
 1.66E+03  27%   0.984 Glu+Gln                                             
    0.000 999%   0.000 Lip13a                                              
    0.000 999%   0.000 Lip13b                                              
    0.000 999%   0.000 Lip09                                               
 2.23E+03  11%   1.325 MM09                                                
   14.057 881% 8.3E-03 Lip20                                               
 3.93E+03  10%   2.336 MM20                                                
 1.14E+03  16%   0.679 MM12                                                
  126.905 206% 7.5E-02 MM14                                                
  446.444  37%   0.265 MM17                                                
    0.000 999%   0.000 Lip13a+Lip13b                                       
 1.27E+03  29%   0.754 MM14+Lip13a+Lip13b+MM12                             
 2.23E+03  11%   1.325 MM09+Lip09                                          
 3.95E+03  10%   2.344 MM20+Lip20                                          
   6 lines in following misc. output table
  FWHM = 0.076 ppm    S/N =  14                                            
  Data shift =-0.023 ppm                                                   
  Ph: -23 deg      -7.5 deg/ppm                                            
  alphaB,S = 8.9E-01,   1.9E+02                                            
   14 spline knots.   Ns = 9(1)                                            
  (13) 3 infls.   (11) 1 extrs.                                            
  498 points on ppm-axis = NY
      4.000000     3.992357     3.984714     3.977070     3.969427     3.961784     3.954141     3.946497     3.938854     3.931211
      3.923568     3.915925     3.908281     3.900638     3.892995     3.885352     3.877708     3.870065     3.862422     3.854779
      3.847136     3.839492     3.831849     3.824206     3.816563     3.808919     3.801276     3.793633     3.785990     3.778347
      3.770703     3.763060     3.755417     3.747774     3.740130     3.732487     3.724844     3.717201     3.709558     3.701914
      3.694271     3.686628     3.678985     3.671341     3.663698     3.656055     3.648412     3.640769     3.633125     3.625482
      3.617839     3.610196     3.602552     3.594909     3.587266     3.579623     3.571980     3.564336     3.556693     3.549050
      3.541407     3.533763     3.526120     3.518477     3.510834     3.503191     3.495547     3.487904     3.480261     3.472618
      3.464974     3.457331     3.449688     3.442045     3.434402     3.426758     3.419115     3.411472     3.403829     3.396185
      3.388542     3.380899     3.373256     3.365613     3.357969     3.350326     3.342683     3.335040     3.327396     3.319753
      3.312110     3.304467     3.296824     3.289180     3.281537     3.273894     3.266251     3.258607     3.250964     3.243321
      3.235678     3.228034     3.220391     3.212748     3.205105     3.197462     3.189818     3.182175     3.174532     3.166889
      3.159245     3.151602     3.143959     3.136316     3.128673     3.121029     3.113386     3.105743     3.098100     3.090456
      3.082813     3.075170     3.067527     3.059884     3.052240     3.044597     3.036954     3.029311     3.021667     3.014024
      3.006381     2.998738     2.991095     2.983451     2.975808     2.968165     2.960522     2.952878     2.945235     2.937592
      2.929949     2.922306     2.914662     2.907019     2.899376     2.891733     2.884089     2.876446     2.868803     2.861160
      2.853517     2.845873     2.838230     2.830587     2.822944     2.815300     2.807657     2.800014     2.792371     2.784728
      2.777084     2.769441     2.761798     2.754155     2.746511     2.738868     2.731225     2.723582     2.715939     2.708295
      2.700652     2.693009     2.685366     2.677722     2.670079     2.662436     2.654793     2.647150     2.639506     2.631863
      2.624220     2.616577     2.608933     2.601290     2.593647     2.586004     2.578361     2.570717     2.563074     2.555431
      2.547788     2.540144     2.532501     2.524858     2.517215     2.509572     2.501928     2.494285     2.486642     2.478999
      2.471355     2.463712     2.456069     2.448426     2.440783     2.433139     2.425496     2.417853     2.410210     2.402566
      2.394923     2.387280     2.379637     2.371994     2.364350     2.356707     2.349064     2.341421     2.333777     2.326134
      2.318491     2.310848     2.303205     2.295561     2.287918     2.280275     2.272632     2.264988     2.257345     2.249702
      2.242059     2.234416     2.226772     2.219129     2.211486     2.203843     2.196199     2.188556     2.180913     2.173270
      2.165627     2.157983     2.150340     2.142697     2.135054     2.127410     2.119767     2.112124     2.104481     2.096838
      2.089194     2.081551     2.073908     2.066265     2.058621     2.050978     2.043335     2.035692     2.028049     2.020405
      2.012762     2.005119     1.997476     1.989833     1.982190     1.974546     1.966903     1.959260     1.951617     1.943974
      1.936331     1.928688     1.921045     1.913402     1.905759     1.898115     1.890472     1.882829     1.875186     1.867543
      1.859900     1.852257     1.844614     1.836971     1.829327     1.821684     1.814041     1.806398     1.798755     1.791112
      1.783469     1.775826     1.768183     1.760540     1.752896     1.745253     1.737610     1.729967     1.722324     1.714681
      1.707038     1.699395     1.691752     1.684108     1.676465     1.668822     1.661179     1.653536     1.645893     1.638250
      1.630607     1.622964     1.615321     1.607677     1.600034     1.592391     1.584748     1.577105     1.569462     1.561819
      1.554176     1.546533     1.538890     1.531246     1.523603     1.515960     1.508317     1.500674     1.493031     1.485388
      1.477745     1.470102     1.462458     1.454815     1.447172     1.439529     1.431886     1.424243     1.416600     1.408957
      1.401314     1.393671     1.386027     1.378384     1.370741     1.363098     1.355455     1.347812     1.340169     1.332526
      1.324883     1.317240     1.309596     1.301953     1.294310     1.286667     1.279024     1.271381     1.263738     1.256095
      1.248452     1.240808     1.233165     1.225522     1.217879     1.210236     1.202593     1.194950     1.187307     1.179664
      1.172021     1.164377     1.156734     1.149091     1.141448     1.133805     1.126162     1.118519     1.110876     1.103233
      1.095590     1.087946     1.080303     1.072660     1.065017     1.057374     1.049731     1.042088     1.034445     1.026802
      1.019158     1.011515     1.003872     0.996229     0.988586     0.980943     0.973300     0.965657     0.958014     0.950371
      0.942727     0.935084     0.927441     0.919798     0.912155     0.904512     0.896869     0.889226     0.881583     0.873940
      0.866296     0.858653     0.851010     0.843367     0.835724     0.828081     0.820438     0.812795     0.805152     0.797508
      0.789865     0.782222     0.774579     0.766936     0.759293     0.751650     0.744007     0.736364     0.728721     0.721077
      0.713434     0.705791     0.698148     0.690505     0.682862     0.675219     0.667576     0.659933     0.652290     0.644646
      0.637003     0.629360     0.621717     0.614074     0.606431     0.598788     0.591145     0.583502     0.575858     0.568215
      0.560572     0.552929     0.545286     0.537643     0.530000     0.522357     0.514714     0.507071     0.499427     0.491784
      0.484141     0.476498     0.468855     0.461212     0.453569     0.445925     0.438282     0.430639     0.422996     0.415353
      0.407710     0.400067     0.392424     0.384780     0.377137     0.369494     0.361851     0.354208     0.346565     0.338922
      0.331278     0.323635     0.315992     0.308349     0.300706     0.293063     0.285420     0.277777     0.270133     0.262490
      0.254847     0.247204     0.239561     0.231918     0.224275     0.216631     0.208988     0.201345
 NY phased data points follow
  -1.96353E+01 -1.91065E+01 -1.55304E+01 -1.71201E+01 -1.15605E+01 -6.80391E+00 -2.03481E+00  2.17564E+00  1.26033E+00  4.82229E+00
   7.45712E+00  1.07296E+01  8.95447E+00  2.51439E+00  3.10613E+00 -4.59265E+00 -3.76522E+00 -1.86790E+00 -1.13117E+01 -7.52329E+00
  -9.00312E+00 -7.36021E+00 -1.02940E+01 -8.45154E+00 -4.88032E+00 -7.68706E+00 -4.21192E+00 -1.06210E-01  1.07309E+00 -2.67930E-02
  -1.02473E+00 -5.26080E-01 -2.62404E+00 -1.08453E+00 -2.44645E+00 -1.60768E+00 -8.52705E-01 -2.99049E-01 -2.25775E+00 -2.37006E+00
   7.47663E-01  1.86714E+00 -1.69910E+00 -1.01770E+00  5.42057E+00  1.04335E+00  3.53275E+00  2.07070E+00  1.05653E+00  1.23630E+00
  -1.35092E+00 -1.59962E+00 -1.63291E+00 -2.08503E+00  1.00302E+00 -1.96563E+00 -4.43726E+00 -3.07299E+00 -6.56170E+00 -5.93238E+00
  -6.49070E+00 -8.75093E+00 -8.28336E+00 -8.01738E+00 -1.04804E+01 -1.16633E+01 -8.95171E+00 -1.03755E+01 -1.11163E+01 -9.95986E+00
  -9.03615E+00 -7.01314E+00 -8.38060E+00 -7.18964E+00 -7.97032E+00 -7.07296E+00 -8.46961E+00 -7.45458E+00 -8.33163E+00 -7.97318E+00
  -3.80346E+00 -4.25460E+00 -3.90582E+00 -1.26533E+00 -2.88218E+00 -3.93418E+00 -1.00777E+00 -6.60213E+00 -4.44093E+00 -2.92429E+00
  -2.40650E+00 -2.22610E+00 -3.18869E+00 -5.05084E+00 -4.18685E+00 -5.77326E+00 -4.78153E-01  1.20768E+00  8.87813E+00  2.03292E+01
   3.01423E+01  3.47046E+01  3.71626E+01  3.89092E+01  3.40311E+01  3.15557E+01  2.62238E+01  2.26512E+01  1.46575E+01  1.09615E+01
   8.00953E+00  4.04954E+00  2.00063E+00 -7.47664E-02  1.71685E+00 -2.41337E+00 -1.40975E+00 -4.08338E-01 -3.83864E+00 -2.37714E-01
  -5.15161E-01  4.06049E+00  1.18164E+01  2.29325E+01  3.08523E+01  3.32192E+01  3.74014E+01  3.45772E+01  3.36428E+01  3.01969E+01
   2.92038E+01  2.32382E+01  1.80248E+01  1.16403E+01  3.77367E+00  2.85945E-01 -1.78721E+00 -3.15258E+00 -3.50017E+00 -2.73274E+00
  -5.25427E+00 -7.74006E+00 -7.97207E+00 -7.34699E+00 -3.34283E+00 -4.90624E+00 -5.94841E+00 -5.39786E+00 -3.48401E+00 -8.30956E+00
  -5.13596E+00 -6.91436E+00 -5.37341E+00 -9.72586E+00 -6.41653E+00 -6.89916E+00 -6.62298E+00 -6.21624E+00 -1.22306E+01 -9.65934E+00
  -1.00019E+01 -9.42017E+00 -9.19674E+00 -5.81505E+00 -7.62176E+00 -8.02988E+00 -8.62258E+00 -8.79728E+00 -9.43845E+00 -8.56345E+00
  -9.55859E+00 -9.88702E+00 -1.33252E+01 -1.39422E+01 -1.54860E+01 -1.34410E+01 -1.22353E+01 -1.49856E+01 -1.40761E+01 -1.44191E+01
  -1.56648E+01 -1.37215E+01 -1.54672E+01 -1.64967E+01 -1.47795E+01 -1.38626E+01 -1.36262E+01 -1.02915E+01 -5.84411E+00 -7.53518E+00
  -6.56807E+00 -2.59801E+00 -2.23727E+00 -4.23881E+00 -2.52084E-01 -1.65685E+00 -6.97914E-01 -5.78257E+00 -3.10858E+00 -4.95721E+00
  -5.33995E+00 -5.14160E+00 -3.95633E+00 -2.30138E+00 -3.82217E+00 -5.72975E+00 -3.63691E+00 -5.01444E+00 -4.31855E+00 -5.70046E+00
  -2.58756E+00 -7.36133E+00 -6.41073E-01  4.79067E-01  1.89179E+00  3.91725E+00  3.69435E+00  2.68982E+00 -2.21748E+00 -1.60548E-01
   9.36845E-01  1.03550E+00  2.40532E-01 -8.68914E-01  3.72782E-01  2.18728E+00 -2.07048E+00  3.89729E+00  4.45020E+00  3.83832E+00
   5.14859E+00  3.61337E+00  4.49982E+00  2.90105E+00  5.66522E+00  6.02379E+00  2.46030E+00  4.73749E+00  2.54107E+00  4.46832E+00
   1.90612E+00  2.77796E+00  4.72382E+00  2.55460E+00  3.20275E+00  5.00346E+00  7.30639E+00  6.51289E+00  7.59578E+00  1.06285E+01
   1.09524E+01  1.09762E+01  1.61159E+01  1.46841E+01  2.05262E+01  3.19672E+01  4.08604E+01  5.06339E+01  6.22788E+01  7.06822E+01
   7.20902E+01  6.67745E+01  6.24718E+01  5.72444E+01  5.05585E+01  4.48293E+01  3.65770E+01  2.52081E+01  2.07078E+01  1.59920E+01
   1.36406E+01  8.03537E+00  9.74171E+00  5.48695E+00  4.46261E+00  2.93027E+00  3.56908E+00  1.76325E+00  8.39057E-01 -1.70422E-01
  -7.05114E-01 -1.55243E-01 -3.58597E+00 -2.67232E+00 -3.11402E-01 -3.27490E+00 -1.67679E+00 -3.34257E+00 -3.62136E+00 -1.60692E+00
  -3.09972E+00 -4.26903E+00 -3.01471E+00 -1.56541E+00 -2.18317E+00 -2.80705E+00 -6.44788E+00  5.62082E-01 -2.01378E+00 -2.59683E+00
  -3.60018E+00 -1.27289E+00 -2.05416E+00 -9.47042E-01  2.27816E+00 -1.47969E-02  2.70228E+00  3.38976E+00  3.02589E+00  3.44454E+00
  -7.09310E-01  1.72985E+00  3.10720E+00  3.47684E+00 -8.70635E-01  8.86811E-03  2.81409E+00  5.36046E-01  1.14876E+00 -2.80496E+00
  -4.47398E-04 -3.45841E+00 -2.47159E+00  9.04559E-01 -7.81911E-01 -3.16237E+00 -2.39302E+00 -5.13126E-01 -1.82504E+00 -1.23138E+00
   5.15790E-01  1.25559E-01  1.85533E+00 -2.57967E-01  1.48194E+00 -5.50108E-01  9.49700E-01  1.29387E+00 -2.26859E-01 -9.67558E-01
   1.43655E+00  1.98648E+00  1.02726E+00  2.01366E+00 -2.42013E+00  1.39991E+00  1.28224E+00 -1.86467E+00  5.82225E+00  1.64627E+00
  -1.17827E-01  7.33337E-01 -1.59660E-01 -2.07012E+00 -8.69079E-01  5.86413E-01  2.47584E+00  4.12567E+00  2.96741E+00  5.10990E+00
   6.95784E+00  3.19712E+00  4.14484E+00  9.90568E+00  6.73049E+00  8.74336E+00  8.76893E+00  9.46320E+00  1.06541E+01  1.03379E+01
   9.77518E+00  8.40242E+00  8.82321E+00  9.41337E+00  8.37971E+00  1.31521E+01  7.82872E+00  8.76967E+00  8.47719E+00  9.38415E+00
   8.50407E+00  6.59834E+00  1.02342E+01  1.07537E+01  9.26461E+00  1.03488E+01  9.71734E+00  9.60857E+00  7.28368E+00  9.16510E+00
   1.01548E+01  1.16547E+01  1.29125E+01  1.10474E+01  1.05494E+01  1.24383E+01  1.39376E+01  1.50569E+01  1.40948E+01  1.37353E+01
   1.63702E+01  1.33089E+01  1.45657E+01  1.77317E+01  1.67592E+01  1.62432E+01  1.58586E+01  1.70182E+01  1.56270E+01  1.25957E+01
   1.38954E+01  1.43514E+01  1.52686E+01  1.30387E+01  1.36214E+01  9.30736E+00  1.06418E+01  8.63952E+00  6.38800E+00  5.37193E+00
   9.09361E+00  3.81141E+00  8.09007E+00  1.01352E+01  1.08078E+01  1.08418E+01  6.52523E+00  6.00754E+00  6.89184E+00  3.42966E+00
   5.77422E+00  4.24259E+00  3.42508E+00  3.37152E+00  3.95643E+00  2.27259E+00  5.36395E+00  2.74225E+00  3.70404E+00  6.14290E+00
   3.95420E+00  4.42590E+00  4.75620E+00  5.11016E+00  6.36149E+00  3.13380E+00  2.27828E+00  6.11877E+00  6.30717E+00  8.78080E+00
   7.84580E+00  5.93563E+00  6.31110E+00  5.77547E+00  6.79339E+00  1.01465E+01  3.82832E+00  4.86435E+00  6.43819E+00  5.64518E+00
   2.96334E+00  6.23694E+00  4.64541E+00  6.91589E+00  5.87562E+00  4.69155E+00  2.10412E+00  6.09875E+00  2.11496E+00  3.32820E+00
   5.28436E+00  5.50383E+00  3.21475E+00  6.80544E+00  2.70877E+00  7.35230E+00  3.34823E+00  5.98320E+00  3.91737E+00  2.14237E+00
   4.97326E+00  4.25624E+00  5.67414E+00  4.63671E+00  8.46324E+00  5.48392E+00  6.68041E+00  8.31093E+00  5.71258E+00  3.27380E+00
   1.01719E+00  2.31820E+00  3.24772E+00  5.23784E+00  5.94790E+00  4.42131E+00  6.54446E+00  6.34979E+00
 NY points of the fit to the data follow
  -1.31652E+01 -1.44957E+01 -1.52944E+01 -1.46480E+01 -1.20336E+01 -7.74377E+00 -2.78989E+00  1.46013E+00  4.14466E+00  5.34665E+00
   5.71711E+00  5.72641E+00  5.28652E+00  4.10371E+00  2.17848E+00  2.16100E-02 -1.68548E+00 -2.86255E+00 -4.35422E+00 -6.38856E+00
  -8.17419E+00 -8.99450E+00 -9.30147E+00 -9.13720E+00 -8.24503E+00 -6.51448E+00 -4.15278E+00 -1.66166E+00  3.98306E-01  1.66205E+00
   2.05952E+00  1.80745E+00  1.14340E+00  1.63867E-01 -1.05687E+00 -2.41299E+00 -3.75895E+00 -4.79776E+00 -5.24035E+00 -5.14560E+00
  -4.63576E+00 -3.53661E+00 -1.72981E+00  1.18530E-01  1.39924E+00  1.85492E+00  1.54992E+00  7.24700E-01 -3.36517E-01 -1.47622E+00
  -2.69238E+00 -3.85650E+00 -4.79430E+00 -5.37086E+00 -5.50062E+00 -5.35267E+00 -5.31103E+00 -5.45992E+00 -5.59925E+00 -5.76777E+00
  -6.09497E+00 -6.52116E+00 -6.87132E+00 -7.10279E+00 -7.21720E+00 -7.20892E+00 -7.05561E+00 -6.78645E+00 -6.52909E+00 -6.35149E+00
  -6.24164E+00 -6.20231E+00 -6.19007E+00 -6.21191E+00 -6.27885E+00 -6.39315E+00 -6.53969E+00 -6.61940E+00 -6.49972E+00 -6.15810E+00
  -5.55086E+00 -4.72893E+00 -3.80652E+00 -3.03672E+00 -2.65109E+00 -2.68919E+00 -3.00678E+00 -3.39342E+00 -3.74520E+00 -4.09677E+00
  -4.51917E+00 -5.02506E+00 -5.54027E+00 -5.89463E+00 -5.67746E+00 -4.29991E+00 -1.46242E+00  3.51289E+00  1.09279E+01  1.97534E+01
   2.82360E+01  3.45185E+01  3.75783E+01  3.75810E+01  3.54968E+01  3.22404E+01  2.81053E+01  2.31034E+01  1.74474E+01  1.17781E+01
   6.90162E+00  3.14033E+00  1.56707E-02 -3.08693E+00 -5.62833E+00 -6.48101E+00 -6.50203E+00 -6.17047E+00 -5.11752E+00 -2.87323E+00
   8.43738E-01  6.47478E+00  1.39155E+01  2.21603E+01  2.95295E+01  3.45090E+01  3.65348E+01  3.60700E+01  3.40756E+01  3.11564E+01
   2.72846E+01  2.23660E+01  1.67136E+01  1.11248E+01  6.44226E+00  2.87865E+00 -9.17137E-02 -2.91391E+00 -4.72046E+00 -5.06498E+00
  -5.03341E+00 -4.95110E+00 -4.89564E+00 -4.91593E+00 -5.01360E+00 -5.13155E+00 -5.27406E+00 -5.49275E+00 -5.76408E+00 -6.06273E+00
  -6.37850E+00 -6.66221E+00 -6.91240E+00 -7.11370E+00 -7.28372E+00 -7.48286E+00 -7.73601E+00 -8.01924E+00 -8.28238E+00 -8.44458E+00
  -8.46299E+00 -8.38284E+00 -8.31813E+00 -8.36383E+00 -8.52878E+00 -8.75810E+00 -8.99784E+00 -9.24326E+00 -9.54242E+00 -9.92909E+00
  -1.03781E+01 -1.08247E+01 -1.12140E+01 -1.15493E+01 -1.17733E+01 -1.18865E+01 -1.19188E+01 -1.18976E+01 -1.19011E+01 -1.19216E+01
  -1.19002E+01 -1.18323E+01 -1.17254E+01 -1.15312E+01 -1.11289E+01 -1.03961E+01 -9.33703E+00 -8.14120E+00 -7.08871E+00 -6.32270E+00
  -5.82525E+00 -5.52505E+00 -5.37486E+00 -5.36603E+00 -5.38949E+00 -5.27861E+00 -4.91451E+00 -4.29397E+00 -3.49978E+00 -2.71511E+00
  -2.06496E+00 -1.68033E+00 -1.66772E+00 -2.08445E+00 -2.87751E+00 -3.86132E+00 -4.77009E+00 -5.39493E+00 -5.63913E+00 -5.56836E+00
  -5.24436E+00 -4.58576E+00 -3.62027E+00 -2.59751E+00 -1.84686E+00 -1.47912E+00 -1.44639E+00 -1.65739E+00 -1.93061E+00 -2.13807E+00
  -2.25748E+00 -2.22716E+00 -1.91175E+00 -1.36385E+00 -7.48533E-01 -2.34068E-01  1.38253E-01  4.38530E-01  7.03177E-01  9.25029E-01
   1.20720E+00  1.69474E+00  2.47838E+00  3.45879E+00  4.42526E+00  5.19399E+00  5.63480E+00  5.68744E+00  5.43200E+00  5.05454E+00
   4.75756E+00  4.68213E+00  4.84638E+00  5.18660E+00  5.71084E+00  6.41600E+00  7.17399E+00  7.91434E+00  8.64845E+00  9.37905E+00
   1.01212E+01  1.10933E+01  1.31146E+01  1.67018E+01  2.24538E+01  3.09791E+01  4.18653E+01  5.33886E+01  6.29982E+01  6.86799E+01
   6.99714E+01  6.78378E+01  6.36875E+01  5.82391E+01  5.15241E+01  4.36656E+01  3.53205E+01  2.75854E+01  2.13093E+01  1.62608E+01
   1.14901E+01  6.84573E+00  4.09747E+00  3.05010E+00  2.42220E+00  1.93164E+00  1.51553E+00  1.13047E+00  7.73691E-01  4.43604E-01
   1.40045E-01 -1.35409E-01 -3.83235E-01 -6.10671E-01 -8.17856E-01 -9.97928E-01 -1.14760E+00 -1.26966E+00 -1.36616E+00 -1.43719E+00
  -1.48071E+00 -1.49651E+00 -1.48662E+00 -1.45053E+00 -1.38715E+00 -1.29677E+00 -1.17973E+00 -1.03736E+00 -8.71443E-01 -6.85596E-01
  -4.84107E-01 -2.72042E-01 -5.47799E-02  1.60987E-01  3.68639E-01  5.61214E-01  7.32641E-01  8.76938E-01  9.89583E-01  1.06683E+00
   1.10681E+00  1.10882E+00  1.07425E+00  1.00561E+00  9.07314E-01  7.84361E-01  6.42840E-01  4.88813E-01  3.28905E-01  1.69088E-01
   1.52085E-02 -1.28236E-01 -2.57258E-01 -3.69242E-01 -4.62024E-01 -5.34815E-01 -5.87275E-01 -6.20258E-01 -6.34653E-01 -6.32036E-01
  -6.13629E-01 -5.81108E-01 -5.35591E-01 -4.78305E-01 -4.09390E-01 -3.28436E-01 -2.32972E-01 -1.17545E-01  3.11336E-02  2.18471E-01
   4.36790E-01  6.78379E-01  9.11196E-01  1.08129E+00  1.13693E+00  1.05967E+00  8.93044E-01  7.11459E-01  5.85068E-01  5.71449E-01
   7.04151E-01  9.94109E-01  1.42461E+00  1.95466E+00  2.53576E+00  3.12271E+00  3.69111E+00  4.24559E+00  4.81319E+00  5.37599E+00
   5.87291E+00  6.30801E+00  6.70734E+00  7.08340E+00  7.41804E+00  7.67964E+00  7.89355E+00  8.08919E+00  8.24803E+00  8.35976E+00
   8.42229E+00  8.43721E+00  8.40949E+00  8.34606E+00  8.25617E+00  8.14994E+00  8.03866E+00  7.93345E+00  7.84565E+00  7.78570E+00
   7.76351E+00  7.78729E+00  7.86411E+00  7.99895E+00  8.19544E+00  8.45502E+00  8.77767E+00  9.16099E+00  9.60112E+00  1.00919E+01
   1.06259E+01  1.11937E+01  1.17848E+01  1.23869E+01  1.29873E+01  1.35721E+01  1.41276E+01  1.46400E+01  1.50967E+01  1.54855E+01
   1.57966E+01  1.60214E+01  1.61544E+01  1.61923E+01  1.61348E+01  1.59836E+01  1.57437E+01  1.54219E+01  1.50271E+01  1.45696E+01
   1.40609E+01  1.35127E+01  1.29369E+01  1.23451E+01  1.17481E+01  1.11555E+01  1.05759E+01  1.00162E+01  9.48218E+00  8.97791E+00
   8.50653E+00  8.06953E+00  7.66774E+00  7.30073E+00  6.96782E+00  6.66742E+00  6.39792E+00  6.15702E+00  5.94270E+00  5.75252E+00
   5.58454E+00  5.43644E+00  5.30644E+00  5.19243E+00  5.09289E+00  5.00610E+00  4.93090E+00  4.86585E+00  4.81003E+00  4.76220E+00
   4.72170E+00  4.68758E+00  4.65940E+00  4.63633E+00  4.61802E+00  4.60376E+00  4.59336E+00  4.58627E+00  4.58237E+00  4.58117E+00
   4.58255E+00  4.58607E+00  4.59175E+00  4.59923E+00  4.60855E+00  4.61933E+00  4.63162E+00  4.64510E+00  4.65989E+00  4.67574E+00
   4.69273E+00  4.71055E+00  4.72932E+00  4.74878E+00  4.76912E+00  4.79009E+00  4.81180E+00  4.83399E+00  4.85681E+00  4.88007E+00
   4.90394E+00  4.92820E+00  4.95297E+00  4.97802E+00  5.00354E+00  5.02934E+00  5.05560E+00  5.08210E+00  5.10898E+00  5.13603E+00
   5.16345E+00  5.19106E+00  5.21905E+00  5.24719E+00  5.27562E+00  5.30417E+00  5.33305E+00  5.36208E+00  5.39142E+00  5.42085E+00
   5.45055E+00  5.48034E+00  5.51044E+00  5.54067E+00  5.57118E+00  5.60176E+00  5.63260E+00  5.66354E+00
 NY background values follow
    -1.646E+01   -1.639E+01   -1.632E+01   -1.624E+01   -1.617E+01   -1.610E+01   -1.603E+01   -1.596E+01   -1.588E+01   -1.581E+01
    -1.574E+01   -1.567E+01   -1.560E+01   -1.553E+01   -1.546E+01   -1.538E+01   -1.531E+01   -1.524E+01   -1.517E+01   -1.510E+01
    -1.503E+01   -1.496E+01   -1.489E+01   -1.482E+01   -1.475E+01   -1.468E+01   -1.461E+01   -1.455E+01   -1.448E+01   -1.441E+01
    -1.434E+01   -1.427E+01   -1.421E+01   -1.414E+01   -1.407E+01   -1.401E+01   -1.394E+01   -1.388E+01   -1.381E+01   -1.375E+01
    -1.368E+01   -1.362E+01   -1.356E+01   -1.349E+01   -1.343E+01   -1.337E+01   -1.331E+01   -1.325E+01   -1.319E+01   -1.313E+01
    -1.307E+01   -1.301E+01   -1.295E+01   -1.289E+01   -1.283E+01   -1.278E+01   -1.272E+01   -1.266E+01   -1.261E+01   -1.255E+01
    -1.249E+01   -1.244E+01   -1.238E+01   -1.233E+01   -1.228E+01   -1.222E+01   -1.217E+01   -1.212E+01   -1.207E+01   -1.201E+01
    -1.196E+01   -1.191E+01   -1.186E+01   -1.181E+01   -1.176E+01   -1.171E+01   -1.166E+01   -1.161E+01   -1.156E+01   -1.152E+01
    -1.147E+01   -1.142E+01   -1.137E+01   -1.133E+01   -1.128E+01   -1.123E+01   -1.119E+01   -1.114E+01   -1.110E+01   -1.105E+01
    -1.101E+01   -1.096E+01   -1.092E+01   -1.087E+01   -1.083E+01   -1.079E+01   -1.074E+01   -1.070E+01   -1.066E+01   -1.062E+01
    -1.057E+01   -1.053E+01   -1.049E+01   -1.045E+01   -1.041E+01   -1.037E+01   -1.033E+01   -1.029E+01   -1.025E+01   -1.021E+01
    -1.017E+01   -1.013E+01   -1.009E+01   -1.005E+01   -1.001E+01   -9.977E+00   -9.939E+00   -9.901E+00   -9.863E+00   -9.826E+00
    -9.789E+00   -9.752E+00   -9.715E+00   -9.679E+00   -9.643E+00   -9.607E+00   -9.571E+00   -9.535E+00   -9.500E+00   -9.465E+00
    -9.430E+00   -9.395E+00   -9.360E+00   -9.325E+00   -9.291E+00   -9.257E+00   -9.223E+00   -9.189E+00   -9.156E+00   -9.122E+00
    -9.089E+00   -9.055E+00   -9.022E+00   -8.989E+00   -8.956E+00   -8.924E+00   -8.891E+00   -8.858E+00   -8.826E+00   -8.793E+00
    -8.760E+00   -8.728E+00   -8.696E+00   -8.663E+00   -8.631E+00   -8.598E+00   -8.566E+00   -8.533E+00   -8.501E+00   -8.468E+00
    -8.435E+00   -8.403E+00   -8.370E+00   -8.337E+00   -8.304E+00   -8.271E+00   -8.238E+00   -8.205E+00   -8.171E+00   -8.138E+00
    -8.104E+00   -8.070E+00   -8.036E+00   -8.002E+00   -7.968E+00   -7.933E+00   -7.898E+00   -7.863E+00   -7.828E+00   -7.792E+00
    -7.757E+00   -7.721E+00   -7.684E+00   -7.648E+00   -7.611E+00   -7.574E+00   -7.537E+00   -7.500E+00   -7.462E+00   -7.425E+00
    -7.387E+00   -7.349E+00   -7.311E+00   -7.273E+00   -7.235E+00   -7.197E+00   -7.159E+00   -7.121E+00   -7.083E+00   -7.045E+00
    -7.007E+00   -6.969E+00   -6.931E+00   -6.893E+00   -6.856E+00   -6.818E+00   -6.781E+00   -6.744E+00   -6.706E+00   -6.670E+00
    -6.633E+00   -6.597E+00   -6.560E+00   -6.524E+00   -6.489E+00   -6.454E+00   -6.419E+00   -6.384E+00   -6.350E+00   -6.316E+00
    -6.282E+00   -6.249E+00   -6.216E+00   -6.184E+00   -6.152E+00   -6.121E+00   -6.090E+00   -6.059E+00   -6.029E+00   -6.000E+00
    -5.971E+00   -5.942E+00   -5.914E+00   -5.886E+00   -5.859E+00   -5.832E+00   -5.805E+00   -5.779E+00   -5.753E+00   -5.727E+00
    -5.701E+00   -5.676E+00   -5.651E+00   -5.626E+00   -5.601E+00   -5.577E+00   -5.552E+00   -5.528E+00   -5.504E+00   -5.480E+00
    -5.456E+00   -5.433E+00   -5.409E+00   -5.385E+00   -5.362E+00   -5.338E+00   -5.314E+00   -5.291E+00   -5.267E+00   -5.243E+00
    -5.219E+00   -5.195E+00   -5.171E+00   -5.147E+00   -5.122E+00   -5.098E+00   -5.073E+00   -5.048E+00   -5.022E+00   -4.997E+00
    -4.971E+00   -4.945E+00   -4.919E+00   -4.892E+00   -4.865E+00   -4.838E+00   -4.810E+00   -4.783E+00   -4.754E+00   -4.726E+00
    -4.697E+00   -4.668E+00   -4.638E+00   -4.608E+00   -4.578E+00   -4.548E+00   -4.517E+00   -4.486E+00   -4.454E+00   -4.422E+00
    -4.390E+00   -4.357E+00   -4.324E+00   -4.291E+00   -4.257E+00   -4.223E+00   -4.189E+00   -4.154E+00   -4.119E+00   -4.083E+00
    -4.047E+00   -4.011E+00   -3.974E+00   -3.937E+00   -3.900E+00   -3.862E+00   -3.823E+00   -3.785E+00   -3.746E+00   -3.706E+00
    -3.666E+00   -3.626E+00   -3.585E+00   -3.544E+00   -3.503E+00   -3.461E+00   -3.418E+00   -3.375E+00   -3.332E+00   -3.288E+00
    -3.244E+00   -3.200E+00   -3.155E+00   -3.110E+00   -3.064E+00   -3.018E+00   -2.972E+00   -2.925E+00   -2.878E+00   -2.831E+00
    -2.783E+00   -2.735E+00   -2.687E+00   -2.638E+00   -2.589E+00   -2.540E+00   -2.491E+00   -2.441E+00   -2.392E+00   -2.342E+00
    -2.291E+00   -2.241E+00   -2.190E+00   -2.139E+00   -2.088E+00   -2.037E+00   -1.986E+00   -1.934E+00   -1.882E+00   -1.831E+00
    -1.779E+00   -1.727E+00   -1.674E+00   -1.622E+00   -1.570E+00   -1.517E+00   -1.465E+00   -1.412E+00   -1.360E+00   -1.307E+00
    -1.254E+00   -1.201E+00   -1.149E+00   -1.096E+00   -1.043E+00   -9.902E-01   -9.375E-01   -8.847E-01   -8.319E-01   -7.791E-01
    -7.263E-01   -6.735E-01   -6.207E-01   -5.680E-01   -5.152E-01   -4.625E-01   -4.098E-01   -3.571E-01   -3.044E-01   -2.518E-01
    -1.992E-01   -1.466E-01   -9.406E-02   -4.155E-02    1.093E-02    6.337E-02    1.158E-01    1.681E-01    2.204E-01    2.727E-01
     3.249E-01    3.770E-01    4.292E-01    4.812E-01    5.332E-01    5.851E-01    6.370E-01    6.887E-01    7.405E-01    7.921E-01
     8.437E-01    8.952E-01    9.466E-01    9.980E-01    1.049E+00    1.100E+00    1.151E+00    1.202E+00    1.253E+00    1.304E+00
     1.355E+00    1.406E+00    1.456E+00    1.506E+00    1.557E+00    1.607E+00    1.657E+00    1.707E+00    1.757E+00    1.806E+00
     1.856E+00    1.905E+00    1.954E+00    2.003E+00    2.052E+00    2.101E+00    2.150E+00    2.198E+00    2.246E+00    2.295E+00
     2.342E+00    2.390E+00    2.438E+00    2.485E+00    2.532E+00    2.579E+00    2.626E+00    2.673E+00    2.719E+00    2.765E+00
     2.811E+00    2.857E+00    2.902E+00    2.948E+00    2.993E+00    3.038E+00    3.082E+00    3.127E+00    3.171E+00    3.215E+00
     3.258E+00    3.302E+00    3.345E+00    3.388E+00    3.430E+00    3.473E+00    3.515E+00    3.557E+00    3.598E+00    3.640E+00
     3.681E+00    3.722E+00    3.763E+00    3.803E+00    3.844E+00    3.884E+00    3.924E+00    3.964E+00    4.004E+00    4.043E+00
     4.083E+00    4.122E+00    4.161E+00    4.200E+00    4.239E+00    4.278E+00    4.316E+00    4.355E+00    4.393E+00    4.432E+00
     4.470E+00    4.508E+00    4.546E+00    4.584E+00    4.622E+00    4.660E+00    4.698E+00    4.736E+00    4.774E+00    4.811E+00
     4.849E+00    4.887E+00    4.925E+00    4.962E+00    5.000E+00    5.038E+00    5.076E+00    5.113E+00
 PCr      Conc. = 1.68E+03
