 LCModel (Version 6.3-1L) Copyright: S.W. Provencher.          Ref.: Magn. Reson. Med. 30:672-679 (1993).                
 Slice#1 Row#4 Col#2  PD_05_press_1_raw_act
 36 lines in following concentration table = NCONC+1
    Conc.  %SD /Cr+PCr  Metabolite                                         
   51.515  57%   0.666 Ala                                                 
   13.177 106%   0.170 Asp                                                 
    0.000 999%   0.000 Cr                                                  
   77.307  22%   1.000 PCr                                                 
    7.869 106%   0.102 GABA                                                
    6.757 124% 8.7E-02 Glc                                                 
    0.284 999% 3.7E-03 Gln                                                 
    0.000 999%   0.000 Glu                                                 
   17.843  36%   0.231 GPC                                                 
    0.000 999%   0.000 PCh                                                 
   16.017 132%   0.207 GSH                                                 
   56.931 120%   0.736 Ins                                                 
    0.000 999%   0.000 Lac                                                 
  125.405  17%   1.622 NAA                                                 
    0.000 999%   0.000 NAAG                                                
    1.332 204% 1.7E-02 Scyllo                                              
   12.652 109%   0.164 Tau                                                 
    0.000 999%   0.000 -CrCH2                                              
   17.843  36%   0.231 GPC+PCh                                             
  125.405  17%   1.622 NAA+NAAG                                            
   77.307  22%   1.000 Cr+PCr                                              
    0.284 999% 3.7E-03 Glu+Gln                                             
  773.315  16%  10.003 Lip13a                                              
    0.000 999%   0.000 Lip13b                                              
  205.939  17%   2.664 Lip09                                               
    0.000 999%   0.000 MM09                                                
  116.029  17%   1.501 Lip20                                               
    0.994 999% 1.3E-02 MM20                                                
    0.216 999% 2.8E-03 MM12                                                
   19.915 176%   0.258 MM14                                                
    8.570 274%   0.111 MM17                                                
  773.315  16%  10.003 Lip13a+Lip13b                                       
  793.447  16%  10.264 MM14+Lip13a+Lip13b+MM12                             
  205.939  17%   2.664 MM09+Lip09                                          
  117.023  30%   1.514 MM20+Lip20                                          
   6 lines in following misc. output table
  FWHM = 0.038 ppm    S/N =   2                                            
  Data shift =-0.008 ppm                                                   
  Ph:  57 deg     -18.1 deg/ppm                                            
  alphaB,S = 8.4E-01,   6.1E+00                                            
   14 spline knots.   Ns = 5(1)                                            
  ( 7) 2 infls.   ( 4) 2 extrs.                                            
  498 points on ppm-axis = NY
      4.000000     3.992357     3.984714     3.977070     3.969427     3.961784     3.954141     3.946497     3.938854     3.931211
      3.923568     3.915925     3.908281     3.900638     3.892995     3.885352     3.877708     3.870065     3.862422     3.854779
      3.847136     3.839492     3.831849     3.824206     3.816563     3.808919     3.801276     3.793633     3.785990     3.778347
      3.770703     3.763060     3.755417     3.747774     3.740130     3.732487     3.724844     3.717201     3.709558     3.701914
      3.694271     3.686628     3.678985     3.671341     3.663698     3.656055     3.648412     3.640769     3.633125     3.625482
      3.617839     3.610196     3.602552     3.594909     3.587266     3.579623     3.571980     3.564336     3.556693     3.549050
      3.541407     3.533763     3.526120     3.518477     3.510834     3.503191     3.495547     3.487904     3.480261     3.472618
      3.464974     3.457331     3.449688     3.442045     3.434402     3.426758     3.419115     3.411472     3.403829     3.396185
      3.388542     3.380899     3.373256     3.365613     3.357969     3.350326     3.342683     3.335040     3.327396     3.319753
      3.312110     3.304467     3.296824     3.289180     3.281537     3.273894     3.266251     3.258607     3.250964     3.243321
      3.235678     3.228034     3.220391     3.212748     3.205105     3.197462     3.189818     3.182175     3.174532     3.166889
      3.159245     3.151602     3.143959     3.136316     3.128673     3.121029     3.113386     3.105743     3.098100     3.090456
      3.082813     3.075170     3.067527     3.059884     3.052240     3.044597     3.036954     3.029311     3.021667     3.014024
      3.006381     2.998738     2.991095     2.983451     2.975808     2.968165     2.960522     2.952878     2.945235     2.937592
      2.929949     2.922306     2.914662     2.907019     2.899376     2.891733     2.884089     2.876446     2.868803     2.861160
      2.853517     2.845873     2.838230     2.830587     2.822944     2.815300     2.807657     2.800014     2.792371     2.784728
      2.777084     2.769441     2.761798     2.754155     2.746511     2.738868     2.731225     2.723582     2.715939     2.708295
      2.700652     2.693009     2.685366     2.677722     2.670079     2.662436     2.654793     2.647150     2.639506     2.631863
      2.624220     2.616577     2.608933     2.601290     2.593647     2.586004     2.578361     2.570717     2.563074     2.555431
      2.547788     2.540144     2.532501     2.524858     2.517215     2.509572     2.501928     2.494285     2.486642     2.478999
      2.471355     2.463712     2.456069     2.448426     2.440783     2.433139     2.425496     2.417853     2.410210     2.402566
      2.394923     2.387280     2.379637     2.371994     2.364350     2.356707     2.349064     2.341421     2.333777     2.326134
      2.318491     2.310848     2.303205     2.295561     2.287918     2.280275     2.272632     2.264988     2.257345     2.249702
      2.242059     2.234416     2.226772     2.219129     2.211486     2.203843     2.196199     2.188556     2.180913     2.173270
      2.165627     2.157983     2.150340     2.142697     2.135054     2.127410     2.119767     2.112124     2.104481     2.096838
      2.089194     2.081551     2.073908     2.066265     2.058621     2.050978     2.043335     2.035692     2.028049     2.020405
      2.012762     2.005119     1.997476     1.989833     1.982190     1.974546     1.966903     1.959260     1.951617     1.943974
      1.936331     1.928688     1.921045     1.913402     1.905759     1.898115     1.890472     1.882829     1.875186     1.867543
      1.859900     1.852257     1.844614     1.836971     1.829327     1.821684     1.814041     1.806398     1.798755     1.791112
      1.783469     1.775826     1.768183     1.760540     1.752896     1.745253     1.737610     1.729967     1.722324     1.714681
      1.707038     1.699395     1.691752     1.684108     1.676465     1.668822     1.661179     1.653536     1.645893     1.638250
      1.630607     1.622964     1.615321     1.607677     1.600034     1.592391     1.584748     1.577105     1.569462     1.561819
      1.554176     1.546533     1.538890     1.531246     1.523603     1.515960     1.508317     1.500674     1.493031     1.485388
      1.477745     1.470102     1.462458     1.454815     1.447172     1.439529     1.431886     1.424243     1.416600     1.408957
      1.401314     1.393671     1.386027     1.378384     1.370741     1.363098     1.355455     1.347812     1.340169     1.332526
      1.324883     1.317240     1.309596     1.301953     1.294310     1.286667     1.279024     1.271381     1.263738     1.256095
      1.248452     1.240808     1.233165     1.225522     1.217879     1.210236     1.202593     1.194950     1.187307     1.179664
      1.172021     1.164377     1.156734     1.149091     1.141448     1.133805     1.126162     1.118519     1.110876     1.103233
      1.095590     1.087946     1.080303     1.072660     1.065017     1.057374     1.049731     1.042088     1.034445     1.026802
      1.019158     1.011515     1.003872     0.996229     0.988586     0.980943     0.973300     0.965657     0.958014     0.950371
      0.942727     0.935084     0.927441     0.919798     0.912155     0.904512     0.896869     0.889226     0.881583     0.873940
      0.866296     0.858653     0.851010     0.843367     0.835724     0.828081     0.820438     0.812795     0.805152     0.797508
      0.789865     0.782222     0.774579     0.766936     0.759293     0.751650     0.744007     0.736364     0.728721     0.721077
      0.713434     0.705791     0.698148     0.690505     0.682862     0.675219     0.667576     0.659933     0.652290     0.644646
      0.637003     0.629360     0.621717     0.614074     0.606431     0.598788     0.591145     0.583502     0.575858     0.568215
      0.560572     0.552929     0.545286     0.537643     0.530000     0.522357     0.514714     0.507071     0.499427     0.491784
      0.484141     0.476498     0.468855     0.461212     0.453569     0.445925     0.438282     0.430639     0.422996     0.415353
      0.407710     0.400067     0.392424     0.384780     0.377137     0.369494     0.361851     0.354208     0.346565     0.338922
      0.331278     0.323635     0.315992     0.308349     0.300706     0.293063     0.285420     0.277777     0.270133     0.262490
      0.254847     0.247204     0.239561     0.231918     0.224275     0.216631     0.208988     0.201345
 NY phased data points follow
   3.46811E+01  3.48486E+01  3.68343E+01  3.33733E+01  3.39585E+01  3.54033E+01  3.33970E+01  3.23479E+01  3.28179E+01  3.41022E+01
   3.07194E+01  3.42119E+01  3.08027E+01  3.18262E+01  2.87123E+01  3.21511E+01  2.83467E+01  3.06054E+01  3.22199E+01  3.06501E+01
   2.79512E+01  2.82272E+01  2.72221E+01  2.68357E+01  2.97430E+01  2.72358E+01  2.68874E+01  2.50367E+01  2.64701E+01  2.71425E+01
   2.55729E+01  2.54685E+01  2.70457E+01  2.70909E+01  2.46563E+01  2.51498E+01  2.45316E+01  2.57656E+01  2.37297E+01  2.64955E+01
   2.30460E+01  2.44953E+01  2.42667E+01  2.31009E+01  2.30881E+01  2.20141E+01  2.30353E+01  2.57464E+01  2.46147E+01  2.26595E+01
   2.37489E+01  2.28828E+01  2.20781E+01  2.26576E+01  2.12986E+01  2.05234E+01  2.13212E+01  2.17840E+01  2.14042E+01  2.41618E+01
   2.20354E+01  2.13185E+01  2.27347E+01  2.22264E+01  2.05252E+01  2.17783E+01  2.19047E+01  2.10871E+01  1.96182E+01  1.93407E+01
   1.86872E+01  2.09038E+01  1.87258E+01  1.99870E+01  1.93670E+01  1.99423E+01  2.03443E+01  2.28491E+01  1.95556E+01  1.89122E+01
   1.73273E+01  2.01605E+01  1.86225E+01  1.76234E+01  1.97900E+01  1.87450E+01  1.67779E+01  1.64128E+01  1.69047E+01  1.97916E+01
   1.73161E+01  1.83551E+01  1.70356E+01  1.67934E+01  1.51674E+01  1.49811E+01  1.53357E+01  1.91608E+01  1.77917E+01  1.61653E+01
   1.74328E+01  1.97135E+01  1.85998E+01  1.96829E+01  1.72676E+01  1.96837E+01  1.81321E+01  1.80768E+01  1.81722E+01  1.73022E+01
   1.65752E+01  1.64224E+01  1.71479E+01  1.72235E+01  1.73583E+01  1.45549E+01  1.39932E+01  1.42505E+01  1.54001E+01  1.26977E+01
   1.43181E+01  1.35400E+01  1.07639E+01  1.51437E+01  1.35891E+01  1.19543E+01  1.76117E+01  1.76331E+01  1.77492E+01  1.86045E+01
   1.55584E+01  1.73654E+01  1.61641E+01  1.49415E+01  1.55962E+01  1.34599E+01  1.41499E+01  1.60944E+01  1.49307E+01  1.30246E+01
   1.37704E+01  1.39149E+01  1.32028E+01  1.10545E+01  1.52824E+01  1.27765E+01  1.17660E+01  1.32207E+01  1.15502E+01  1.23013E+01
   1.39796E+01  1.33133E+01  1.20198E+01  1.27223E+01  1.10996E+01  1.42124E+01  1.36297E+01  1.31592E+01  1.20060E+01  1.16731E+01
   1.47214E+01  1.23087E+01  1.24658E+01  1.36312E+01  1.18686E+01  1.33099E+01  1.01492E+01  1.18835E+01  1.07332E+01  1.21992E+01
   1.20782E+01  1.08538E+01  1.15594E+01  1.29599E+01  1.07446E+01  1.03551E+01  1.47426E+01  1.28712E+01  1.07360E+01  1.32366E+01
   1.13533E+01  1.24690E+01  1.28045E+01  1.17618E+01  9.62405E+00  1.12278E+01  8.16660E+00  9.00591E+00  1.13492E+01  1.15128E+01
   9.93451E+00  9.10122E+00  1.03955E+01  1.20603E+01  1.00589E+01  1.14153E+01  9.81705E+00  1.10247E+01  9.00961E+00  9.57099E+00
   1.00725E+01  1.09977E+01  1.05116E+01  1.04900E+01  9.65425E+00  1.23015E+01  9.89244E+00  9.96258E+00  9.45454E+00  8.94809E+00
   1.31082E+01  9.84766E+00  1.01008E+01  1.07553E+01  9.69376E+00  1.03821E+01  1.07352E+01  1.15193E+01  9.93503E+00  1.07397E+01
   9.99254E+00  1.21230E+01  1.14283E+01  9.01340E+00  9.69727E+00  1.28878E+01  1.19735E+01  8.88498E+00  9.47979E+00  8.50058E+00
   9.37065E+00  9.20724E+00  1.11155E+01  9.31510E+00  1.13801E+01  9.57076E+00  9.96788E+00  1.24303E+01  1.24615E+01  9.41389E+00
   9.62067E+00  1.03007E+01  5.76883E+00  1.04794E+01  8.49720E+00  9.12699E+00  9.54591E+00  6.97074E+00  8.55159E+00  1.05675E+01
   9.99387E+00  7.96495E+00  8.73637E+00  9.00333E+00  9.82360E+00  8.53828E+00  8.80727E+00  8.86471E+00  7.66458E+00  1.05582E+01
   1.25770E+01  1.39065E+01  1.63499E+01  1.49016E+01  1.30483E+01  1.15534E+01  9.34819E+00  1.12855E+01  1.06300E+01  8.39746E+00
   9.08424E+00  9.99244E+00  7.39619E+00  9.67160E+00  7.55301E+00  7.67976E+00  4.80963E+00  8.98729E+00  6.22256E+00  1.11703E+01
   8.20127E+00  8.65749E+00  8.28652E+00  9.00683E+00  9.16300E+00  7.45947E+00  9.71741E+00  7.57637E+00  7.22740E+00  7.22069E+00
   6.19438E+00  6.77313E+00  8.06251E+00  9.40931E+00  6.66291E+00  8.99197E+00  7.99739E+00  7.52913E+00  8.66169E+00  7.91169E+00
   9.61052E+00  9.50484E+00  7.51317E+00  8.14804E+00  7.40382E+00  1.11676E+01  7.24426E+00  8.87041E+00  6.69317E+00  7.29058E+00
   5.33386E+00  7.83724E+00  6.25749E+00  5.77568E+00  5.93066E+00  5.28077E+00  6.92304E+00  8.68516E+00  6.99895E+00  6.41804E+00
   7.42030E+00  6.56039E+00  6.58692E+00  6.45228E+00  7.23304E+00  8.10883E+00  8.35452E+00  6.95723E+00  9.26078E+00  4.14060E+00
   9.21692E+00  5.92995E+00  7.39543E+00  7.58832E+00  5.81735E+00  8.24691E+00  8.02049E+00  7.36014E+00  1.03632E+01  9.72821E+00
   1.03098E+01  8.62303E+00  1.26488E+01  1.00326E+01  9.79580E+00  1.17051E+01  1.01636E+01  1.12199E+01  9.84574E+00  1.11532E+01
   1.03791E+01  1.17976E+01  1.06274E+01  8.51811E+00  7.98362E+00  9.38892E+00  8.19959E+00  7.02132E+00  9.51551E+00  4.65264E+00
   3.42187E+00  5.97923E+00  6.57735E+00  7.42901E+00  1.23632E+01  9.72587E+00  8.09477E+00  6.84967E+00  8.37939E+00  6.86154E+00
   5.90346E+00  6.74164E+00  6.62144E+00  5.67253E+00  6.72647E+00  7.63536E+00  7.01294E+00  9.55539E+00  5.32088E+00  8.27422E+00
   5.87653E+00  6.55887E+00  4.58524E+00  2.37711E+00  3.40865E+00  5.47421E+00  2.96134E+00  2.39401E+00  5.92052E+00  4.54430E+00
   3.89573E+00  2.34950E+00  4.12381E+00  1.41605E+00  3.78463E+00  1.78180E+00  2.08579E+00  4.64244E+00  4.08571E+00  2.32767E+00
   2.60585E+00  4.95140E+00  3.77040E+00  7.39445E+00  3.92872E+00  6.31126E+00  7.47547E+00  3.22598E+00  5.86859E+00  3.77598E+00
   6.09612E+00  5.66935E+00  2.55903E+00  5.65351E+00  7.10859E+00  7.20508E+00  4.06327E+00  3.12174E+00  6.52186E+00  2.86025E+00
   2.34130E+00  3.71570E+00  3.73407E+00  5.87280E+00  4.98443E+00  4.01602E+00  4.36651E+00  4.92332E+00  4.61151E+00  2.79664E+00
   5.01658E+00  3.30165E+00  5.62114E+00  7.33088E+00  5.09707E+00  6.28493E+00  8.41730E+00  5.81196E+00  5.30314E+00  5.06662E+00
   7.24882E+00  2.22182E+00  5.37313E+00  5.24502E+00  3.47702E+00  6.73010E+00  5.23906E+00  6.58574E+00  3.42317E+00  2.28350E+00
   4.52758E+00  3.01199E+00  5.22996E+00  2.62203E+00  3.44540E+00  5.51685E+00  6.23723E+00  4.11999E+00  6.76239E+00  5.56936E+00
   6.21453E+00  6.55060E+00  2.82743E+00  2.95202E+00  4.33933E+00  5.72352E+00  3.31517E+00  4.25619E+00  4.97783E+00  3.53548E+00
   3.12538E+00  3.95640E+00  5.87603E+00  4.01777E+00  3.68724E+00  3.24287E+00  4.13718E+00  5.51779E+00  4.54673E+00  5.99376E+00
   4.47251E+00  5.08437E+00  3.63158E+00  2.17658E+00  3.84783E+00  3.83758E+00  6.67258E+00  4.39515E+00  4.64944E+00  4.13289E+00
   3.37114E+00  3.07826E+00  1.81655E+00  1.22929E+00  3.46344E+00  6.51186E+00  5.89957E+00  3.32626E+00
 NY points of the fit to the data follow
   3.15358E+01  3.13287E+01  3.11200E+01  3.09248E+01  3.07099E+01  3.04859E+01  3.03005E+01  3.05464E+01  3.12945E+01  3.19452E+01
   3.22164E+01  3.21379E+01  3.16530E+01  3.09869E+01  3.02709E+01  2.94664E+01  2.89454E+01  2.86732E+01  2.84410E+01  2.82359E+01
   2.80647E+01  2.79327E+01  2.78187E+01  2.77400E+01  2.76703E+01  2.75075E+01  2.72637E+01  2.69980E+01  2.68292E+01  2.68038E+01
   2.67609E+01  2.66392E+01  2.65414E+01  2.64207E+01  2.62520E+01  2.60663E+01  2.58664E+01  2.57441E+01  2.56432E+01  2.54304E+01
   2.51428E+01  2.48839E+01  2.46533E+01  2.44244E+01  2.42299E+01  2.41364E+01  2.41865E+01  2.43092E+01  2.43613E+01  2.42865E+01
   2.41057E+01  2.38368E+01  2.35145E+01  2.31858E+01  2.28995E+01  2.26954E+01  2.25455E+01  2.24217E+01  2.23342E+01  2.22783E+01
   2.22293E+01  2.21609E+01  2.20416E+01  2.18746E+01  2.16807E+01  2.14704E+01  2.12718E+01  2.11104E+01  2.09814E+01  2.08679E+01
   2.07673E+01  2.06847E+01  2.05877E+01  2.04820E+01  2.03954E+01  2.02995E+01  2.01852E+01  2.00478E+01  1.98733E+01  1.96901E+01
   1.95239E+01  1.93701E+01  1.92348E+01  1.91273E+01  1.90481E+01  1.89745E+01  1.88625E+01  1.86974E+01  1.85043E+01  1.83172E+01
   1.81674E+01  1.80535E+01  1.79551E+01  1.78783E+01  1.78125E+01  1.77423E+01  1.76548E+01  1.75399E+01  1.73690E+01  1.71638E+01
   1.70844E+01  1.75751E+01  1.84274E+01  1.90173E+01  1.92292E+01  1.90676E+01  1.85513E+01  1.79419E+01  1.72353E+01  1.65164E+01
   1.62036E+01  1.60729E+01  1.59714E+01  1.58798E+01  1.57889E+01  1.57045E+01  1.56237E+01  1.55440E+01  1.54590E+01  1.53677E+01
   1.52748E+01  1.51551E+01  1.49612E+01  1.47425E+01  1.46502E+01  1.53330E+01  1.66992E+01  1.77831E+01  1.82742E+01  1.82199E+01
   1.75831E+01  1.67519E+01  1.58333E+01  1.48164E+01  1.43060E+01  1.41149E+01  1.39496E+01  1.37890E+01  1.36722E+01  1.36001E+01
   1.35732E+01  1.35845E+01  1.35875E+01  1.35707E+01  1.35389E+01  1.34843E+01  1.34123E+01  1.33335E+01  1.32545E+01  1.31816E+01
   1.31084E+01  1.30366E+01  1.29643E+01  1.28962E+01  1.28334E+01  1.27753E+01  1.27267E+01  1.26843E+01  1.26392E+01  1.25585E+01
   1.24286E+01  1.22949E+01  1.21900E+01  1.21429E+01  1.21512E+01  1.21542E+01  1.21328E+01  1.20992E+01  1.20259E+01  1.19275E+01
   1.18281E+01  1.17306E+01  1.16628E+01  1.16051E+01  1.15201E+01  1.13953E+01  1.12900E+01  1.12476E+01  1.12408E+01  1.12280E+01
   1.11820E+01  1.11214E+01  1.10905E+01  1.10673E+01  1.10188E+01  1.09467E+01  1.08552E+01  1.08132E+01  1.08257E+01  1.08672E+01
   1.09397E+01  1.10068E+01  1.10370E+01  1.10381E+01  1.09930E+01  1.09271E+01  1.08573E+01  1.07656E+01  1.06810E+01  1.06118E+01
   1.05405E+01  1.04838E+01  1.04732E+01  1.05060E+01  1.05543E+01  1.05716E+01  1.05532E+01  1.05068E+01  1.04531E+01  1.03882E+01
   1.03089E+01  1.02204E+01  1.01066E+01  1.00057E+01  9.94085E+00  9.90630E+00  9.90385E+00  9.91716E+00  9.93588E+00  9.96293E+00
   9.96821E+00  9.95633E+00  9.95379E+00  9.96160E+00  9.96698E+00  9.95923E+00  9.93768E+00  9.90298E+00  9.85203E+00  9.77525E+00
   9.67605E+00  9.58975E+00  9.54176E+00  9.52699E+00  9.54087E+00  9.58077E+00  9.64251E+00  9.69465E+00  9.69132E+00  9.63095E+00
   9.54346E+00  9.44768E+00  9.35901E+00  9.28778E+00  9.25885E+00  9.28255E+00  9.32360E+00  9.35909E+00  9.38007E+00  9.38483E+00
   9.37490E+00  9.34627E+00  9.30658E+00  9.27045E+00  9.22679E+00  9.10557E+00  8.88933E+00  8.66566E+00  9.04508E+00  1.08498E+01
   1.30898E+01  1.44488E+01  1.48873E+01  1.43815E+01  1.31440E+01  1.17702E+01  1.01505E+01  8.81079E+00  8.43222E+00  8.32969E+00
   8.26767E+00  8.21869E+00  8.17924E+00  8.14783E+00  8.12229E+00  8.10495E+00  8.09071E+00  8.06975E+00  8.04341E+00  8.01235E+00
   7.97601E+00  7.93762E+00  7.89766E+00  7.85887E+00  7.82728E+00  7.80201E+00  7.77952E+00  7.75990E+00  7.74184E+00  7.72349E+00
   7.70415E+00  7.68319E+00  7.66059E+00  7.63747E+00  7.61463E+00  7.59178E+00  7.56927E+00  7.54800E+00  7.52749E+00  7.50742E+00
   7.48813E+00  7.46905E+00  7.45011E+00  7.43136E+00  7.41289E+00  7.39471E+00  7.37692E+00  7.35966E+00  7.34309E+00  7.32738E+00
   7.31270E+00  7.29923E+00  7.28719E+00  7.27684E+00  7.26849E+00  7.26244E+00  7.25904E+00  7.25867E+00  7.26177E+00  7.26870E+00
   7.27936E+00  7.29179E+00  7.30483E+00  7.34715E+00  7.45960E+00  7.74658E+00  8.08953E+00  8.17171E+00  7.98152E+00  7.66399E+00
   7.25766E+00  6.86898E+00  6.49638E+00  6.24300E+00  6.51693E+00  7.15556E+00  7.78573E+00  8.34837E+00  8.76076E+00  9.00461E+00
   9.15005E+00  9.12657E+00  9.04070E+00  9.06328E+00  9.13758E+00  9.22770E+00  9.31907E+00  9.40328E+00  9.47438E+00  9.52774E+00
   9.55969E+00  9.56742E+00  9.54896E+00  9.50322E+00  9.42996E+00  9.32978E+00  9.20410E+00  9.05507E+00  8.88547E+00  8.69857E+00
   8.49797E+00  8.28745E+00  8.07081E+00  7.85175E+00  7.63376E+00  7.41993E+00  7.21297E+00  7.01507E+00  6.82800E+00  6.65302E+00
   6.49094E+00  6.34219E+00  6.20680E+00  6.08453E+00  5.97493E+00  5.87736E+00  5.79110E+00  5.71534E+00  5.64926E+00  5.59204E+00
   5.54292E+00  5.50119E+00  5.46620E+00  5.43735E+00  5.41413E+00  5.39606E+00  5.38275E+00  5.37384E+00  5.36899E+00  5.36787E+00
   5.37018E+00  5.37561E+00  5.38383E+00  5.39449E+00  5.40720E+00  5.42154E+00  5.43702E+00  5.45315E+00  5.46940E+00  5.48517E+00
   5.49987E+00  5.51288E+00  5.52359E+00  5.53144E+00  5.53588E+00  5.53644E+00  5.53269E+00  5.52433E+00  5.51114E+00  5.49303E+00
   5.47000E+00  5.44217E+00  5.40978E+00  5.37317E+00  5.33278E+00  5.28912E+00  5.24274E+00  5.19423E+00  5.14420E+00  5.09325E+00
   5.04196E+00  4.99087E+00  4.94048E+00  4.89120E+00  4.84340E+00  4.79739E+00  4.75341E+00  4.71162E+00  4.67213E+00  4.63498E+00
   4.60020E+00  4.56776E+00  4.53759E+00  4.50962E+00  4.48372E+00  4.45978E+00  4.43769E+00  4.41730E+00  4.39851E+00  4.38118E+00
   4.36517E+00  4.35037E+00  4.33669E+00  4.32402E+00  4.31226E+00  4.30132E+00  4.29111E+00  4.28157E+00  4.27263E+00  4.26424E+00
   4.25632E+00  4.24882E+00  4.24170E+00  4.23492E+00  4.22844E+00  4.22224E+00  4.21630E+00  4.21057E+00  4.20506E+00  4.19974E+00
   4.19459E+00  4.18961E+00  4.18477E+00  4.18006E+00  4.17548E+00  4.17101E+00  4.16665E+00  4.16238E+00  4.15820E+00  4.15410E+00
   4.15008E+00  4.14613E+00  4.14225E+00  4.13843E+00  4.13466E+00  4.13094E+00  4.12728E+00  4.12367E+00  4.12010E+00  4.11657E+00
   4.11307E+00  4.10961E+00  4.10620E+00  4.10282E+00  4.09946E+00  4.09614E+00  4.09284E+00  4.08957E+00  4.08634E+00  4.08314E+00
   4.07995E+00  4.07679E+00  4.07366E+00  4.07056E+00  4.06748E+00  4.06443E+00  4.06140E+00  4.05840E+00
 NY background values follow
     3.122E+01    3.106E+01    3.090E+01    3.074E+01    3.057E+01    3.041E+01    3.025E+01    3.008E+01    2.992E+01    2.976E+01
     2.960E+01    2.943E+01    2.927E+01    2.911E+01    2.895E+01    2.879E+01    2.862E+01    2.846E+01    2.830E+01    2.814E+01
     2.798E+01    2.782E+01    2.766E+01    2.750E+01    2.734E+01    2.718E+01    2.702E+01    2.686E+01    2.670E+01    2.654E+01
     2.639E+01    2.623E+01    2.607E+01    2.591E+01    2.576E+01    2.560E+01    2.545E+01    2.529E+01    2.514E+01    2.499E+01
     2.483E+01    2.468E+01    2.453E+01    2.438E+01    2.423E+01    2.408E+01    2.393E+01    2.378E+01    2.363E+01    2.349E+01
     2.334E+01    2.320E+01    2.305E+01    2.291E+01    2.276E+01    2.262E+01    2.248E+01    2.234E+01    2.220E+01    2.206E+01
     2.192E+01    2.178E+01    2.164E+01    2.150E+01    2.137E+01    2.123E+01    2.110E+01    2.096E+01    2.083E+01    2.070E+01
     2.057E+01    2.044E+01    2.031E+01    2.018E+01    2.005E+01    1.992E+01    1.980E+01    1.967E+01    1.955E+01    1.942E+01
     1.930E+01    1.918E+01    1.906E+01    1.894E+01    1.882E+01    1.870E+01    1.858E+01    1.846E+01    1.835E+01    1.823E+01
     1.812E+01    1.801E+01    1.789E+01    1.778E+01    1.767E+01    1.756E+01    1.746E+01    1.735E+01    1.724E+01    1.714E+01
     1.703E+01    1.693E+01    1.682E+01    1.672E+01    1.662E+01    1.652E+01    1.642E+01    1.632E+01    1.623E+01    1.613E+01
     1.603E+01    1.594E+01    1.585E+01    1.575E+01    1.566E+01    1.557E+01    1.548E+01    1.539E+01    1.530E+01    1.521E+01
     1.512E+01    1.504E+01    1.495E+01    1.487E+01    1.478E+01    1.470E+01    1.462E+01    1.454E+01    1.446E+01    1.438E+01
     1.430E+01    1.422E+01    1.414E+01    1.407E+01    1.399E+01    1.391E+01    1.384E+01    1.377E+01    1.369E+01    1.362E+01
     1.355E+01    1.348E+01    1.341E+01    1.334E+01    1.327E+01    1.321E+01    1.314E+01    1.307E+01    1.301E+01    1.294E+01
     1.288E+01    1.282E+01    1.275E+01    1.269E+01    1.263E+01    1.257E+01    1.251E+01    1.245E+01    1.239E+01    1.233E+01
     1.227E+01    1.222E+01    1.216E+01    1.210E+01    1.205E+01    1.199E+01    1.194E+01    1.189E+01    1.183E+01    1.178E+01
     1.173E+01    1.168E+01    1.163E+01    1.157E+01    1.152E+01    1.148E+01    1.143E+01    1.138E+01    1.133E+01    1.128E+01
     1.123E+01    1.119E+01    1.114E+01    1.110E+01    1.105E+01    1.101E+01    1.096E+01    1.092E+01    1.087E+01    1.083E+01
     1.079E+01    1.074E+01    1.070E+01    1.066E+01    1.062E+01    1.058E+01    1.054E+01    1.050E+01    1.046E+01    1.042E+01
     1.038E+01    1.034E+01    1.030E+01    1.026E+01    1.022E+01    1.019E+01    1.015E+01    1.011E+01    1.007E+01    1.004E+01
     1.000E+01    9.965E+00    9.929E+00    9.893E+00    9.858E+00    9.823E+00    9.787E+00    9.753E+00    9.718E+00    9.683E+00
     9.649E+00    9.615E+00    9.581E+00    9.547E+00    9.514E+00    9.480E+00    9.447E+00    9.414E+00    9.381E+00    9.348E+00
     9.315E+00    9.282E+00    9.250E+00    9.217E+00    9.185E+00    9.153E+00    9.121E+00    9.089E+00    9.057E+00    9.025E+00
     8.993E+00    8.962E+00    8.930E+00    8.899E+00    8.868E+00    8.836E+00    8.805E+00    8.774E+00    8.743E+00    8.712E+00
     8.681E+00    8.650E+00    8.620E+00    8.589E+00    8.558E+00    8.528E+00    8.497E+00    8.467E+00    8.436E+00    8.406E+00
     8.375E+00    8.345E+00    8.314E+00    8.284E+00    8.254E+00    8.223E+00    8.193E+00    8.163E+00    8.132E+00    8.102E+00
     8.072E+00    8.041E+00    8.011E+00    7.981E+00    7.950E+00    7.920E+00    7.889E+00    7.859E+00    7.829E+00    7.798E+00
     7.768E+00    7.737E+00    7.707E+00    7.676E+00    7.646E+00    7.616E+00    7.585E+00    7.555E+00    7.524E+00    7.494E+00
     7.463E+00    7.433E+00    7.402E+00    7.372E+00    7.341E+00    7.311E+00    7.280E+00    7.250E+00    7.220E+00    7.189E+00
     7.159E+00    7.128E+00    7.098E+00    7.067E+00    7.037E+00    7.006E+00    6.976E+00    6.945E+00    6.915E+00    6.884E+00
     6.854E+00    6.823E+00    6.793E+00    6.763E+00    6.732E+00    6.702E+00    6.671E+00    6.641E+00    6.611E+00    6.580E+00
     6.550E+00    6.520E+00    6.489E+00    6.459E+00    6.429E+00    6.399E+00    6.368E+00    6.338E+00    6.308E+00    6.278E+00
     6.248E+00    6.219E+00    6.189E+00    6.159E+00    6.130E+00    6.100E+00    6.071E+00    6.041E+00    6.012E+00    5.983E+00
     5.954E+00    5.925E+00    5.897E+00    5.868E+00    5.839E+00    5.811E+00    5.783E+00    5.755E+00    5.727E+00    5.699E+00
     5.671E+00    5.644E+00    5.617E+00    5.590E+00    5.563E+00    5.536E+00    5.509E+00    5.483E+00    5.457E+00    5.431E+00
     5.405E+00    5.379E+00    5.354E+00    5.329E+00    5.304E+00    5.279E+00    5.255E+00    5.230E+00    5.206E+00    5.182E+00
     5.159E+00    5.136E+00    5.113E+00    5.090E+00    5.067E+00    5.045E+00    5.023E+00    5.001E+00    4.980E+00    4.959E+00
     4.938E+00    4.917E+00    4.897E+00    4.877E+00    4.857E+00    4.838E+00    4.819E+00    4.800E+00    4.782E+00    4.764E+00
     4.746E+00    4.729E+00    4.711E+00    4.695E+00    4.678E+00    4.662E+00    4.647E+00    4.631E+00    4.616E+00    4.602E+00
     4.587E+00    4.574E+00    4.560E+00    4.547E+00    4.534E+00    4.522E+00    4.510E+00    4.498E+00    4.487E+00    4.476E+00
     4.466E+00    4.456E+00    4.446E+00    4.437E+00    4.428E+00    4.420E+00    4.411E+00    4.403E+00    4.396E+00    4.388E+00
     4.381E+00    4.374E+00    4.368E+00    4.362E+00    4.356E+00    4.350E+00    4.344E+00    4.339E+00    4.334E+00    4.329E+00
     4.324E+00    4.320E+00    4.315E+00    4.311E+00    4.307E+00    4.303E+00    4.299E+00    4.296E+00    4.292E+00    4.289E+00
     4.286E+00    4.283E+00    4.279E+00    4.276E+00    4.273E+00    4.270E+00    4.268E+00    4.265E+00    4.262E+00    4.259E+00
     4.256E+00    4.254E+00    4.251E+00    4.248E+00    4.245E+00    4.242E+00    4.240E+00    4.237E+00    4.234E+00    4.231E+00
     4.228E+00    4.225E+00    4.222E+00    4.219E+00    4.216E+00    4.214E+00    4.211E+00    4.208E+00    4.205E+00    4.202E+00
     4.199E+00    4.196E+00    4.193E+00    4.190E+00    4.186E+00    4.183E+00    4.180E+00    4.177E+00    4.174E+00    4.171E+00
     4.168E+00    4.165E+00    4.162E+00    4.159E+00    4.156E+00    4.153E+00    4.150E+00    4.147E+00    4.143E+00    4.140E+00
     4.137E+00    4.134E+00    4.131E+00    4.128E+00    4.125E+00    4.122E+00    4.119E+00    4.116E+00
 Ala      Conc. = 5.15E+01
