 LCModel (Version 6.3-1L) Copyright: S.W. Provencher.          Ref.: Magn. Reson. Med. 30:672-679 (1993).                
 Slice#3 Row#4 Col#10  PD_05_press_1_raw_act
 36 lines in following concentration table = NCONC+1
    Conc.  %SD /Cr+PCr  Metabolite                                         
  588.653  36%   0.387 Ala                                                 
    0.000 999%   0.000 Asp                                                 
  576.777  43%   0.379 Cr                                                  
  945.005  26%   0.621 PCr                                                 
  157.275 105%   0.103 GABA                                                
    0.000 999%   0.000 Glc                                                 
 1.58E+03  27%   1.041 Gln                                                 
 2.29E+03  22%   1.502 Glu                                                 
  456.333   5%   0.300 GPC                                                 
    0.000 999%   0.000 PCh                                                 
  622.485  13%   0.409 GSH                                                 
 1.62E+03  17%   1.064 Ins                                                 
    0.000 999%   0.000 Lac                                                 
 2.13E+03   3%   1.397 NAA                                                 
    0.000 999%   0.000 NAAG                                                
  139.572  19% 9.2E-02 Scyllo                                              
    0.000 999%   0.000 Tau                                                 
    0.000 999%   0.000 -CrCH2                                              
  456.333   5%   0.300 GPC+PCh                                             
 2.13E+03   3%   1.397 NAA+NAAG                                            
 1.52E+03   4%   1.000 Cr+PCr                                              
 3.87E+03  22%   2.542 Glu+Gln                                             
    0.000 999%   0.000 Lip13a                                              
  166.587  48%   0.109 Lip13b                                              
   42.461  60% 2.8E-02 Lip09                                               
  744.594  17%   0.489 MM09                                                
   25.711  60% 1.7E-02 Lip20                                               
 1.65E+03  16%   1.085 MM20                                                
   39.900 227% 2.6E-02 MM12                                                
 1.50E+03  16%   0.988 MM14                                                
  620.167  28%   0.408 MM17                                                
  166.587  48%   0.109 Lip13a+Lip13b                                       
 1.71E+03  14%   1.123 MM14+Lip13a+Lip13b+MM12                             
  787.054  16%   0.517 MM09+Lip09                                          
 1.68E+03  16%   1.101 MM20+Lip20                                          
   6 lines in following misc. output table
  FWHM = 0.092 ppm    S/N =  11                                            
  Data shift = 0.000 ppm                                                   
  Ph:  -4 deg     -15.2 deg/ppm                                            
  alphaB,S = 5.6E-01,   1.5E+02                                            
   14 spline knots.   Ns = 6(2)                                            
  ( 5) 2 infls.   ( 1) 1 extrs.                                            
  498 points on ppm-axis = NY
      4.000000     3.992357     3.984714     3.977070     3.969427     3.961784     3.954141     3.946497     3.938854     3.931211
      3.923568     3.915925     3.908281     3.900638     3.892995     3.885352     3.877708     3.870065     3.862422     3.854779
      3.847136     3.839492     3.831849     3.824206     3.816563     3.808919     3.801276     3.793633     3.785990     3.778347
      3.770703     3.763060     3.755417     3.747774     3.740130     3.732487     3.724844     3.717201     3.709558     3.701914
      3.694271     3.686628     3.678985     3.671341     3.663698     3.656055     3.648412     3.640769     3.633125     3.625482
      3.617839     3.610196     3.602552     3.594909     3.587266     3.579623     3.571980     3.564336     3.556693     3.549050
      3.541407     3.533763     3.526120     3.518477     3.510834     3.503191     3.495547     3.487904     3.480261     3.472618
      3.464974     3.457331     3.449688     3.442045     3.434402     3.426758     3.419115     3.411472     3.403829     3.396185
      3.388542     3.380899     3.373256     3.365613     3.357969     3.350326     3.342683     3.335040     3.327396     3.319753
      3.312110     3.304467     3.296824     3.289180     3.281537     3.273894     3.266251     3.258607     3.250964     3.243321
      3.235678     3.228034     3.220391     3.212748     3.205105     3.197462     3.189818     3.182175     3.174532     3.166889
      3.159245     3.151602     3.143959     3.136316     3.128673     3.121029     3.113386     3.105743     3.098100     3.090456
      3.082813     3.075170     3.067527     3.059884     3.052240     3.044597     3.036954     3.029311     3.021667     3.014024
      3.006381     2.998738     2.991095     2.983451     2.975808     2.968165     2.960522     2.952878     2.945235     2.937592
      2.929949     2.922306     2.914662     2.907019     2.899376     2.891733     2.884089     2.876446     2.868803     2.861160
      2.853517     2.845873     2.838230     2.830587     2.822944     2.815300     2.807657     2.800014     2.792371     2.784728
      2.777084     2.769441     2.761798     2.754155     2.746511     2.738868     2.731225     2.723582     2.715939     2.708295
      2.700652     2.693009     2.685366     2.677722     2.670079     2.662436     2.654793     2.647150     2.639506     2.631863
      2.624220     2.616577     2.608933     2.601290     2.593647     2.586004     2.578361     2.570717     2.563074     2.555431
      2.547788     2.540144     2.532501     2.524858     2.517215     2.509572     2.501928     2.494285     2.486642     2.478999
      2.471355     2.463712     2.456069     2.448426     2.440783     2.433139     2.425496     2.417853     2.410210     2.402566
      2.394923     2.387280     2.379637     2.371994     2.364350     2.356707     2.349064     2.341421     2.333777     2.326134
      2.318491     2.310848     2.303205     2.295561     2.287918     2.280275     2.272632     2.264988     2.257345     2.249702
      2.242059     2.234416     2.226772     2.219129     2.211486     2.203843     2.196199     2.188556     2.180913     2.173270
      2.165627     2.157983     2.150340     2.142697     2.135054     2.127410     2.119767     2.112124     2.104481     2.096838
      2.089194     2.081551     2.073908     2.066265     2.058621     2.050978     2.043335     2.035692     2.028049     2.020405
      2.012762     2.005119     1.997476     1.989833     1.982190     1.974546     1.966903     1.959260     1.951617     1.943974
      1.936331     1.928688     1.921045     1.913402     1.905759     1.898115     1.890472     1.882829     1.875186     1.867543
      1.859900     1.852257     1.844614     1.836971     1.829327     1.821684     1.814041     1.806398     1.798755     1.791112
      1.783469     1.775826     1.768183     1.760540     1.752896     1.745253     1.737610     1.729967     1.722324     1.714681
      1.707038     1.699395     1.691752     1.684108     1.676465     1.668822     1.661179     1.653536     1.645893     1.638250
      1.630607     1.622964     1.615321     1.607677     1.600034     1.592391     1.584748     1.577105     1.569462     1.561819
      1.554176     1.546533     1.538890     1.531246     1.523603     1.515960     1.508317     1.500674     1.493031     1.485388
      1.477745     1.470102     1.462458     1.454815     1.447172     1.439529     1.431886     1.424243     1.416600     1.408957
      1.401314     1.393671     1.386027     1.378384     1.370741     1.363098     1.355455     1.347812     1.340169     1.332526
      1.324883     1.317240     1.309596     1.301953     1.294310     1.286667     1.279024     1.271381     1.263738     1.256095
      1.248452     1.240808     1.233165     1.225522     1.217879     1.210236     1.202593     1.194950     1.187307     1.179664
      1.172021     1.164377     1.156734     1.149091     1.141448     1.133805     1.126162     1.118519     1.110876     1.103233
      1.095590     1.087946     1.080303     1.072660     1.065017     1.057374     1.049731     1.042088     1.034445     1.026802
      1.019158     1.011515     1.003872     0.996229     0.988586     0.980943     0.973300     0.965657     0.958014     0.950371
      0.942727     0.935084     0.927441     0.919798     0.912155     0.904512     0.896869     0.889226     0.881583     0.873940
      0.866296     0.858653     0.851010     0.843367     0.835724     0.828081     0.820438     0.812795     0.805152     0.797508
      0.789865     0.782222     0.774579     0.766936     0.759293     0.751650     0.744007     0.736364     0.728721     0.721077
      0.713434     0.705791     0.698148     0.690505     0.682862     0.675219     0.667576     0.659933     0.652290     0.644646
      0.637003     0.629360     0.621717     0.614074     0.606431     0.598788     0.591145     0.583502     0.575858     0.568215
      0.560572     0.552929     0.545286     0.537643     0.530000     0.522357     0.514714     0.507071     0.499427     0.491784
      0.484141     0.476498     0.468855     0.461212     0.453569     0.445925     0.438282     0.430639     0.422996     0.415353
      0.407710     0.400067     0.392424     0.384780     0.377137     0.369494     0.361851     0.354208     0.346565     0.338922
      0.331278     0.323635     0.315992     0.308349     0.300706     0.293063     0.285420     0.277777     0.270133     0.262490
      0.254847     0.247204     0.239561     0.231918     0.224275     0.216631     0.208988     0.201345
 NY phased data points follow
   2.92350E+01  2.91805E+01  3.26183E+01  3.27386E+01  3.20491E+01  3.50540E+01  3.61798E+01  3.52402E+01  3.82960E+01  3.88808E+01
   3.87270E+01  3.69511E+01  3.43024E+01  3.59049E+01  3.40340E+01  2.99478E+01  2.72113E+01  2.66032E+01  2.61427E+01  2.36287E+01
   2.36686E+01  2.49784E+01  2.59273E+01  2.67143E+01  2.53228E+01  2.62096E+01  2.70432E+01  2.61921E+01  2.45651E+01  2.52518E+01
   2.34862E+01  2.31202E+01  2.45832E+01  2.35337E+01  2.28272E+01  2.02073E+01  2.24831E+01  2.27084E+01  2.45317E+01  2.27080E+01
   2.39673E+01  2.36451E+01  2.12867E+01  2.52975E+01  2.47597E+01  2.36594E+01  2.41524E+01  2.48347E+01  2.46777E+01  2.42199E+01
   2.29674E+01  2.36517E+01  1.72847E+01  1.92244E+01  1.86254E+01  1.68047E+01  1.61273E+01  1.54974E+01  1.59150E+01  1.66493E+01
   1.52435E+01  1.45533E+01  1.48206E+01  9.69571E+00  1.25148E+01  1.06190E+01  7.58037E+00  1.12805E+01  9.30616E+00  1.14460E+01
   1.06544E+01  1.03277E+01  1.03684E+01  8.87875E+00  9.02131E+00  9.84029E+00  1.12613E+01  1.04997E+01  1.07807E+01  1.21829E+01
   1.29953E+01  1.08280E+01  1.00118E+01  1.10676E+01  1.48911E+01  1.03686E+01  1.55917E+01  1.24439E+01  1.31968E+01  1.48794E+01
   1.55589E+01  1.59199E+01  1.63045E+01  1.69039E+01  1.98068E+01  1.92466E+01  2.07702E+01  2.42804E+01  2.64172E+01  2.95137E+01
   2.76686E+01  2.73566E+01  3.00592E+01  3.11631E+01  3.07840E+01  3.14291E+01  2.44876E+01  2.64353E+01  2.33980E+01  1.88786E+01
   1.75824E+01  1.40070E+01  1.30366E+01  1.45409E+01  1.37460E+01  1.28211E+01  1.66996E+01  1.98100E+01  1.94516E+01  2.34462E+01
   2.75188E+01  2.90341E+01  2.87108E+01  3.13139E+01  3.22313E+01  3.52306E+01  3.64961E+01  3.60149E+01  3.61506E+01  3.41582E+01
   3.09055E+01  2.31768E+01  2.06300E+01  1.97886E+01  1.53054E+01  1.61067E+01  1.41494E+01  6.89163E+00  8.86017E+00  6.34047E+00
   1.01476E+01  9.88187E+00  8.31998E+00  1.19209E+01  9.63429E+00  9.57234E+00  9.87619E+00  8.63457E+00  8.22553E+00  6.89009E+00
   4.75701E+00  6.74474E+00  6.83694E+00  5.88321E+00  3.94456E+00  7.23746E+00  3.68548E+00  5.83237E+00  5.70110E+00  7.10605E+00
   3.17666E+00  3.95100E+00  2.38562E+00  3.76136E+00  5.86633E+00  3.59835E+00  1.51869E+00  1.76983E+00  1.20627E+00  5.43975E-01
   1.28040E+00 -9.90661E-01 -2.11820E-01 -2.66457E+00 -2.39271E+00 -1.78719E+00 -5.32082E+00 -3.68248E+00 -1.38070E-01 -1.70421E+00
  -4.30674E+00  2.53834E-01 -8.30226E-01 -2.17851E+00  2.89292E+00 -6.85791E-01  9.15238E-01  9.67991E-01  1.59713E+00  2.49634E+00
   3.83293E+00  3.27968E+00  4.33608E+00  4.67898E+00  4.90103E+00  2.52105E+00  2.72209E+00  3.62553E+00  4.17868E+00  4.26485E+00
   6.39828E+00  5.36471E+00  3.77535E+00  5.85804E+00  7.63722E+00  3.82769E+00  3.33582E+00  6.26670E+00  4.64107E+00  5.67331E+00
   4.67961E+00  5.19944E+00  4.92927E+00  5.54190E+00  7.37919E+00  5.17445E+00  6.84690E+00  3.61876E+00  7.15902E+00  6.21136E+00
   4.50444E+00  4.54203E+00  4.19400E+00  2.95158E+00  5.11922E+00  2.66185E+00  7.87145E+00  4.93149E+00  7.91187E+00  8.53201E+00
   6.29789E+00  8.03716E+00  7.83196E+00  8.13562E+00  6.81712E+00  5.89757E+00  9.34459E+00  5.64082E+00  6.29485E+00  5.75211E+00
   6.32624E+00  7.82672E+00  5.73508E+00  7.02983E+00  8.82375E+00  9.86342E+00  1.03691E+01  1.53633E+01  1.48636E+01  1.72499E+01
   1.65536E+01  2.48060E+01  2.57009E+01  2.80373E+01  3.31476E+01  3.44187E+01  3.77824E+01  4.06836E+01  4.64231E+01  4.90789E+01
   5.14692E+01  5.27021E+01  5.02118E+01  4.43748E+01  3.85341E+01  2.82766E+01  2.32609E+01  2.03586E+01  1.54353E+01  1.11559E+01
   1.04955E+01  7.44653E+00  7.05677E+00  6.49130E+00  9.01214E+00  9.01544E+00  6.74988E+00  6.08679E+00  5.45516E+00  6.90218E+00
   8.07476E+00  6.51359E+00  3.59424E+00  3.97189E+00  4.80995E+00  4.20999E+00  5.46046E+00  4.82233E+00  4.39688E+00  3.69713E+00
   5.64927E+00  5.61638E+00  3.53554E+00  4.38693E+00  5.39008E+00  5.75395E+00  4.55898E+00  4.41477E+00  4.88582E+00  3.73236E+00
   5.10318E+00  3.64934E+00  4.87497E+00  2.20049E+00  2.05864E+00  5.20990E+00  4.72863E+00  6.19816E+00  4.99898E+00  4.51166E+00
   8.95649E+00  6.43448E+00  9.32028E+00  6.95533E+00  8.16598E+00  7.43897E+00  7.94924E+00  1.07904E+01  8.97262E+00  9.43200E+00
   5.95971E+00  8.35748E+00  9.33641E+00  1.00880E+01  5.60787E+00  7.77900E+00  9.50165E+00  6.30007E+00  9.20038E+00  9.93752E+00
   1.12949E+01  9.50445E+00  1.16486E+01  1.05888E+01  8.20533E+00  1.11572E+01  1.07793E+01  1.07653E+01  8.69921E+00  1.07595E+01
   1.18519E+01  1.01794E+01  1.18172E+01  1.12411E+01  9.96760E+00  1.23492E+01  7.13099E+00  8.32889E+00  6.64778E+00  6.09093E+00
   5.63631E+00  7.12379E+00  5.00410E+00  5.86956E+00  5.28219E+00  4.75878E+00  6.16948E+00  2.47479E+00  4.33516E+00  8.48525E-01
   2.10956E+00  1.75773E+00  2.24438E+00  1.42200E+00 -2.72187E+00 -1.54972E+00 -2.66510E+00 -3.14872E+00 -1.71770E+00 -2.11061E+00
  -3.66898E+00 -1.17265E+00 -1.76953E+00 -2.92596E-01  1.31735E+00 -3.42668E-01 -9.21507E-01  2.53253E+00  1.84562E+00  2.89141E+00
  -1.12085E-01 -2.17819E-01 -3.55288E-01  1.76491E+00  1.28816E+00 -7.64868E-02 -1.92217E+00  2.11069E+00 -2.37897E+00 -7.16691E-01
   1.13738E+00 -8.47403E-01  1.43452E+00  1.02204E+00  2.06754E-01  1.30686E+00  3.65367E+00  2.02330E+00  4.32808E+00  1.91951E+00
   2.51805E+00  6.74521E+00  4.43947E+00  5.60189E+00  6.63440E+00  7.62564E+00  3.19100E+00  9.48018E+00  4.89756E+00  6.19035E+00
   7.47823E+00  8.66727E+00  5.20012E+00  7.38969E+00  5.51562E+00  7.61492E+00  6.37604E+00  4.86507E+00  5.55070E+00  3.07709E+00
   3.53370E+00  1.86694E+00  2.86466E+00  3.25121E+00  4.91389E+00  1.73817E+00  5.03525E-01  2.73321E+00  6.04381E+00  3.34572E+00
   4.51558E+00  1.94500E+00  3.21510E+00  4.55369E+00  1.77254E+00  5.01504E+00  4.28522E+00  2.00879E+00  4.10005E+00  4.26519E+00
   1.90216E+00  1.81980E+00  3.32442E+00  4.58599E+00  3.49485E+00  3.69282E+00  1.03372E+00  3.71010E+00  3.74114E+00  5.35127E+00
   1.55230E+00  2.54751E+00  2.03397E-01  1.91261E+00  2.34062E+00  1.88705E+00  2.93474E+00  1.97081E+00  5.00734E+00  3.45510E+00
   9.97592E-01  3.21166E+00  1.81356E+00  3.80897E+00  4.10105E+00  2.19849E+00  1.46503E+00  1.29356E+00  3.80969E-01  1.87232E+00
   1.44706E-01  2.67685E+00  2.44427E+00  2.34035E+00  3.12995E+00  3.91073E+00  1.20195E+00  8.79783E-01  1.79512E-01  1.50364E+00
  -5.78801E-01 -4.34765E-01  4.41923E+00  2.49258E+00 -1.19817E+00  1.61124E+00  2.20905E+00  1.24195E+00 -5.83166E-01  5.79951E-01
   3.94307E+00  3.26411E+00  2.13198E+00  2.65667E+00  1.01195E+00  1.75570E+00  6.86373E-01  2.43299E+00
 NY points of the fit to the data follow
   2.81423E+01  2.88551E+01  3.05109E+01  3.14160E+01  3.31730E+01  3.42180E+01  3.58742E+01  3.67654E+01  3.77933E+01  3.82375E+01
   3.78046E+01  3.74979E+01  3.55438E+01  3.45193E+01  3.17493E+01  3.01893E+01  2.75643E+01  2.68177E+01  2.47620E+01  2.49187E+01
   2.35979E+01  2.44769E+01  2.37345E+01  2.48778E+01  2.43236E+01  2.54437E+01  2.48583E+01  2.60071E+01  2.56108E+01  2.63596E+01
   2.63371E+01  2.61379E+01  2.64018E+01  2.47787E+01  2.52852E+01  2.31455E+01  2.38162E+01  2.16967E+01  2.24609E+01  2.08724E+01
   2.18199E+01  2.08352E+01  2.17473E+01  2.12049E+01  2.18846E+01  2.16548E+01  2.19789E+01  2.18168E+01  2.16928E+01  2.12234E+01
   2.05376E+01  1.96409E+01  1.86470E+01  1.77447E+01  1.68919E+01  1.63252E+01  1.57909E+01  1.55685E+01  1.52273E+01  1.52363E+01
   1.49970E+01  1.49711E+01  1.47061E+01  1.45428E+01  1.42378E+01  1.40030E+01  1.37411E+01  1.36144E+01  1.34695E+01  1.34479E+01
   1.33965E+01  1.33326E+01  1.33088E+01  1.31065E+01  1.30390E+01  1.29757E+01  1.30206E+01  1.28152E+01  1.29445E+01  1.26243E+01
   1.28921E+01  1.24900E+01  1.29521E+01  1.24284E+01  1.31095E+01  1.24002E+01  1.32160E+01  1.22059E+01  1.31146E+01  1.18567E+01
   1.33133E+01  1.39502E+01  1.55732E+01  1.70715E+01  1.84221E+01  2.06016E+01  2.15776E+01  2.42663E+01  2.47825E+01  2.77254E+01
   2.77944E+01  3.08778E+01  3.03048E+01  3.25238E+01  3.08586E+01  3.07130E+01  2.79498E+01  2.54174E+01  2.23965E+01  1.92397E+01
   1.68337E+01  1.43520E+01  1.29560E+01  1.20675E+01  1.32413E+01  1.39310E+01  1.62150E+01  1.75538E+01  2.04996E+01  2.22811E+01
   2.56376E+01  2.73719E+01  3.05998E+01  3.19551E+01  3.48560E+01  3.54217E+01  3.71107E+01  3.62540E+01  3.55108E+01  3.30074E+01
   2.98693E+01  2.65460E+01  2.26476E+01  1.97094E+01  1.62903E+01  1.42724E+01  1.17314E+01  1.06794E+01  9.00306E+00  8.80268E+00
   7.79562E+00  8.12621E+00  7.53919E+00  7.90639E+00  7.34123E+00  7.44738E+00  6.95041E+00  6.87555E+00  6.45071E+00  6.18457E+00
   5.84942E+00  5.50182E+00  5.32393E+00  5.01716E+00  4.88730E+00  4.60403E+00  4.50404E+00  4.23846E+00  4.12576E+00  3.84533E+00
   3.70338E+00  3.43586E+00  3.25231E+00  3.04194E+00  2.70381E+00  2.61573E+00  2.19542E+00  2.11887E+00  1.61974E+00  1.40026E+00
   9.95549E-01  7.38254E-01  4.51047E-01  1.55462E-01 -5.62693E-02 -4.14673E-01 -3.54441E-01 -5.88705E-01 -1.59745E-01 -2.64399E-01
   4.03790E-01  2.82178E-01  9.83080E-01  8.44350E-01  1.41206E+00  1.31329E+00  1.84622E+00  1.89201E+00  2.48582E+00  2.81757E+00
   3.35332E+00  3.83114E+00  4.24216E+00  4.72772E+00  4.89851E+00  5.24264E+00  5.24009E+00  5.18549E+00  5.09518E+00  5.24086E+00
   5.16343E+00  5.27217E+00  5.27219E+00  5.37298E+00  5.65300E+00  5.17887E+00  5.37622E+00  4.35501E+00  4.54231E+00  3.30772E+00
   3.54977E+00  2.69605E+00  3.79874E+00  3.41487E+00  5.18800E+00  4.56777E+00  6.26561E+00  4.99791E+00  5.82433E+00  4.09832E+00
   4.13290E+00  2.94182E+00  2.89693E+00  2.59537E+00  3.10858E+00  3.87310E+00  4.68509E+00  5.89274E+00  6.46781E+00  7.47309E+00
   7.33006E+00  7.94562E+00  7.49772E+00  8.04260E+00  7.39732E+00  8.10772E+00  7.30330E+00  8.13073E+00  7.12063E+00  7.90158E+00
   6.83586E+00  7.48149E+00  6.62648E+00  7.18032E+00  6.81209E+00  7.45586E+00  7.66192E+00  9.34864E+00  1.31274E+01  1.56807E+01
   2.02559E+01  2.29084E+01  2.77116E+01  3.02415E+01  3.49876E+01  3.71762E+01  4.14357E+01  4.30362E+01  4.67176E+01  4.72688E+01
   4.91085E+01  4.78576E+01  4.58780E+01  4.25858E+01  3.69767E+01  3.27623E+01  2.64410E+01  2.27249E+01  1.77230E+01  1.50960E+01
   1.17389E+01  1.01001E+01  8.03876E+00  7.14212E+00  6.09375E+00  5.72353E+00  5.48139E+00  5.29852E+00  5.09975E+00  4.89958E+00
   4.70437E+00  4.49571E+00  4.32691E+00  4.15936E+00  4.04200E+00  3.93448E+00  3.86627E+00  3.81680E+00  3.78915E+00  3.78888E+00
   3.79807E+00  3.83640E+00  3.87635E+00  3.94890E+00  4.01676E+00  4.11951E+00  4.21494E+00  4.34197E+00  4.46330E+00  4.60751E+00
   4.74547E+00  4.89678E+00  5.03922E+00  5.18588E+00  5.32041E+00  5.45313E+00  5.57338E+00  5.68911E+00  5.79692E+00  5.90482E+00
   6.01615E+00  6.14287E+00  6.29875E+00  6.51290E+00  6.85154E+00  7.36639E+00  7.55820E+00  7.99428E+00  8.04507E+00  8.40096E+00
   8.30729E+00  8.52669E+00  8.21460E+00  8.61502E+00  8.48414E+00  8.89184E+00  8.78474E+00  8.97394E+00  8.85654E+00  8.72241E+00
   8.81855E+00  8.54842E+00  9.10242E+00  9.04583E+00  1.00665E+01  1.01732E+01  1.13674E+01  1.12485E+01  1.21368E+01  1.15505E+01
   1.18192E+01  1.09373E+01  1.06931E+01  9.78064E+00  9.26479E+00  8.44029E+00  7.89582E+00  7.25744E+00  6.80438E+00  6.37191E+00
   6.04061E+00  5.77737E+00  5.53842E+00  5.29084E+00  5.00968E+00  4.67983E+00  4.29761E+00  3.87069E+00  3.41581E+00  2.95506E+00
   2.51143E+00  2.10483E+00  1.74939E+00  1.45230E+00  1.21425E+00  1.03083E+00  8.94456E-01  7.96249E-01  7.27525E-01  6.80745E-01
   6.49951E-01  6.30776E-01  6.20244E-01  6.16469E-01  6.18376E-01  6.25466E-01  6.37632E-01  6.55010E-01  6.77907E-01  7.06757E-01
   7.42128E-01  7.84714E-01  8.35332E-01  8.94901E-01  9.64460E-01  1.04516E+00  1.13830E+00  1.24526E+00  1.36752E+00  1.50656E+00
   1.66380E+00  1.84057E+00  2.03801E+00  2.25690E+00  2.49760E+00  2.75982E+00  3.04257E+00  3.34401E+00  3.66139E+00  3.99094E+00
   4.32790E+00  4.66655E+00  5.00036E+00  5.32218E+00  5.62452E+00  5.89980E+00  6.14072E+00  6.34062E+00  6.49386E+00  6.59607E+00
   6.64448E+00  6.63796E+00  6.57721E+00  6.46462E+00  6.30426E+00  6.10154E+00  5.86296E+00  5.59579E+00  5.30762E+00  5.00613E+00
   4.69864E+00  4.39195E+00  4.09201E+00  3.80385E+00  3.53142E+00  3.27771E+00  3.04467E+00  2.83337E+00  2.64409E+00  2.47643E+00
   2.32951E+00  2.20208E+00  2.09265E+00  1.99960E+00  1.92125E+00  1.85591E+00  1.80204E+00  1.75815E+00  1.72294E+00  1.69519E+00
   1.67384E+00  1.65795E+00  1.64672E+00  1.63948E+00  1.63564E+00  1.63467E+00  1.63614E+00  1.63967E+00  1.64495E+00  1.65172E+00
   1.65974E+00  1.66880E+00  1.67871E+00  1.68934E+00  1.70057E+00  1.71234E+00  1.72455E+00  1.73713E+00  1.75001E+00  1.76317E+00
   1.77655E+00  1.79013E+00  1.80387E+00  1.81774E+00  1.83170E+00  1.84577E+00  1.85993E+00  1.87415E+00  1.88843E+00  1.90274E+00
   1.91709E+00  1.93148E+00  1.94592E+00  1.96039E+00  1.97489E+00  1.98941E+00  2.00397E+00  2.01858E+00  2.03324E+00  2.04794E+00
   2.06270E+00  2.07751E+00  2.09239E+00  2.10737E+00  2.12243E+00  2.13759E+00  2.15285E+00  2.16824E+00  2.18377E+00  2.19947E+00
   2.21534E+00  2.23140E+00  2.24767E+00  2.26418E+00  2.28097E+00  2.29808E+00  2.31552E+00  2.33334E+00
 NY background values follow
     1.587E+01    1.577E+01    1.567E+01    1.557E+01    1.547E+01    1.537E+01    1.527E+01    1.517E+01    1.507E+01    1.497E+01
     1.488E+01    1.478E+01    1.468E+01    1.458E+01    1.448E+01    1.438E+01    1.428E+01    1.418E+01    1.408E+01    1.398E+01
     1.389E+01    1.379E+01    1.369E+01    1.359E+01    1.349E+01    1.339E+01    1.330E+01    1.320E+01    1.310E+01    1.300E+01
     1.291E+01    1.281E+01    1.271E+01    1.262E+01    1.252E+01    1.243E+01    1.233E+01    1.223E+01    1.214E+01    1.204E+01
     1.195E+01    1.185E+01    1.176E+01    1.167E+01    1.157E+01    1.148E+01    1.139E+01    1.129E+01    1.120E+01    1.111E+01
     1.102E+01    1.093E+01    1.084E+01    1.075E+01    1.066E+01    1.057E+01    1.048E+01    1.039E+01    1.030E+01    1.021E+01
     1.013E+01    1.004E+01    9.953E+00    9.868E+00    9.783E+00    9.698E+00    9.614E+00    9.530E+00    9.447E+00    9.365E+00
     9.283E+00    9.202E+00    9.121E+00    9.041E+00    8.962E+00    8.883E+00    8.805E+00    8.727E+00    8.650E+00    8.574E+00
     8.499E+00    8.424E+00    8.350E+00    8.276E+00    8.204E+00    8.132E+00    8.061E+00    7.990E+00    7.920E+00    7.852E+00
     7.783E+00    7.716E+00    7.650E+00    7.584E+00    7.519E+00    7.455E+00    7.391E+00    7.328E+00    7.266E+00    7.205E+00
     7.144E+00    7.084E+00    7.025E+00    6.966E+00    6.908E+00    6.851E+00    6.794E+00    6.738E+00    6.682E+00    6.627E+00
     6.573E+00    6.519E+00    6.465E+00    6.412E+00    6.360E+00    6.308E+00    6.256E+00    6.205E+00    6.155E+00    6.104E+00
     6.055E+00    6.005E+00    5.956E+00    5.908E+00    5.860E+00    5.812E+00    5.764E+00    5.717E+00    5.670E+00    5.624E+00
     5.578E+00    5.532E+00    5.486E+00    5.441E+00    5.395E+00    5.350E+00    5.305E+00    5.261E+00    5.217E+00    5.172E+00
     5.128E+00    5.085E+00    5.041E+00    4.998E+00    4.955E+00    4.912E+00    4.870E+00    4.828E+00    4.786E+00    4.744E+00
     4.703E+00    4.661E+00    4.621E+00    4.580E+00    4.540E+00    4.500E+00    4.460E+00    4.421E+00    4.382E+00    4.344E+00
     4.305E+00    4.268E+00    4.230E+00    4.193E+00    4.156E+00    4.120E+00    4.083E+00    4.048E+00    4.012E+00    3.978E+00
     3.943E+00    3.909E+00    3.875E+00    3.842E+00    3.809E+00    3.777E+00    3.745E+00    3.713E+00    3.682E+00    3.652E+00
     3.621E+00    3.592E+00    3.562E+00    3.534E+00    3.505E+00    3.477E+00    3.450E+00    3.423E+00    3.396E+00    3.370E+00
     3.344E+00    3.318E+00    3.293E+00    3.268E+00    3.244E+00    3.220E+00    3.196E+00    3.172E+00    3.149E+00    3.125E+00
     3.103E+00    3.080E+00    3.057E+00    3.035E+00    3.013E+00    2.992E+00    2.970E+00    2.948E+00    2.927E+00    2.906E+00
     2.885E+00    2.864E+00    2.843E+00    2.823E+00    2.802E+00    2.782E+00    2.761E+00    2.741E+00    2.720E+00    2.700E+00
     2.680E+00    2.659E+00    2.639E+00    2.618E+00    2.598E+00    2.578E+00    2.557E+00    2.536E+00    2.516E+00    2.495E+00
     2.474E+00    2.453E+00    2.432E+00    2.411E+00    2.390E+00    2.369E+00    2.348E+00    2.326E+00    2.305E+00    2.284E+00
     2.262E+00    2.240E+00    2.219E+00    2.197E+00    2.175E+00    2.153E+00    2.131E+00    2.109E+00    2.087E+00    2.064E+00
     2.042E+00    2.020E+00    1.997E+00    1.974E+00    1.952E+00    1.929E+00    1.906E+00    1.883E+00    1.860E+00    1.837E+00
     1.814E+00    1.791E+00    1.767E+00    1.744E+00    1.720E+00    1.697E+00    1.673E+00    1.649E+00    1.625E+00    1.601E+00
     1.577E+00    1.553E+00    1.529E+00    1.504E+00    1.480E+00    1.456E+00    1.431E+00    1.406E+00    1.382E+00    1.357E+00
     1.332E+00    1.307E+00    1.282E+00    1.257E+00    1.232E+00    1.207E+00    1.182E+00    1.156E+00    1.131E+00    1.106E+00
     1.081E+00    1.055E+00    1.030E+00    1.004E+00    9.791E-01    9.537E-01    9.283E-01    9.028E-01    8.774E-01    8.520E-01
     8.266E-01    8.012E-01    7.758E-01    7.504E-01    7.251E-01    6.997E-01    6.744E-01    6.492E-01    6.239E-01    5.987E-01
     5.735E-01    5.484E-01    5.233E-01    4.983E-01    4.734E-01    4.484E-01    4.236E-01    3.988E-01    3.741E-01    3.495E-01
     3.250E-01    3.006E-01    2.764E-01    2.523E-01    2.284E-01    2.047E-01    1.812E-01    1.580E-01    1.350E-01    1.123E-01
     8.981E-02    6.766E-02    4.583E-02    2.433E-02    3.186E-03   -1.759E-02   -3.799E-02   -5.798E-02   -7.756E-02   -9.670E-02
    -1.154E-01   -1.336E-01   -1.513E-01   -1.685E-01   -1.852E-01   -2.014E-01   -2.170E-01   -2.321E-01   -2.465E-01   -2.603E-01
    -2.736E-01   -2.861E-01   -2.980E-01   -3.093E-01   -3.198E-01   -3.297E-01   -3.388E-01   -3.472E-01   -3.548E-01   -3.616E-01
    -3.676E-01   -3.729E-01   -3.773E-01   -3.808E-01   -3.836E-01   -3.855E-01   -3.866E-01   -3.870E-01   -3.865E-01   -3.853E-01
    -3.833E-01   -3.805E-01   -3.770E-01   -3.727E-01   -3.677E-01   -3.620E-01   -3.556E-01   -3.484E-01   -3.406E-01   -3.321E-01
    -3.229E-01   -3.130E-01   -3.025E-01   -2.913E-01   -2.794E-01   -2.670E-01   -2.539E-01   -2.401E-01   -2.258E-01   -2.109E-01
    -1.954E-01   -1.793E-01   -1.626E-01   -1.454E-01   -1.276E-01   -1.092E-01   -9.037E-02   -7.097E-02   -5.105E-02   -3.062E-02
    -9.684E-03    1.174E-02    3.365E-02    5.604E-02    7.889E-02    1.022E-01    1.260E-01    1.502E-01    1.748E-01    1.998E-01
     2.252E-01    2.510E-01    2.772E-01    3.036E-01    3.304E-01    3.575E-01    3.849E-01    4.125E-01    4.404E-01    4.685E-01
     4.967E-01    5.252E-01    5.539E-01    5.826E-01    6.115E-01    6.406E-01    6.697E-01    6.989E-01    7.281E-01    7.574E-01
     7.867E-01    8.159E-01    8.452E-01    8.744E-01    9.036E-01    9.327E-01    9.617E-01    9.905E-01    1.019E+00    1.048E+00
     1.076E+00    1.105E+00    1.133E+00    1.160E+00    1.188E+00    1.215E+00    1.242E+00    1.269E+00    1.295E+00    1.321E+00
     1.347E+00    1.372E+00    1.397E+00    1.422E+00    1.446E+00    1.469E+00    1.493E+00    1.516E+00    1.538E+00    1.561E+00
     1.583E+00    1.604E+00    1.626E+00    1.647E+00    1.667E+00    1.688E+00    1.708E+00    1.728E+00    1.748E+00    1.767E+00
     1.787E+00    1.806E+00    1.825E+00    1.843E+00    1.862E+00    1.880E+00    1.898E+00    1.916E+00    1.934E+00    1.952E+00
     1.970E+00    1.988E+00    2.005E+00    2.023E+00    2.040E+00    2.057E+00    2.075E+00    2.092E+00    2.109E+00    2.127E+00
     2.144E+00    2.161E+00    2.179E+00    2.196E+00    2.213E+00    2.231E+00    2.248E+00    2.266E+00
 Ala      Conc. = 5.89E+02
