 LCModel (Version 6.3-1L) Copyright: S.W. Provencher.          Ref.: Magn. Reson. Med. 30:672-679 (1993).                
 Slice#2 Row#8 Col#8  PD_05_press_1_raw_act
 Data of: Institute of Biomedical Engineering, Bogazici University, Istanbul
 05-January-2018  17:58
 36 lines in following concentration table = NCONC+1
    Conc.  %SD /Cr+PCr  Metabolite                                         
  202.226  60%   0.137 Ala                                                 
  407.440  59%   0.277 Asp                                                 
    0.000 999%   0.000 Cr                                                  
 1.47E+03   5%   1.000 PCr                                                 
    0.000 999%   0.000 GABA                                                
  109.692 146% 7.4E-02 Glc                                                 
  773.048  30%   0.525 Gln                                                 
 1.45E+03  18%   0.985 Glu                                                 
  556.774   5%   0.378 GPC                                                 
    0.000 999%   0.000 PCh                                                 
  280.217  29%   0.190 GSH                                                 
 1.14E+03  25%   0.771 Ins                                                 
  426.143  31%   0.289 Lac                                                 
 2.27E+03   4%   1.538 NAA                                                 
    0.000 999%   0.000 NAAG                                                
  123.562  25% 8.4E-02 Scyllo                                              
  218.344  99%   0.148 Tau                                                 
  139.579  81% 9.5E-02 -CrCH2                                              
  556.774   5%   0.378 GPC+PCh                                             
 2.27E+03   4%   1.538 NAA+NAAG                                            
 1.47E+03   5%   1.000 Cr+PCr                                              
 2.22E+03  16%   1.510 Glu+Gln                                             
 9.95E+03   7%   6.751 Lip13a                                              
    0.000 999%   0.000 Lip13b                                              
 2.66E+03   7%   1.802 Lip09                                               
    0.000 999%   0.000 MM09                                                
 1.49E+03   7%   1.013 Lip20                                               
  623.365  51%   0.423 MM20                                                
   24.902 460% 1.7E-02 MM12                                                
 1.64E+03  28%   1.112 MM14                                                
  758.170  34%   0.515 MM17                                                
 9.95E+03   7%   6.751 Lip13a+Lip13b                                       
 1.16E+04   5%   7.880 MM14+Lip13a+Lip13b+MM12                             
 2.66E+03   7%   1.802 MM09+Lip09                                          
 2.12E+03  16%   1.436 MM20+Lip20                                          
   6 lines in following misc. output table
  FWHM = 0.038 ppm    S/N =  11                                            
  Data shift = 0.000 ppm                                                   
  Ph: -95 deg     -32.6 deg/ppm                                            
  alphaB,S = 1.3E+00,   5.3E+01                                            
   14 spline knots.   Ns = 6(1)                                            
  ( 7) 4 infls.   ( 5) 1 extrs.                                            
  498 points on ppm-axis = NY
      4.000000     3.992357     3.984714     3.977070     3.969427     3.961784     3.954141     3.946497     3.938854     3.931211
      3.923568     3.915925     3.908281     3.900638     3.892995     3.885352     3.877708     3.870065     3.862422     3.854779
      3.847136     3.839492     3.831849     3.824206     3.816563     3.808919     3.801276     3.793633     3.785990     3.778347
      3.770703     3.763060     3.755417     3.747774     3.740130     3.732487     3.724844     3.717201     3.709558     3.701914
      3.694271     3.686628     3.678985     3.671341     3.663698     3.656055     3.648412     3.640769     3.633125     3.625482
      3.617839     3.610196     3.602552     3.594909     3.587266     3.579623     3.571980     3.564336     3.556693     3.549050
      3.541407     3.533763     3.526120     3.518477     3.510834     3.503191     3.495547     3.487904     3.480261     3.472618
      3.464974     3.457331     3.449688     3.442045     3.434402     3.426758     3.419115     3.411472     3.403829     3.396185
      3.388542     3.380899     3.373256     3.365613     3.357969     3.350326     3.342683     3.335040     3.327396     3.319753
      3.312110     3.304467     3.296824     3.289180     3.281537     3.273894     3.266251     3.258607     3.250964     3.243321
      3.235678     3.228034     3.220391     3.212748     3.205105     3.197462     3.189818     3.182175     3.174532     3.166889
      3.159245     3.151602     3.143959     3.136316     3.128673     3.121029     3.113386     3.105743     3.098100     3.090456
      3.082813     3.075170     3.067527     3.059884     3.052240     3.044597     3.036954     3.029311     3.021667     3.014024
      3.006381     2.998738     2.991095     2.983451     2.975808     2.968165     2.960522     2.952878     2.945235     2.937592
      2.929949     2.922306     2.914662     2.907019     2.899376     2.891733     2.884089     2.876446     2.868803     2.861160
      2.853517     2.845873     2.838230     2.830587     2.822944     2.815300     2.807657     2.800014     2.792371     2.784728
      2.777084     2.769441     2.761798     2.754155     2.746511     2.738868     2.731225     2.723582     2.715939     2.708295
      2.700652     2.693009     2.685366     2.677722     2.670079     2.662436     2.654793     2.647150     2.639506     2.631863
      2.624220     2.616577     2.608933     2.601290     2.593647     2.586004     2.578361     2.570717     2.563074     2.555431
      2.547788     2.540144     2.532501     2.524858     2.517215     2.509572     2.501928     2.494285     2.486642     2.478999
      2.471355     2.463712     2.456069     2.448426     2.440783     2.433139     2.425496     2.417853     2.410210     2.402566
      2.394923     2.387280     2.379637     2.371994     2.364350     2.356707     2.349064     2.341421     2.333777     2.326134
      2.318491     2.310848     2.303205     2.295561     2.287918     2.280275     2.272632     2.264988     2.257345     2.249702
      2.242059     2.234416     2.226772     2.219129     2.211486     2.203843     2.196199     2.188556     2.180913     2.173270
      2.165627     2.157983     2.150340     2.142697     2.135054     2.127410     2.119767     2.112124     2.104481     2.096838
      2.089194     2.081551     2.073908     2.066265     2.058621     2.050978     2.043335     2.035692     2.028049     2.020405
      2.012762     2.005119     1.997476     1.989833     1.982190     1.974546     1.966903     1.959260     1.951617     1.943974
      1.936331     1.928688     1.921045     1.913402     1.905759     1.898115     1.890472     1.882829     1.875186     1.867543
      1.859900     1.852257     1.844614     1.836971     1.829327     1.821684     1.814041     1.806398     1.798755     1.791112
      1.783469     1.775826     1.768183     1.760540     1.752896     1.745253     1.737610     1.729967     1.722324     1.714681
      1.707038     1.699395     1.691752     1.684108     1.676465     1.668822     1.661179     1.653536     1.645893     1.638250
      1.630607     1.622964     1.615321     1.607677     1.600034     1.592391     1.584748     1.577105     1.569462     1.561819
      1.554176     1.546533     1.538890     1.531246     1.523603     1.515960     1.508317     1.500674     1.493031     1.485388
      1.477745     1.470102     1.462458     1.454815     1.447172     1.439529     1.431886     1.424243     1.416600     1.408957
      1.401314     1.393671     1.386027     1.378384     1.370741     1.363098     1.355455     1.347812     1.340169     1.332526
      1.324883     1.317240     1.309596     1.301953     1.294310     1.286667     1.279024     1.271381     1.263738     1.256095
      1.248452     1.240808     1.233165     1.225522     1.217879     1.210236     1.202593     1.194950     1.187307     1.179664
      1.172021     1.164377     1.156734     1.149091     1.141448     1.133805     1.126162     1.118519     1.110876     1.103233
      1.095590     1.087946     1.080303     1.072660     1.065017     1.057374     1.049731     1.042088     1.034445     1.026802
      1.019158     1.011515     1.003872     0.996229     0.988586     0.980943     0.973300     0.965657     0.958014     0.950371
      0.942727     0.935084     0.927441     0.919798     0.912155     0.904512     0.896869     0.889226     0.881583     0.873940
      0.866296     0.858653     0.851010     0.843367     0.835724     0.828081     0.820438     0.812795     0.805152     0.797508
      0.789865     0.782222     0.774579     0.766936     0.759293     0.751650     0.744007     0.736364     0.728721     0.721077
      0.713434     0.705791     0.698148     0.690505     0.682862     0.675219     0.667576     0.659933     0.652290     0.644646
      0.637003     0.629360     0.621717     0.614074     0.606431     0.598788     0.591145     0.583502     0.575858     0.568215
      0.560572     0.552929     0.545286     0.537643     0.530000     0.522357     0.514714     0.507071     0.499427     0.491784
      0.484141     0.476498     0.468855     0.461212     0.453569     0.445925     0.438282     0.430639     0.422996     0.415353
      0.407710     0.400067     0.392424     0.384780     0.377137     0.369494     0.361851     0.354208     0.346565     0.338922
      0.331278     0.323635     0.315992     0.308349     0.300706     0.293063     0.285420     0.277777     0.270133     0.262490
      0.254847     0.247204     0.239561     0.231918     0.224275     0.216631     0.208988     0.201345
 NY phased data points follow
  -2.19961E+01 -2.64972E+01 -2.70059E+01 -1.66866E+01 -2.09662E+01 -7.02805E+00  4.99640E-01  1.39684E+00  6.27696E+00  1.30727E+01
   7.36830E+00  1.42342E+01 -2.19845E+00 -2.83651E+00 -8.18437E+00 -1.65334E+01 -2.09516E+01 -1.48094E+01 -2.29856E+01 -2.07614E+01
  -1.99439E+01 -2.54363E+01 -1.13479E+01 -2.04786E+01 -2.67463E+01 -1.94226E+01 -1.92510E+01 -1.11908E+01 -1.18998E+01 -1.27533E+01
  -8.85389E+00 -5.99412E+00 -1.42208E+01 -9.09335E+00 -1.07297E+01 -1.31466E+01 -1.71833E+01 -1.62836E+01 -1.15733E+01 -1.10882E+01
  -1.58590E+01 -1.44742E+01 -1.09713E+01 -1.16661E+01 -6.06419E+00 -2.01660E+00 -3.97162E+00  3.80339E+00 -3.52707E+00 -4.44214E+00
  -6.66329E+00 -6.74117E+00 -1.45522E+01 -5.63694E+00 -1.25107E+01 -1.21362E+01 -4.97731E+00 -6.17903E+00 -8.31001E+00 -9.75098E+00
  -9.35245E+00 -1.15679E+01 -1.52179E+01 -1.66495E+01 -1.09832E+01 -1.43908E+01 -1.45254E+01 -1.49861E+01 -1.55338E+01 -1.36092E+01
  -1.24802E+01 -1.35849E+01 -1.07975E+01 -4.48708E+00 -1.04610E+01 -5.25882E+00 -9.36846E+00 -9.97355E+00 -7.13390E+00 -9.85499E+00
  -8.06863E+00 -8.86889E+00 -1.01459E+01 -3.98551E-01 -5.74094E+00 -3.55725E+00 -2.00734E+00 -5.55718E+00 -2.48589E+00 -1.54536E+00
  -2.40336E+00 -2.63379E+00  3.55066E+00 -9.02528E-01  5.04273E-01  1.39225E+00 -3.72427E+00  2.08546E+00  5.73329E+00  1.10606E+01
   2.57428E+01  4.44890E+01  5.12782E+01  5.80495E+01  4.50947E+01  3.00908E+01  1.98826E+01  1.37053E+01  8.79445E+00  5.30237E+00
   7.25747E+00  8.30438E+00  4.00593E+00  4.74371E+00  1.07759E+00  3.27191E+00 -2.25687E-01 -1.46217E+00 -1.28309E+00 -3.30967E-01
  -2.79600E-01  1.06169E+00  1.65295E+00  5.88600E+00  1.99688E+01  3.39388E+01  4.99635E+01  5.65202E+01  5.45440E+01  3.93273E+01
   2.62941E+01  1.60545E+01  1.84580E+01  1.39573E+01  1.19895E+01  6.94725E+00  1.76842E+00  5.79800E+00  4.59646E+00  2.77938E+00
  -3.02661E+00 -2.55895E+00 -2.36710E+00 -1.33108E+00  1.25012E+00 -6.19065E-01  3.48154E+00  3.06320E+00  6.58870E+00  1.45872E+00
   4.55338E+00  2.03853E+00  1.09290E+00  6.85342E-01 -6.76403E-01  1.95770E+00  2.92201E+00  3.88867E+00  4.77600E+00  6.92389E-01
  -3.13059E-01 -6.43025E-01 -3.90420E+00 -2.18586E+00  3.15804E+00  5.39767E+00  7.66440E+00  6.82262E+00  2.37562E+00  5.61374E+00
  -1.50517E+00 -1.38941E+00  1.12026E+00  2.21164E+00 -2.18123E+00  7.41561E-01 -4.66084E+00 -4.66285E-01  1.13732E+00 -1.53851E+00
  -5.96621E+00 -5.33930E+00 -5.12419E+00  1.32185E+00 -2.87398E+00 -2.13499E+00  4.94041E+00  1.84448E+00  6.17891E+00  5.74806E+00
   7.29556E+00  8.26435E+00  5.78388E+00  1.22880E+01  1.23039E+01  1.14762E+01  8.01023E+00  5.22858E+00  8.37877E+00  7.40935E+00
   1.23719E+01  9.59497E+00  1.24136E+01  1.33311E+01  1.73974E+01  1.53229E+01  1.21593E+01  1.18638E+01  4.59757E+00  3.28657E+00
   3.30744E+00  4.03286E+00  1.26365E+01  1.45252E+01  1.36669E+01  2.55023E+01  2.63661E+01  2.18314E+01  2.23678E+01  1.37027E+01
   1.14979E+01  5.37799E+00  6.76796E+00  1.07485E+01  1.76914E+01  1.77268E+01  1.78378E+01  1.80157E+01  1.51911E+01  1.68167E+01
   2.42156E+01  1.96718E+01  1.88328E+01  1.83351E+01  2.01384E+01  1.81602E+01  2.14300E+01  2.25431E+01  1.80415E+01  1.52374E+01
   1.90556E+01  1.52075E+01  1.00368E+01  1.09489E+01  1.91635E+01  1.81511E+01  2.50185E+01  2.00486E+01  2.04932E+01  2.38146E+01
   2.10434E+01  2.31520E+01  2.19981E+01  1.52447E+01  2.34636E+01  2.72922E+01  3.08389E+01  3.92696E+01  4.63568E+01  7.37523E+01
   9.74715E+01  1.15781E+02  1.00474E+02  7.55848E+01  6.46120E+01  6.39296E+01  5.43882E+01  4.35537E+01  4.18097E+01  3.86310E+01
   3.57077E+01  3.13719E+01  2.57635E+01  2.89768E+01  2.25835E+01  1.92525E+01  1.88689E+01  1.88065E+01  2.17043E+01  1.73081E+01
   1.43895E+01  1.68075E+01  1.89582E+01  2.01769E+01  2.09079E+01  2.12627E+01  2.26898E+01  2.31365E+01  2.03643E+01  1.93552E+01
   2.36866E+01  2.18733E+01  2.05004E+01  2.36687E+01  2.14477E+01  2.04675E+01  1.64348E+01  2.20521E+01  2.28876E+01  2.07792E+01
   2.31712E+01  2.69628E+01  2.35807E+01  1.82209E+01  2.67942E+01  2.73292E+01  2.14407E+01  2.59740E+01  2.29256E+01  2.24957E+01
   2.41805E+01  2.63542E+01  2.80003E+01  3.12280E+01  2.81099E+01  2.86573E+01  3.02065E+01  3.16302E+01  3.48366E+01  3.00610E+01
   3.57529E+01  3.29089E+01  3.33175E+01  3.46987E+01  4.01177E+01  3.58943E+01  3.96911E+01  4.31318E+01  4.28824E+01  4.21020E+01
   4.67008E+01  4.58703E+01  5.27272E+01  5.18966E+01  6.12479E+01  6.34462E+01  6.65846E+01  7.36427E+01  7.53471E+01  7.90949E+01
   9.08875E+01  8.68005E+01  9.02815E+01  9.51255E+01  9.84032E+01  9.93475E+01  9.64294E+01  9.06406E+01  9.66747E+01  8.82981E+01
   8.12104E+01  7.31476E+01  6.99406E+01  6.46315E+01  6.18042E+01  5.53815E+01  5.07085E+01  4.87092E+01  4.64195E+01  4.43793E+01
   4.07379E+01  3.84992E+01  3.52023E+01  3.42396E+01  3.31610E+01  3.42636E+01  2.77248E+01  2.94594E+01  2.40490E+01  2.36360E+01
   2.49649E+01  2.42007E+01  2.43433E+01  2.17258E+01  2.61794E+01  2.23608E+01  2.05108E+01  1.91204E+01  2.20770E+01  2.64291E+01
   1.55852E+01  1.88846E+01  1.65648E+01  1.83296E+01  2.03499E+01  2.13230E+01  1.79170E+01  1.52318E+01  1.75763E+01  1.41019E+01
   2.02324E+01  1.29094E+01  1.48453E+01  1.50122E+01  1.98698E+01  1.80933E+01  2.12757E+01  2.25979E+01  2.38080E+01  2.07876E+01
   2.20915E+01  2.04701E+01  2.25645E+01  2.02596E+01  2.25166E+01  2.43658E+01  2.22790E+01  2.47491E+01  2.28263E+01  2.47794E+01
   2.18476E+01  2.30498E+01  3.06210E+01  2.89471E+01  2.40482E+01  2.21624E+01  2.79043E+01  2.59472E+01  2.06375E+01  2.31617E+01
   2.26223E+01  2.17129E+01  2.29253E+01  2.14676E+01  2.36946E+01  2.73040E+01  1.89154E+01  1.75498E+01  2.45939E+01  1.79538E+01
   1.48442E+01  1.61036E+01  1.91280E+01  1.87867E+01  1.41508E+01  1.89330E+01  2.17043E+01  1.86660E+01  1.30124E+01  1.50658E+01
   1.97932E+01  1.91868E+01  1.58731E+01  1.61224E+01  1.56630E+01  1.98429E+01  1.97842E+01  1.78725E+01  1.56935E+01  1.68994E+01
   1.90230E+01  1.59053E+01  1.44786E+01  1.51355E+01  1.92055E+01  1.20555E+01  1.44837E+01  1.49296E+01  1.41274E+01  1.60867E+01
   1.56361E+01  9.57216E+00  1.13013E+01  1.57637E+01  1.52823E+01  1.08340E+01  1.66034E+01  1.74683E+01  1.38446E+01  1.18866E+01
   1.22106E+01  1.00204E+01  1.63013E+01  1.52478E+01  1.19510E+01  1.37846E+01  1.47727E+01  1.47862E+01  1.79950E+01  1.57512E+01
   1.66171E+01  1.18530E+01  1.16435E+01  1.64150E+01  1.77362E+01  7.99060E+00  1.29393E+01  1.70100E+01  1.14111E+01  1.58680E+01
   1.11875E+01  1.62970E+01  1.32262E+01  1.48141E+01  1.49030E+01  1.11187E+01  1.46484E+01  1.66475E+01
 NY points of the fit to the data follow
  -2.33839E+01 -2.30728E+01 -2.24921E+01 -2.12463E+01 -1.88320E+01 -1.48540E+01 -8.44185E+00  3.43006E-01  9.12236E+00  1.37591E+01
   1.18392E+01  5.44070E+00 -8.66427E-01 -4.59225E+00 -6.47267E+00 -8.60068E+00 -1.25925E+01 -1.62421E+01 -1.77256E+01 -1.82651E+01
  -1.79917E+01 -1.72931E+01 -1.67935E+01 -1.67670E+01 -1.70490E+01 -1.74063E+01 -1.75042E+01 -1.66747E+01 -1.45813E+01 -1.16748E+01
  -9.04122E+00 -7.58183E+00 -7.33570E+00 -7.85928E+00 -9.06982E+00 -1.06345E+01 -1.25240E+01 -1.41868E+01 -1.48160E+01 -1.49476E+01
  -1.46232E+01 -1.39174E+01 -1.28382E+01 -1.12614E+01 -9.10922E+00 -6.35617E+00 -3.87203E+00 -3.06459E+00 -4.28731E+00 -6.67738E+00
  -8.85514E+00 -1.00628E+01 -1.07612E+01 -1.15361E+01 -1.22865E+01 -1.25013E+01 -1.20686E+01 -1.12064E+01 -1.01088E+01 -9.19706E+00
  -8.91474E+00 -9.38304E+00 -1.02620E+01 -1.09946E+01 -1.12178E+01 -1.10262E+01 -1.07178E+01 -1.03481E+01 -9.98288E+00 -9.50462E+00
  -8.87642E+00 -8.24481E+00 -7.74273E+00 -7.41473E+00 -7.18508E+00 -7.00534E+00 -7.11586E+00 -7.47774E+00 -7.97847E+00 -8.28857E+00
  -8.15039E+00 -7.61642E+00 -6.92181E+00 -5.97729E+00 -4.49240E+00 -2.75149E+00 -1.59246E+00 -1.77038E+00 -3.12395E+00 -4.54926E+00
  -5.12882E+00 -5.02106E+00 -4.91598E+00 -5.25723E+00 -5.84485E+00 -5.57691E+00 -4.31010E+00 -1.57682E+00  3.38153E+00  1.23057E+01
   2.63539E+01  4.27763E+01  5.42745E+01  5.42785E+01  4.38865E+01  3.10022E+01  2.22301E+01  1.77808E+01  1.39846E+01  7.57603E+00
   3.01718E-01 -2.50224E+00 -3.16382E+00 -3.34748E+00 -3.36485E+00 -3.33473E+00 -3.23178E+00 -3.07362E+00 -2.85351E+00 -2.49158E+00
  -1.73891E+00  1.01541E-01  3.62747E+00  9.98045E+00  2.08914E+01  3.59095E+01  4.99651E+01  5.56633E+01  5.00056E+01  3.81420E+01
   2.80826E+01  2.28135E+01  1.97487E+01  1.50281E+01  7.13985E+00  1.60692E+00  5.75498E-02 -7.05068E-02  4.22205E-01  1.05723E+00
   1.48367E+00  1.70873E+00  1.91416E+00  2.19198E+00  2.60287E+00  2.98986E+00  3.08114E+00  2.91268E+00  2.64632E+00  2.53865E+00
   2.59613E+00  2.65841E+00  2.70045E+00  2.73387E+00  2.84733E+00  3.03142E+00  3.13853E+00  3.09453E+00  2.83520E+00  2.36042E+00
   1.79568E+00  1.39696E+00  1.46857E+00  2.13996E+00  3.17001E+00  4.02394E+00  4.30926E+00  4.06780E+00  3.66816E+00  3.52271E+00
   3.47535E+00  3.33261E+00  2.99184E+00  2.43436E+00  1.84593E+00  1.31013E+00  9.97639E-01  1.19129E+00  1.82068E+00  2.35846E+00
   2.37416E+00  2.08242E+00  2.07716E+00  2.66765E+00  3.49943E+00  3.89181E+00  3.85547E+00  4.24121E+00  5.52372E+00  7.38618E+00
   8.74433E+00  8.97614E+00  8.44263E+00  7.83808E+00  7.63027E+00  7.88711E+00  8.26935E+00  8.79403E+00  9.63202E+00  1.07420E+01
   1.20496E+01  1.33387E+01  1.45150E+01  1.55179E+01  1.58175E+01  1.48748E+01  1.26155E+01  9.53208E+00  6.63998E+00  5.16808E+00
   5.66043E+00  7.46382E+00  9.71249E+00  1.24714E+01  1.57732E+01  1.88548E+01  2.02924E+01  1.92711E+01  1.60013E+01  1.22857E+01
   9.11381E+00  6.79824E+00  5.83105E+00  6.74326E+00  9.70563E+00  1.32273E+01  1.56800E+01  1.70501E+01  1.79082E+01  1.85811E+01
   1.88314E+01  1.84880E+01  1.80236E+01  1.79203E+01  1.80419E+01  1.85074E+01  1.94124E+01  2.03909E+01  2.09101E+01  2.05611E+01
   1.93998E+01  1.80159E+01  1.71321E+01  1.70967E+01  1.76896E+01  1.86557E+01  1.94750E+01  1.99382E+01  2.02720E+01  2.07852E+01
   2.15053E+01  2.22584E+01  2.31638E+01  2.42488E+01  2.55085E+01  2.75607E+01  3.16062E+01  3.94921E+01  5.41216E+01  7.57373E+01
   9.77242E+01  1.08882E+02  1.02771E+02  8.49419E+01  6.74490E+01  5.69201E+01  5.09838E+01  4.41915E+01  3.34187E+01  2.44031E+01
   2.14301E+01  2.04083E+01  2.00626E+01  2.00980E+01  2.01397E+01  2.01080E+01  1.99934E+01  1.98484E+01  1.97175E+01  1.96076E+01
   1.94750E+01  1.93425E+01  1.92755E+01  1.92740E+01  1.92969E+01  1.93273E+01  1.93724E+01  1.94482E+01  1.95568E+01  1.96765E+01
   1.98129E+01  1.99706E+01  2.01508E+01  2.03559E+01  2.05863E+01  2.08418E+01  2.11183E+01  2.14118E+01  2.17232E+01  2.20518E+01
   2.23933E+01  2.27446E+01  2.31022E+01  2.34623E+01  2.38204E+01  2.41737E+01  2.45203E+01  2.48601E+01  2.51932E+01  2.55217E+01
   2.58482E+01  2.61775E+01  2.65157E+01  2.68695E+01  2.72478E+01  2.76622E+01  2.81252E+01  2.86507E+01  2.92550E+01  2.99595E+01
   3.07950E+01  3.18094E+01  3.30314E+01  3.44854E+01  3.61814E+01  3.79663E+01  3.95041E+01  4.05466E+01  4.12849E+01  4.23369E+01
   4.42104E+01  4.68904E+01  5.01842E+01  5.41051E+01  5.87328E+01  6.39948E+01  6.92271E+01  7.37246E+01  7.76397E+01  8.13461E+01
   8.49496E+01  8.82750E+01  9.10045E+01  9.30779E+01  9.48036E+01  9.60649E+01  9.63787E+01  9.49268E+01  9.11327E+01  8.54381E+01
   7.92648E+01  7.37682E+01  6.90884E+01  6.50346E+01  6.16903E+01  5.90744E+01  5.69870E+01  5.43678E+01  5.04975E+01  4.62447E+01
   4.24630E+01  3.93150E+01  3.64344E+01  3.32896E+01  3.04052E+01  2.81795E+01  2.64053E+01  2.49680E+01  2.38035E+01  2.28650E+01
   2.21140E+01  2.15188E+01  2.10524E+01  2.06923E+01  2.04189E+01  2.02168E+01  2.00730E+01  1.99781E+01  1.99241E+01  1.99048E+01
   1.99151E+01  1.99514E+01  2.00110E+01  2.00923E+01  2.01934E+01  2.03131E+01  2.04500E+01  2.06035E+01  2.07731E+01  2.09581E+01
   2.11574E+01  2.13702E+01  2.15951E+01  2.18313E+01  2.20773E+01  2.23316E+01  2.25918E+01  2.28559E+01  2.31211E+01  2.33854E+01
   2.36455E+01  2.38984E+01  2.41404E+01  2.43683E+01  2.45787E+01  2.47686E+01  2.49346E+01  2.50736E+01  2.51827E+01  2.52596E+01
   2.53025E+01  2.53104E+01  2.52819E+01  2.52169E+01  2.51153E+01  2.49784E+01  2.48075E+01  2.46048E+01  2.43724E+01  2.41129E+01
   2.38292E+01  2.35250E+01  2.32038E+01  2.28689E+01  2.25234E+01  2.21707E+01  2.18139E+01  2.14563E+01  2.11005E+01  2.07487E+01
   2.04028E+01  2.00646E+01  1.97357E+01  1.94176E+01  1.91109E+01  1.88162E+01  1.85336E+01  1.82637E+01  1.80065E+01  1.77622E+01
   1.75302E+01  1.73101E+01  1.71014E+01  1.69040E+01  1.67173E+01  1.65411E+01  1.63743E+01  1.62165E+01  1.60672E+01  1.59261E+01
   1.57926E+01  1.56664E+01  1.55467E+01  1.54330E+01  1.53251E+01  1.52229E+01  1.51258E+01  1.50335E+01  1.49454E+01  1.48613E+01
   1.47812E+01  1.47049E+01  1.46319E+01  1.45621E+01  1.44950E+01  1.44307E+01  1.43691E+01  1.43101E+01  1.42533E+01  1.41986E+01
   1.41457E+01  1.40948E+01  1.40458E+01  1.39987E+01  1.39529E+01  1.39086E+01  1.38656E+01  1.38241E+01  1.37839E+01  1.37450E+01
   1.37070E+01  1.36701E+01  1.36341E+01  1.35993E+01  1.35655E+01  1.35326E+01  1.35002E+01  1.34687E+01  1.34379E+01  1.34082E+01
   1.33791E+01  1.33506E+01  1.33226E+01  1.32953E+01  1.32687E+01  1.32429E+01  1.32176E+01  1.31928E+01
 NY background values follow
    -2.677E+01   -2.658E+01   -2.638E+01   -2.619E+01   -2.600E+01   -2.580E+01   -2.561E+01   -2.541E+01   -2.522E+01   -2.502E+01
    -2.483E+01   -2.464E+01   -2.444E+01   -2.425E+01   -2.405E+01   -2.386E+01   -2.366E+01   -2.347E+01   -2.327E+01   -2.308E+01
    -2.289E+01   -2.269E+01   -2.250E+01   -2.230E+01   -2.211E+01   -2.191E+01   -2.172E+01   -2.153E+01   -2.133E+01   -2.114E+01
    -2.094E+01   -2.075E+01   -2.055E+01   -2.036E+01   -2.017E+01   -1.997E+01   -1.978E+01   -1.959E+01   -1.939E+01   -1.920E+01
    -1.900E+01   -1.881E+01   -1.862E+01   -1.842E+01   -1.823E+01   -1.804E+01   -1.785E+01   -1.765E+01   -1.746E+01   -1.727E+01
    -1.707E+01   -1.688E+01   -1.669E+01   -1.650E+01   -1.631E+01   -1.611E+01   -1.592E+01   -1.573E+01   -1.554E+01   -1.535E+01
    -1.516E+01   -1.497E+01   -1.478E+01   -1.459E+01   -1.440E+01   -1.421E+01   -1.402E+01   -1.383E+01   -1.364E+01   -1.345E+01
    -1.327E+01   -1.308E+01   -1.289E+01   -1.271E+01   -1.252E+01   -1.233E+01   -1.215E+01   -1.196E+01   -1.178E+01   -1.159E+01
    -1.141E+01   -1.122E+01   -1.104E+01   -1.086E+01   -1.068E+01   -1.049E+01   -1.031E+01   -1.013E+01   -9.950E+00   -9.770E+00
    -9.591E+00   -9.412E+00   -9.233E+00   -9.055E+00   -8.878E+00   -8.701E+00   -8.524E+00   -8.348E+00   -8.173E+00   -7.998E+00
    -7.824E+00   -7.650E+00   -7.477E+00   -7.304E+00   -7.131E+00   -6.959E+00   -6.788E+00   -6.617E+00   -6.447E+00   -6.277E+00
    -6.108E+00   -5.939E+00   -5.771E+00   -5.603E+00   -5.435E+00   -5.268E+00   -5.102E+00   -4.936E+00   -4.771E+00   -4.606E+00
    -4.442E+00   -4.278E+00   -4.114E+00   -3.951E+00   -3.789E+00   -3.627E+00   -3.465E+00   -3.304E+00   -3.144E+00   -2.984E+00
    -2.824E+00   -2.665E+00   -2.507E+00   -2.348E+00   -2.191E+00   -2.034E+00   -1.877E+00   -1.721E+00   -1.565E+00   -1.410E+00
    -1.255E+00   -1.100E+00   -9.464E-01   -7.929E-01   -6.398E-01   -4.871E-01   -3.349E-01   -1.831E-01   -3.169E-02    1.193E-01
     2.699E-01    4.201E-01    5.698E-01    7.193E-01    8.683E-01    1.017E+00    1.165E+00    1.313E+00    1.461E+00    1.608E+00
     1.755E+00    1.901E+00    2.047E+00    2.193E+00    2.339E+00    2.484E+00    2.629E+00    2.773E+00    2.917E+00    3.061E+00
     3.205E+00    3.348E+00    3.491E+00    3.634E+00    3.776E+00    3.918E+00    4.060E+00    4.202E+00    4.343E+00    4.485E+00
     4.625E+00    4.766E+00    4.907E+00    5.047E+00    5.187E+00    5.326E+00    5.465E+00    5.604E+00    5.743E+00    5.881E+00
     6.019E+00    6.157E+00    6.294E+00    6.431E+00    6.567E+00    6.703E+00    6.838E+00    6.973E+00    7.108E+00    7.242E+00
     7.375E+00    7.508E+00    7.641E+00    7.773E+00    7.904E+00    8.035E+00    8.165E+00    8.294E+00    8.423E+00    8.551E+00
     8.679E+00    8.806E+00    8.932E+00    9.057E+00    9.182E+00    9.306E+00    9.429E+00    9.552E+00    9.674E+00    9.795E+00
     9.915E+00    1.003E+01    1.015E+01    1.027E+01    1.039E+01    1.050E+01    1.062E+01    1.073E+01    1.084E+01    1.096E+01
     1.107E+01    1.118E+01    1.129E+01    1.140E+01    1.150E+01    1.161E+01    1.172E+01    1.182E+01    1.192E+01    1.203E+01
     1.213E+01    1.223E+01    1.233E+01    1.243E+01    1.252E+01    1.262E+01    1.271E+01    1.281E+01    1.290E+01    1.299E+01
     1.308E+01    1.317E+01    1.326E+01    1.335E+01    1.344E+01    1.352E+01    1.361E+01    1.369E+01    1.377E+01    1.385E+01
     1.393E+01    1.401E+01    1.409E+01    1.416E+01    1.424E+01    1.431E+01    1.438E+01    1.445E+01    1.452E+01    1.459E+01
     1.466E+01    1.472E+01    1.479E+01    1.485E+01    1.491E+01    1.497E+01    1.503E+01    1.509E+01    1.515E+01    1.521E+01
     1.526E+01    1.531E+01    1.537E+01    1.542E+01    1.547E+01    1.551E+01    1.556E+01    1.561E+01    1.565E+01    1.570E+01
     1.574E+01    1.578E+01    1.582E+01    1.586E+01    1.590E+01    1.593E+01    1.597E+01    1.600E+01    1.603E+01    1.607E+01
     1.610E+01    1.613E+01    1.615E+01    1.618E+01    1.621E+01    1.623E+01    1.626E+01    1.628E+01    1.630E+01    1.632E+01
     1.634E+01    1.636E+01    1.637E+01    1.639E+01    1.640E+01    1.642E+01    1.643E+01    1.644E+01    1.645E+01    1.646E+01
     1.647E+01    1.648E+01    1.648E+01    1.649E+01    1.649E+01    1.649E+01    1.650E+01    1.650E+01    1.650E+01    1.650E+01
     1.650E+01    1.649E+01    1.649E+01    1.649E+01    1.648E+01    1.647E+01    1.647E+01    1.646E+01    1.645E+01    1.644E+01
     1.643E+01    1.642E+01    1.641E+01    1.640E+01    1.639E+01    1.637E+01    1.636E+01    1.634E+01    1.633E+01    1.631E+01
     1.630E+01    1.628E+01    1.626E+01    1.624E+01    1.622E+01    1.621E+01    1.619E+01    1.616E+01    1.614E+01    1.612E+01
     1.610E+01    1.608E+01    1.606E+01    1.603E+01    1.601E+01    1.599E+01    1.596E+01    1.594E+01    1.591E+01    1.589E+01
     1.586E+01    1.583E+01    1.581E+01    1.578E+01    1.576E+01    1.573E+01    1.570E+01    1.567E+01    1.565E+01    1.562E+01
     1.559E+01    1.556E+01    1.553E+01    1.551E+01    1.548E+01    1.545E+01    1.542E+01    1.539E+01    1.536E+01    1.534E+01
     1.531E+01    1.528E+01    1.525E+01    1.522E+01    1.519E+01    1.516E+01    1.513E+01    1.511E+01    1.508E+01    1.505E+01
     1.502E+01    1.499E+01    1.497E+01    1.494E+01    1.491E+01    1.488E+01    1.486E+01    1.483E+01    1.480E+01    1.478E+01
     1.475E+01    1.472E+01    1.470E+01    1.467E+01    1.465E+01    1.462E+01    1.460E+01    1.457E+01    1.455E+01    1.453E+01
     1.450E+01    1.448E+01    1.446E+01    1.443E+01    1.441E+01    1.439E+01    1.436E+01    1.434E+01    1.432E+01    1.430E+01
     1.427E+01    1.425E+01    1.423E+01    1.421E+01    1.419E+01    1.417E+01    1.415E+01    1.413E+01    1.411E+01    1.409E+01
     1.407E+01    1.405E+01    1.403E+01    1.401E+01    1.399E+01    1.397E+01    1.395E+01    1.393E+01    1.391E+01    1.389E+01
     1.387E+01    1.385E+01    1.383E+01    1.382E+01    1.380E+01    1.378E+01    1.376E+01    1.374E+01    1.373E+01    1.371E+01
     1.369E+01    1.367E+01    1.366E+01    1.364E+01    1.362E+01    1.361E+01    1.359E+01    1.357E+01    1.356E+01    1.354E+01
     1.352E+01    1.351E+01    1.349E+01    1.347E+01    1.346E+01    1.344E+01    1.342E+01    1.341E+01    1.339E+01    1.338E+01
     1.336E+01    1.334E+01    1.333E+01    1.331E+01    1.330E+01    1.328E+01    1.326E+01    1.325E+01    1.323E+01    1.322E+01
     1.320E+01    1.319E+01    1.317E+01    1.315E+01    1.314E+01    1.312E+01    1.311E+01    1.309E+01
