 LCModel (Version 6.3-1L) Copyright: S.W. Provencher.          Ref.: Magn. Reson. Med. 30:672-679 (1993).                
 Slice#3 Row#14 Col#9  PD_05_press_1_raw_act
 36 lines in following concentration table = NCONC+1
    Conc.  %SD /Cr+PCr  Metabolite                                         
   45.251  58%   0.850 Ala                                                 
    5.751  78%   0.108 Asp                                                 
    0.000 999%   0.000 Cr                                                  
   53.228  75%   1.000 PCr                                                 
    3.391  79% 6.4E-02 GABA                                                
    3.476  77% 6.5E-02 Glc                                                 
   54.682  98%   1.027 Gln                                                 
  158.007  38%   2.968 Glu                                                 
    6.199  67%   0.116 GPC                                                 
    0.000 999%   0.000 PCh                                                 
   27.706  60%   0.521 GSH                                                 
  155.863  32%   2.928 Ins                                                 
   19.821 144%   0.372 Lac                                                 
   20.468  76%   0.385 NAA                                                 
   20.721  76%   0.389 NAAG                                                
    1.087  82% 2.0E-02 Scyllo                                              
    5.250  85% 9.9E-02 Tau                                                 
    0.000 999%   0.000 -CrCH2                                              
    6.199  67%   0.116 GPC+PCh                                             
   41.189  32%   0.774 NAA+NAAG                                            
   53.228  20%   1.000 Cr+PCr                                              
  212.689  40%   3.996 Glu+Gln                                             
  258.701  25%   4.860 Lip13a                                              
    0.000 999%   0.000 Lip13b                                              
   69.267  27%   1.301 Lip09                                               
    0.220 999% 4.1E-03 MM09                                                
   38.179  30%   0.717 Lip20                                               
    0.000 999%   0.000 MM20                                                
    0.664 999% 1.2E-02 MM12                                                
    0.000 999%   0.000 MM14                                                
    3.491 577% 6.6E-02 MM17                                                
  258.701  25%   4.860 Lip13a+Lip13b                                       
  259.365  24%   4.873 MM14+Lip13a+Lip13b+MM12                             
   69.487  29%   1.305 MM09+Lip09                                          
   38.179  30%   0.717 MM20+Lip20                                          
   6 lines in following misc. output table
  FWHM = 0.069 ppm    S/N =   1                                            
  Data shift =-0.038 ppm                                                   
  Ph:-148 deg       9.2 deg/ppm                                            
  alphaB,S = 8.5E+01,   5.1E+01                                            
   14 spline knots.   Ns = 5(1)                                            
   2 inflections.     1 extrema                                            
  498 points on ppm-axis = NY
      4.000000     3.992357     3.984714     3.977070     3.969427     3.961784     3.954141     3.946497     3.938854     3.931211
      3.923568     3.915925     3.908281     3.900638     3.892995     3.885352     3.877708     3.870065     3.862422     3.854779
      3.847136     3.839492     3.831849     3.824206     3.816563     3.808919     3.801276     3.793633     3.785990     3.778347
      3.770703     3.763060     3.755417     3.747774     3.740130     3.732487     3.724844     3.717201     3.709558     3.701914
      3.694271     3.686628     3.678985     3.671341     3.663698     3.656055     3.648412     3.640769     3.633125     3.625482
      3.617839     3.610196     3.602552     3.594909     3.587266     3.579623     3.571980     3.564336     3.556693     3.549050
      3.541407     3.533763     3.526120     3.518477     3.510834     3.503191     3.495547     3.487904     3.480261     3.472618
      3.464974     3.457331     3.449688     3.442045     3.434402     3.426758     3.419115     3.411472     3.403829     3.396185
      3.388542     3.380899     3.373256     3.365613     3.357969     3.350326     3.342683     3.335040     3.327396     3.319753
      3.312110     3.304467     3.296824     3.289180     3.281537     3.273894     3.266251     3.258607     3.250964     3.243321
      3.235678     3.228034     3.220391     3.212748     3.205105     3.197462     3.189818     3.182175     3.174532     3.166889
      3.159245     3.151602     3.143959     3.136316     3.128673     3.121029     3.113386     3.105743     3.098100     3.090456
      3.082813     3.075170     3.067527     3.059884     3.052240     3.044597     3.036954     3.029311     3.021667     3.014024
      3.006381     2.998738     2.991095     2.983451     2.975808     2.968165     2.960522     2.952878     2.945235     2.937592
      2.929949     2.922306     2.914662     2.907019     2.899376     2.891733     2.884089     2.876446     2.868803     2.861160
      2.853517     2.845873     2.838230     2.830587     2.822944     2.815300     2.807657     2.800014     2.792371     2.784728
      2.777084     2.769441     2.761798     2.754155     2.746511     2.738868     2.731225     2.723582     2.715939     2.708295
      2.700652     2.693009     2.685366     2.677722     2.670079     2.662436     2.654793     2.647150     2.639506     2.631863
      2.624220     2.616577     2.608933     2.601290     2.593647     2.586004     2.578361     2.570717     2.563074     2.555431
      2.547788     2.540144     2.532501     2.524858     2.517215     2.509572     2.501928     2.494285     2.486642     2.478999
      2.471355     2.463712     2.456069     2.448426     2.440783     2.433139     2.425496     2.417853     2.410210     2.402566
      2.394923     2.387280     2.379637     2.371994     2.364350     2.356707     2.349064     2.341421     2.333777     2.326134
      2.318491     2.310848     2.303205     2.295561     2.287918     2.280275     2.272632     2.264988     2.257345     2.249702
      2.242059     2.234416     2.226772     2.219129     2.211486     2.203843     2.196199     2.188556     2.180913     2.173270
      2.165627     2.157983     2.150340     2.142697     2.135054     2.127410     2.119767     2.112124     2.104481     2.096838
      2.089194     2.081551     2.073908     2.066265     2.058621     2.050978     2.043335     2.035692     2.028049     2.020405
      2.012762     2.005119     1.997476     1.989833     1.982190     1.974546     1.966903     1.959260     1.951617     1.943974
      1.936331     1.928688     1.921045     1.913402     1.905759     1.898115     1.890472     1.882829     1.875186     1.867543
      1.859900     1.852257     1.844614     1.836971     1.829327     1.821684     1.814041     1.806398     1.798755     1.791112
      1.783469     1.775826     1.768183     1.760540     1.752896     1.745253     1.737610     1.729967     1.722324     1.714681
      1.707038     1.699395     1.691752     1.684108     1.676465     1.668822     1.661179     1.653536     1.645893     1.638250
      1.630607     1.622964     1.615321     1.607677     1.600034     1.592391     1.584748     1.577105     1.569462     1.561819
      1.554176     1.546533     1.538890     1.531246     1.523603     1.515960     1.508317     1.500674     1.493031     1.485388
      1.477745     1.470102     1.462458     1.454815     1.447172     1.439529     1.431886     1.424243     1.416600     1.408957
      1.401314     1.393671     1.386027     1.378384     1.370741     1.363098     1.355455     1.347812     1.340169     1.332526
      1.324883     1.317240     1.309596     1.301953     1.294310     1.286667     1.279024     1.271381     1.263738     1.256095
      1.248452     1.240808     1.233165     1.225522     1.217879     1.210236     1.202593     1.194950     1.187307     1.179664
      1.172021     1.164377     1.156734     1.149091     1.141448     1.133805     1.126162     1.118519     1.110876     1.103233
      1.095590     1.087946     1.080303     1.072660     1.065017     1.057374     1.049731     1.042088     1.034445     1.026802
      1.019158     1.011515     1.003872     0.996229     0.988586     0.980943     0.973300     0.965657     0.958014     0.950371
      0.942727     0.935084     0.927441     0.919798     0.912155     0.904512     0.896869     0.889226     0.881583     0.873940
      0.866296     0.858653     0.851010     0.843367     0.835724     0.828081     0.820438     0.812795     0.805152     0.797508
      0.789865     0.782222     0.774579     0.766936     0.759293     0.751650     0.744007     0.736364     0.728721     0.721077
      0.713434     0.705791     0.698148     0.690505     0.682862     0.675219     0.667576     0.659933     0.652290     0.644646
      0.637003     0.629360     0.621717     0.614074     0.606431     0.598788     0.591145     0.583502     0.575858     0.568215
      0.560572     0.552929     0.545286     0.537643     0.530000     0.522357     0.514714     0.507071     0.499427     0.491784
      0.484141     0.476498     0.468855     0.461212     0.453569     0.445925     0.438282     0.430639     0.422996     0.415353
      0.407710     0.400067     0.392424     0.384780     0.377137     0.369494     0.361851     0.354208     0.346565     0.338922
      0.331278     0.323635     0.315992     0.308349     0.300706     0.293063     0.285420     0.277777     0.270133     0.262490
      0.254847     0.247204     0.239561     0.231918     0.224275     0.216631     0.208988     0.201345
 NY phased data points follow
   4.17193E+00  4.36582E+00  5.77358E+00  3.32520E+00  3.55044E+00  4.55725E+00  4.64787E+00  3.03858E+00  4.62660E+00  4.50568E+00
   3.07768E+00  5.32287E+00  4.29848E+00  5.08887E+00  3.67644E+00  3.29971E+00  3.28209E+00  2.15047E+00  3.23985E+00  3.66972E+00
   3.73305E+00  2.66807E+00  3.65770E+00  3.47827E+00  2.62460E+00  4.00891E+00  4.47459E+00  3.39063E+00  2.34412E+00  3.22738E+00
   3.13973E+00  3.51715E+00  2.84945E+00  3.39074E+00  4.21072E+00  3.89538E+00  4.07184E+00  4.94593E+00  4.18493E+00  3.56977E+00
   3.58734E+00  3.49553E+00  3.90199E+00  3.75074E+00  4.83215E+00  3.13913E+00  2.26575E+00  2.65358E+00  2.66707E+00  3.51678E+00
   3.20550E+00  2.53014E+00  3.76852E+00  2.88995E+00  3.05277E+00  2.80638E+00  5.36727E+00  2.74657E+00  4.06359E+00  1.60290E+00
   3.25782E+00  3.75736E+00  2.62362E+00  3.00785E+00  1.64049E+00  3.08454E+00  1.79495E+00  3.12713E+00  2.86672E+00  1.39334E+00
   3.29587E+00  2.66827E+00  4.25235E+00  1.97620E+00  3.55360E+00  2.17819E+00  2.62890E+00  2.23329E+00  1.44180E+00  2.61904E+00
   1.91424E+00  2.63147E+00  2.58316E+00  2.07144E+00  3.06916E+00  1.01899E-01  3.19998E+00  1.72180E+00  2.32406E+00  1.63389E+00
   3.89966E+00  1.40621E+00  1.99459E+00  1.86996E+00  1.59169E+00  1.67272E+00  1.85671E+00  2.28532E+00  2.37601E+00  2.89669E+00
   2.30132E+00  2.78389E+00  2.83964E+00  2.91607E+00  2.39415E+00  1.84681E+00  2.36218E+00  6.11336E-01  2.51035E+00  3.32075E+00
   1.77778E+00  1.60382E+00  3.27412E+00  2.53389E+00  1.66156E+00  3.06062E+00  2.13347E+00  2.60287E+00  2.32431E-01  8.85947E-01
   1.94790E+00  3.09391E+00  1.52422E+00  2.51030E+00  1.76375E+00  3.49625E+00  5.07451E+00  4.45722E+00  3.23193E+00  3.05047E+00
   2.97823E+00  1.18390E+00  1.12657E+00  3.61761E+00  3.55478E+00  1.51285E+00  3.02899E+00  2.53402E+00  1.65417E+00  1.67953E+00
   2.85343E+00  2.22262E+00  2.40638E+00  3.50770E+00  1.64915E+00  2.82945E+00  3.58178E+00  2.76432E+00  1.42170E+00  1.87626E+00
   3.05964E+00  1.88281E+00  2.84532E+00  1.89896E+00  7.26191E-01  1.56576E+00  2.38263E+00  2.43077E+00  1.33334E+00  2.14438E+00
   3.76844E-01  1.67287E+00  2.23322E+00  2.15877E+00  1.92937E+00  2.76257E+00  1.40009E+00  2.91517E+00  2.55474E+00  1.54047E+00
   2.21292E+00  1.23356E+00  2.25372E+00  1.98971E+00  2.39028E+00  1.17749E+00  5.74349E-01  2.62382E+00  1.25775E+00  2.57217E+00
   1.54304E-01  1.63690E+00  1.40617E+00  2.27532E+00  1.61981E+00 -2.10673E-01  5.29146E-01  1.78497E+00  5.30792E-01  1.93622E+00
   1.65615E+00  2.10277E+00  1.19898E+00  1.01450E+00  6.91928E-01  1.39039E+00  7.66920E-01  6.66319E-01  1.35842E+00  2.34431E+00
   3.56427E-01  2.69786E+00  2.74440E+00  2.20201E+00  3.34112E-01  8.71857E-01  1.90048E+00  1.38142E+00  9.69910E-01  7.56243E-01
   2.28879E+00  3.84103E-02  2.44649E+00  1.94998E+00  2.02322E+00 -1.90448E-01  1.93339E+00  2.62451E+00  1.47474E+00 -1.66122E-01
   1.72418E+00  1.86263E+00  1.24659E+00  4.41760E-01  1.11498E+00  1.11489E+00  3.21448E-01  2.65784E-01  2.46007E+00  3.70614E+00
   1.21162E+00  2.00750E+00  6.18591E-01  9.21231E-01  3.49831E+00  2.16916E+00  1.19271E+00  1.32257E+00  2.11130E+00  1.16296E+00
   1.16954E+00  9.36895E-01  5.99641E-01  1.24341E+00  1.81333E+00  8.28982E-01  1.06863E+00  1.67198E+00  2.28654E+00  1.25032E+00
   9.30945E-01  2.60400E+00  2.16766E+00  2.51949E+00  1.78606E+00  1.35602E+00  1.30536E+00  3.60516E+00  3.73811E+00  3.35612E+00
   1.39405E+00  3.02531E+00  2.93420E+00  2.39525E+00  1.77650E+00  8.35007E-02  9.93152E-01  2.36787E-01  2.20974E+00  1.84154E+00
   2.23685E+00  1.24429E+00  2.56225E+00  1.46059E+00  1.60882E+00  2.54791E+00  2.04990E+00  2.07124E+00  3.19454E+00  2.77240E+00
   2.39699E+00  1.70079E+00  2.05982E+00  7.00941E-01  2.16561E+00  1.47249E+00  2.12706E+00 -4.45157E-01  2.77157E+00  1.93154E+00
   7.26362E-01  2.85737E+00  2.70619E-01  2.79323E+00  1.64970E+00  1.05183E+00  1.90709E+00  2.17358E+00  7.90468E-01  2.02424E+00
   2.00660E+00  2.08544E+00 -1.86017E-01  1.64917E+00  1.82996E+00  5.85240E-01  1.30828E+00  1.71971E+00  9.88700E-01  2.06342E-01
   4.94643E-01  2.02776E+00  1.09966E+00  9.75203E-01  5.82870E-01  6.87055E-01  7.00848E-01  1.66340E+00  1.06581E+00  2.60556E+00
   3.64853E+00  2.13131E+00  1.57504E+00  2.85523E+00  1.21961E+00 -1.66909E-01  1.12150E+00  7.27849E-01  1.80829E+00  1.21089E+00
   1.38722E+00  1.51746E+00  4.09018E-01  1.14688E+00  1.28940E+00  1.31716E+00  1.44869E+00  2.27369E+00  2.18714E+00  3.01183E+00
   5.14324E-01  1.76377E+00  2.91092E+00  1.50554E+00  1.90864E+00  1.87764E+00  1.94324E+00  7.42727E-01  1.33321E+00  1.34034E+00
   2.83758E+00  1.60127E+00  1.89107E+00  1.24360E+00  1.83276E+00  1.33336E+00  2.31900E+00  2.10677E+00  1.48535E+00  2.48550E+00
   2.93101E+00  1.43314E+00  2.12429E+00  3.01827E+00  3.14946E+00  1.90299E+00  2.42805E+00  1.44432E+00  2.15454E+00  2.13051E+00
   2.27448E+00  7.52196E-01  1.47901E+00  2.34867E+00  9.61531E-01  2.60420E-01  2.53379E+00  1.34257E+00  1.20885E+00  8.10991E-01
   1.19548E+00  5.14948E-01  1.52961E+00  8.72720E-01  5.17560E-01  2.19780E+00  1.18244E+00  7.45978E-01  1.25343E+00  4.41719E-01
   2.01874E+00  1.41825E+00  1.86931E+00  8.45661E-01  1.87030E+00  4.79616E-01  1.05326E+00  3.91821E-01  1.42728E+00 -4.81463E-01
   8.72167E-01  1.03033E+00  2.35299E-01  1.01002E+00  5.64512E-01  2.50136E+00  6.18367E-01  2.63765E+00  6.43927E-01  1.16015E+00
   1.20307E+00  1.64907E+00  1.61428E+00  1.26236E+00  8.45381E-01  1.33641E+00  1.56267E+00  2.92300E-01  7.85593E-02  3.06541E-01
   2.24148E+00  1.03944E+00  2.66617E-01  3.66519E-01 -3.28915E-01  1.20623E+00  1.82478E+00  7.77803E-01  6.23769E-01  1.64413E+00
   1.02108E+00  9.07169E-01  3.28258E+00  7.34183E-01 -3.64208E-01 -2.89774E-01  3.84605E-01  9.97338E-01  3.22576E-01  2.14838E+00
   4.10068E-01  4.87484E-01  6.97545E-01  9.74592E-01  1.08284E+00  1.47640E+00 -2.13497E-01  5.06253E-01  9.96845E-01  6.89565E-01
   7.51319E-01  1.85285E-02  5.45871E-02  6.68351E-01  2.86031E+00  1.56435E+00 -5.92061E-01  4.86027E-01 -2.63931E-01  3.48187E-01
   6.37572E-01  5.92285E-01  3.99605E-01  5.90878E-01  3.94077E-01  1.37027E+00  8.80484E-01  8.49212E-01  1.59306E+00 -5.00366E-01
   1.72130E+00  7.38572E-01  5.51475E-01  4.92083E-01  6.80914E-01  3.11109E-01 -1.09581E-02  1.46134E+00  1.00465E+00  1.07845E+00
   6.37622E-01  2.30521E-01 -9.18120E-02  1.13096E-01  6.34024E-02 -8.29538E-01  1.63716E+00  9.07580E-01 -2.63582E-01  9.22666E-01
  -7.57045E-01 -8.11098E-02 -5.05678E-01 -5.65110E-02  4.04340E-01 -4.47285E-01 -8.02110E-01  8.43017E-01
 NY points of the fit to the data follow
   3.12925E+00  3.04664E+00  2.99826E+00  3.03940E+00  3.23978E+00  3.50314E+00  3.70569E+00  3.82572E+00  3.89553E+00  3.93395E+00
   3.93073E+00  3.86441E+00  3.71729E+00  3.48638E+00  3.21374E+00  2.99104E+00  2.90391E+00  2.89699E+00  2.91636E+00  2.95050E+00
   3.00331E+00  3.05355E+00  3.07300E+00  3.03305E+00  2.96980E+00  2.97381E+00  3.03029E+00  3.10036E+00  3.19919E+00  3.33287E+00
   3.47274E+00  3.57975E+00  3.65750E+00  3.68707E+00  3.62226E+00  3.45415E+00  3.23840E+00  3.04108E+00  2.85762E+00  2.70776E+00
   2.63495E+00  2.66741E+00  2.84216E+00  3.13585E+00  3.43562E+00  3.62657E+00  3.69104E+00  3.68676E+00  3.64376E+00  3.55370E+00
   3.39885E+00  3.17527E+00  2.90264E+00  2.64641E+00  2.52179E+00  2.56549E+00  2.69834E+00  2.83628E+00  2.93481E+00  2.98614E+00
   2.99582E+00  2.97262E+00  2.93064E+00  2.87443E+00  2.80330E+00  2.72120E+00  2.66304E+00  2.66403E+00  2.71264E+00  2.77960E+00
   2.83791E+00  2.87947E+00  2.89826E+00  2.89186E+00  2.86737E+00  2.82865E+00  2.78104E+00  2.72754E+00  2.67889E+00  2.64716E+00
   2.62444E+00  2.60048E+00  2.55467E+00  2.47801E+00  2.38120E+00  2.28812E+00  2.21278E+00  2.15630E+00  2.11865E+00  2.10533E+00
   2.11838E+00  2.16604E+00  2.24135E+00  2.31741E+00  2.36585E+00  2.37746E+00  2.36194E+00  2.35505E+00  2.40818E+00  2.48056E+00
   2.52461E+00  2.54480E+00  2.56107E+00  2.58712E+00  2.60701E+00  2.59681E+00  2.54530E+00  2.45275E+00  2.33821E+00  2.24478E+00
   2.20984E+00  2.20052E+00  2.19551E+00  2.19275E+00  2.18884E+00  2.18191E+00  2.17267E+00  2.16436E+00  2.15938E+00  2.16270E+00
   2.19077E+00  2.32342E+00  2.67368E+00  3.08171E+00  3.38218E+00  3.56147E+00  3.67389E+00  3.74461E+00  3.75945E+00  3.68160E+00
   3.46458E+00  3.10581E+00  2.67953E+00  2.33205E+00  2.17621E+00  2.11420E+00  2.07906E+00  2.05979E+00  2.04820E+00  2.04744E+00
   2.06867E+00  2.11074E+00  2.15199E+00  2.17759E+00  2.18274E+00  2.16607E+00  2.13615E+00  2.10370E+00  2.07567E+00  2.05423E+00
   2.03290E+00  2.01400E+00  2.00031E+00  1.99173E+00  1.98633E+00  1.97988E+00  1.97074E+00  1.96080E+00  1.95312E+00  1.94814E+00
   1.94407E+00  1.93560E+00  1.92167E+00  1.90703E+00  1.89432E+00  1.88359E+00  1.87649E+00  1.87252E+00  1.86908E+00  1.86442E+00
   1.85595E+00  1.84214E+00  1.82769E+00  1.81706E+00  1.80987E+00  1.80198E+00  1.78806E+00  1.76774E+00  1.74732E+00  1.73649E+00
   1.73293E+00  1.72999E+00  1.72339E+00  1.71572E+00  1.71640E+00  1.73392E+00  1.76896E+00  1.81466E+00  1.85466E+00  1.87392E+00
   1.87476E+00  1.86039E+00  1.82206E+00  1.75800E+00  1.69053E+00  1.63896E+00  1.61361E+00  1.62388E+00  1.67186E+00  1.75009E+00
   1.85294E+00  1.96701E+00  2.05962E+00  2.09697E+00  2.06106E+00  1.91974E+00  1.72324E+00  1.54798E+00  1.42213E+00  1.35830E+00
   1.37305E+00  1.52092E+00  1.76514E+00  2.00730E+00  2.19937E+00  2.33179E+00  2.36935E+00  2.22534E+00  1.91570E+00  1.56111E+00
   1.25925E+00  1.03307E+00  9.08291E-01  9.32570E-01  1.07652E+00  1.29030E+00  1.53395E+00  1.76319E+00  1.94017E+00  2.01847E+00
   1.99383E+00  1.91455E+00  1.84510E+00  1.80795E+00  1.79969E+00  1.80355E+00  1.81261E+00  1.81899E+00  1.77357E+00  1.69141E+00
   1.62245E+00  1.58022E+00  1.54082E+00  1.49959E+00  1.47974E+00  1.48301E+00  1.49638E+00  1.51972E+00  1.56499E+00  1.62313E+00
   1.68023E+00  1.80038E+00  1.96097E+00  2.08308E+00  2.15774E+00  2.27923E+00  2.48053E+00  2.65368E+00  2.72455E+00  2.70073E+00
   2.61430E+00  2.48436E+00  2.35503E+00  2.26215E+00  2.15723E+00  1.99407E+00  1.80115E+00  1.65244E+00  1.57393E+00  1.52985E+00
   1.50921E+00  1.50705E+00  1.51029E+00  1.51107E+00  1.51667E+00  1.52435E+00  1.52757E+00  1.52354E+00  1.51183E+00  1.49224E+00
   1.46946E+00  1.45047E+00  1.43718E+00  1.42783E+00  1.42064E+00  1.41525E+00  1.41101E+00  1.40677E+00  1.40121E+00  1.39506E+00
   1.38912E+00  1.38375E+00  1.37901E+00  1.37518E+00  1.37152E+00  1.36756E+00  1.36332E+00  1.35873E+00  1.35386E+00  1.34945E+00
   1.34576E+00  1.34266E+00  1.34017E+00  1.33833E+00  1.33708E+00  1.33605E+00  1.33477E+00  1.33337E+00  1.33209E+00  1.33107E+00
   1.33060E+00  1.33088E+00  1.33208E+00  1.33441E+00  1.33817E+00  1.34381E+00  1.35195E+00  1.36352E+00  1.38008E+00  1.40440E+00
   1.44252E+00  1.51056E+00  1.62562E+00  1.70911E+00  1.69761E+00  1.61676E+00  1.50844E+00  1.38382E+00  1.22790E+00  1.03209E+00
   8.74448E-01  8.25114E-01  8.66649E-01  9.84961E-01  1.17830E+00  1.39107E+00  1.59008E+00  1.77107E+00  1.91765E+00  2.00689E+00
   2.02261E+00  1.98447E+00  1.97626E+00  2.01031E+00  2.02634E+00  2.01640E+00  1.99512E+00  1.96842E+00  1.92919E+00  1.87310E+00
   1.83371E+00  1.83172E+00  1.85536E+00  1.90127E+00  1.97679E+00  2.06360E+00  2.13702E+00  2.19228E+00  2.22224E+00  2.21739E+00
   2.17185E+00  2.09532E+00  2.02103E+00  1.96010E+00  1.90374E+00  1.84853E+00  1.79358E+00  1.73882E+00  1.68455E+00  1.63116E+00
   1.57912E+00  1.52885E+00  1.48070E+00  1.43499E+00  1.39195E+00  1.35177E+00  1.31456E+00  1.28038E+00  1.24924E+00  1.22110E+00
   1.19593E+00  1.17366E+00  1.15420E+00  1.13748E+00  1.12341E+00  1.11189E+00  1.10285E+00  1.09622E+00  1.09191E+00  1.08983E+00
   1.08987E+00  1.09192E+00  1.09585E+00  1.10148E+00  1.10862E+00  1.11702E+00  1.12639E+00  1.13642E+00  1.14675E+00  1.15700E+00
   1.16675E+00  1.17558E+00  1.18307E+00  1.18881E+00  1.19244E+00  1.19365E+00  1.19215E+00  1.18777E+00  1.18040E+00  1.17002E+00
   1.15670E+00  1.14058E+00  1.12188E+00  1.10088E+00  1.07793E+00  1.05337E+00  1.02761E+00  1.00103E+00  9.73988E-01  9.46844E-01
   9.19914E-01  8.93473E-01  8.67749E-01  8.42919E-01  8.19118E-01  7.96439E-01  7.74936E-01  7.54628E-01  7.35501E-01  7.17520E-01
   7.00635E-01  6.84785E-01  6.69900E-01  6.55906E-01  6.42723E-01  6.30278E-01  6.18499E-01  6.07322E-01  5.96687E-01  5.86534E-01
   5.76810E-01  5.67470E-01  5.58474E-01  5.49788E-01  5.41379E-01  5.33215E-01  5.25271E-01  5.17526E-01  5.09960E-01  5.02558E-01
   4.95304E-01  4.88181E-01  4.81178E-01  4.74287E-01  4.67499E-01  4.60805E-01  4.54196E-01  4.47665E-01  4.41205E-01  4.34813E-01
   4.28484E-01  4.22214E-01  4.15995E-01  4.09826E-01  4.03703E-01  3.97624E-01  3.91587E-01  3.85587E-01  3.79622E-01  3.73690E-01
   3.67789E-01  3.61920E-01  3.56078E-01  3.50263E-01  3.44472E-01  3.38706E-01  3.32962E-01  3.27241E-01  3.21540E-01  3.15857E-01
   3.10193E-01  3.04546E-01  2.98916E-01  2.93303E-01  2.87705E-01  2.82121E-01  2.76552E-01  2.70997E-01  2.65456E-01  2.59927E-01
   2.54411E-01  2.48907E-01  2.43416E-01  2.37936E-01  2.32469E-01  2.27013E-01  2.21570E-01  2.16140E-01
 NY background values follow
     2.753E+00    2.748E+00    2.743E+00    2.737E+00    2.732E+00    2.727E+00    2.722E+00    2.717E+00    2.712E+00    2.707E+00
     2.701E+00    2.696E+00    2.691E+00    2.686E+00    2.681E+00    2.676E+00    2.671E+00    2.665E+00    2.660E+00    2.655E+00
     2.650E+00    2.645E+00    2.640E+00    2.635E+00    2.629E+00    2.624E+00    2.619E+00    2.614E+00    2.609E+00    2.604E+00
     2.598E+00    2.593E+00    2.588E+00    2.583E+00    2.578E+00    2.573E+00    2.568E+00    2.562E+00    2.557E+00    2.552E+00
     2.547E+00    2.542E+00    2.537E+00    2.532E+00    2.526E+00    2.521E+00    2.516E+00    2.511E+00    2.506E+00    2.501E+00
     2.496E+00    2.490E+00    2.485E+00    2.480E+00    2.475E+00    2.470E+00    2.465E+00    2.459E+00    2.454E+00    2.449E+00
     2.444E+00    2.439E+00    2.434E+00    2.429E+00    2.423E+00    2.418E+00    2.413E+00    2.408E+00    2.403E+00    2.398E+00
     2.393E+00    2.387E+00    2.382E+00    2.377E+00    2.372E+00    2.367E+00    2.362E+00    2.357E+00    2.351E+00    2.346E+00
     2.341E+00    2.336E+00    2.331E+00    2.326E+00    2.320E+00    2.315E+00    2.310E+00    2.305E+00    2.300E+00    2.295E+00
     2.290E+00    2.284E+00    2.279E+00    2.274E+00    2.269E+00    2.264E+00    2.259E+00    2.254E+00    2.248E+00    2.243E+00
     2.238E+00    2.233E+00    2.228E+00    2.223E+00    2.218E+00    2.212E+00    2.207E+00    2.202E+00    2.197E+00    2.192E+00
     2.187E+00    2.181E+00    2.176E+00    2.171E+00    2.166E+00    2.161E+00    2.156E+00    2.151E+00    2.145E+00    2.140E+00
     2.135E+00    2.130E+00    2.125E+00    2.120E+00    2.115E+00    2.109E+00    2.104E+00    2.099E+00    2.094E+00    2.089E+00
     2.084E+00    2.079E+00    2.073E+00    2.068E+00    2.063E+00    2.058E+00    2.053E+00    2.048E+00    2.043E+00    2.037E+00
     2.032E+00    2.027E+00    2.022E+00    2.017E+00    2.012E+00    2.006E+00    2.001E+00    1.996E+00    1.991E+00    1.986E+00
     1.981E+00    1.976E+00    1.970E+00    1.965E+00    1.960E+00    1.955E+00    1.950E+00    1.945E+00    1.940E+00    1.934E+00
     1.929E+00    1.924E+00    1.919E+00    1.914E+00    1.909E+00    1.904E+00    1.898E+00    1.893E+00    1.888E+00    1.883E+00
     1.878E+00    1.873E+00    1.867E+00    1.862E+00    1.857E+00    1.852E+00    1.847E+00    1.842E+00    1.837E+00    1.831E+00
     1.826E+00    1.821E+00    1.816E+00    1.811E+00    1.806E+00    1.801E+00    1.795E+00    1.790E+00    1.785E+00    1.780E+00
     1.775E+00    1.770E+00    1.765E+00    1.759E+00    1.754E+00    1.749E+00    1.744E+00    1.739E+00    1.734E+00    1.729E+00
     1.723E+00    1.718E+00    1.713E+00    1.708E+00    1.703E+00    1.698E+00    1.693E+00    1.687E+00    1.682E+00    1.677E+00
     1.672E+00    1.667E+00    1.662E+00    1.656E+00    1.651E+00    1.646E+00    1.641E+00    1.636E+00    1.631E+00    1.626E+00
     1.620E+00    1.615E+00    1.610E+00    1.605E+00    1.600E+00    1.595E+00    1.590E+00    1.584E+00    1.579E+00    1.574E+00
     1.569E+00    1.564E+00    1.559E+00    1.554E+00    1.548E+00    1.543E+00    1.538E+00    1.533E+00    1.528E+00    1.523E+00
     1.518E+00    1.512E+00    1.507E+00    1.502E+00    1.497E+00    1.492E+00    1.487E+00    1.482E+00    1.476E+00    1.471E+00
     1.466E+00    1.461E+00    1.456E+00    1.451E+00    1.446E+00    1.440E+00    1.435E+00    1.430E+00    1.425E+00    1.420E+00
     1.415E+00    1.410E+00    1.404E+00    1.399E+00    1.394E+00    1.389E+00    1.384E+00    1.379E+00    1.373E+00    1.368E+00
     1.363E+00    1.358E+00    1.353E+00    1.348E+00    1.343E+00    1.337E+00    1.332E+00    1.327E+00    1.322E+00    1.317E+00
     1.312E+00    1.307E+00    1.301E+00    1.296E+00    1.291E+00    1.286E+00    1.281E+00    1.276E+00    1.271E+00    1.265E+00
     1.260E+00    1.255E+00    1.250E+00    1.245E+00    1.240E+00    1.235E+00    1.229E+00    1.224E+00    1.219E+00    1.214E+00
     1.209E+00    1.204E+00    1.199E+00    1.193E+00    1.188E+00    1.183E+00    1.178E+00    1.173E+00    1.168E+00    1.163E+00
     1.157E+00    1.152E+00    1.147E+00    1.142E+00    1.137E+00    1.132E+00    1.127E+00    1.121E+00    1.116E+00    1.111E+00
     1.106E+00    1.101E+00    1.096E+00    1.091E+00    1.085E+00    1.080E+00    1.075E+00    1.070E+00    1.065E+00    1.060E+00
     1.055E+00    1.049E+00    1.044E+00    1.039E+00    1.034E+00    1.029E+00    1.024E+00    1.018E+00    1.013E+00    1.008E+00
     1.003E+00    9.979E-01    9.928E-01    9.876E-01    9.825E-01    9.773E-01    9.722E-01    9.671E-01    9.619E-01    9.568E-01
     9.516E-01    9.465E-01    9.413E-01    9.362E-01    9.310E-01    9.259E-01    9.208E-01    9.156E-01    9.105E-01    9.053E-01
     9.002E-01    8.950E-01    8.899E-01    8.847E-01    8.796E-01    8.745E-01    8.693E-01    8.642E-01    8.590E-01    8.539E-01
     8.487E-01    8.436E-01    8.385E-01    8.333E-01    8.282E-01    8.230E-01    8.179E-01    8.127E-01    8.076E-01    8.024E-01
     7.973E-01    7.922E-01    7.870E-01    7.819E-01    7.767E-01    7.716E-01    7.664E-01    7.613E-01    7.561E-01    7.510E-01
     7.459E-01    7.407E-01    7.356E-01    7.304E-01    7.253E-01    7.201E-01    7.150E-01    7.099E-01    7.047E-01    6.996E-01
     6.944E-01    6.893E-01    6.841E-01    6.790E-01    6.738E-01    6.687E-01    6.636E-01    6.584E-01    6.533E-01    6.481E-01
     6.430E-01    6.378E-01    6.327E-01    6.275E-01    6.224E-01    6.173E-01    6.121E-01    6.070E-01    6.018E-01    5.967E-01
     5.915E-01    5.864E-01    5.813E-01    5.761E-01    5.710E-01    5.658E-01    5.607E-01    5.555E-01    5.504E-01    5.452E-01
     5.401E-01    5.350E-01    5.298E-01    5.247E-01    5.195E-01    5.144E-01    5.092E-01    5.041E-01    4.989E-01    4.938E-01
     4.887E-01    4.835E-01    4.784E-01    4.732E-01    4.681E-01    4.629E-01    4.578E-01    4.527E-01    4.475E-01    4.424E-01
     4.372E-01    4.321E-01    4.269E-01    4.218E-01    4.166E-01    4.115E-01    4.064E-01    4.012E-01    3.961E-01    3.909E-01
     3.858E-01    3.806E-01    3.755E-01    3.704E-01    3.652E-01    3.601E-01    3.549E-01    3.498E-01    3.446E-01    3.395E-01
     3.343E-01    3.292E-01    3.241E-01    3.189E-01    3.138E-01    3.086E-01    3.035E-01    2.983E-01    2.932E-01    2.881E-01
     2.829E-01    2.778E-01    2.726E-01    2.675E-01    2.623E-01    2.572E-01    2.520E-01    2.469E-01    2.418E-01    2.366E-01
     2.315E-01    2.263E-01    2.212E-01    2.160E-01    2.109E-01    2.057E-01    2.006E-01    1.955E-01
 Ala      Conc. = 4.53E+01
