 LCModel (Version 6.3-1L) Copyright: S.W. Provencher.          Ref.: Magn. Reson. Med. 30:672-679 (1993).                
 Slice#2 Row#5 Col#11  PD_05_press_1_raw_act
 36 lines in following concentration table = NCONC+1
    Conc.  %SD /Cr+PCr  Metabolite                                         
  538.089  30%   0.453 Ala                                                 
    0.000 999%   0.000 Asp                                                 
  171.122 120%   0.144 Cr                                                  
 1.02E+03  20%   0.856 PCr                                                 
   38.871 410% 3.3E-02 GABA                                                
    0.000 999%   0.000 Glc                                                 
 1.60E+03  20%   1.347 Gln                                                 
 1.19E+03  31%   1.005 Glu                                                 
  422.396   4%   0.356 GPC                                                 
    0.000 999%   0.000 PCh                                                 
  530.890  14%   0.447 GSH                                                 
 1.99E+03  11%   1.673 Ins                                                 
  204.141 136%   0.172 Lac                                                 
 2.22E+03   3%   1.869 NAA                                                 
    0.000 999%   0.000 NAAG                                                
  186.514  13%   0.157 Scyllo                                              
    0.000 999%   0.000 Tau                                                 
  358.487  26%   0.302 -CrCH2                                              
  422.396   4%   0.356 GPC+PCh                                             
 2.22E+03   3%   1.869 NAA+NAAG                                            
 1.19E+03   4%   1.000 Cr+PCr                                              
 2.79E+03  21%   2.352 Glu+Gln                                             
    0.000 999%   0.000 Lip13a                                              
  583.921  35%   0.492 Lip13b                                              
    0.000 999%   0.000 Lip09                                               
 1.16E+03  10%   0.976 MM09                                                
  126.233  76%   0.106 Lip20                                               
 3.11E+03   8%   2.615 MM20                                                
  339.032  32%   0.285 MM12                                                
 1.75E+03  16%   1.470 MM14                                                
  852.238  20%   0.718 MM17                                                
  583.921  35%   0.492 Lip13a+Lip13b                                       
 2.67E+03   9%   2.247 MM14+Lip13a+Lip13b+MM12                             
 1.16E+03  10%   0.976 MM09+Lip09                                          
 3.23E+03   8%   2.722 MM20+Lip20                                          
   6 lines in following misc. output table
  FWHM = 0.076 ppm    S/N =  13                                            
  Data shift = 0.015 ppm                                                   
  Ph:  -8 deg      -9.1 deg/ppm                                            
  alphaB,S = 8.5E+01,   1.5E+02                                            
   14 spline knots.   Ns =10(1)                                            
   5 inflections.     1 extrema                                            
  498 points on ppm-axis = NY
      4.000000     3.992357     3.984714     3.977070     3.969427     3.961784     3.954141     3.946497     3.938854     3.931211
      3.923568     3.915925     3.908281     3.900638     3.892995     3.885352     3.877708     3.870065     3.862422     3.854779
      3.847136     3.839492     3.831849     3.824206     3.816563     3.808919     3.801276     3.793633     3.785990     3.778347
      3.770703     3.763060     3.755417     3.747774     3.740130     3.732487     3.724844     3.717201     3.709558     3.701914
      3.694271     3.686628     3.678985     3.671341     3.663698     3.656055     3.648412     3.640769     3.633125     3.625482
      3.617839     3.610196     3.602552     3.594909     3.587266     3.579623     3.571980     3.564336     3.556693     3.549050
      3.541407     3.533763     3.526120     3.518477     3.510834     3.503191     3.495547     3.487904     3.480261     3.472618
      3.464974     3.457331     3.449688     3.442045     3.434402     3.426758     3.419115     3.411472     3.403829     3.396185
      3.388542     3.380899     3.373256     3.365613     3.357969     3.350326     3.342683     3.335040     3.327396     3.319753
      3.312110     3.304467     3.296824     3.289180     3.281537     3.273894     3.266251     3.258607     3.250964     3.243321
      3.235678     3.228034     3.220391     3.212748     3.205105     3.197462     3.189818     3.182175     3.174532     3.166889
      3.159245     3.151602     3.143959     3.136316     3.128673     3.121029     3.113386     3.105743     3.098100     3.090456
      3.082813     3.075170     3.067527     3.059884     3.052240     3.044597     3.036954     3.029311     3.021667     3.014024
      3.006381     2.998738     2.991095     2.983451     2.975808     2.968165     2.960522     2.952878     2.945235     2.937592
      2.929949     2.922306     2.914662     2.907019     2.899376     2.891733     2.884089     2.876446     2.868803     2.861160
      2.853517     2.845873     2.838230     2.830587     2.822944     2.815300     2.807657     2.800014     2.792371     2.784728
      2.777084     2.769441     2.761798     2.754155     2.746511     2.738868     2.731225     2.723582     2.715939     2.708295
      2.700652     2.693009     2.685366     2.677722     2.670079     2.662436     2.654793     2.647150     2.639506     2.631863
      2.624220     2.616577     2.608933     2.601290     2.593647     2.586004     2.578361     2.570717     2.563074     2.555431
      2.547788     2.540144     2.532501     2.524858     2.517215     2.509572     2.501928     2.494285     2.486642     2.478999
      2.471355     2.463712     2.456069     2.448426     2.440783     2.433139     2.425496     2.417853     2.410210     2.402566
      2.394923     2.387280     2.379637     2.371994     2.364350     2.356707     2.349064     2.341421     2.333777     2.326134
      2.318491     2.310848     2.303205     2.295561     2.287918     2.280275     2.272632     2.264988     2.257345     2.249702
      2.242059     2.234416     2.226772     2.219129     2.211486     2.203843     2.196199     2.188556     2.180913     2.173270
      2.165627     2.157983     2.150340     2.142697     2.135054     2.127410     2.119767     2.112124     2.104481     2.096838
      2.089194     2.081551     2.073908     2.066265     2.058621     2.050978     2.043335     2.035692     2.028049     2.020405
      2.012762     2.005119     1.997476     1.989833     1.982190     1.974546     1.966903     1.959260     1.951617     1.943974
      1.936331     1.928688     1.921045     1.913402     1.905759     1.898115     1.890472     1.882829     1.875186     1.867543
      1.859900     1.852257     1.844614     1.836971     1.829327     1.821684     1.814041     1.806398     1.798755     1.791112
      1.783469     1.775826     1.768183     1.760540     1.752896     1.745253     1.737610     1.729967     1.722324     1.714681
      1.707038     1.699395     1.691752     1.684108     1.676465     1.668822     1.661179     1.653536     1.645893     1.638250
      1.630607     1.622964     1.615321     1.607677     1.600034     1.592391     1.584748     1.577105     1.569462     1.561819
      1.554176     1.546533     1.538890     1.531246     1.523603     1.515960     1.508317     1.500674     1.493031     1.485388
      1.477745     1.470102     1.462458     1.454815     1.447172     1.439529     1.431886     1.424243     1.416600     1.408957
      1.401314     1.393671     1.386027     1.378384     1.370741     1.363098     1.355455     1.347812     1.340169     1.332526
      1.324883     1.317240     1.309596     1.301953     1.294310     1.286667     1.279024     1.271381     1.263738     1.256095
      1.248452     1.240808     1.233165     1.225522     1.217879     1.210236     1.202593     1.194950     1.187307     1.179664
      1.172021     1.164377     1.156734     1.149091     1.141448     1.133805     1.126162     1.118519     1.110876     1.103233
      1.095590     1.087946     1.080303     1.072660     1.065017     1.057374     1.049731     1.042088     1.034445     1.026802
      1.019158     1.011515     1.003872     0.996229     0.988586     0.980943     0.973300     0.965657     0.958014     0.950371
      0.942727     0.935084     0.927441     0.919798     0.912155     0.904512     0.896869     0.889226     0.881583     0.873940
      0.866296     0.858653     0.851010     0.843367     0.835724     0.828081     0.820438     0.812795     0.805152     0.797508
      0.789865     0.782222     0.774579     0.766936     0.759293     0.751650     0.744007     0.736364     0.728721     0.721077
      0.713434     0.705791     0.698148     0.690505     0.682862     0.675219     0.667576     0.659933     0.652290     0.644646
      0.637003     0.629360     0.621717     0.614074     0.606431     0.598788     0.591145     0.583502     0.575858     0.568215
      0.560572     0.552929     0.545286     0.537643     0.530000     0.522357     0.514714     0.507071     0.499427     0.491784
      0.484141     0.476498     0.468855     0.461212     0.453569     0.445925     0.438282     0.430639     0.422996     0.415353
      0.407710     0.400067     0.392424     0.384780     0.377137     0.369494     0.361851     0.354208     0.346565     0.338922
      0.331278     0.323635     0.315992     0.308349     0.300706     0.293063     0.285420     0.277777     0.270133     0.262490
      0.254847     0.247204     0.239561     0.231918     0.224275     0.216631     0.208988     0.201345
 NY phased data points follow
   9.79990E+00  8.59544E+00  8.51659E+00  1.02618E+01  1.16497E+01  1.53603E+01  1.59331E+01  1.49734E+01  1.45527E+01  1.42128E+01
   1.49415E+01  1.40550E+01  1.40551E+01  8.94337E+00  1.01561E+01  8.80719E+00  9.33870E+00  8.06562E+00  7.81325E+00  9.24674E+00
   8.52729E+00  9.12478E+00  8.49476E+00  9.83472E+00  1.07017E+01  1.13783E+01  1.35746E+01  9.37537E+00  7.25576E+00  9.92262E+00
   1.06094E+01  1.01610E+01  9.13770E+00  8.59859E+00  9.63354E+00  9.17476E+00  1.05228E+01  7.11093E+00  1.10525E+01  9.49938E+00
   1.17420E+01  9.54932E+00  1.25815E+01  1.04899E+01  1.38991E+01  1.01932E+01  1.41059E+01  1.52851E+01  9.44091E+00  1.26635E+01
   8.67680E+00  8.20529E+00  7.49396E+00  7.88913E+00  7.34110E+00  7.65913E+00  7.12830E+00  9.48241E+00  8.26942E+00  8.78381E+00
   5.24899E+00  3.97507E+00  2.17842E+00  3.44886E+00  3.61445E+00  2.34109E+00  3.82826E+00  3.78684E+00  4.77831E+00  2.04556E+00
   3.87435E+00  5.26775E+00  2.84932E+00  7.99556E+00  5.04680E+00  2.98835E+00  1.86682E-01  5.98401E+00  4.29507E+00  5.23257E+00
   4.78804E+00  4.91678E+00  5.95465E+00  5.09772E+00  7.20396E+00  8.12493E+00  7.09853E+00  8.89182E+00  5.78670E+00  5.03256E+00
   6.91994E+00  6.61183E+00  9.01913E+00  9.81854E+00  1.21198E+01  1.09631E+01  1.49986E+01  1.14924E+01  1.55770E+01  1.90105E+01
   2.25235E+01  2.48726E+01  2.98967E+01  2.71943E+01  2.55176E+01  2.29722E+01  1.82706E+01  1.47635E+01  9.59841E+00  7.04284E+00
   6.42791E+00  5.70496E+00  6.08769E+00  6.04918E+00  1.13499E+01  9.77487E+00  8.50959E+00  1.05296E+01  9.84364E+00  1.20279E+01
   1.55463E+01  1.68089E+01  1.98393E+01  2.52827E+01  2.45440E+01  2.83772E+01  3.05502E+01  2.97224E+01  2.65310E+01  2.49280E+01
   2.15976E+01  1.78017E+01  1.58779E+01  1.25926E+01  6.38837E+00  6.65432E+00  1.13377E+01  8.02898E+00  7.62923E+00  4.04046E+00
   4.69952E+00  7.30489E+00  3.16897E+00  4.35250E+00  4.93253E+00  4.89992E+00  5.73726E+00  3.13155E+00  3.58775E+00  5.06835E+00
   3.02044E+00  2.89807E+00  4.25464E+00  2.78141E+00  1.23238E+00  2.44722E+00 -3.93377E-01  3.56540E+00  1.41884E+00 -7.55274E-01
   4.21580E+00  2.84294E+00  1.21816E+00 -2.37180E+00  1.74305E+00  4.77874E-01 -4.32327E-02 -1.05005E+00 -2.14173E+00 -5.48059E+00
  -6.51829E+00 -8.78862E+00 -1.11455E+01 -6.61756E+00 -6.16575E+00 -5.54107E+00 -8.75290E+00 -7.71083E+00 -1.19746E+01 -7.47127E+00
  -8.58883E+00 -5.14626E+00 -6.87804E+00 -6.41800E+00 -6.58905E+00 -3.31828E+00 -4.34834E+00 -4.47683E+00 -5.23616E+00 -3.69956E+00
  -2.14491E-01 -1.41692E+00 -3.18482E+00 -1.48051E+00  2.33934E+00 -1.23913E+00 -1.15930E+00  7.18363E-01 -1.37519E+00 -3.09899E+00
  -9.43030E-01  1.19325E+00  1.51493E+00  7.78049E-01  2.71997E+00  2.95998E+00  1.81419E+00  1.38337E+00  3.11489E+00  2.08845E+00
   4.18767E+00  1.44867E+00  4.39469E+00  7.28139E+00  5.61489E+00  9.25429E+00  7.85807E+00  1.11046E+01  9.37988E+00  7.94651E+00
   4.71961E+00  7.56238E+00  4.58101E+00  5.13966E+00  3.07679E+00  4.72948E+00  4.31446E+00  6.06665E+00  8.53257E+00  6.39991E+00
   7.40303E+00  4.89783E+00  8.57349E+00  7.88900E+00  7.10984E+00  6.48146E+00  8.46694E+00  9.88259E+00  8.71947E+00  6.46986E+00
   7.59383E+00  8.15271E+00  8.33274E+00  8.18425E+00  1.20948E+01  1.37306E+01  1.10205E+01  1.15898E+01  1.58314E+01  1.66969E+01
   1.84043E+01  2.19070E+01  2.52351E+01  2.92657E+01  3.32203E+01  3.71648E+01  4.25846E+01  4.97468E+01  5.75196E+01  5.97692E+01
   6.25114E+01  5.86355E+01  5.56769E+01  5.56507E+01  4.71795E+01  3.72334E+01  2.74461E+01  2.17665E+01  1.95996E+01  1.89577E+01
   1.38822E+01  1.34597E+01  1.46779E+01  9.74115E+00  8.27736E+00  6.73564E+00  6.03064E+00  6.36108E+00  6.68018E+00  4.62987E+00
   8.66665E+00  6.69210E+00  5.07337E+00  5.14578E+00  4.77478E+00  3.48220E+00  6.02289E+00  1.78191E+00  4.25315E+00  7.86307E+00
   4.40278E+00  2.93285E+00  6.03691E+00  4.52857E+00  2.83197E+00  6.75932E+00  6.13532E+00  7.53413E+00  7.06627E+00  7.95701E+00
   9.19138E+00  7.59058E+00  5.15830E+00  5.68552E+00  9.59380E+00  7.26109E+00  7.41354E+00  7.38329E+00  7.72986E+00  8.93010E+00
   7.32241E+00  1.02234E+01  8.80792E+00  5.79930E+00  7.16312E+00  5.61797E+00  7.82307E+00  4.45401E+00  8.64562E+00  8.60970E+00
   8.41092E+00  9.20360E+00  7.88529E+00  1.26937E+01  9.69113E+00  8.08357E+00  1.09710E+01  8.40433E+00  9.10445E+00  9.12193E+00
   6.14866E+00  1.19896E+01  9.50628E+00  7.97402E+00  9.99104E+00  9.91502E+00  7.45223E+00  1.10072E+01  1.38967E+01  1.18738E+01
   1.44028E+01  1.54490E+01  1.50203E+01  1.53345E+01  1.18565E+01  1.45606E+01  1.08699E+01  1.37240E+01  1.12611E+01  1.10181E+01
   1.38854E+01  1.09033E+01  1.24007E+01  1.55764E+01  1.48395E+01  1.23588E+01  1.35273E+01  1.35472E+01  1.05180E+01  1.20685E+01
   1.09114E+01  7.99780E+00  6.93490E+00  5.72236E+00  5.95724E+00  6.46887E+00  7.22429E+00  5.19458E+00  6.45701E+00  4.01323E+00
   4.73985E+00  6.48099E+00  3.09879E+00  2.30110E+00  4.28247E+00  3.61882E+00  3.49220E+00  2.60893E+00  5.22649E+00  6.54984E+00
   6.08399E+00 -1.67508E-02  4.01971E+00  2.60268E+00  6.26294E+00  3.23674E+00  2.20453E+00  4.84101E+00  4.20060E+00  3.82030E+00
   3.89148E+00  7.49589E+00  4.57632E+00  9.27781E+00  7.79537E+00  7.51404E+00  5.64612E+00  8.69639E+00  9.09838E+00  1.03250E+01
   7.99078E+00  1.02631E+01  8.34086E+00  8.54520E+00  9.80605E+00  9.93259E+00  8.48826E+00  8.45341E+00  1.02039E+01  8.21523E+00
   8.54359E+00  4.74814E+00  8.22936E+00  8.21919E+00  6.26788E+00  6.16182E+00  4.12940E+00  7.56830E+00  3.18260E+00  3.30767E+00
   2.56867E+00  3.65753E+00  1.99379E+00  3.94425E+00  1.89165E+00  3.67606E+00  1.16099E+00  3.54083E+00  3.13965E+00  4.95141E+00
   5.76485E-01  1.24015E+00  1.37841E+00 -9.58100E-01  2.66085E+00  1.14788E+00  2.38460E+00  8.47337E-01  3.03512E+00  9.69870E-01
   4.93217E+00  1.77706E+00  6.86752E-01  4.48343E+00  2.84496E+00  9.77497E-02  2.14593E+00  3.80588E+00  2.78051E+00  2.18546E+00
   2.75135E+00 -7.77779E-01  4.09362E+00  5.91832E-01  2.44459E+00  3.19290E+00  1.27436E+00  5.63588E-01  5.35105E-01  1.38091E+00
   1.31338E+00 -3.58864E-01  3.31226E+00  4.55545E+00  1.03198E+00  1.85481E+00  1.84990E+00  2.07186E+00  9.81991E-01  1.16264E+00
   3.69085E+00  1.56370E+00 -2.93401E-01  1.95038E+00  1.06481E+00  4.62425E+00  3.75612E+00  1.63035E+00  1.39143E-02  1.89071E-01
   5.33841E-01  6.69792E-01  1.23934E+00  3.59438E-01 -2.65552E-01  3.94550E+00  8.96067E-01  1.70605E+00  3.25346E+00 -2.90604E-01
   2.63232E+00  2.06611E+00 -1.66858E+00  1.12297E+00  5.88016E-02  3.44904E+00  2.56323E+00  6.43587E-01
 NY points of the fit to the data follow
   8.59530E+00  8.87465E+00  9.55048E+00  1.05279E+01  1.18774E+01  1.33478E+01  1.45118E+01  1.53290E+01  1.57379E+01  1.56671E+01
   1.51773E+01  1.42262E+01  1.28369E+01  1.12797E+01  9.97686E+00  9.05386E+00  8.36932E+00  7.76031E+00  7.06527E+00  6.60914E+00
   6.82438E+00  7.36467E+00  7.70743E+00  7.96252E+00  8.51896E+00  9.40072E+00  1.03864E+01  1.13195E+01  1.21665E+01  1.27618E+01
   1.30095E+01  1.29141E+01  1.24340E+01  1.15651E+01  1.03213E+01  8.96508E+00  8.15664E+00  8.26303E+00  8.80118E+00  9.07978E+00
   8.96379E+00  9.08288E+00  9.67678E+00  1.06547E+01  1.17596E+01  1.25321E+01  1.28041E+01  1.25230E+01  1.17784E+01  1.08264E+01
   9.74909E+00  8.49475E+00  7.17604E+00  6.13657E+00  5.68272E+00  5.83006E+00  6.17103E+00  6.25962E+00  6.03222E+00  5.80729E+00
   5.65240E+00  5.50878E+00  5.32683E+00  5.05223E+00  4.72559E+00  4.45540E+00  4.37191E+00  4.54611E+00  4.91331E+00  5.23927E+00
   5.36564E+00  5.33470E+00  5.17805E+00  5.00107E+00  4.83409E+00  4.67086E+00  4.60113E+00  4.93301E+00  5.26311E+00  5.36351E+00
   5.38717E+00  5.51837E+00  5.79339E+00  6.22954E+00  6.69473E+00  6.99491E+00  7.08388E+00  6.88200E+00  6.45460E+00  5.91364E+00
   5.29674E+00  4.77893E+00  5.30948E+00  7.67524E+00  1.00881E+01  1.17488E+01  1.30724E+01  1.46665E+01  1.69579E+01  2.01083E+01
   2.32367E+01  2.55261E+01  2.66450E+01  2.65103E+01  2.53029E+01  2.30863E+01  1.97425E+01  1.56221E+01  1.17196E+01  8.91475E+00
   7.45411E+00  6.90345E+00  6.35152E+00  4.94918E+00  3.31302E+00  3.24863E+00  5.06839E+00  7.87137E+00  1.03243E+01  1.22394E+01
   1.42203E+01  1.68756E+01  2.03308E+01  2.40731E+01  2.72128E+01  2.91631E+01  2.97764E+01  2.91873E+01  2.76412E+01  2.51497E+01
   2.16708E+01  1.76904E+01  1.40227E+01  1.13409E+01  9.76446E+00  8.79690E+00  7.59438E+00  5.78578E+00  4.46466E+00  4.09929E+00
   4.15878E+00  4.25826E+00  4.21252E+00  3.94787E+00  3.54574E+00  3.18711E+00  2.90040E+00  2.67076E+00  2.49771E+00  2.32100E+00
   2.09988E+00  1.78734E+00  1.39395E+00  1.10292E+00  9.38866E-01  8.92416E-01  8.50813E-01  6.76109E-01  4.06148E-01  1.36873E-01
  -6.12949E-02 -1.80839E-01 -2.64458E-01 -3.65186E-01 -5.03947E-01 -6.80054E-01 -9.32535E-01 -1.28779E+00 -1.63766E+00 -1.98477E+00
  -2.36260E+00 -2.76346E+00 -3.11326E+00 -3.33557E+00 -3.50630E+00 -3.67308E+00 -3.86338E+00 -4.04505E+00 -4.13086E+00 -3.98692E+00
  -3.62609E+00 -3.18567E+00 -2.82471E+00 -2.63221E+00 -2.46069E+00 -2.15635E+00 -1.72031E+00 -1.16162E+00 -5.86059E-01 -2.06263E-01
   7.18359E-02  3.76166E-01  6.49603E-01  7.53144E-01  8.59373E-01  1.15881E+00  1.65437E+00  2.36236E+00  3.11701E+00  3.55803E+00
   3.74081E+00  4.00158E+00  4.11408E+00  3.70559E+00  2.71946E+00  1.45290E+00  3.70873E-01 -2.03180E-01 -5.42251E-01 -6.70137E-01
  -3.99706E-01  3.24423E-01  1.47544E+00  2.84792E+00  4.11114E+00  4.97465E+00  5.40868E+00  5.40287E+00  5.08908E+00  4.69645E+00
   4.25083E+00  3.59551E+00  2.99639E+00  2.99006E+00  3.54120E+00  4.14202E+00  4.69742E+00  5.37877E+00  6.01808E+00  6.59228E+00
   6.99965E+00  7.22239E+00  7.25285E+00  7.39435E+00  7.82486E+00  8.43440E+00  9.00078E+00  9.38521E+00  9.52147E+00  9.46577E+00
   9.35541E+00  9.21372E+00  9.05827E+00  8.96323E+00  9.10682E+00  9.68079E+00  1.06740E+01  1.17739E+01  1.28216E+01  1.40548E+01
   1.68258E+01  2.24253E+01  2.77921E+01  3.15986E+01  3.46982E+01  3.85161E+01  4.37507E+01  4.98766E+01  5.55295E+01  5.94589E+01
   6.10085E+01  6.01197E+01  5.73121E+01  5.27493E+01  4.61442E+01  3.80376E+01  3.01184E+01  2.41068E+01  2.05584E+01  1.87755E+01
   1.70768E+01  1.37970E+01  9.85951E+00  8.06222E+00  7.34549E+00  6.85878E+00  6.46643E+00  6.15170E+00  5.85004E+00  5.54503E+00
   5.26405E+00  5.02260E+00  4.83245E+00  4.70196E+00  4.61865E+00  4.56428E+00  4.54198E+00  4.56028E+00  4.61651E+00  4.70681E+00
   4.82764E+00  4.98020E+00  5.16583E+00  5.37570E+00  5.60235E+00  5.84262E+00  6.08870E+00  6.33373E+00  6.57182E+00  6.79711E+00
   7.00292E+00  7.18296E+00  7.33198E+00  7.44674E+00  7.52532E+00  7.56838E+00  7.57734E+00  7.55586E+00  7.50897E+00  7.44412E+00
   7.37023E+00  7.29816E+00  7.23951E+00  7.20769E+00  7.21818E+00  7.29289E+00  7.47020E+00  7.84033E+00  8.43518E+00  8.82896E+00
   8.94658E+00  9.02934E+00  9.21455E+00  9.45939E+00  9.56332E+00  9.36898E+00  9.18101E+00  9.06079E+00  8.77857E+00  8.32444E+00
   7.83484E+00  7.49609E+00  7.53719E+00  8.11450E+00  9.19051E+00  1.05377E+01  1.18510E+01  1.29259E+01  1.35894E+01  1.38267E+01
   1.39015E+01  1.36982E+01  1.32849E+01  1.28798E+01  1.25981E+01  1.25448E+01  1.25575E+01  1.23169E+01  1.20621E+01  1.20079E+01
   1.21163E+01  1.23658E+01  1.27339E+01  1.31587E+01  1.35245E+01  1.36838E+01  1.35248E+01  1.30133E+01  1.21961E+01  1.12257E+01
   1.01818E+01  9.08715E+00  8.07158E+00  7.22979E+00  6.57794E+00  6.04304E+00  5.51973E+00  5.07070E+00  4.75215E+00  4.51964E+00
   4.34396E+00  4.20842E+00  4.10207E+00  4.01851E+00  3.95385E+00  3.90666E+00  3.87652E+00  3.86428E+00  3.87092E+00  3.89814E+00
   3.94742E+00  4.02073E+00  4.11967E+00  4.24606E+00  4.40104E+00  4.58580E+00  4.80068E+00  5.04587E+00  5.32043E+00  5.62294E+00
   5.95059E+00  6.29987E+00  6.66583E+00  7.04287E+00  7.42394E+00  7.80150E+00  8.16685E+00  8.51135E+00  8.82588E+00  9.10206E+00
   9.33174E+00  9.50815E+00  9.62551E+00  9.68010E+00  9.66972E+00  9.59450E+00  9.45608E+00  9.25833E+00  9.00634E+00  8.70701E+00
   8.36788E+00  7.99750E+00  7.60426E+00  7.19681E+00  6.78300E+00  6.37045E+00  5.96546E+00  5.57369E+00  5.19928E+00  4.84566E+00
   4.51489E+00  4.20848E+00  3.92674E+00  3.66962E+00  3.43615E+00  3.22534E+00  3.03555E+00  2.86540E+00  2.71301E+00  2.57683E+00
   2.45500E+00  2.34612E+00  2.24858E+00  2.16128E+00  2.08281E+00  2.01227E+00  1.94850E+00  1.89089E+00  1.83854E+00  1.79104E+00
   1.74762E+00  1.70798E+00  1.67150E+00  1.63804E+00  1.60713E+00  1.57869E+00  1.55225E+00  1.52779E+00  1.50494E+00  1.48375E+00
   1.46392E+00  1.44548E+00  1.42812E+00  1.41191E+00  1.39661E+00  1.38233E+00  1.36884E+00  1.35622E+00  1.34421E+00  1.33294E+00
   1.32221E+00  1.31219E+00  1.30263E+00  1.29366E+00  1.28504E+00  1.27695E+00  1.26920E+00  1.26196E+00  1.25500E+00  1.24844E+00
   1.24210E+00  1.23617E+00  1.23045E+00  1.22513E+00  1.21996E+00  1.21511E+00  1.21038E+00  1.20599E+00  1.20174E+00  1.19780E+00
   1.19394E+00  1.19033E+00  1.18680E+00  1.18356E+00  1.18042E+00  1.17752E+00  1.17466E+00  1.17201E+00  1.16944E+00  1.16713E+00
   1.16488E+00  1.16284E+00  1.16082E+00  1.15902E+00  1.15731E+00  1.15585E+00  1.15446E+00  1.15328E+00
 NY background values follow
    -3.169E-01   -3.146E-01   -3.122E-01   -3.099E-01   -3.076E-01   -3.052E-01   -3.029E-01   -3.005E-01   -2.982E-01   -2.958E-01
    -2.935E-01   -2.912E-01   -2.888E-01   -2.865E-01   -2.841E-01   -2.818E-01   -2.794E-01   -2.771E-01   -2.747E-01   -2.724E-01
    -2.701E-01   -2.677E-01   -2.654E-01   -2.630E-01   -2.607E-01   -2.583E-01   -2.560E-01   -2.536E-01   -2.513E-01   -2.490E-01
    -2.466E-01   -2.443E-01   -2.419E-01   -2.396E-01   -2.372E-01   -2.349E-01   -2.325E-01   -2.302E-01   -2.279E-01   -2.255E-01
    -2.232E-01   -2.208E-01   -2.185E-01   -2.161E-01   -2.138E-01   -2.115E-01   -2.091E-01   -2.068E-01   -2.044E-01   -2.021E-01
    -1.997E-01   -1.974E-01   -1.950E-01   -1.927E-01   -1.904E-01   -1.880E-01   -1.857E-01   -1.833E-01   -1.810E-01   -1.786E-01
    -1.763E-01   -1.739E-01   -1.716E-01   -1.693E-01   -1.669E-01   -1.646E-01   -1.622E-01   -1.599E-01   -1.575E-01   -1.552E-01
    -1.528E-01   -1.505E-01   -1.482E-01   -1.458E-01   -1.435E-01   -1.411E-01   -1.388E-01   -1.364E-01   -1.341E-01   -1.317E-01
    -1.294E-01   -1.271E-01   -1.247E-01   -1.224E-01   -1.200E-01   -1.177E-01   -1.153E-01   -1.130E-01   -1.106E-01   -1.083E-01
    -1.060E-01   -1.036E-01   -1.013E-01   -9.892E-02   -9.658E-02   -9.423E-02   -9.189E-02   -8.954E-02   -8.720E-02   -8.485E-02
    -8.251E-02   -8.017E-02   -7.782E-02   -7.548E-02   -7.313E-02   -7.079E-02   -6.844E-02   -6.610E-02   -6.375E-02   -6.141E-02
    -5.906E-02   -5.672E-02   -5.437E-02   -5.203E-02   -4.968E-02   -4.734E-02   -4.499E-02   -4.265E-02   -4.030E-02   -3.796E-02
    -3.561E-02   -3.327E-02   -3.092E-02   -2.858E-02   -2.623E-02   -2.389E-02   -2.154E-02   -1.920E-02   -1.685E-02   -1.451E-02
    -1.216E-02   -9.816E-03   -7.471E-03   -5.125E-03   -2.780E-03   -4.346E-04    1.911E-03    4.256E-03    6.602E-03    8.947E-03
     1.129E-02    1.364E-02    1.598E-02    1.833E-02    2.067E-02    2.302E-02    2.537E-02    2.771E-02    3.006E-02    3.240E-02
     3.475E-02    3.709E-02    3.944E-02    4.179E-02    4.413E-02    4.648E-02    4.882E-02    5.117E-02    5.352E-02    5.586E-02
     5.821E-02    6.055E-02    6.290E-02    6.525E-02    6.759E-02    6.994E-02    7.229E-02    7.463E-02    7.698E-02    7.933E-02
     8.167E-02    8.402E-02    8.637E-02    8.871E-02    9.106E-02    9.341E-02    9.575E-02    9.810E-02    1.004E-01    1.028E-01
     1.051E-01    1.075E-01    1.098E-01    1.122E-01    1.145E-01    1.169E-01    1.192E-01    1.216E-01    1.239E-01    1.263E-01
     1.286E-01    1.310E-01    1.333E-01    1.357E-01    1.380E-01    1.404E-01    1.427E-01    1.451E-01    1.474E-01    1.498E-01
     1.521E-01    1.545E-01    1.568E-01    1.592E-01    1.615E-01    1.638E-01    1.662E-01    1.685E-01    1.709E-01    1.732E-01
     1.756E-01    1.779E-01    1.803E-01    1.826E-01    1.850E-01    1.873E-01    1.897E-01    1.920E-01    1.944E-01    1.967E-01
     1.991E-01    2.014E-01    2.038E-01    2.061E-01    2.085E-01    2.108E-01    2.132E-01    2.155E-01    2.179E-01    2.202E-01
     2.226E-01    2.249E-01    2.273E-01    2.296E-01    2.320E-01    2.343E-01    2.367E-01    2.390E-01    2.414E-01    2.437E-01
     2.461E-01    2.484E-01    2.508E-01    2.531E-01    2.555E-01    2.578E-01    2.602E-01    2.625E-01    2.649E-01    2.672E-01
     2.696E-01    2.719E-01    2.743E-01    2.766E-01    2.790E-01    2.813E-01    2.837E-01    2.860E-01    2.884E-01    2.907E-01
     2.931E-01    2.954E-01    2.978E-01    3.002E-01    3.025E-01    3.049E-01    3.072E-01    3.096E-01    3.119E-01    3.143E-01
     3.166E-01    3.190E-01    3.213E-01    3.237E-01    3.260E-01    3.284E-01    3.307E-01    3.331E-01    3.354E-01    3.378E-01
     3.401E-01    3.425E-01    3.448E-01    3.472E-01    3.495E-01    3.519E-01    3.542E-01    3.566E-01    3.589E-01    3.613E-01
     3.636E-01    3.660E-01    3.683E-01    3.707E-01    3.730E-01    3.754E-01    3.777E-01    3.801E-01    3.825E-01    3.848E-01
     3.872E-01    3.895E-01    3.919E-01    3.942E-01    3.966E-01    3.989E-01    4.013E-01    4.036E-01    4.060E-01    4.083E-01
     4.107E-01    4.130E-01    4.154E-01    4.177E-01    4.201E-01    4.224E-01    4.248E-01    4.271E-01    4.295E-01    4.319E-01
     4.342E-01    4.366E-01    4.389E-01    4.413E-01    4.436E-01    4.460E-01    4.483E-01    4.507E-01    4.530E-01    4.554E-01
     4.577E-01    4.601E-01    4.624E-01    4.648E-01    4.671E-01    4.695E-01    4.718E-01    4.742E-01    4.766E-01    4.789E-01
     4.813E-01    4.836E-01    4.860E-01    4.883E-01    4.907E-01    4.930E-01    4.954E-01    4.977E-01    5.001E-01    5.024E-01
     5.048E-01    5.071E-01    5.095E-01    5.118E-01    5.142E-01    5.166E-01    5.189E-01    5.213E-01    5.236E-01    5.260E-01
     5.283E-01    5.307E-01    5.330E-01    5.354E-01    5.377E-01    5.401E-01    5.424E-01    5.448E-01    5.472E-01    5.495E-01
     5.519E-01    5.542E-01    5.566E-01    5.589E-01    5.613E-01    5.636E-01    5.660E-01    5.683E-01    5.707E-01    5.730E-01
     5.754E-01    5.778E-01    5.801E-01    5.825E-01    5.848E-01    5.872E-01    5.895E-01    5.919E-01    5.942E-01    5.966E-01
     5.989E-01    6.013E-01    6.036E-01    6.060E-01    6.084E-01    6.107E-01    6.131E-01    6.154E-01    6.178E-01    6.201E-01
     6.225E-01    6.248E-01    6.272E-01    6.295E-01    6.319E-01    6.343E-01    6.366E-01    6.390E-01    6.413E-01    6.437E-01
     6.460E-01    6.484E-01    6.507E-01    6.531E-01    6.554E-01    6.578E-01    6.602E-01    6.625E-01    6.649E-01    6.672E-01
     6.696E-01    6.719E-01    6.743E-01    6.766E-01    6.790E-01    6.814E-01    6.837E-01    6.861E-01    6.884E-01    6.908E-01
     6.931E-01    6.955E-01    6.978E-01    7.002E-01    7.025E-01    7.049E-01    7.073E-01    7.096E-01    7.120E-01    7.143E-01
     7.167E-01    7.190E-01    7.214E-01    7.237E-01    7.261E-01    7.285E-01    7.308E-01    7.332E-01    7.355E-01    7.379E-01
     7.402E-01    7.426E-01    7.449E-01    7.473E-01    7.497E-01    7.520E-01    7.544E-01    7.567E-01    7.591E-01    7.614E-01
     7.638E-01    7.661E-01    7.685E-01    7.709E-01    7.732E-01    7.756E-01    7.779E-01    7.803E-01    7.826E-01    7.850E-01
     7.873E-01    7.897E-01    7.921E-01    7.944E-01    7.968E-01    7.991E-01    8.015E-01    8.038E-01    8.062E-01    8.085E-01
     8.109E-01    8.133E-01    8.156E-01    8.180E-01    8.203E-01    8.227E-01    8.250E-01    8.274E-01    8.297E-01    8.321E-01
     8.345E-01    8.368E-01    8.392E-01    8.415E-01    8.439E-01    8.462E-01    8.486E-01    8.509E-01
 Ala      Conc. = 5.38E+02
