 LCModel (Version 6.3-1L) Copyright: S.W. Provencher.          Ref.: Magn. Reson. Med. 30:672-679 (1993).                
 Slice#1 Row#2 Col#5  PD_05_press_1_raw_act
 36 lines in following concentration table = NCONC+1
    Conc.  %SD /Cr+PCr  Metabolite                                         
   23.717 950% 9.1E-02 Ala                                                 
   35.907 155%   0.138 Asp                                                 
    0.000 999%   0.000 Cr                                                  
  259.637  16%   1.000 PCr                                                 
   31.086 110%   0.120 GABA                                                
   37.951  89%   0.146 Glc                                                 
   37.767 999%   0.145 Gln                                                 
 1.10E+03  43%   4.230 Glu                                                 
    0.000 999%   0.000 GPC                                                 
  100.124  16%   0.386 PCh                                                 
  144.223  54%   0.555 GSH                                                 
  262.919  68%   1.013 Ins                                                 
  786.243  36%   3.028 Lac                                                 
  556.401   8%   2.143 NAA                                                 
    0.000 999%   0.000 NAAG                                                
   19.121  54% 7.4E-02 Scyllo                                              
   73.791  73%   0.284 Tau                                                 
   16.130 361% 6.2E-02 -CrCH2                                              
  100.124  16%   0.386 GPC+PCh                                             
  556.401   8%   2.143 NAA+NAAG                                            
  259.637  16%   1.000 Cr+PCr                                              
 1.14E+03  66%   4.375 Glu+Gln                                             
 1.62E+03  17%   6.256 Lip13a                                              
    0.000 999%   0.000 Lip13b                                              
  412.087  22%   1.587 Lip09                                               
   16.426 288% 6.3E-02 MM09                                                
  217.060  37%   0.836 Lip20                                               
    0.000 999%   0.000 MM20                                                
    3.936 624% 1.5E-02 MM12                                                
   97.639  92%   0.376 MM14                                                
   48.670 112%   0.187 MM17                                                
 1.62E+03  17%   6.256 Lip13a+Lip13b                                       
 1.73E+03  16%   6.647 MM14+Lip13a+Lip13b+MM12                             
  428.513  19%   1.650 MM09+Lip09                                          
  217.060  37%   0.836 MM20+Lip20                                          
   6 lines in following misc. output table
  FWHM = 0.122 ppm    S/N =   3                                            
  Data shift = 0.008 ppm                                                   
  Ph: -57 deg     -22.1 deg/ppm                                            
  alphaB,S = 8.5E+01,   1.0E+02                                            
   14 spline knots.   Ns = 7(2)                                            
   2 inflections.     1 extrema                                            
  498 points on ppm-axis = NY
      4.000000     3.992357     3.984714     3.977070     3.969427     3.961784     3.954141     3.946497     3.938854     3.931211
      3.923568     3.915925     3.908281     3.900638     3.892995     3.885352     3.877708     3.870065     3.862422     3.854779
      3.847136     3.839492     3.831849     3.824206     3.816563     3.808919     3.801276     3.793633     3.785990     3.778347
      3.770703     3.763060     3.755417     3.747774     3.740130     3.732487     3.724844     3.717201     3.709558     3.701914
      3.694271     3.686628     3.678985     3.671341     3.663698     3.656055     3.648412     3.640769     3.633125     3.625482
      3.617839     3.610196     3.602552     3.594909     3.587266     3.579623     3.571980     3.564336     3.556693     3.549050
      3.541407     3.533763     3.526120     3.518477     3.510834     3.503191     3.495547     3.487904     3.480261     3.472618
      3.464974     3.457331     3.449688     3.442045     3.434402     3.426758     3.419115     3.411472     3.403829     3.396185
      3.388542     3.380899     3.373256     3.365613     3.357969     3.350326     3.342683     3.335040     3.327396     3.319753
      3.312110     3.304467     3.296824     3.289180     3.281537     3.273894     3.266251     3.258607     3.250964     3.243321
      3.235678     3.228034     3.220391     3.212748     3.205105     3.197462     3.189818     3.182175     3.174532     3.166889
      3.159245     3.151602     3.143959     3.136316     3.128673     3.121029     3.113386     3.105743     3.098100     3.090456
      3.082813     3.075170     3.067527     3.059884     3.052240     3.044597     3.036954     3.029311     3.021667     3.014024
      3.006381     2.998738     2.991095     2.983451     2.975808     2.968165     2.960522     2.952878     2.945235     2.937592
      2.929949     2.922306     2.914662     2.907019     2.899376     2.891733     2.884089     2.876446     2.868803     2.861160
      2.853517     2.845873     2.838230     2.830587     2.822944     2.815300     2.807657     2.800014     2.792371     2.784728
      2.777084     2.769441     2.761798     2.754155     2.746511     2.738868     2.731225     2.723582     2.715939     2.708295
      2.700652     2.693009     2.685366     2.677722     2.670079     2.662436     2.654793     2.647150     2.639506     2.631863
      2.624220     2.616577     2.608933     2.601290     2.593647     2.586004     2.578361     2.570717     2.563074     2.555431
      2.547788     2.540144     2.532501     2.524858     2.517215     2.509572     2.501928     2.494285     2.486642     2.478999
      2.471355     2.463712     2.456069     2.448426     2.440783     2.433139     2.425496     2.417853     2.410210     2.402566
      2.394923     2.387280     2.379637     2.371994     2.364350     2.356707     2.349064     2.341421     2.333777     2.326134
      2.318491     2.310848     2.303205     2.295561     2.287918     2.280275     2.272632     2.264988     2.257345     2.249702
      2.242059     2.234416     2.226772     2.219129     2.211486     2.203843     2.196199     2.188556     2.180913     2.173270
      2.165627     2.157983     2.150340     2.142697     2.135054     2.127410     2.119767     2.112124     2.104481     2.096838
      2.089194     2.081551     2.073908     2.066265     2.058621     2.050978     2.043335     2.035692     2.028049     2.020405
      2.012762     2.005119     1.997476     1.989833     1.982190     1.974546     1.966903     1.959260     1.951617     1.943974
      1.936331     1.928688     1.921045     1.913402     1.905759     1.898115     1.890472     1.882829     1.875186     1.867543
      1.859900     1.852257     1.844614     1.836971     1.829327     1.821684     1.814041     1.806398     1.798755     1.791112
      1.783469     1.775826     1.768183     1.760540     1.752896     1.745253     1.737610     1.729967     1.722324     1.714681
      1.707038     1.699395     1.691752     1.684108     1.676465     1.668822     1.661179     1.653536     1.645893     1.638250
      1.630607     1.622964     1.615321     1.607677     1.600034     1.592391     1.584748     1.577105     1.569462     1.561819
      1.554176     1.546533     1.538890     1.531246     1.523603     1.515960     1.508317     1.500674     1.493031     1.485388
      1.477745     1.470102     1.462458     1.454815     1.447172     1.439529     1.431886     1.424243     1.416600     1.408957
      1.401314     1.393671     1.386027     1.378384     1.370741     1.363098     1.355455     1.347812     1.340169     1.332526
      1.324883     1.317240     1.309596     1.301953     1.294310     1.286667     1.279024     1.271381     1.263738     1.256095
      1.248452     1.240808     1.233165     1.225522     1.217879     1.210236     1.202593     1.194950     1.187307     1.179664
      1.172021     1.164377     1.156734     1.149091     1.141448     1.133805     1.126162     1.118519     1.110876     1.103233
      1.095590     1.087946     1.080303     1.072660     1.065017     1.057374     1.049731     1.042088     1.034445     1.026802
      1.019158     1.011515     1.003872     0.996229     0.988586     0.980943     0.973300     0.965657     0.958014     0.950371
      0.942727     0.935084     0.927441     0.919798     0.912155     0.904512     0.896869     0.889226     0.881583     0.873940
      0.866296     0.858653     0.851010     0.843367     0.835724     0.828081     0.820438     0.812795     0.805152     0.797508
      0.789865     0.782222     0.774579     0.766936     0.759293     0.751650     0.744007     0.736364     0.728721     0.721077
      0.713434     0.705791     0.698148     0.690505     0.682862     0.675219     0.667576     0.659933     0.652290     0.644646
      0.637003     0.629360     0.621717     0.614074     0.606431     0.598788     0.591145     0.583502     0.575858     0.568215
      0.560572     0.552929     0.545286     0.537643     0.530000     0.522357     0.514714     0.507071     0.499427     0.491784
      0.484141     0.476498     0.468855     0.461212     0.453569     0.445925     0.438282     0.430639     0.422996     0.415353
      0.407710     0.400067     0.392424     0.384780     0.377137     0.369494     0.361851     0.354208     0.346565     0.338922
      0.331278     0.323635     0.315992     0.308349     0.300706     0.293063     0.285420     0.277777     0.270133     0.262490
      0.254847     0.247204     0.239561     0.231918     0.224275     0.216631     0.208988     0.201345
 NY phased data points follow
   3.26582E+00  3.25665E+00  2.74053E+00  1.65096E+00  3.47515E+00  2.08399E+00  3.46788E+00  2.20915E+00  2.96434E+00  5.26246E+00
   4.87619E+00 -1.55321E-01 -1.78635E+00  9.83103E-01 -1.16464E+00  1.70434E+00 -9.20960E-01  3.30672E+00  2.11455E+00  1.75861E+00
   4.22817E+00 -5.38275E-02  1.57822E-01  4.41901E+00  5.41620E+00  2.37632E+00  4.22224E+00 -8.60704E-01  1.21501E+00  2.19227E+00
   2.75722E+00  4.61131E+00  5.48820E-01 -7.86780E-01  1.73863E+00  1.52858E+00  1.93921E+00  1.98387E-01 -1.38703E+00  3.35168E-01
   4.13786E+00  2.80139E+00  3.43217E+00  2.40494E+00  2.34855E-01  3.04340E+00  2.20052E+00  1.45929E+00 -2.80161E-01 -4.77745E-02
   2.83881E+00  1.97089E-01 -1.20313E-01  1.22887E+00  1.27068E-01 -1.96367E+00 -1.15246E+00 -6.16376E-01 -5.67571E-01  3.21301E-01
  -2.22028E-01 -8.34086E-01 -1.76747E+00 -2.04294E+00  3.24308E+00  1.32305E+00 -3.14005E-01  3.09483E+00  9.84686E-01  2.10180E+00
  -6.93082E-01  1.84303E+00  1.74431E+00  1.19786E+00 -1.39389E+00  4.27041E-02  2.85699E+00  2.22762E+00  2.13981E+00  1.64328E+00
  -4.58848E-01  1.41439E+00 -6.69901E-02 -5.17504E-01  2.24564E+00  3.07616E+00  2.65948E+00  5.61566E-01 -1.55442E+00  3.77141E+00
  -1.49845E+00  7.60456E-01  8.15722E-01  4.18129E+00  2.32244E+00  1.28495E+00  1.85567E+00  2.92456E+00  1.37451E+00  2.84476E+00
   4.04419E+00  6.47928E+00  3.81406E+00  9.04436E+00  6.03068E+00  2.53230E+00  3.88035E+00  2.06714E+00  2.46636E+00  2.80138E+00
   2.65544E+00  1.21619E+00  2.35859E+00  8.44501E-01  4.49589E+00 -9.43491E-01  7.40724E-01  2.02337E+00  4.26192E+00 -2.40218E-01
   3.56095E+00  6.71762E-01  7.81015E-01  4.52904E+00  4.07792E+00  4.79634E+00  4.17518E+00  6.44427E+00  6.15034E+00  4.96634E+00
   2.32814E+00  5.35434E+00  1.73200E+00  6.03792E-01  2.48180E+00 -2.55676E-01  1.10287E+00  5.02844E-01 -6.95449E-01  3.79169E+00
   3.14346E+00  5.04216E+00  2.09267E+00  1.59392E+00  1.00229E+00  7.56689E-01 -1.18904E+00  3.86477E+00 -1.61106E+00  3.52790E+00
   1.56177E+00  1.87231E+00 -3.97495E-01  1.35480E+00 -7.65467E-01 -2.11880E+00  1.73007E-01 -5.30447E-01  1.77740E+00  1.48218E+00
   3.49580E+00 -1.09496E+00 -3.88661E-02  2.27302E+00  2.09002E+00  1.71683E-01 -1.87361E+00 -9.53411E-01 -2.16752E+00 -9.12195E-01
  -2.71570E+00 -6.78789E-01 -1.37158E+00 -1.75384E+00 -2.99552E+00 -1.54500E+00 -1.56924E+00 -3.13415E+00 -1.45590E+00 -4.09135E+00
  -3.54606E+00  1.31212E+00 -2.59943E+00 -3.07488E-01 -5.14864E-01 -4.53842E+00 -2.63991E-01  1.82004E+00  3.29253E-01 -9.56215E-01
  -8.86959E-02  6.55295E-01 -1.28132E+00 -9.33646E-02 -2.81273E+00  4.62492E-01  8.19431E-01 -3.92449E-01 -1.22231E+00 -2.99414E+00
   4.62297E-02  3.39976E-01 -2.59604E+00  2.97448E-02  2.41587E+00  1.07773E+00 -1.12740E-02 -4.52324E-01  3.16028E+00  1.58070E+00
   2.46675E+00  1.15720E+00  1.91383E+00  2.36836E+00  9.42359E-02  5.38592E+00  1.00606E+00  5.92350E-01  1.94893E+00  9.28840E-01
  -5.38139E-01 -5.86762E-01 -2.06223E+00 -1.75765E+00  1.61783E+00 -9.11868E-01 -1.53840E+00  9.11280E-02 -3.50070E+00 -1.82801E+00
   2.76208E+00  1.97922E+00  1.49158E+00 -1.54538E-01 -1.58215E+00 -1.18301E+00 -6.22026E-01  1.37898E+00 -1.30323E+00  3.28017E+00
  -2.27138E-01  7.48379E-02  4.09685E-02  2.16201E+00  1.78015E+00  1.64798E+00 -2.44091E-01  1.01326E+00  3.53339E+00  1.20288E+00
   4.42306E+00  2.56629E+00  3.77740E+00  4.79686E+00  5.46115E+00  4.74166E+00  4.97614E+00  7.51869E+00  9.20021E+00  1.13035E+01
   1.45339E+01  1.04754E+01  9.87620E+00  7.12154E+00  8.60596E+00  1.01878E+01  5.61490E+00  8.15723E+00  6.75912E+00  5.88169E+00
   4.59977E+00  6.22282E+00  4.17157E+00  2.06683E+00  4.09568E+00 -9.13886E-01  5.02693E+00 -1.47599E+00  3.46175E-01  1.72535E+00
   1.10984E+00  2.18085E+00  2.29007E+00 -1.15475E+00  1.97382E-01  2.81392E-01 -1.40608E-01  4.29258E-01  4.97290E-01  3.01598E+00
   4.41388E+00  2.62694E+00 -1.66153E-02  1.35768E+00  1.72860E+00  1.58309E+00 -3.85398E-01  1.77637E+00  4.65983E+00  1.86145E+00
   1.01453E+00  2.83529E+00  4.13029E+00  2.36531E+00  1.24841E+00  2.16725E+00  5.40079E-01 -9.05060E-01  2.23090E+00  4.30391E+00
   3.90045E+00 -1.71574E+00 -1.60872E+00  8.45273E-02  3.50545E+00  4.50359E-01  1.88591E+00  2.51549E+00  1.46213E+00  1.71742E+00
   1.92193E+00  1.89656E+00  1.77121E-01  1.56531E+00  4.50848E+00  1.94252E+00  4.25476E+00  2.13803E+00  9.39190E-01  4.50526E+00
   2.88319E+00  3.76331E+00  6.81982E+00  6.75906E+00  7.38112E+00  6.65061E+00  7.99907E+00  7.25126E+00  4.20130E+00  5.06994E+00
   8.53795E+00  6.60016E+00  8.47733E+00  7.21552E+00  7.70146E+00  5.46361E+00  7.55374E+00  6.47348E+00  6.34325E+00  4.93434E+00
   4.41893E+00  8.83161E+00  7.84820E+00  7.07397E+00  9.32365E+00  3.21935E+00  7.33335E+00  2.26646E+00  4.54973E+00  5.70805E+00
   5.93983E+00  8.37178E+00  3.30930E+00  3.78849E+00  8.63683E+00  7.38418E+00  4.09170E+00  5.18425E+00  2.11197E+00  4.00270E+00
   5.99383E+00  4.65847E+00  3.04818E+00  2.64216E+00  6.50895E+00  3.82087E+00  1.41964E+00  5.81753E+00  4.56057E+00  5.67980E+00
   7.32612E-01  2.54134E+00  1.01306E+00  5.75434E+00  5.53079E+00  2.05515E+00  3.84518E+00  6.22386E+00  6.46852E+00  3.06849E+00
   1.72913E+00  5.44515E+00  2.67059E+00  4.71174E+00 -1.07842E+00  4.74022E+00  4.36123E+00 -7.59426E-01  9.09701E-01  3.51663E+00
   1.67209E+00  3.69012E+00 -5.21796E-01  4.11177E+00  4.40297E-01  4.01638E+00  2.74589E+00  3.02729E+00  2.25881E+00  1.99826E+00
   2.75527E+00  3.63772E-01  4.18131E+00 -8.82973E-01  2.57046E+00  2.59317E+00  2.18386E+00  1.73460E+00  3.69260E+00  2.67747E+00
   2.28523E+00 -2.74333E+00 -8.91166E-01  1.97971E-01 -1.73594E-01 -4.18082E+00  1.07400E-01 -2.01868E+00  1.70175E+00  2.65762E+00
  -4.08177E-01 -1.27055E+00  9.06431E-01 -1.47770E+00  9.87838E-01 -2.53913E+00 -3.23843E+00 -1.22103E+00 -1.27150E+00 -3.22471E-01
   1.14751E-01  9.07732E-01 -1.43790E+00 -9.67702E-01 -3.48770E+00  1.95953E+00 -2.25560E+00 -1.47148E+00  2.49105E+00 -2.52920E+00
  -2.38449E+00  1.26775E-01 -4.84303E-01  9.24668E-01  2.41203E+00  9.02353E-01  2.20860E+00  1.34439E+00  3.40167E-01  1.01627E+00
   2.93717E+00  1.99064E-01 -1.82973E+00  1.23424E+00 -6.13164E-02 -1.87805E+00  6.94852E-01 -8.73520E-01  1.91570E-01  9.82400E-01
  -1.99268E+00 -8.27935E-01  7.95449E-01 -8.93424E-01  2.88719E+00 -2.93851E-02  4.50793E+00 -1.89763E+00 -3.35697E-01  1.78023E+00
   1.46169E+00 -6.13690E-01 -1.95653E+00 -4.38494E-01 -1.42750E+00  1.33149E+00  1.82297E+00 -6.81120E-01 -1.14631E-01  2.22995E+00
  -3.17338E+00 -5.42234E-02 -1.02233E+00 -8.71416E-01 -1.89528E+00  2.15614E-01  1.81365E+00  1.74994E+00
 NY points of the fit to the data follow
   8.87942E-01  1.30406E+00  1.25470E+00  1.73247E+00  1.61136E+00  2.15284E+00  1.92297E+00  2.42082E+00  2.04983E+00  2.46912E+00
   2.06566E+00  2.36748E+00  1.97942E+00  2.25278E+00  1.89486E+00  2.09852E+00  1.77740E+00  1.87989E+00  1.66719E+00  1.68353E+00
   1.63617E+00  1.60682E+00  1.70929E+00  1.61785E+00  1.85737E+00  1.63169E+00  2.05557E+00  1.86072E+00  2.34696E+00  2.11818E+00
   2.53968E+00  2.31499E+00  2.55535E+00  2.32311E+00  2.42354E+00  2.17992E+00  2.16219E+00  1.98538E+00  1.91938E+00  1.85791E+00
   1.74619E+00  1.75448E+00  1.60268E+00  1.62545E+00  1.45806E+00  1.52518E+00  1.29898E+00  1.35314E+00  1.19080E+00  1.16534E+00
   1.03284E+00  1.01384E+00  9.80482E-01  9.84752E-01  9.63164E-01  9.43737E-01  9.13843E-01  8.22812E-01  7.94017E-01  7.20831E-01
   7.00151E-01  6.33525E-01  6.14604E-01  5.59357E-01  5.55042E-01  5.53215E-01  5.92303E-01  6.02328E-01  6.36866E-01  6.27860E-01
   6.63133E-01  6.44800E-01  6.87951E-01  6.60002E-01  7.01101E-01  6.52661E-01  6.83797E-01  6.29823E-01  6.66507E-01  6.18555E-01
   6.67800E-01  6.10608E-01  6.52265E-01  5.76268E-01  5.92492E-01  5.05851E-01  4.86421E-01  4.11594E-01  4.00404E-01  4.92140E-01
   5.53499E-01  8.25387E-01  9.18909E-01  1.34543E+00  1.45556E+00  1.99274E+00  2.10810E+00  2.78116E+00  2.89036E+00  3.63862E+00
   3.69290E+00  4.31836E+00  4.23688E+00  4.54804E+00  4.34394E+00  4.33624E+00  4.04959E+00  3.94049E+00  3.62504E+00  3.39949E+00
   3.07102E+00  2.75826E+00  2.49751E+00  2.25123E+00  2.05989E+00  1.98535E+00  1.82533E+00  1.95559E+00  1.77364E+00  2.10450E+00
   1.97736E+00  2.82929E+00  2.66311E+00  3.70835E+00  3.31979E+00  4.37394E+00  3.70514E+00  4.57574E+00  3.71654E+00  4.33986E+00
   3.48192E+00  3.96337E+00  3.12008E+00  3.42616E+00  2.63736E+00  2.79468E+00  2.11362E+00  2.15519E+00  1.61981E+00  1.56288E+00
   1.16388E+00  1.00993E+00  7.23306E-01  5.02463E-01  4.59344E-01  4.19880E-01  4.09991E-01  3.74891E-01  3.64970E-01  3.21900E-01
   3.19973E-01  2.92003E-01  2.91597E-01  2.45659E-01  2.30810E-01  1.62703E-01  1.29284E-01  6.10400E-02  2.51059E-02 -2.01023E-02
  -5.49404E-02 -8.34846E-02 -1.35592E-01 -1.55995E-01 -2.25340E-01 -2.58802E-01 -3.34914E-01 -3.84667E-01 -4.53397E-01 -5.12708E-01
  -5.74792E-01 -6.49109E-01 -6.98562E-01 -7.93771E-01 -8.06831E-01 -9.11002E-01 -8.70295E-01 -9.65473E-01 -8.81981E-01 -9.79199E-01
  -8.66490E-01 -9.43087E-01 -7.85815E-01 -8.22498E-01 -6.49359E-01 -6.47728E-01 -4.68918E-01 -4.19632E-01 -2.61559E-01 -1.80960E-01
  -6.16982E-02  3.10618E-02  1.14954E-01  2.28567E-01  2.60688E-01  4.15194E-01  4.09143E-01  5.82195E-01  5.26233E-01  6.64449E-01
   5.83603E-01  7.09403E-01  6.42579E-01  8.27567E-01  7.07713E-01  9.48403E-01  7.36786E-01  1.04403E+00  7.28927E-01  1.06179E+00
   6.72270E-01  1.10491E+00  6.09668E-01  1.15601E+00  4.77283E-01  9.97953E-01  1.04214E-01  4.69637E-01 -4.81846E-01 -2.13557E-01
  -9.67736E-01 -6.04312E-01 -1.06139E+00 -5.86510E-01 -7.61690E-01 -2.98135E-01 -3.59114E-01 -5.10294E-02 -6.86821E-02  1.05288E-01
   1.50325E-01  2.37039E-01  3.91022E-01  4.60389E-01  7.70346E-01  8.78597E-01  1.10220E+00  1.12541E+00  1.22956E+00  1.20061E+00
   1.16181E+00  1.05947E+00  9.88381E-01  1.01836E+00  9.93559E-01  1.11241E+00  1.36478E+00  1.63353E+00  2.12806E+00  2.56161E+00
   3.22817E+00  3.83477E+00  4.60354E+00  5.36608E+00  6.24633E+00  7.14748E+00  7.97503E+00  8.89331E+00  9.31577E+00  1.00473E+01
   9.76841E+00  1.01651E+01  9.27345E+00  9.44138E+00  8.46108E+00  8.50757E+00  7.41324E+00  7.33677E+00  6.18008E+00  5.96642E+00
   4.79706E+00  4.51960E+00  3.50461E+00  3.21790E+00  2.37652E+00  2.08183E+00  1.36958E+00  1.12844E+00  1.04381E+00  1.00014E+00
   9.77333E-01  9.54989E-01  9.65490E-01  9.62858E-01  9.63847E-01  9.67546E-01  9.72347E-01  9.75473E-01  9.78554E-01  9.82481E-01
   9.80349E-01  9.84925E-01  9.94804E-01  1.01249E+00  1.03259E+00  1.05816E+00  1.08366E+00  1.11405E+00  1.14219E+00  1.16997E+00
   1.19800E+00  1.22566E+00  1.25357E+00  1.28155E+00  1.31008E+00  1.33866E+00  1.36784E+00  1.39734E+00  1.42876E+00  1.46126E+00
   1.49686E+00  1.53531E+00  1.57914E+00  1.62903E+00  1.68035E+00  1.74170E+00  1.80022E+00  1.87303E+00  1.93943E+00  2.02398E+00
   2.09936E+00  2.20203E+00  2.29047E+00  2.41201E+00  2.51561E+00  2.65409E+00  2.77921E+00  2.93786E+00  3.09841E+00  3.29390E+00
   3.51346E+00  3.77686E+00  4.10256E+00  4.52815E+00  4.93193E+00  5.35754E+00  5.78463E+00  6.06037E+00  6.47211E+00  6.49584E+00
   6.87190E+00  6.76650E+00  7.18393E+00  6.85504E+00  7.30193E+00  6.57162E+00  7.02588E+00  5.89530E+00  6.43519E+00  5.29475E+00
   6.09984E+00  5.31652E+00  6.37458E+00  5.71263E+00  6.88053E+00  6.13785E+00  7.17338E+00  6.29914E+00  7.06835E+00  6.32133E+00
   6.93032E+00  6.28675E+00  6.71529E+00  6.16802E+00  6.48607E+00  6.22031E+00  6.28755E+00  5.84439E+00  5.70843E+00  5.20047E+00
   4.92470E+00  4.33514E+00  3.92143E+00  3.62769E+00  3.39190E+00  3.19460E+00  3.02606E+00  2.88239E+00  2.75996E+00  2.65779E+00
   2.57375E+00  2.50764E+00  2.45778E+00  2.42419E+00  2.40532E+00  2.40117E+00  2.41003E+00  2.43165E+00  2.46405E+00  2.50664E+00
   2.55706E+00  2.61433E+00  2.67566E+00  2.73966E+00  2.80320E+00  2.86466E+00  2.92079E+00  2.96996E+00  3.00905E+00  3.03675E+00
   3.05043E+00  3.04943E+00  3.03193E+00  2.99814E+00  2.94718E+00  2.88026E+00  2.79747E+00  2.70090E+00  2.59144E+00  2.47181E+00
   2.34336E+00  2.20912E+00  2.07055E+00  1.93065E+00  1.79064E+00  1.65315E+00  1.51899E+00  1.39026E+00  1.26723E+00  1.15144E+00
   1.04264E+00  9.41862E-01  8.48397E-01  7.62926E-01  6.84430E-01  6.13347E-01  5.48477E-01  4.90133E-01  4.37052E-01  3.89527E-01
   3.46302E-01  3.07696E-01  2.72498E-01  2.41085E-01  2.12317E-01  1.86648E-01  1.63004E-01  1.41897E-01  1.22315E-01  1.04826E-01
   8.84772E-02  7.38835E-02  6.01310E-02  4.78639E-02  3.62014E-02  2.58177E-02  1.58630E-02  7.02986E-03 -1.51586E-03 -9.07110E-03
  -1.64515E-02 -2.29399E-02 -2.93357E-02 -3.49177E-02 -4.04802E-02 -4.52976E-02 -5.01527E-02 -5.43119E-02 -5.85513E-02 -6.21390E-02
  -6.58487E-02 -6.89439E-02 -7.21907E-02 -7.48482E-02 -7.76815E-02 -7.99516E-02 -8.24231E-02 -8.43521E-02 -8.64978E-02 -8.81136E-02
  -8.99612E-02 -9.12954E-02 -9.28765E-02 -9.39542E-02 -9.52856E-02 -9.61200E-02 -9.72175E-02 -9.78291E-02 -9.87106E-02 -9.91095E-02
  -9.97790E-02 -9.99690E-02 -1.00434E-01 -1.00425E-01 -1.00690E-01 -1.00477E-01 -1.00533E-01 -1.00110E-01 -9.99546E-02 -9.93155E-02
  -9.89332E-02 -9.80544E-02 -9.74178E-02 -9.62711E-02 -9.53491E-02 -9.38930E-02 -9.26285E-02 -9.07905E-02
 NY background values follow
    -3.114E-01   -3.108E-01   -3.101E-01   -3.094E-01   -3.088E-01   -3.081E-01   -3.075E-01   -3.068E-01   -3.061E-01   -3.055E-01
    -3.048E-01   -3.042E-01   -3.035E-01   -3.028E-01   -3.022E-01   -3.015E-01   -3.008E-01   -3.002E-01   -2.995E-01   -2.988E-01
    -2.982E-01   -2.975E-01   -2.969E-01   -2.962E-01   -2.955E-01   -2.949E-01   -2.942E-01   -2.935E-01   -2.929E-01   -2.922E-01
    -2.915E-01   -2.908E-01   -2.902E-01   -2.895E-01   -2.888E-01   -2.882E-01   -2.875E-01   -2.868E-01   -2.862E-01   -2.855E-01
    -2.848E-01   -2.842E-01   -2.835E-01   -2.828E-01   -2.821E-01   -2.815E-01   -2.808E-01   -2.801E-01   -2.794E-01   -2.788E-01
    -2.781E-01   -2.774E-01   -2.768E-01   -2.761E-01   -2.754E-01   -2.747E-01   -2.741E-01   -2.734E-01   -2.727E-01   -2.720E-01
    -2.714E-01   -2.707E-01   -2.700E-01   -2.693E-01   -2.686E-01   -2.680E-01   -2.673E-01   -2.666E-01   -2.659E-01   -2.653E-01
    -2.646E-01   -2.639E-01   -2.632E-01   -2.625E-01   -2.619E-01   -2.612E-01   -2.605E-01   -2.598E-01   -2.591E-01   -2.585E-01
    -2.578E-01   -2.571E-01   -2.564E-01   -2.557E-01   -2.551E-01   -2.544E-01   -2.537E-01   -2.530E-01   -2.523E-01   -2.516E-01
    -2.510E-01   -2.503E-01   -2.496E-01   -2.489E-01   -2.482E-01   -2.475E-01   -2.469E-01   -2.462E-01   -2.455E-01   -2.448E-01
    -2.441E-01   -2.434E-01   -2.427E-01   -2.421E-01   -2.414E-01   -2.407E-01   -2.400E-01   -2.393E-01   -2.386E-01   -2.379E-01
    -2.373E-01   -2.366E-01   -2.359E-01   -2.352E-01   -2.345E-01   -2.338E-01   -2.331E-01   -2.324E-01   -2.317E-01   -2.311E-01
    -2.304E-01   -2.297E-01   -2.290E-01   -2.283E-01   -2.276E-01   -2.269E-01   -2.262E-01   -2.255E-01   -2.248E-01   -2.242E-01
    -2.235E-01   -2.228E-01   -2.221E-01   -2.214E-01   -2.207E-01   -2.200E-01   -2.193E-01   -2.186E-01   -2.179E-01   -2.172E-01
    -2.165E-01   -2.159E-01   -2.152E-01   -2.145E-01   -2.138E-01   -2.131E-01   -2.124E-01   -2.117E-01   -2.110E-01   -2.103E-01
    -2.096E-01   -2.089E-01   -2.082E-01   -2.075E-01   -2.068E-01   -2.061E-01   -2.054E-01   -2.047E-01   -2.040E-01   -2.033E-01
    -2.027E-01   -2.020E-01   -2.013E-01   -2.006E-01   -1.999E-01   -1.992E-01   -1.985E-01   -1.978E-01   -1.971E-01   -1.964E-01
    -1.957E-01   -1.950E-01   -1.943E-01   -1.936E-01   -1.929E-01   -1.922E-01   -1.915E-01   -1.908E-01   -1.901E-01   -1.894E-01
    -1.887E-01   -1.880E-01   -1.873E-01   -1.866E-01   -1.859E-01   -1.852E-01   -1.845E-01   -1.838E-01   -1.831E-01   -1.824E-01
    -1.817E-01   -1.810E-01   -1.803E-01   -1.796E-01   -1.789E-01   -1.782E-01   -1.775E-01   -1.768E-01   -1.761E-01   -1.754E-01
    -1.747E-01   -1.740E-01   -1.733E-01   -1.726E-01   -1.719E-01   -1.712E-01   -1.705E-01   -1.698E-01   -1.691E-01   -1.684E-01
    -1.677E-01   -1.670E-01   -1.663E-01   -1.656E-01   -1.649E-01   -1.642E-01   -1.635E-01   -1.628E-01   -1.621E-01   -1.614E-01
    -1.607E-01   -1.600E-01   -1.593E-01   -1.586E-01   -1.579E-01   -1.571E-01   -1.564E-01   -1.557E-01   -1.550E-01   -1.543E-01
    -1.536E-01   -1.529E-01   -1.522E-01   -1.515E-01   -1.508E-01   -1.501E-01   -1.494E-01   -1.487E-01   -1.480E-01   -1.473E-01
    -1.466E-01   -1.459E-01   -1.452E-01   -1.445E-01   -1.438E-01   -1.431E-01   -1.424E-01   -1.417E-01   -1.410E-01   -1.402E-01
    -1.395E-01   -1.388E-01   -1.381E-01   -1.374E-01   -1.367E-01   -1.360E-01   -1.353E-01   -1.346E-01   -1.339E-01   -1.332E-01
    -1.325E-01   -1.318E-01   -1.311E-01   -1.304E-01   -1.297E-01   -1.290E-01   -1.283E-01   -1.275E-01   -1.268E-01   -1.261E-01
    -1.254E-01   -1.247E-01   -1.240E-01   -1.233E-01   -1.226E-01   -1.219E-01   -1.212E-01   -1.205E-01   -1.198E-01   -1.191E-01
    -1.184E-01   -1.177E-01   -1.170E-01   -1.163E-01   -1.155E-01   -1.148E-01   -1.141E-01   -1.134E-01   -1.127E-01   -1.120E-01
    -1.113E-01   -1.106E-01   -1.099E-01   -1.092E-01   -1.085E-01   -1.078E-01   -1.071E-01   -1.064E-01   -1.057E-01   -1.050E-01
    -1.042E-01   -1.035E-01   -1.028E-01   -1.021E-01   -1.014E-01   -1.007E-01   -1.000E-01   -9.931E-02   -9.860E-02   -9.789E-02
    -9.719E-02   -9.648E-02   -9.578E-02   -9.507E-02   -9.436E-02   -9.366E-02   -9.295E-02   -9.225E-02   -9.154E-02   -9.083E-02
    -9.013E-02   -8.942E-02   -8.872E-02   -8.801E-02   -8.730E-02   -8.660E-02   -8.589E-02   -8.519E-02   -8.448E-02   -8.378E-02
    -8.307E-02   -8.236E-02   -8.166E-02   -8.095E-02   -8.025E-02   -7.954E-02   -7.884E-02   -7.813E-02   -7.743E-02   -7.672E-02
    -7.602E-02   -7.531E-02   -7.461E-02   -7.390E-02   -7.320E-02   -7.249E-02   -7.179E-02   -7.108E-02   -7.038E-02   -6.967E-02
    -6.897E-02   -6.826E-02   -6.756E-02   -6.685E-02   -6.615E-02   -6.544E-02   -6.474E-02   -6.404E-02   -6.333E-02   -6.263E-02
    -6.192E-02   -6.122E-02   -6.052E-02   -5.981E-02   -5.911E-02   -5.840E-02   -5.770E-02   -5.700E-02   -5.629E-02   -5.559E-02
    -5.489E-02   -5.418E-02   -5.348E-02   -5.278E-02   -5.207E-02   -5.137E-02   -5.067E-02   -4.997E-02   -4.926E-02   -4.856E-02
    -4.786E-02   -4.716E-02   -4.645E-02   -4.575E-02   -4.505E-02   -4.435E-02   -4.365E-02   -4.294E-02   -4.224E-02   -4.154E-02
    -4.084E-02   -4.014E-02   -3.944E-02   -3.873E-02   -3.803E-02   -3.733E-02   -3.663E-02   -3.593E-02   -3.523E-02   -3.453E-02
    -3.383E-02   -3.313E-02   -3.243E-02   -3.173E-02   -3.103E-02   -3.033E-02   -2.963E-02   -2.893E-02   -2.823E-02   -2.753E-02
    -2.683E-02   -2.613E-02   -2.543E-02   -2.473E-02   -2.403E-02   -2.333E-02   -2.264E-02   -2.194E-02   -2.124E-02   -2.054E-02
    -1.984E-02   -1.914E-02   -1.845E-02   -1.775E-02   -1.705E-02   -1.635E-02   -1.566E-02   -1.496E-02   -1.426E-02   -1.356E-02
    -1.287E-02   -1.217E-02   -1.147E-02   -1.078E-02   -1.008E-02   -9.386E-03   -8.690E-03   -7.994E-03   -7.299E-03   -6.603E-03
    -5.908E-03   -5.212E-03   -4.517E-03   -3.823E-03   -3.128E-03   -2.433E-03   -1.739E-03   -1.045E-03   -3.505E-04    3.435E-04
     1.037E-03    1.731E-03    2.424E-03    3.118E-03    3.811E-03    4.504E-03    5.197E-03    5.889E-03    6.582E-03    7.274E-03
     7.966E-03    8.658E-03    9.350E-03    1.004E-02    1.073E-02    1.142E-02    1.212E-02    1.281E-02    1.350E-02    1.419E-02
     1.488E-02    1.557E-02    1.626E-02    1.695E-02    1.764E-02    1.833E-02    1.902E-02    1.970E-02    2.039E-02    2.108E-02
     2.177E-02    2.246E-02    2.315E-02    2.384E-02    2.452E-02    2.521E-02    2.590E-02    2.658E-02    2.727E-02    2.796E-02
     2.864E-02    2.933E-02    3.002E-02    3.070E-02    3.139E-02    3.207E-02    3.276E-02    3.344E-02
 Ala      Conc. = 2.37E+01
