 LCModel (Version 6.3-1L) Copyright: S.W. Provencher.          Ref.: Magn. Reson. Med. 30:672-679 (1993).                
 Slice#2 Row#9 Col#11  PD_05_press_1_raw_act
 36 lines in following concentration table = NCONC+1
    Conc.  %SD /Cr+PCr  Metabolite                                         
    0.000 999%   0.000 Ala                                                 
    0.000 999%   0.000 Asp                                                 
   80.770 234% 8.7E-02 Cr                                                  
  846.268  23%   0.913 PCr                                                 
    0.000 999%   0.000 GABA                                                
    2.685 999% 2.9E-03 Glc                                                 
  559.566  25%   0.604 Gln                                                 
 1.32E+03  12%   1.420 Glu                                                 
  287.708   5%   0.310 GPC                                                 
    0.000 999%   0.000 PCh                                                 
  191.309  25%   0.206 GSH                                                 
  688.643  23%   0.743 Ins                                                 
  145.806  50%   0.157 Lac                                                 
 1.89E+03   6%   2.041 NAA                                                 
  452.455  23%   0.488 NAAG                                                
   57.197  32% 6.2E-02 Scyllo                                              
  126.835 111%   0.137 Tau                                                 
  626.590  12%   0.676 -CrCH2                                              
  287.708   5%   0.310 GPC+PCh                                             
 2.34E+03   3%   2.529 NAA+NAAG                                            
  927.038   4%   1.000 Cr+PCr                                              
 1.88E+03  12%   2.023 Glu+Gln                                             
 1.25E+03  36%   1.351 Lip13a                                              
    0.000 999%   0.000 Lip13b                                              
  106.354 194%   0.115 Lip09                                               
 1.32E+03  19%   1.425 MM09                                                
  284.295  49%   0.307 Lip20                                               
 2.82E+03  11%   3.038 MM20                                                
  472.159  35%   0.509 MM12                                                
 1.50E+03  22%   1.622 MM14                                                
  937.215  22%   1.011 MM17                                                
 1.25E+03  36%   1.351 Lip13a+Lip13b                                       
 3.23E+03  11%   3.483 MM14+Lip13a+Lip13b+MM12                             
 1.43E+03  12%   1.539 MM09+Lip09                                          
 3.10E+03  10%   3.345 MM20+Lip20                                          
   6 lines in following misc. output table
  FWHM = 0.054 ppm    S/N =  17                                            
  Data shift = 0.008 ppm                                                   
  Ph: -21 deg     -11.6 deg/ppm                                            
  alphaB,S = 8.3E-01,   1.3E+02                                            
   14 spline knots.   Ns = 7(1)                                            
  ( 6) 3 infls.   ( 5) 1 extrs.                                            
  498 points on ppm-axis = NY
      4.000000     3.992357     3.984714     3.977070     3.969427     3.961784     3.954141     3.946497     3.938854     3.931211
      3.923568     3.915925     3.908281     3.900638     3.892995     3.885352     3.877708     3.870065     3.862422     3.854779
      3.847136     3.839492     3.831849     3.824206     3.816563     3.808919     3.801276     3.793633     3.785990     3.778347
      3.770703     3.763060     3.755417     3.747774     3.740130     3.732487     3.724844     3.717201     3.709558     3.701914
      3.694271     3.686628     3.678985     3.671341     3.663698     3.656055     3.648412     3.640769     3.633125     3.625482
      3.617839     3.610196     3.602552     3.594909     3.587266     3.579623     3.571980     3.564336     3.556693     3.549050
      3.541407     3.533763     3.526120     3.518477     3.510834     3.503191     3.495547     3.487904     3.480261     3.472618
      3.464974     3.457331     3.449688     3.442045     3.434402     3.426758     3.419115     3.411472     3.403829     3.396185
      3.388542     3.380899     3.373256     3.365613     3.357969     3.350326     3.342683     3.335040     3.327396     3.319753
      3.312110     3.304467     3.296824     3.289180     3.281537     3.273894     3.266251     3.258607     3.250964     3.243321
      3.235678     3.228034     3.220391     3.212748     3.205105     3.197462     3.189818     3.182175     3.174532     3.166889
      3.159245     3.151602     3.143959     3.136316     3.128673     3.121029     3.113386     3.105743     3.098100     3.090456
      3.082813     3.075170     3.067527     3.059884     3.052240     3.044597     3.036954     3.029311     3.021667     3.014024
      3.006381     2.998738     2.991095     2.983451     2.975808     2.968165     2.960522     2.952878     2.945235     2.937592
      2.929949     2.922306     2.914662     2.907019     2.899376     2.891733     2.884089     2.876446     2.868803     2.861160
      2.853517     2.845873     2.838230     2.830587     2.822944     2.815300     2.807657     2.800014     2.792371     2.784728
      2.777084     2.769441     2.761798     2.754155     2.746511     2.738868     2.731225     2.723582     2.715939     2.708295
      2.700652     2.693009     2.685366     2.677722     2.670079     2.662436     2.654793     2.647150     2.639506     2.631863
      2.624220     2.616577     2.608933     2.601290     2.593647     2.586004     2.578361     2.570717     2.563074     2.555431
      2.547788     2.540144     2.532501     2.524858     2.517215     2.509572     2.501928     2.494285     2.486642     2.478999
      2.471355     2.463712     2.456069     2.448426     2.440783     2.433139     2.425496     2.417853     2.410210     2.402566
      2.394923     2.387280     2.379637     2.371994     2.364350     2.356707     2.349064     2.341421     2.333777     2.326134
      2.318491     2.310848     2.303205     2.295561     2.287918     2.280275     2.272632     2.264988     2.257345     2.249702
      2.242059     2.234416     2.226772     2.219129     2.211486     2.203843     2.196199     2.188556     2.180913     2.173270
      2.165627     2.157983     2.150340     2.142697     2.135054     2.127410     2.119767     2.112124     2.104481     2.096838
      2.089194     2.081551     2.073908     2.066265     2.058621     2.050978     2.043335     2.035692     2.028049     2.020405
      2.012762     2.005119     1.997476     1.989833     1.982190     1.974546     1.966903     1.959260     1.951617     1.943974
      1.936331     1.928688     1.921045     1.913402     1.905759     1.898115     1.890472     1.882829     1.875186     1.867543
      1.859900     1.852257     1.844614     1.836971     1.829327     1.821684     1.814041     1.806398     1.798755     1.791112
      1.783469     1.775826     1.768183     1.760540     1.752896     1.745253     1.737610     1.729967     1.722324     1.714681
      1.707038     1.699395     1.691752     1.684108     1.676465     1.668822     1.661179     1.653536     1.645893     1.638250
      1.630607     1.622964     1.615321     1.607677     1.600034     1.592391     1.584748     1.577105     1.569462     1.561819
      1.554176     1.546533     1.538890     1.531246     1.523603     1.515960     1.508317     1.500674     1.493031     1.485388
      1.477745     1.470102     1.462458     1.454815     1.447172     1.439529     1.431886     1.424243     1.416600     1.408957
      1.401314     1.393671     1.386027     1.378384     1.370741     1.363098     1.355455     1.347812     1.340169     1.332526
      1.324883     1.317240     1.309596     1.301953     1.294310     1.286667     1.279024     1.271381     1.263738     1.256095
      1.248452     1.240808     1.233165     1.225522     1.217879     1.210236     1.202593     1.194950     1.187307     1.179664
      1.172021     1.164377     1.156734     1.149091     1.141448     1.133805     1.126162     1.118519     1.110876     1.103233
      1.095590     1.087946     1.080303     1.072660     1.065017     1.057374     1.049731     1.042088     1.034445     1.026802
      1.019158     1.011515     1.003872     0.996229     0.988586     0.980943     0.973300     0.965657     0.958014     0.950371
      0.942727     0.935084     0.927441     0.919798     0.912155     0.904512     0.896869     0.889226     0.881583     0.873940
      0.866296     0.858653     0.851010     0.843367     0.835724     0.828081     0.820438     0.812795     0.805152     0.797508
      0.789865     0.782222     0.774579     0.766936     0.759293     0.751650     0.744007     0.736364     0.728721     0.721077
      0.713434     0.705791     0.698148     0.690505     0.682862     0.675219     0.667576     0.659933     0.652290     0.644646
      0.637003     0.629360     0.621717     0.614074     0.606431     0.598788     0.591145     0.583502     0.575858     0.568215
      0.560572     0.552929     0.545286     0.537643     0.530000     0.522357     0.514714     0.507071     0.499427     0.491784
      0.484141     0.476498     0.468855     0.461212     0.453569     0.445925     0.438282     0.430639     0.422996     0.415353
      0.407710     0.400067     0.392424     0.384780     0.377137     0.369494     0.361851     0.354208     0.346565     0.338922
      0.331278     0.323635     0.315992     0.308349     0.300706     0.293063     0.285420     0.277777     0.270133     0.262490
      0.254847     0.247204     0.239561     0.231918     0.224275     0.216631     0.208988     0.201345
 NY phased data points follow
   4.73702E+00  8.05353E+00  7.74700E+00  8.98426E+00  7.17820E+00  7.26382E+00  4.10295E+00  9.60868E+00  1.19503E+01  1.24833E+01
   1.54706E+01  1.40330E+01  1.30816E+01  1.55718E+01  1.21641E+01  1.22571E+01  9.70204E+00  5.14303E+00  7.80262E+00  7.56478E+00
   7.60886E+00  9.15218E+00  6.94976E+00  7.39200E+00  6.14794E+00  1.03409E+01  9.79167E+00  8.19784E+00  8.10409E+00  9.62838E+00
   9.57130E+00  9.48466E+00  9.17777E+00  1.20820E+01  9.90836E+00  8.67192E+00  9.01326E+00  6.67545E+00  7.37394E+00  7.04378E+00
   9.52408E+00  8.82809E+00  8.27198E+00  9.48785E+00  1.07889E+01  1.19058E+01  1.08988E+01  1.32546E+01  1.46274E+01  1.25742E+01
   1.20913E+01  8.07333E+00  1.04419E+01  8.57570E+00  6.94362E+00  6.95729E+00  8.76997E+00  7.40814E+00  9.02769E+00  8.04462E+00
   5.77199E+00  4.62590E+00  5.01702E+00  6.15617E+00  7.79002E-01  7.55724E+00  3.83410E+00  4.16695E+00  3.01547E+00  3.79284E+00
   5.34369E+00  6.33063E+00  5.27070E+00  4.81153E+00  7.01023E+00  6.06305E+00  4.11657E+00  4.71163E+00  4.87381E+00  6.80849E+00
   4.75619E+00  6.28076E+00  7.89879E+00  2.89145E+00  9.38157E+00  6.03816E+00  5.59434E+00  4.68920E+00  3.39405E+00  6.19895E+00
   7.55601E+00  5.84758E+00  7.80748E+00  5.62031E+00  9.36220E+00  7.49207E+00  1.16221E+01  1.11051E+01  1.26643E+01  1.43409E+01
   1.54638E+01  2.04007E+01  2.88137E+01  3.05135E+01  3.18319E+01  2.78427E+01  2.45544E+01  1.93388E+01  1.21282E+01  8.62656E+00
   7.65928E+00  6.00479E+00  4.41088E+00  6.31283E+00  5.94595E+00  5.77961E+00  8.18799E+00  6.11063E+00  7.08870E+00  7.44491E+00
   9.17188E+00  9.03724E+00  1.26337E+01  1.30136E+01  1.61010E+01  2.34157E+01  2.82894E+01  3.80618E+01  3.71147E+01  3.78321E+01
   3.21117E+01  2.22384E+01  1.57187E+01  9.73750E+00  6.33277E+00  6.45169E+00  5.91314E+00  7.25039E+00  5.35338E+00  7.17259E+00
   5.42149E+00  4.40236E+00  7.71075E+00  7.42887E+00  4.41369E+00  6.02033E+00  5.23960E+00  6.76493E+00  3.14829E+00  7.26632E+00
   6.48450E+00  4.46575E+00  4.82276E+00  6.17359E+00  6.15411E+00  1.54550E+00  4.30890E+00  2.32100E+00  4.63236E+00  4.76459E+00
   2.93099E+00  2.90290E+00  3.19852E+00  1.79155E+00  5.24904E-01  9.58401E-01 -1.45264E+00 -1.30650E+00  4.16003E-01 -2.46631E+00
  -5.35342E+00 -5.78973E+00 -6.53223E+00 -7.92810E+00 -8.32433E+00 -1.01806E+01 -9.67768E+00 -8.66319E+00 -7.08550E+00 -5.92359E+00
  -5.04312E+00 -4.48276E+00 -4.65279E+00 -4.46711E+00 -9.42526E-01 -2.09156E+00 -3.28939E+00 -2.59702E+00 -1.68334E+00 -3.93897E+00
  -4.16903E+00 -3.77606E-01  2.73835E-01  5.69565E-01  1.64063E-01 -5.01404E-01 -4.45225E+00 -3.65159E+00 -2.83936E+00 -6.22649E+00
  -2.96253E+00 -1.02576E+00  7.72612E-01  4.83278E+00  5.24260E+00  2.73326E+00  5.19494E+00  1.59382E+00  2.56101E-02  8.90095E-01
  -2.46566E+00  3.48013E+00  4.27622E+00  6.92938E+00  9.91913E+00  1.26572E+01  1.46685E+01  1.34802E+01  1.10783E+01  8.05890E+00
   4.48669E+00 -1.46968E+00 -1.96278E+00 -5.20709E-01 -2.00908E+00  4.25607E+00  5.98132E+00  7.66850E+00  9.00925E+00  1.00050E+01
   6.47288E+00  6.85202E+00  9.88886E+00  8.90498E+00  5.74632E+00  8.49771E+00  8.83659E+00  7.20658E+00  7.01057E+00  8.72990E+00
   7.85390E+00  5.63736E+00  3.44780E+00  4.43535E+00  5.93033E+00  8.56608E+00  1.01642E+01  1.34119E+01  1.54328E+01  1.49378E+01
   1.64787E+01  2.01184E+01  2.23993E+01  2.60769E+01  3.19497E+01  4.31987E+01  5.24911E+01  5.95190E+01  6.72404E+01  7.30270E+01
   7.86629E+01  8.19216E+01  7.66518E+01  6.09332E+01  4.13337E+01  2.79314E+01  1.37118E+01  9.79333E+00  7.18554E+00  5.86641E+00
   6.71444E+00  6.46960E+00  8.09201E+00  6.59022E+00  7.41293E+00  5.22906E+00  4.07048E+00  4.50457E+00  2.72648E+00  5.46507E+00
   5.79106E+00  6.43141E+00  5.15753E+00  7.52431E+00  4.01532E+00  4.00209E+00  4.77397E+00  1.85261E+00  3.35768E+00  3.50934E+00
   5.04304E+00  5.46869E+00  3.54955E+00  4.84643E+00  5.68466E+00  5.51171E+00  9.30178E+00  5.52271E+00  6.64691E+00  4.81948E+00
   6.33701E+00  5.49249E+00  5.94517E+00  6.25739E+00  8.02703E+00  5.45240E+00  5.21110E+00  6.76880E+00  9.01990E+00  8.92380E+00
   9.82130E+00  7.65387E+00  8.35427E+00  8.41589E+00  7.21279E+00  6.67093E+00  6.68829E+00  5.75093E+00  5.97895E+00  5.62509E+00
   7.08582E+00  3.88825E+00  7.80807E+00  7.93218E+00  6.83276E+00  8.02563E+00  5.61339E+00  7.79496E+00  8.66651E+00  8.65928E+00
   9.12166E+00  1.15411E+01  9.80994E+00  1.11227E+01  1.11820E+01  1.39282E+01  1.05465E+01  1.01136E+01  1.11102E+01  1.09274E+01
   9.99837E+00  1.25261E+01  1.13071E+01  1.24002E+01  1.08605E+01  1.37212E+01  1.19871E+01  1.15334E+01  1.15838E+01  9.85843E+00
   7.34360E+00  7.81083E+00  8.21861E+00  9.51367E+00  8.63352E+00  9.17363E+00  1.02331E+01  1.00923E+01  9.27691E+00  1.00774E+01
   9.29121E+00  9.59134E+00  8.27920E+00  7.63461E+00  1.14421E+01  8.80841E+00  1.10226E+01  9.03779E+00  7.83746E+00  6.71119E+00
   5.68107E+00  9.84628E+00  5.62407E+00  6.11705E+00  6.74142E+00  7.85190E+00  8.23186E+00  3.51720E+00  7.96083E+00  4.46433E+00
   4.06473E+00  5.15207E+00  5.09526E+00  3.24407E+00  5.21507E+00  4.95218E+00  5.82653E+00  3.70495E+00  6.44178E+00  5.58850E+00
   3.26063E+00  9.22110E+00  5.52553E+00  5.59901E+00  6.80772E+00  6.12083E+00  1.00112E+01  8.86293E+00  8.76213E+00  1.01918E+01
   9.55766E+00  1.03626E+01  9.82395E+00  1.03014E+01  8.87439E+00  1.05215E+01  1.12438E+01  1.13298E+01  1.13728E+01  9.59607E+00
   1.10795E+01  1.10956E+01  1.07935E+01  7.18886E+00  6.82208E+00  7.20899E+00  7.78414E+00  6.45933E+00  6.99103E+00  6.28718E+00
   7.41732E+00  6.26750E+00  2.97848E+00  1.46779E+00  3.02066E+00  1.95565E+00  4.27114E+00  2.97734E+00  1.55421E+00  2.05695E+00
   4.60942E+00  3.17451E+00  3.79837E+00  2.77627E+00  2.90196E+00  3.52026E+00  1.42255E+00  3.50064E+00  9.57846E-01  2.69638E+00
   1.94383E-01  3.77673E+00  1.73864E+00  2.95905E+00  1.86908E+00  2.58797E+00  3.51460E+00  2.85009E+00  1.23616E+00  7.69303E-01
   1.57995E+00  1.35065E+00  4.20933E+00  2.34167E+00  1.77684E+00  4.08122E+00  1.46596E+00  2.14941E+00  1.32838E+00  2.75438E+00
  -4.54019E-01  1.09377E+00  1.01411E+00  1.68390E+00  2.60624E-01  1.98381E+00  1.81393E+00  4.04849E-01 -7.32875E-02  2.02410E+00
   4.43741E-01  1.41948E+00  1.08670E+00 -7.21759E-01  2.89277E+00  1.99906E+00 -1.05652E-01  2.01954E+00  3.54743E-01  2.52539E-01
   2.95964E+00 -2.57477E+00  1.02472E+00  2.31491E+00  3.49861E+00  1.12563E+00  3.37048E+00  6.31257E-01  1.78179E+00  3.41116E+00
   2.10829E+00  2.99819E+00 -5.82958E-01  8.42980E-01 -6.67388E-01  2.21873E+00 -8.07435E-01  2.20626E+00
 NY points of the fit to the data follow
   6.87413E+00  6.51920E+00  6.28887E+00  6.59021E+00  7.22815E+00  7.99076E+00  8.78043E+00  9.69845E+00  1.09068E+01  1.24113E+01
   1.39483E+01  1.50084E+01  1.51271E+01  1.42008E+01  1.26094E+01  1.09349E+01  9.64343E+00  8.92401E+00  8.63337E+00  8.43949E+00
   8.27850E+00  8.04335E+00  7.78047E+00  7.66955E+00  7.67719E+00  7.74072E+00  7.87316E+00  8.20183E+00  8.87154E+00  9.86992E+00
   1.10990E+01  1.23160E+01  1.31096E+01  1.31860E+01  1.24668E+01  1.10820E+01  9.36413E+00  7.73056E+00  6.51957E+00  5.97267E+00
   6.22400E+00  7.10890E+00  8.23257E+00  9.26685E+00  1.01123E+01  1.08512E+01  1.15246E+01  1.20308E+01  1.21541E+01  1.16687E+01
   1.05447E+01  9.03239E+00  7.56779E+00  6.52316E+00  6.03460E+00  6.00143E+00  6.20503E+00  6.49403E+00  6.80706E+00  7.09966E+00
   7.30664E+00  7.32490E+00  7.10159E+00  6.65306E+00  6.10561E+00  5.65417E+00  5.42548E+00  5.43672E+00  5.62891E+00  5.91333E+00
   6.18318E+00  6.37123E+00  6.46112E+00  6.45482E+00  6.36475E+00  6.20837E+00  5.99343E+00  5.72499E+00  5.42915E+00  5.21275E+00
   5.18170E+00  5.26534E+00  5.42874E+00  5.68332E+00  6.02218E+00  6.38118E+00  6.63420E+00  6.62851E+00  6.27363E+00  5.63957E+00
   4.91654E+00  4.33013E+00  4.02542E+00  3.98723E+00  4.15425E+00  4.73389E+00  6.37795E+00  8.74220E+00  1.13262E+01  1.42101E+01
   1.78168E+01  2.23313E+01  2.71588E+01  3.09204E+01  3.20296E+01  2.96289E+01  2.42719E+01  1.77164E+01  1.18735E+01  7.89387E+00
   5.90441E+00  5.20989E+00  4.91861E+00  4.71158E+00  4.56770E+00  4.47201E+00  4.41594E+00  4.39915E+00  4.45326E+00  4.77143E+00
   6.19664E+00  8.85564E+00  1.19027E+01  1.51876E+01  1.91219E+01  2.41150E+01  2.98346E+01  3.49297E+01  3.74769E+01  3.60709E+01
   3.07967E+01  2.33626E+01  1.61101E+01  1.06914E+01  7.57147E+00  6.17643E+00  5.45212E+00  4.88752E+00  4.57716E+00  4.56324E+00
   4.76983E+00  5.04088E+00  5.21153E+00  5.18825E+00  4.98089E+00  4.66152E+00  4.31899E+00  4.00572E+00  3.73813E+00  3.52123E+00
   3.33472E+00  3.16064E+00  2.99684E+00  2.81511E+00  2.56400E+00  2.31149E+00  2.13631E+00  2.04921E+00  1.99495E+00  1.79541E+00
   1.38781E+00  8.96322E-01  5.32745E-01  4.36018E-01  5.74059E-01  7.29637E-01  6.45897E-01  2.00265E-01 -5.40062E-01 -1.37153E+00
  -2.01923E+00 -2.33197E+00 -2.42188E+00 -2.51525E+00 -2.80773E+00 -3.21048E+00 -3.49496E+00 -3.48566E+00 -3.20335E+00 -2.84422E+00
  -2.66323E+00 -2.66150E+00 -2.66753E+00 -2.52451E+00 -2.15721E+00 -1.58962E+00 -9.28079E-01 -2.11129E-01  6.16920E-01  1.57125E+00
   2.53902E+00  3.19841E+00  3.36207E+00  3.06340E+00  2.50664E+00  1.94726E+00  1.63028E+00  1.71991E+00  2.17723E+00  2.90885E+00
   3.77761E+00  4.59630E+00  5.16707E+00  5.32037E+00  5.01704E+00  4.13576E+00  2.57670E+00  5.97255E-01 -1.32580E+00 -2.56413E+00
  -2.74771E+00 -1.91116E+00 -1.96131E-01  2.12496E+00  4.67961E+00  6.88652E+00  8.11157E+00  8.00566E+00  6.55877E+00  3.98603E+00
   8.57262E-01 -1.97827E+00 -3.70513E+00 -3.83483E+00 -2.36248E+00  2.60618E-01  3.33808E+00  6.09262E+00  7.88790E+00  8.56950E+00
   8.42776E+00  7.91733E+00  7.45645E+00  7.28464E+00  7.44827E+00  7.88642E+00  8.47429E+00  9.09184E+00  9.57843E+00  9.74345E+00
   9.46599E+00  8.84671E+00  8.18380E+00  7.85552E+00  8.12932E+00  9.02338E+00  1.03347E+01  1.17525E+01  1.31602E+01  1.48042E+01
   1.64904E+01  1.81810E+01  2.05711E+01  2.59310E+01  3.42965E+01  4.32063E+01  5.15022E+01  5.92720E+01  6.70736E+01  7.46058E+01
   8.01227E+01  8.07316E+01  7.41468E+01  6.07225E+01  4.38585E+01  2.80753E+01  1.66934E+01  1.06062E+01  8.42181E+00  7.66083E+00
   7.04129E+00  6.56719E+00  6.23832E+00  6.01623E+00  5.84742E+00  5.68070E+00  5.46094E+00  5.16855E+00  4.82738E+00  4.49316E+00
   4.21891E+00  4.03468E+00  3.93845E+00  3.90319E+00  3.89982E+00  3.91268E+00  3.93109E+00  3.95204E+00  3.98566E+00  4.05270E+00
   4.17413E+00  4.35590E+00  4.58722E+00  4.85252E+00  5.13157E+00  5.40330E+00  5.65574E+00  5.88726E+00  6.10378E+00  6.31370E+00
   6.52178E+00  6.72524E+00  6.91634E+00  7.08310E+00  7.21364E+00  7.29996E+00  7.33997E+00  7.33719E+00  7.29897E+00  7.23232E+00
   7.14491E+00  7.04455E+00  6.93890E+00  6.83533E+00  6.74154E+00  6.66501E+00  6.61291E+00  6.59118E+00  6.60444E+00  6.65566E+00
   6.74658E+00  6.87743E+00  7.04721E+00  7.25332E+00  7.49201E+00  7.75838E+00  8.04701E+00  8.35179E+00  8.66633E+00  8.98372E+00
   9.29735E+00  9.60097E+00  9.88934E+00  1.01580E+01  1.04037E+01  1.06244E+01  1.08203E+01  1.09941E+01  1.11537E+01  1.13175E+01
   1.15193E+01  1.17108E+01  1.18191E+01  1.18611E+01  1.18655E+01  1.18173E+01  1.16343E+01  1.12201E+01  1.06017E+01  9.86271E+00
   9.12722E+00  8.58073E+00  8.38393E+00  8.59482E+00  9.14535E+00  9.85668E+00  1.04956E+01  1.08776E+01  1.09178E+01  1.06439E+01
   1.01822E+01  9.67966E+00  9.24001E+00  8.89013E+00  8.58698E+00  8.29456E+00  8.00568E+00  7.71838E+00  7.43288E+00  7.15048E+00
   6.87349E+00  6.60454E+00  6.34673E+00  6.10295E+00  5.87617E+00  5.66906E+00  5.48438E+00  5.32455E+00  5.19196E+00  5.08849E+00
   5.01598E+00  4.97590E+00  4.96982E+00  4.99896E+00  5.06445E+00  5.16693E+00  5.30692E+00  5.48449E+00  5.69948E+00  5.95098E+00
   6.23749E+00  6.55648E+00  6.90469E+00  7.27776E+00  7.67044E+00  8.07621E+00  8.48757E+00  8.89593E+00  9.29220E+00  9.66671E+00
   1.00098E+01  1.03118E+01  1.05638E+01  1.07577E+01  1.08869E+01  1.09466E+01  1.09340E+01  1.08481E+01  1.06902E+01  1.04637E+01
   1.01739E+01  9.82790E+00  9.43391E+00  9.00102E+00  8.53893E+00  8.05731E+00  7.56580E+00  7.07318E+00  6.58744E+00  6.11529E+00
   5.66243E+00  5.23324E+00  4.83105E+00  4.45782E+00  4.11462E+00  3.80144E+00  3.51777E+00  3.26244E+00  3.03399E+00  2.83046E+00
   2.64986E+00  2.49001E+00  2.34898E+00  2.22475E+00  2.11557E+00  2.01959E+00  1.93526E+00  1.86108E+00  1.79594E+00  1.73871E+00
   1.68847E+00  1.64425E+00  1.60535E+00  1.57107E+00  1.54100E+00  1.51460E+00  1.49149E+00  1.47118E+00  1.45340E+00  1.43787E+00
   1.42446E+00  1.41289E+00  1.40299E+00  1.39448E+00  1.38733E+00  1.38137E+00  1.37662E+00  1.37286E+00  1.37004E+00  1.36796E+00
   1.36669E+00  1.36613E+00  1.36631E+00  1.36706E+00  1.36836E+00  1.37010E+00  1.37239E+00  1.37513E+00  1.37836E+00  1.38192E+00
   1.38583E+00  1.39003E+00  1.39464E+00  1.39957E+00  1.40484E+00  1.41030E+00  1.41604E+00  1.42200E+00  1.42829E+00  1.43480E+00
   1.44157E+00  1.44846E+00  1.45560E+00  1.46293E+00  1.47056E+00  1.47837E+00  1.48639E+00  1.49453E+00  1.50293E+00  1.51154E+00
   1.52045E+00  1.52952E+00  1.53882E+00  1.54829E+00  1.55809E+00  1.56816E+00  1.57857E+00  1.58923E+00
 NY background values follow
     5.957E+00    5.934E+00    5.911E+00    5.888E+00    5.865E+00    5.842E+00    5.819E+00    5.797E+00    5.774E+00    5.751E+00
     5.728E+00    5.705E+00    5.682E+00    5.659E+00    5.636E+00    5.613E+00    5.590E+00    5.567E+00    5.544E+00    5.521E+00
     5.498E+00    5.475E+00    5.452E+00    5.428E+00    5.405E+00    5.382E+00    5.359E+00    5.336E+00    5.312E+00    5.289E+00
     5.266E+00    5.242E+00    5.219E+00    5.195E+00    5.172E+00    5.148E+00    5.125E+00    5.101E+00    5.077E+00    5.053E+00
     5.030E+00    5.006E+00    4.982E+00    4.958E+00    4.934E+00    4.909E+00    4.885E+00    4.861E+00    4.836E+00    4.812E+00
     4.788E+00    4.763E+00    4.738E+00    4.713E+00    4.689E+00    4.664E+00    4.639E+00    4.613E+00    4.588E+00    4.563E+00
     4.537E+00    4.512E+00    4.486E+00    4.460E+00    4.434E+00    4.408E+00    4.382E+00    4.355E+00    4.329E+00    4.302E+00
     4.275E+00    4.249E+00    4.221E+00    4.194E+00    4.167E+00    4.139E+00    4.112E+00    4.084E+00    4.056E+00    4.027E+00
     3.999E+00    3.970E+00    3.942E+00    3.913E+00    3.884E+00    3.854E+00    3.825E+00    3.795E+00    3.765E+00    3.735E+00
     3.704E+00    3.674E+00    3.643E+00    3.612E+00    3.581E+00    3.550E+00    3.518E+00    3.486E+00    3.454E+00    3.422E+00
     3.390E+00    3.357E+00    3.324E+00    3.291E+00    3.258E+00    3.225E+00    3.191E+00    3.158E+00    3.124E+00    3.090E+00
     3.055E+00    3.021E+00    2.987E+00    2.952E+00    2.917E+00    2.882E+00    2.847E+00    2.811E+00    2.776E+00    2.740E+00
     2.704E+00    2.668E+00    2.632E+00    2.596E+00    2.560E+00    2.523E+00    2.487E+00    2.450E+00    2.413E+00    2.376E+00
     2.339E+00    2.301E+00    2.264E+00    2.226E+00    2.189E+00    2.151E+00    2.113E+00    2.075E+00    2.037E+00    1.999E+00
     1.961E+00    1.922E+00    1.884E+00    1.846E+00    1.808E+00    1.769E+00    1.731E+00    1.693E+00    1.655E+00    1.617E+00
     1.579E+00    1.541E+00    1.503E+00    1.466E+00    1.429E+00    1.392E+00    1.355E+00    1.318E+00    1.281E+00    1.245E+00
     1.209E+00    1.174E+00    1.138E+00    1.103E+00    1.068E+00    1.034E+00    9.998E-01    9.661E-01    9.328E-01    9.000E-01
     8.675E-01    8.355E-01    8.040E-01    7.729E-01    7.423E-01    7.122E-01    6.827E-01    6.536E-01    6.252E-01    5.973E-01
     5.699E-01    5.432E-01    5.171E-01    4.916E-01    4.667E-01    4.424E-01    4.187E-01    3.955E-01    3.729E-01    3.508E-01
     3.293E-01    3.083E-01    2.878E-01    2.679E-01    2.485E-01    2.296E-01    2.111E-01    1.932E-01    1.757E-01    1.587E-01
     1.421E-01    1.260E-01    1.104E-01    9.518E-02    8.039E-02    6.601E-02    5.204E-02    3.848E-02    2.530E-02    1.251E-02
     9.006E-05   -1.196E-02   -2.365E-02   -3.500E-02   -4.600E-02   -5.667E-02   -6.702E-02   -7.705E-02   -8.678E-02   -9.620E-02
    -1.053E-01   -1.142E-01   -1.228E-01   -1.311E-01   -1.391E-01   -1.470E-01   -1.545E-01   -1.619E-01   -1.690E-01   -1.759E-01
    -1.825E-01   -1.889E-01   -1.951E-01   -2.011E-01   -2.069E-01   -2.124E-01   -2.177E-01   -2.228E-01   -2.276E-01   -2.323E-01
    -2.367E-01   -2.409E-01   -2.449E-01   -2.486E-01   -2.522E-01   -2.555E-01   -2.587E-01   -2.616E-01   -2.643E-01   -2.668E-01
    -2.691E-01   -2.712E-01   -2.730E-01   -2.747E-01   -2.762E-01   -2.774E-01   -2.785E-01   -2.793E-01   -2.800E-01   -2.804E-01
    -2.807E-01   -2.807E-01   -2.806E-01   -2.803E-01   -2.797E-01   -2.790E-01   -2.781E-01   -2.770E-01   -2.757E-01   -2.742E-01
    -2.725E-01   -2.706E-01   -2.686E-01   -2.663E-01   -2.639E-01   -2.613E-01   -2.585E-01   -2.556E-01   -2.524E-01   -2.491E-01
    -2.457E-01   -2.420E-01   -2.382E-01   -2.343E-01   -2.302E-01   -2.259E-01   -2.215E-01   -2.169E-01   -2.122E-01   -2.073E-01
    -2.023E-01   -1.971E-01   -1.918E-01   -1.864E-01   -1.808E-01   -1.751E-01   -1.693E-01   -1.633E-01   -1.572E-01   -1.510E-01
    -1.447E-01   -1.382E-01   -1.317E-01   -1.250E-01   -1.182E-01   -1.113E-01   -1.043E-01   -9.719E-02   -8.998E-02   -8.267E-02
    -7.527E-02   -6.777E-02   -6.019E-02   -5.251E-02   -4.474E-02   -3.689E-02   -2.896E-02   -2.095E-02   -1.286E-02   -4.694E-03
     3.550E-03    1.187E-02    2.026E-02    2.873E-02    3.728E-02    4.589E-02    5.457E-02    6.333E-02    7.215E-02    8.105E-02
     9.001E-02    9.904E-02    1.081E-01    1.173E-01    1.265E-01    1.358E-01    1.451E-01    1.545E-01    1.640E-01    1.735E-01
     1.831E-01    1.928E-01    2.025E-01    2.122E-01    2.220E-01    2.319E-01    2.418E-01    2.518E-01    2.618E-01    2.719E-01
     2.820E-01    2.922E-01    3.024E-01    3.127E-01    3.230E-01    3.333E-01    3.437E-01    3.542E-01    3.647E-01    3.752E-01
     3.857E-01    3.963E-01    4.070E-01    4.177E-01    4.284E-01    4.391E-01    4.499E-01    4.608E-01    4.716E-01    4.825E-01
     4.935E-01    5.044E-01    5.155E-01    5.265E-01    5.376E-01    5.487E-01    5.598E-01    5.710E-01    5.822E-01    5.935E-01
     6.048E-01    6.161E-01    6.274E-01    6.388E-01    6.502E-01    6.617E-01    6.731E-01    6.846E-01    6.962E-01    7.077E-01
     7.193E-01    7.309E-01    7.426E-01    7.543E-01    7.660E-01    7.777E-01    7.895E-01    8.013E-01    8.131E-01    8.250E-01
     8.369E-01    8.488E-01    8.607E-01    8.726E-01    8.846E-01    8.966E-01    9.087E-01    9.207E-01    9.328E-01    9.449E-01
     9.571E-01    9.692E-01    9.814E-01    9.935E-01    1.006E+00    1.018E+00    1.030E+00    1.042E+00    1.055E+00    1.067E+00
     1.079E+00    1.091E+00    1.103E+00    1.116E+00    1.128E+00    1.140E+00    1.152E+00    1.164E+00    1.177E+00    1.189E+00
     1.201E+00    1.213E+00    1.225E+00    1.237E+00    1.249E+00    1.261E+00    1.273E+00    1.285E+00    1.297E+00    1.309E+00
     1.321E+00    1.332E+00    1.344E+00    1.356E+00    1.367E+00    1.379E+00    1.391E+00    1.402E+00    1.414E+00    1.425E+00
     1.436E+00    1.448E+00    1.459E+00    1.470E+00    1.481E+00    1.492E+00    1.503E+00    1.514E+00    1.525E+00    1.536E+00
     1.546E+00    1.557E+00    1.568E+00    1.578E+00    1.589E+00    1.600E+00    1.610E+00    1.621E+00    1.631E+00    1.641E+00
     1.652E+00    1.662E+00    1.672E+00    1.682E+00    1.693E+00    1.703E+00    1.713E+00    1.723E+00    1.733E+00    1.743E+00
     1.753E+00    1.764E+00    1.774E+00    1.784E+00    1.794E+00    1.804E+00    1.814E+00    1.824E+00    1.834E+00    1.844E+00
     1.854E+00    1.864E+00    1.874E+00    1.884E+00    1.894E+00    1.904E+00    1.914E+00    1.924E+00
 Cr       Conc. = 8.08E+01
