 LCModel (Version 6.3-1L) Copyright: S.W. Provencher.          Ref.: Magn. Reson. Med. 30:672-679 (1993).                
 Slice#1 Row#13 Col#9  PD_05_press_1_raw_act
 36 lines in following concentration table = NCONC+1
    Conc.  %SD /Cr+PCr  Metabolite                                         
   31.140 129%   0.206 Ala                                                 
   30.289 128%   0.201 Asp                                                 
    0.000 999%   0.000 Cr                                                  
  151.006  13%   1.000 PCr                                                 
   17.231 137%   0.114 GABA                                                
   20.821 113%   0.138 Glc                                                 
  160.061  52%   1.060 Gln                                                 
  201.905  46%   1.337 Glu                                                 
    0.000 999%   0.000 GPC                                                 
   53.321  13%   0.353 PCh                                                 
    0.000 999%   0.000 GSH                                                 
   56.992 148%   0.377 Ins                                                 
    0.000 999%   0.000 Lac                                                 
  432.560   8%   2.865 NAA                                                 
    2.223 999% 1.5E-02 NAAG                                                
   11.341  57% 7.5E-02 Scyllo                                              
   55.391  67%   0.367 Tau                                                 
  160.105  18%   1.060 -CrCH2                                              
   53.321  13%   0.353 GPC+PCh                                             
  434.783   6%   2.879 NAA+NAAG                                            
  151.006  13%   1.000 Cr+PCr                                              
  361.966  35%   2.397 Glu+Gln                                             
  354.414  26%   2.347 Lip13a                                              
    0.000 999%   0.000 Lip13b                                              
    0.000 999%   0.000 Lip09                                               
  285.481  18%   1.891 MM09                                                
  107.221  47%   0.710 Lip20                                               
  525.612  17%   3.481 MM20                                                
   92.027  25%   0.609 MM12                                                
  134.876  50%   0.893 MM14                                                
  228.828  18%   1.515 MM17                                                
  354.414  26%   2.347 Lip13a+Lip13b                                       
  581.317  17%   3.850 MM14+Lip13a+Lip13b+MM12                             
  285.481  18%   1.891 MM09+Lip09                                          
  632.833  15%   4.191 MM20+Lip20                                          
   6 lines in following misc. output table
  FWHM = 0.054 ppm    S/N =   6                                            
  Data shift = 0.023 ppm                                                   
  Ph: -80 deg     -24.6 deg/ppm                                            
  alphaB,S = 2.8E+00,   8.5E+01                                            
   14 spline knots.   Ns = 6(1)                                            
  (10) 2 infls.   (11) 1 extrs.                                            
  498 points on ppm-axis = NY
      4.000000     3.992357     3.984714     3.977070     3.969427     3.961784     3.954141     3.946497     3.938854     3.931211
      3.923568     3.915925     3.908281     3.900638     3.892995     3.885352     3.877708     3.870065     3.862422     3.854779
      3.847136     3.839492     3.831849     3.824206     3.816563     3.808919     3.801276     3.793633     3.785990     3.778347
      3.770703     3.763060     3.755417     3.747774     3.740130     3.732487     3.724844     3.717201     3.709558     3.701914
      3.694271     3.686628     3.678985     3.671341     3.663698     3.656055     3.648412     3.640769     3.633125     3.625482
      3.617839     3.610196     3.602552     3.594909     3.587266     3.579623     3.571980     3.564336     3.556693     3.549050
      3.541407     3.533763     3.526120     3.518477     3.510834     3.503191     3.495547     3.487904     3.480261     3.472618
      3.464974     3.457331     3.449688     3.442045     3.434402     3.426758     3.419115     3.411472     3.403829     3.396185
      3.388542     3.380899     3.373256     3.365613     3.357969     3.350326     3.342683     3.335040     3.327396     3.319753
      3.312110     3.304467     3.296824     3.289180     3.281537     3.273894     3.266251     3.258607     3.250964     3.243321
      3.235678     3.228034     3.220391     3.212748     3.205105     3.197462     3.189818     3.182175     3.174532     3.166889
      3.159245     3.151602     3.143959     3.136316     3.128673     3.121029     3.113386     3.105743     3.098100     3.090456
      3.082813     3.075170     3.067527     3.059884     3.052240     3.044597     3.036954     3.029311     3.021667     3.014024
      3.006381     2.998738     2.991095     2.983451     2.975808     2.968165     2.960522     2.952878     2.945235     2.937592
      2.929949     2.922306     2.914662     2.907019     2.899376     2.891733     2.884089     2.876446     2.868803     2.861160
      2.853517     2.845873     2.838230     2.830587     2.822944     2.815300     2.807657     2.800014     2.792371     2.784728
      2.777084     2.769441     2.761798     2.754155     2.746511     2.738868     2.731225     2.723582     2.715939     2.708295
      2.700652     2.693009     2.685366     2.677722     2.670079     2.662436     2.654793     2.647150     2.639506     2.631863
      2.624220     2.616577     2.608933     2.601290     2.593647     2.586004     2.578361     2.570717     2.563074     2.555431
      2.547788     2.540144     2.532501     2.524858     2.517215     2.509572     2.501928     2.494285     2.486642     2.478999
      2.471355     2.463712     2.456069     2.448426     2.440783     2.433139     2.425496     2.417853     2.410210     2.402566
      2.394923     2.387280     2.379637     2.371994     2.364350     2.356707     2.349064     2.341421     2.333777     2.326134
      2.318491     2.310848     2.303205     2.295561     2.287918     2.280275     2.272632     2.264988     2.257345     2.249702
      2.242059     2.234416     2.226772     2.219129     2.211486     2.203843     2.196199     2.188556     2.180913     2.173270
      2.165627     2.157983     2.150340     2.142697     2.135054     2.127410     2.119767     2.112124     2.104481     2.096838
      2.089194     2.081551     2.073908     2.066265     2.058621     2.050978     2.043335     2.035692     2.028049     2.020405
      2.012762     2.005119     1.997476     1.989833     1.982190     1.974546     1.966903     1.959260     1.951617     1.943974
      1.936331     1.928688     1.921045     1.913402     1.905759     1.898115     1.890472     1.882829     1.875186     1.867543
      1.859900     1.852257     1.844614     1.836971     1.829327     1.821684     1.814041     1.806398     1.798755     1.791112
      1.783469     1.775826     1.768183     1.760540     1.752896     1.745253     1.737610     1.729967     1.722324     1.714681
      1.707038     1.699395     1.691752     1.684108     1.676465     1.668822     1.661179     1.653536     1.645893     1.638250
      1.630607     1.622964     1.615321     1.607677     1.600034     1.592391     1.584748     1.577105     1.569462     1.561819
      1.554176     1.546533     1.538890     1.531246     1.523603     1.515960     1.508317     1.500674     1.493031     1.485388
      1.477745     1.470102     1.462458     1.454815     1.447172     1.439529     1.431886     1.424243     1.416600     1.408957
      1.401314     1.393671     1.386027     1.378384     1.370741     1.363098     1.355455     1.347812     1.340169     1.332526
      1.324883     1.317240     1.309596     1.301953     1.294310     1.286667     1.279024     1.271381     1.263738     1.256095
      1.248452     1.240808     1.233165     1.225522     1.217879     1.210236     1.202593     1.194950     1.187307     1.179664
      1.172021     1.164377     1.156734     1.149091     1.141448     1.133805     1.126162     1.118519     1.110876     1.103233
      1.095590     1.087946     1.080303     1.072660     1.065017     1.057374     1.049731     1.042088     1.034445     1.026802
      1.019158     1.011515     1.003872     0.996229     0.988586     0.980943     0.973300     0.965657     0.958014     0.950371
      0.942727     0.935084     0.927441     0.919798     0.912155     0.904512     0.896869     0.889226     0.881583     0.873940
      0.866296     0.858653     0.851010     0.843367     0.835724     0.828081     0.820438     0.812795     0.805152     0.797508
      0.789865     0.782222     0.774579     0.766936     0.759293     0.751650     0.744007     0.736364     0.728721     0.721077
      0.713434     0.705791     0.698148     0.690505     0.682862     0.675219     0.667576     0.659933     0.652290     0.644646
      0.637003     0.629360     0.621717     0.614074     0.606431     0.598788     0.591145     0.583502     0.575858     0.568215
      0.560572     0.552929     0.545286     0.537643     0.530000     0.522357     0.514714     0.507071     0.499427     0.491784
      0.484141     0.476498     0.468855     0.461212     0.453569     0.445925     0.438282     0.430639     0.422996     0.415353
      0.407710     0.400067     0.392424     0.384780     0.377137     0.369494     0.361851     0.354208     0.346565     0.338922
      0.331278     0.323635     0.315992     0.308349     0.300706     0.293063     0.285420     0.277777     0.270133     0.262490
      0.254847     0.247204     0.239561     0.231918     0.224275     0.216631     0.208988     0.201345
 NY phased data points follow
  -8.28554E+00 -7.59811E+00 -8.30064E+00 -9.85804E+00 -8.21530E+00 -6.98570E+00 -7.17858E+00 -9.09671E+00 -6.45157E+00 -7.33085E+00
  -5.11244E+00 -7.28674E+00 -5.90161E+00 -8.87226E+00 -6.18367E+00 -5.36452E+00 -7.83701E+00 -7.76505E+00 -5.81868E+00 -8.56955E+00
  -7.94907E+00 -6.68876E+00 -7.32411E+00 -6.36038E+00 -7.59629E+00 -7.64473E+00 -7.36034E+00 -6.31660E+00 -4.83142E+00 -4.19664E+00
  -6.20616E+00 -5.17063E+00 -6.13501E+00 -5.80633E+00 -4.57494E+00 -6.14289E+00 -6.24036E+00 -6.77830E+00 -7.75028E+00 -5.26872E+00
  -6.92842E+00 -5.56446E+00 -4.34736E+00 -5.55923E+00 -5.38176E+00 -5.61654E+00 -3.83325E+00 -5.15172E+00 -3.46574E+00 -2.15496E+00
  -5.54968E+00 -3.99037E+00 -4.24499E+00 -4.69386E+00 -5.86279E+00 -4.21572E+00 -4.14006E+00 -5.41615E+00 -4.50781E+00 -4.43133E+00
  -2.71123E+00 -4.77707E+00 -3.58322E+00 -6.24517E+00 -3.71913E+00 -3.80510E+00 -5.58495E+00 -4.40271E+00 -4.38434E+00 -4.42632E+00
  -7.97464E+00 -5.60653E+00 -4.39719E+00 -5.41187E+00 -4.71357E+00 -4.91162E+00 -3.33717E+00 -2.15032E+00 -3.93662E+00 -5.11368E+00
  -4.50417E+00 -9.05796E-01 -3.88821E+00 -2.48361E+00 -4.79345E+00 -4.64185E+00 -2.46069E+00 -6.39461E+00 -2.75199E+00 -4.68652E+00
  -2.85064E+00 -2.07304E+00 -1.64610E+00 -3.13676E+00 -4.10876E+00 -2.90565E+00 -2.87488E+00 -3.28080E+00 -1.01406E+00 -5.15659E+00
  -1.78710E+00  1.56964E+00  1.39525E+00  7.04336E-01  2.61452E+00 -4.11069E-01 -3.92801E-01 -1.21260E+00 -3.48312E+00 -2.92874E+00
  -4.02591E+00 -2.96484E+00 -3.49289E+00 -3.38594E-01 -5.84663E+00 -2.44975E+00 -2.50673E+00 -3.66233E+00 -3.50090E+00 -2.54781E+00
  -1.42614E+00 -2.07755E+00 -1.08156E+00 -1.18239E+00  2.17578E-01  5.35371E-01  1.60696E+00  4.48797E+00  1.85423E+00  8.36412E-01
  -6.44315E-01 -9.43142E-01 -3.88474E-01 -9.51738E-01 -1.72755E+00 -1.37304E+00 -3.65909E+00 -1.83709E+00 -1.35245E+00 -4.74228E-01
  -2.45206E+00 -2.93638E+00 -3.59538E+00 -4.01153E+00 -3.71319E+00 -1.20744E+00 -4.36574E+00 -3.45415E+00 -2.73773E+00 -4.01339E+00
  -2.03927E+00 -2.90466E+00 -2.51019E+00 -3.25375E+00 -1.93600E+00 -3.23410E+00 -5.26888E+00 -1.95762E+00 -3.00714E+00 -1.82948E+00
  -3.73186E+00 -2.04783E+00 -1.87397E+00 -2.98807E+00 -3.71786E+00 -2.62213E+00 -8.09148E-01 -4.26889E+00 -4.40136E+00 -5.47721E+00
  -3.24780E+00 -2.89409E+00 -3.32547E+00 -3.61655E+00 -3.61366E+00 -3.92339E+00 -4.62896E+00 -5.70565E+00 -4.67366E+00 -1.83354E+00
  -3.28235E+00 -3.47965E+00 -2.35597E+00 -3.50043E-01 -1.50151E+00 -2.13414E+00 -2.42248E+00 -1.39868E+00 -2.62987E+00 -4.00289E+00
  -2.86331E+00 -1.61094E+00 -2.54520E-01 -2.99784E+00 -1.46663E+00 -1.23088E-01 -2.57720E+00 -3.70883E+00 -2.80707E+00 -2.29733E+00
  -1.70434E+00 -9.58480E-01 -2.40748E+00 -3.43712E+00 -2.31938E+00 -3.16025E+00 -9.38905E-01 -1.57070E+00 -6.33202E+00 -3.70787E+00
  -1.10642E+00 -3.25580E+00 -2.06105E+00 -1.32226E+00 -1.28958E-01  1.36872E+00 -3.55141E-01 -8.41522E-01  8.67784E-01 -9.30780E-01
  -1.60464E+00 -1.63580E+00 -3.84003E+00 -1.53982E+00 -1.34069E-01  2.93229E-01  2.00739E-01 -8.85400E-01 -7.31601E-01  6.52515E-01
   2.31078E-01 -2.49662E-01 -1.07319E+00 -1.06373E-01 -1.15177E+00  4.37746E-01  3.65318E-01  8.88946E-01 -7.79165E-01  8.71263E-01
   1.29980E+00  4.52123E-01  8.61337E-01 -8.67939E-01  9.83252E-01  3.80483E-01  1.75231E+00  9.11942E-01 -7.11780E-01 -1.32917E+00
   1.62498E+00  2.22216E+00  2.82225E+00  8.11831E-01  3.58257E+00  3.54251E+00  4.47009E+00  9.97535E+00  1.12252E+01  1.49296E+01
   1.55050E+01  1.48225E+01  1.31461E+01  1.10528E+01  7.72100E+00  4.78106E+00  4.66806E+00  2.74674E+00  1.24917E+00  1.16354E-01
   5.05344E-01 -1.79239E-02  1.41424E+00  3.28109E+00  1.93887E+00 -3.20072E-01 -4.00992E-01 -2.43022E-01  2.43296E+00  7.27189E-01
   9.14572E-01 -7.39950E-01  9.76439E-01 -5.12180E-01  1.78776E+00  1.14677E+00 -1.19394E+00 -5.97388E-01 -1.24595E-01 -4.11167E-02
   1.55560E+00 -6.05709E-01  1.00741E+00  6.60882E-01 -9.04922E-01  7.06349E-01 -5.94644E-01  6.86133E-01 -1.24896E-02  5.89146E-01
   2.01131E+00  2.72486E+00  7.50175E-01 -7.41231E-01 -4.00352E-01  1.94258E+00 -8.34561E-01  1.28799E+00 -3.95137E-01  4.59162E+00
   3.80700E+00  4.46932E+00  2.00986E+00  4.00438E+00  2.83413E+00  2.95517E+00  8.78803E-01  2.16761E+00  2.74207E+00  1.77345E+00
   1.26721E+00  1.98793E+00  2.00339E+00  1.49379E+00  1.23636E+00  3.75475E-01  9.55630E-01 -3.04706E-02  1.49837E+00  4.20418E-01
  -1.78243E+00 -5.79736E-01 -4.92107E-02 -3.74494E-01 -3.92383E-01  3.75787E+00 -6.76147E-01 -5.04150E-01 -4.62370E-01 -4.72588E-02
   1.08154E+00  8.65345E-01  2.63724E+00 -1.59840E+00  2.05005E+00  1.38007E+00  2.32859E+00  9.43233E-01 -2.72472E-01  8.49929E-01
   5.25024E-01  1.97653E+00  1.85933E+00  1.91509E+00  8.76487E-01 -2.26578E-01  1.44737E+00  1.96510E-01  1.94600E+00  6.48324E-01
   1.37514E+00  3.27528E+00  3.53684E+00  3.46711E+00  4.62958E+00  2.69559E+00  6.74802E+00  4.23319E+00  3.02002E+00  2.80443E+00
   3.56650E+00  1.90999E+00  2.50878E+00  1.91143E+00  2.98890E+00  2.27935E+00 -2.20578E-01  3.59641E+00  2.43555E+00  2.30529E+00
   1.26259E+00  2.60333E+00  1.04450E+00  4.71736E-01  3.86330E-01 -1.41352E+00  1.63329E+00  2.09625E+00  2.11466E+00  8.19431E-01
   4.58364E-01  1.06828E+00  2.41475E+00  2.82603E+00  1.52237E+00  5.69612E-01 -1.37521E+00  5.77705E-01  1.95370E+00  2.20015E-01
   3.00815E+00  1.50359E+00  4.68990E-01  2.02699E+00  2.92920E+00  1.76275E+00  1.40150E+00  2.02725E+00  3.47683E+00  1.71892E+00
   2.83703E+00 -6.14953E-01  7.59940E-01  2.31343E+00 -4.41679E-02  1.83355E+00  1.94634E+00  3.02555E+00  2.06743E+00  3.10546E+00
   6.96018E-01  6.77414E-01  3.31578E+00  6.03484E-01 -2.03615E-01 -6.43994E-01  1.66546E+00  2.20441E+00  8.48129E-01  3.97141E-01
   7.92654E-01 -1.29663E+00  2.74538E+00  2.75901E+00  2.93807E+00  1.14964E+00  8.22503E-03  1.47006E+00  1.45981E-01  8.59181E-01
   7.43590E-01  7.48074E-01  3.09126E+00 -3.81975E-01 -2.82692E-02  1.55069E+00  1.21665E+00  1.02844E+00  1.80476E+00  2.71552E+00
   8.77112E-01  1.63628E+00  1.89637E+00  1.08914E+00  1.06334E+00  1.76401E+00  8.52429E-01  2.54065E+00  4.42108E-01  1.04682E+00
  -3.78670E-01  2.77816E+00 -1.14395E+00  1.70470E+00  6.68208E-01  1.00346E+00  2.26766E+00  1.61828E+00  1.01194E+00  2.20847E+00
   2.85913E-02  1.12041E+00  1.45184E+00  2.41857E+00  2.04744E-01  1.17004E+00  1.92363E+00  4.11272E-02  1.98611E+00  5.78985E-01
   9.65080E-01  6.84258E-01  3.68085E+00  3.05849E-01 -5.70022E-01 -4.84160E-01  1.14707E+00  1.62076E+00 -1.73127E+00  8.36653E-01
  -6.65624E-01  2.47597E+00  6.58032E-01  1.01742E+00  1.21729E+00  2.49142E+00  3.93313E+00  9.48520E-01
 NY points of the fit to the data follow
  -6.22649E+00 -6.23650E+00 -6.30773E+00 -6.44402E+00 -6.57080E+00 -6.68161E+00 -6.73710E+00 -6.69419E+00 -6.54512E+00 -6.33336E+00
  -6.12258E+00 -5.96385E+00 -5.87947E+00 -5.85236E+00 -5.84535E+00 -5.84440E+00 -5.89084E+00 -5.93321E+00 -5.89515E+00 -5.80498E+00
  -5.68274E+00 -5.56273E+00 -5.48624E+00 -5.48565E+00 -5.57072E+00 -5.72173E+00 -5.86324E+00 -5.92201E+00 -5.84553E+00 -5.62885E+00
  -5.32618E+00 -5.03607E+00 -4.84987E+00 -4.81147E+00 -4.91051E+00 -5.09479E+00 -5.29265E+00 -5.44097E+00 -5.51381E+00 -5.51780E+00
  -5.46128E+00 -5.36834E+00 -5.25446E+00 -5.13200E+00 -5.01213E+00 -4.91214E+00 -4.84795E+00 -4.82547E+00 -4.84084E+00 -4.88682E+00
  -4.94714E+00 -5.00492E+00 -5.04741E+00 -5.07297E+00 -5.07913E+00 -5.06056E+00 -5.01615E+00 -4.95701E+00 -4.89694E+00 -4.84838E+00
  -4.81292E+00 -4.78887E+00 -4.77610E+00 -4.76637E+00 -4.75428E+00 -4.74196E+00 -4.72873E+00 -4.71329E+00 -4.69551E+00 -4.66645E+00
  -4.61297E+00 -4.53983E+00 -4.45651E+00 -4.37715E+00 -4.31995E+00 -4.30166E+00 -4.32444E+00 -4.37266E+00 -4.42784E+00 -4.46454E+00
  -4.44062E+00 -4.34798E+00 -4.21238E+00 -4.05341E+00 -3.89852E+00 -3.79022E+00 -3.75142E+00 -3.78300E+00 -3.86980E+00 -3.98463E+00
  -4.09884E+00 -4.20108E+00 -4.28752E+00 -4.33927E+00 -4.33252E+00 -4.26585E+00 -4.11951E+00 -3.73762E+00 -3.03287E+00 -2.07649E+00
  -9.60128E-01  1.34037E-01  9.57422E-01  1.30264E+00  1.11169E+00  4.89626E-01 -3.56721E-01 -1.22071E+00 -1.99058E+00 -2.65251E+00
  -3.17954E+00 -3.46644E+00 -3.55473E+00 -3.58429E+00 -3.59452E+00 -3.59541E+00 -3.58623E+00 -3.57010E+00 -3.54557E+00 -3.50138E+00
  -3.37328E+00 -2.96847E+00 -2.24305E+00 -1.26773E+00 -1.52118E-01  8.99746E-01  1.63284E+00  1.86501E+00  1.57614E+00  9.00570E-01
   4.64197E-02 -8.00125E-01 -1.54520E+00 -2.18044E+00 -2.65815E+00 -2.87925E+00 -2.94419E+00 -2.96965E+00 -2.98074E+00 -2.98466E+00
  -2.98324E+00 -2.97742E+00 -2.96837E+00 -2.95688E+00 -2.94406E+00 -2.93459E+00 -2.93119E+00 -2.93233E+00 -2.93474E+00 -2.93581E+00
  -2.93483E+00 -2.93117E+00 -2.92367E+00 -2.91252E+00 -2.90104E+00 -2.90684E+00 -2.94238E+00 -3.00429E+00 -3.08137E+00 -3.14562E+00
  -3.17421E+00 -3.15848E+00 -3.10121E+00 -3.02550E+00 -2.96396E+00 -2.94127E+00 -2.96093E+00 -3.00825E+00 -3.06787E+00 -3.13880E+00
  -3.22447E+00 -3.32440E+00 -3.41609E+00 -3.47778E+00 -3.50535E+00 -3.50563E+00 -3.47967E+00 -3.43110E+00 -3.37511E+00 -3.32351E+00
  -3.27966E+00 -3.24561E+00 -3.21146E+00 -3.16261E+00 -3.10588E+00 -3.03598E+00 -2.92533E+00 -2.77217E+00 -2.60069E+00 -2.44717E+00
  -2.33679E+00 -2.26089E+00 -2.21151E+00 -2.18071E+00 -2.16295E+00 -2.15334E+00 -2.13228E+00 -2.07388E+00 -1.95804E+00 -1.77496E+00
  -1.54204E+00 -1.30662E+00 -1.12623E+00 -1.06908E+00 -1.20539E+00 -1.51178E+00 -1.93016E+00 -2.39318E+00 -2.78924E+00 -2.99678E+00
  -2.93771E+00 -2.63572E+00 -2.16149E+00 -1.61724E+00 -1.12957E+00 -8.11612E-01 -7.32850E-01 -9.07605E-01 -1.26989E+00 -1.66720E+00
  -1.97844E+00 -2.13501E+00 -2.09899E+00 -1.87156E+00 -1.50488E+00 -1.11399E+00 -7.85995E-01 -5.50334E-01 -4.03075E-01 -3.39958E-01
  -3.67303E-01 -4.44273E-01 -5.10988E-01 -5.31062E-01 -4.87823E-01 -3.59622E-01 -1.59963E-01  6.10294E-02  2.60131E-01  3.91621E-01
   4.32008E-01  4.00743E-01  3.43742E-01  2.90393E-01  2.57387E-01  2.72066E-01  3.40703E-01  4.57679E-01  6.19069E-01  8.24649E-01
   1.05181E+00  1.27546E+00  1.50173E+00  1.78851E+00  2.48382E+00  4.03027E+00  6.30945E+00  9.09339E+00  1.19594E+01  1.42455E+01
   1.53107E+01  1.48849E+01  1.31682E+01  1.06886E+01  8.03743E+00  5.62809E+00  3.56529E+00  1.86362E+00  7.67895E-01  3.45614E-01
   1.68290E-01  6.93619E-02  1.60323E-02 -1.47858E-02 -4.01702E-02 -6.86914E-02 -1.06443E-01 -1.55246E-01 -2.12614E-01 -2.73463E-01
  -3.32296E-01 -3.82668E-01 -4.20365E-01 -4.45545E-01 -4.59317E-01 -4.63784E-01 -4.61338E-01 -4.53367E-01 -4.40727E-01 -4.23598E-01
  -4.00428E-01 -3.69871E-01 -3.30589E-01 -2.80845E-01 -2.18672E-01 -1.43083E-01 -5.35903E-02  5.01169E-02  1.67922E-01  2.98590E-01
   4.40550E-01  5.91485E-01  7.48217E-01  9.06947E-01  1.06357E+00  1.21355E+00  1.35244E+00  1.47583E+00  1.57994E+00  1.66148E+00
   1.71828E+00  1.74916E+00  1.75425E+00  1.73476E+00  1.69321E+00  1.63302E+00  1.55860E+00  1.47502E+00  1.38811E+00  1.30459E+00
   1.23404E+00  1.18825E+00  1.15824E+00  1.12649E+00  1.07906E+00  1.00025E+00  8.80537E-01  7.24693E-01  5.52338E-01  4.04239E-01
   3.20224E-01  3.15551E-01  3.90402E-01  5.30776E-01  7.14559E-01  9.11875E-01  1.08033E+00  1.19793E+00  1.27070E+00  1.31382E+00
   1.34242E+00  1.36282E+00  1.37866E+00  1.40559E+00  1.45162E+00  1.50861E+00  1.57208E+00  1.63966E+00  1.70976E+00  1.78087E+00
   1.85162E+00  1.92053E+00  1.98621E+00  2.04717E+00  2.10206E+00  2.14952E+00  2.18844E+00  2.21781E+00  2.23694E+00  2.24529E+00
   2.24271E+00  2.22926E+00  2.20538E+00  2.17169E+00  2.12915E+00  2.07883E+00  2.02207E+00  1.96022E+00  1.89483E+00  1.82735E+00
   1.75931E+00  1.69209E+00  1.62705E+00  1.56538E+00  1.50821E+00  1.45644E+00  1.41091E+00  1.37224E+00  1.34101E+00  1.31761E+00
   1.30240E+00  1.29556E+00  1.29729E+00  1.30760E+00  1.32655E+00  1.35403E+00  1.38996E+00  1.43404E+00  1.48599E+00  1.54528E+00
   1.61139E+00  1.68350E+00  1.76072E+00  1.84188E+00  1.92572E+00  2.01073E+00  2.09532E+00  2.17770E+00  2.25610E+00  2.32864E+00
   2.39358E+00  2.44922E+00  2.49414E+00  2.52708E+00  2.54718E+00  2.55385E+00  2.54697E+00  2.52673E+00  2.49379E+00  2.44905E+00
   2.39382E+00  2.32953E+00  2.25791E+00  2.18068E+00  2.09967E+00  2.01658E+00  1.93307E+00  1.85059E+00  1.77046E+00  1.69372E+00
   1.62126E+00  1.55365E+00  1.49136E+00  1.43458E+00  1.38342E+00  1.33775E+00  1.29744E+00  1.26218E+00  1.23168E+00  1.20554E+00
   1.18345E+00  1.16498E+00  1.14980E+00  1.13754E+00  1.12790E+00  1.12055E+00  1.11526E+00  1.11176E+00  1.10987E+00  1.10935E+00
   1.11009E+00  1.11190E+00  1.11469E+00  1.11831E+00  1.12270E+00  1.12775E+00  1.13341E+00  1.13959E+00  1.14627E+00  1.15335E+00
   1.16084E+00  1.16866E+00  1.17682E+00  1.18525E+00  1.19395E+00  1.20288E+00  1.21204E+00  1.22137E+00  1.23091E+00  1.24061E+00
   1.25047E+00  1.26045E+00  1.27058E+00  1.28082E+00  1.29119E+00  1.30165E+00  1.31222E+00  1.32287E+00  1.33361E+00  1.34442E+00
   1.35532E+00  1.36628E+00  1.37732E+00  1.38839E+00  1.39955E+00  1.41075E+00  1.42202E+00  1.43332E+00  1.44469E+00  1.45608E+00
   1.46754E+00  1.47902E+00  1.49057E+00  1.50213E+00  1.51375E+00  1.52539E+00  1.53709E+00  1.54881E+00  1.56059E+00  1.57238E+00
   1.58424E+00  1.59611E+00  1.60805E+00  1.62001E+00  1.63203E+00  1.64408E+00  1.65620E+00  1.66836E+00
 NY background values follow
    -6.308E+00   -6.287E+00   -6.267E+00   -6.246E+00   -6.226E+00   -6.205E+00   -6.184E+00   -6.164E+00   -6.143E+00   -6.123E+00
    -6.102E+00   -6.081E+00   -6.061E+00   -6.040E+00   -6.019E+00   -5.999E+00   -5.978E+00   -5.957E+00   -5.937E+00   -5.916E+00
    -5.896E+00   -5.875E+00   -5.854E+00   -5.834E+00   -5.813E+00   -5.792E+00   -5.772E+00   -5.751E+00   -5.730E+00   -5.710E+00
    -5.689E+00   -5.668E+00   -5.648E+00   -5.627E+00   -5.606E+00   -5.586E+00   -5.565E+00   -5.544E+00   -5.524E+00   -5.503E+00
    -5.482E+00   -5.462E+00   -5.441E+00   -5.420E+00   -5.400E+00   -5.379E+00   -5.359E+00   -5.338E+00   -5.317E+00   -5.297E+00
    -5.276E+00   -5.256E+00   -5.235E+00   -5.214E+00   -5.194E+00   -5.173E+00   -5.153E+00   -5.132E+00   -5.111E+00   -5.091E+00
    -5.070E+00   -5.050E+00   -5.029E+00   -5.009E+00   -4.988E+00   -4.968E+00   -4.947E+00   -4.927E+00   -4.906E+00   -4.886E+00
    -4.866E+00   -4.845E+00   -4.825E+00   -4.804E+00   -4.784E+00   -4.763E+00   -4.743E+00   -4.723E+00   -4.702E+00   -4.682E+00
    -4.662E+00   -4.641E+00   -4.621E+00   -4.601E+00   -4.581E+00   -4.560E+00   -4.540E+00   -4.520E+00   -4.500E+00   -4.480E+00
    -4.459E+00   -4.439E+00   -4.419E+00   -4.399E+00   -4.379E+00   -4.359E+00   -4.339E+00   -4.319E+00   -4.299E+00   -4.279E+00
    -4.259E+00   -4.239E+00   -4.219E+00   -4.199E+00   -4.179E+00   -4.159E+00   -4.139E+00   -4.119E+00   -4.100E+00   -4.080E+00
    -4.060E+00   -4.040E+00   -4.021E+00   -4.001E+00   -3.981E+00   -3.961E+00   -3.942E+00   -3.922E+00   -3.903E+00   -3.883E+00
    -3.863E+00   -3.844E+00   -3.824E+00   -3.805E+00   -3.785E+00   -3.766E+00   -3.746E+00   -3.727E+00   -3.708E+00   -3.688E+00
    -3.669E+00   -3.650E+00   -3.630E+00   -3.611E+00   -3.592E+00   -3.573E+00   -3.553E+00   -3.534E+00   -3.515E+00   -3.496E+00
    -3.477E+00   -3.458E+00   -3.439E+00   -3.420E+00   -3.401E+00   -3.382E+00   -3.363E+00   -3.344E+00   -3.325E+00   -3.306E+00
    -3.287E+00   -3.268E+00   -3.250E+00   -3.231E+00   -3.212E+00   -3.193E+00   -3.175E+00   -3.156E+00   -3.137E+00   -3.119E+00
    -3.100E+00   -3.082E+00   -3.063E+00   -3.045E+00   -3.026E+00   -3.008E+00   -2.989E+00   -2.971E+00   -2.953E+00   -2.934E+00
    -2.916E+00   -2.898E+00   -2.879E+00   -2.861E+00   -2.843E+00   -2.825E+00   -2.807E+00   -2.788E+00   -2.770E+00   -2.752E+00
    -2.734E+00   -2.716E+00   -2.698E+00   -2.680E+00   -2.662E+00   -2.644E+00   -2.627E+00   -2.609E+00   -2.591E+00   -2.573E+00
    -2.555E+00   -2.538E+00   -2.520E+00   -2.502E+00   -2.484E+00   -2.467E+00   -2.449E+00   -2.432E+00   -2.414E+00   -2.397E+00
    -2.379E+00   -2.362E+00   -2.344E+00   -2.327E+00   -2.310E+00   -2.292E+00   -2.275E+00   -2.258E+00   -2.240E+00   -2.223E+00
    -2.206E+00   -2.189E+00   -2.172E+00   -2.155E+00   -2.137E+00   -2.120E+00   -2.103E+00   -2.086E+00   -2.069E+00   -2.053E+00
    -2.036E+00   -2.019E+00   -2.002E+00   -1.985E+00   -1.968E+00   -1.952E+00   -1.935E+00   -1.918E+00   -1.902E+00   -1.885E+00
    -1.868E+00   -1.852E+00   -1.835E+00   -1.819E+00   -1.802E+00   -1.786E+00   -1.770E+00   -1.753E+00   -1.737E+00   -1.721E+00
    -1.704E+00   -1.688E+00   -1.672E+00   -1.656E+00   -1.639E+00   -1.623E+00   -1.607E+00   -1.591E+00   -1.575E+00   -1.559E+00
    -1.543E+00   -1.527E+00   -1.511E+00   -1.495E+00   -1.480E+00   -1.464E+00   -1.448E+00   -1.432E+00   -1.417E+00   -1.401E+00
    -1.385E+00   -1.370E+00   -1.354E+00   -1.338E+00   -1.323E+00   -1.307E+00   -1.292E+00   -1.277E+00   -1.261E+00   -1.246E+00
    -1.230E+00   -1.215E+00   -1.200E+00   -1.185E+00   -1.169E+00   -1.154E+00   -1.139E+00   -1.124E+00   -1.109E+00   -1.094E+00
    -1.079E+00   -1.064E+00   -1.049E+00   -1.034E+00   -1.019E+00   -1.004E+00   -9.892E-01   -9.744E-01   -9.596E-01   -9.449E-01
    -9.302E-01   -9.155E-01   -9.008E-01   -8.862E-01   -8.715E-01   -8.570E-01   -8.424E-01   -8.279E-01   -8.134E-01   -7.989E-01
    -7.845E-01   -7.701E-01   -7.557E-01   -7.413E-01   -7.270E-01   -7.127E-01   -6.984E-01   -6.841E-01   -6.699E-01   -6.557E-01
    -6.415E-01   -6.274E-01   -6.133E-01   -5.992E-01   -5.851E-01   -5.711E-01   -5.571E-01   -5.431E-01   -5.291E-01   -5.152E-01
    -5.012E-01   -4.874E-01   -4.735E-01   -4.596E-01   -4.458E-01   -4.320E-01   -4.183E-01   -4.045E-01   -3.908E-01   -3.771E-01
    -3.634E-01   -3.498E-01   -3.361E-01   -3.225E-01   -3.089E-01   -2.954E-01   -2.818E-01   -2.683E-01   -2.548E-01   -2.413E-01
    -2.279E-01   -2.144E-01   -2.010E-01   -1.876E-01   -1.742E-01   -1.609E-01   -1.476E-01   -1.342E-01   -1.209E-01   -1.077E-01
    -9.441E-02   -8.118E-02   -6.796E-02   -5.476E-02   -4.157E-02   -2.841E-02   -1.526E-02   -2.137E-03    1.097E-02    2.407E-02
     3.714E-02    5.020E-02    6.324E-02    7.627E-02    8.927E-02    1.023E-01    1.152E-01    1.282E-01    1.411E-01    1.541E-01
     1.670E-01    1.799E-01    1.928E-01    2.056E-01    2.185E-01    2.313E-01    2.441E-01    2.570E-01    2.697E-01    2.825E-01
     2.953E-01    3.081E-01    3.208E-01    3.335E-01    3.462E-01    3.589E-01    3.716E-01    3.843E-01    3.970E-01    4.096E-01
     4.223E-01    4.349E-01    4.475E-01    4.601E-01    4.727E-01    4.853E-01    4.979E-01    5.104E-01    5.230E-01    5.355E-01
     5.481E-01    5.606E-01    5.731E-01    5.856E-01    5.981E-01    6.106E-01    6.231E-01    6.355E-01    6.480E-01    6.605E-01
     6.729E-01    6.853E-01    6.978E-01    7.102E-01    7.226E-01    7.350E-01    7.474E-01    7.598E-01    7.722E-01    7.845E-01
     7.969E-01    8.093E-01    8.216E-01    8.339E-01    8.463E-01    8.586E-01    8.709E-01    8.832E-01    8.955E-01    9.079E-01
     9.201E-01    9.324E-01    9.447E-01    9.570E-01    9.693E-01    9.815E-01    9.938E-01    1.006E+00    1.018E+00    1.030E+00
     1.043E+00    1.055E+00    1.067E+00    1.079E+00    1.092E+00    1.104E+00    1.116E+00    1.128E+00    1.140E+00    1.153E+00
     1.165E+00    1.177E+00    1.189E+00    1.201E+00    1.213E+00    1.226E+00    1.238E+00    1.250E+00    1.262E+00    1.274E+00
     1.286E+00    1.298E+00    1.311E+00    1.323E+00    1.335E+00    1.347E+00    1.359E+00    1.371E+00    1.383E+00    1.395E+00
     1.407E+00    1.419E+00    1.432E+00    1.444E+00    1.456E+00    1.468E+00    1.480E+00    1.492E+00    1.504E+00    1.516E+00
     1.528E+00    1.540E+00    1.552E+00    1.564E+00    1.576E+00    1.588E+00    1.600E+00    1.612E+00    1.624E+00    1.636E+00
     1.648E+00    1.660E+00    1.672E+00    1.685E+00    1.697E+00    1.709E+00    1.721E+00    1.733E+00
 Ala      Conc. = 3.11E+01
