 LCModel (Version 6.3-1L) Copyright: S.W. Provencher.          Ref.: Magn. Reson. Med. 30:672-679 (1993).                
 Slice#3 Row#9 Col#5  PD_05_press_1_raw_act
 36 lines in following concentration table = NCONC+1
    Conc.  %SD /Cr+PCr  Metabolite                                         
   74.604  81% 7.1E-02 Ala                                                 
    0.000 999%   0.000 Asp                                                 
  459.675  27%   0.436 Cr                                                  
  595.772  21%   0.564 PCr                                                 
    0.000 999%   0.000 GABA                                                
    0.000 999%   0.000 Glc                                                 
  499.864  25%   0.474 Gln                                                 
 1.19E+03  12%   1.126 Glu                                                 
  288.956   4%   0.274 GPC                                                 
    0.000 999%   0.000 PCh                                                 
  285.490  14%   0.270 GSH                                                 
  323.085  45%   0.306 Ins                                                 
   25.912 254% 2.5E-02 Lac                                                 
 1.55E+03   5%   1.467 NAA                                                 
  188.252  39%   0.178 NAAG                                                
    3.114 492% 2.9E-03 Scyllo                                              
    0.000 999%   0.000 Tau                                                 
    0.000 999%   0.000 -CrCH2                                              
  288.956   4%   0.274 GPC+PCh                                             
 1.74E+03   3%   1.645 NAA+NAAG                                            
 1.06E+03   3%   1.000 Cr+PCr                                              
 1.69E+03  12%   1.599 Glu+Gln                                             
 1.07E+03  27%   1.009 Lip13a                                              
    0.000 999%   0.000 Lip13b                                              
    0.000 999%   0.000 Lip09                                               
  951.635  16%   0.902 MM09                                                
  241.977  52%   0.229 Lip20                                               
 1.94E+03  13%   1.841 MM20                                                
  320.150  30%   0.303 MM12                                                
  907.524  27%   0.860 MM14                                                
  887.167  21%   0.841 MM17                                                
 1.07E+03  27%   1.009 Lip13a+Lip13b                                       
 2.29E+03  16%   2.172 MM14+Lip13a+Lip13b+MM12                             
  951.635  16%   0.902 MM09+Lip09                                          
 2.19E+03  12%   2.071 MM20+Lip20                                          
   6 lines in following misc. output table
  FWHM = 0.046 ppm    S/N =  16                                            
  Data shift = 0.008 ppm                                                   
  Ph:   6 deg      -1.9 deg/ppm                                            
  alphaB,S = 5.9E-01,   1.6E+02                                            
   14 spline knots.   Ns = 7(1)                                            
  ( 9) 4 infls.   ( 1) 1 extrs.                                            
  498 points on ppm-axis = NY
      4.000000     3.992357     3.984714     3.977070     3.969427     3.961784     3.954141     3.946497     3.938854     3.931211
      3.923568     3.915925     3.908281     3.900638     3.892995     3.885352     3.877708     3.870065     3.862422     3.854779
      3.847136     3.839492     3.831849     3.824206     3.816563     3.808919     3.801276     3.793633     3.785990     3.778347
      3.770703     3.763060     3.755417     3.747774     3.740130     3.732487     3.724844     3.717201     3.709558     3.701914
      3.694271     3.686628     3.678985     3.671341     3.663698     3.656055     3.648412     3.640769     3.633125     3.625482
      3.617839     3.610196     3.602552     3.594909     3.587266     3.579623     3.571980     3.564336     3.556693     3.549050
      3.541407     3.533763     3.526120     3.518477     3.510834     3.503191     3.495547     3.487904     3.480261     3.472618
      3.464974     3.457331     3.449688     3.442045     3.434402     3.426758     3.419115     3.411472     3.403829     3.396185
      3.388542     3.380899     3.373256     3.365613     3.357969     3.350326     3.342683     3.335040     3.327396     3.319753
      3.312110     3.304467     3.296824     3.289180     3.281537     3.273894     3.266251     3.258607     3.250964     3.243321
      3.235678     3.228034     3.220391     3.212748     3.205105     3.197462     3.189818     3.182175     3.174532     3.166889
      3.159245     3.151602     3.143959     3.136316     3.128673     3.121029     3.113386     3.105743     3.098100     3.090456
      3.082813     3.075170     3.067527     3.059884     3.052240     3.044597     3.036954     3.029311     3.021667     3.014024
      3.006381     2.998738     2.991095     2.983451     2.975808     2.968165     2.960522     2.952878     2.945235     2.937592
      2.929949     2.922306     2.914662     2.907019     2.899376     2.891733     2.884089     2.876446     2.868803     2.861160
      2.853517     2.845873     2.838230     2.830587     2.822944     2.815300     2.807657     2.800014     2.792371     2.784728
      2.777084     2.769441     2.761798     2.754155     2.746511     2.738868     2.731225     2.723582     2.715939     2.708295
      2.700652     2.693009     2.685366     2.677722     2.670079     2.662436     2.654793     2.647150     2.639506     2.631863
      2.624220     2.616577     2.608933     2.601290     2.593647     2.586004     2.578361     2.570717     2.563074     2.555431
      2.547788     2.540144     2.532501     2.524858     2.517215     2.509572     2.501928     2.494285     2.486642     2.478999
      2.471355     2.463712     2.456069     2.448426     2.440783     2.433139     2.425496     2.417853     2.410210     2.402566
      2.394923     2.387280     2.379637     2.371994     2.364350     2.356707     2.349064     2.341421     2.333777     2.326134
      2.318491     2.310848     2.303205     2.295561     2.287918     2.280275     2.272632     2.264988     2.257345     2.249702
      2.242059     2.234416     2.226772     2.219129     2.211486     2.203843     2.196199     2.188556     2.180913     2.173270
      2.165627     2.157983     2.150340     2.142697     2.135054     2.127410     2.119767     2.112124     2.104481     2.096838
      2.089194     2.081551     2.073908     2.066265     2.058621     2.050978     2.043335     2.035692     2.028049     2.020405
      2.012762     2.005119     1.997476     1.989833     1.982190     1.974546     1.966903     1.959260     1.951617     1.943974
      1.936331     1.928688     1.921045     1.913402     1.905759     1.898115     1.890472     1.882829     1.875186     1.867543
      1.859900     1.852257     1.844614     1.836971     1.829327     1.821684     1.814041     1.806398     1.798755     1.791112
      1.783469     1.775826     1.768183     1.760540     1.752896     1.745253     1.737610     1.729967     1.722324     1.714681
      1.707038     1.699395     1.691752     1.684108     1.676465     1.668822     1.661179     1.653536     1.645893     1.638250
      1.630607     1.622964     1.615321     1.607677     1.600034     1.592391     1.584748     1.577105     1.569462     1.561819
      1.554176     1.546533     1.538890     1.531246     1.523603     1.515960     1.508317     1.500674     1.493031     1.485388
      1.477745     1.470102     1.462458     1.454815     1.447172     1.439529     1.431886     1.424243     1.416600     1.408957
      1.401314     1.393671     1.386027     1.378384     1.370741     1.363098     1.355455     1.347812     1.340169     1.332526
      1.324883     1.317240     1.309596     1.301953     1.294310     1.286667     1.279024     1.271381     1.263738     1.256095
      1.248452     1.240808     1.233165     1.225522     1.217879     1.210236     1.202593     1.194950     1.187307     1.179664
      1.172021     1.164377     1.156734     1.149091     1.141448     1.133805     1.126162     1.118519     1.110876     1.103233
      1.095590     1.087946     1.080303     1.072660     1.065017     1.057374     1.049731     1.042088     1.034445     1.026802
      1.019158     1.011515     1.003872     0.996229     0.988586     0.980943     0.973300     0.965657     0.958014     0.950371
      0.942727     0.935084     0.927441     0.919798     0.912155     0.904512     0.896869     0.889226     0.881583     0.873940
      0.866296     0.858653     0.851010     0.843367     0.835724     0.828081     0.820438     0.812795     0.805152     0.797508
      0.789865     0.782222     0.774579     0.766936     0.759293     0.751650     0.744007     0.736364     0.728721     0.721077
      0.713434     0.705791     0.698148     0.690505     0.682862     0.675219     0.667576     0.659933     0.652290     0.644646
      0.637003     0.629360     0.621717     0.614074     0.606431     0.598788     0.591145     0.583502     0.575858     0.568215
      0.560572     0.552929     0.545286     0.537643     0.530000     0.522357     0.514714     0.507071     0.499427     0.491784
      0.484141     0.476498     0.468855     0.461212     0.453569     0.445925     0.438282     0.430639     0.422996     0.415353
      0.407710     0.400067     0.392424     0.384780     0.377137     0.369494     0.361851     0.354208     0.346565     0.338922
      0.331278     0.323635     0.315992     0.308349     0.300706     0.293063     0.285420     0.277777     0.270133     0.262490
      0.254847     0.247204     0.239561     0.231918     0.224275     0.216631     0.208988     0.201345
 NY phased data points follow
   5.62772E+01  5.68524E+01  5.68245E+01  5.73360E+01  5.69227E+01  5.83145E+01  6.06061E+01  6.58195E+01  6.54082E+01  7.34316E+01
   7.45619E+01  7.59233E+01  7.22488E+01  6.98840E+01  6.56402E+01  6.06659E+01  5.64462E+01  5.47957E+01  5.19296E+01  5.13384E+01
   4.98007E+01  4.83938E+01  4.87024E+01  4.90284E+01  4.84464E+01  4.69908E+01  5.05339E+01  5.09264E+01  5.02043E+01  4.92433E+01
   5.08605E+01  4.83450E+01  4.84489E+01  4.90814E+01  4.77280E+01  4.33970E+01  4.44194E+01  4.18109E+01  4.28602E+01  4.03185E+01
   4.17430E+01  4.00275E+01  3.83201E+01  4.02519E+01  3.96031E+01  4.29106E+01  4.36017E+01  4.38792E+01  4.38414E+01  4.43229E+01
   3.96318E+01  3.99274E+01  3.76334E+01  3.68326E+01  3.44353E+01  3.75865E+01  3.37049E+01  3.31543E+01  3.56528E+01  3.61507E+01
   3.46158E+01  3.19033E+01  2.96535E+01  3.00313E+01  2.88812E+01  2.75389E+01  3.05272E+01  2.64114E+01  2.77631E+01  2.77725E+01
   2.55966E+01  2.55968E+01  2.58001E+01  2.66408E+01  2.44002E+01  2.92863E+01  2.80346E+01  2.71586E+01  2.71305E+01  2.57198E+01
   2.33414E+01  2.31474E+01  2.54330E+01  2.60115E+01  2.39536E+01  2.62597E+01  2.22668E+01  2.41439E+01  2.37049E+01  2.53471E+01
   2.44023E+01  2.38564E+01  2.31727E+01  2.38645E+01  2.49185E+01  2.46065E+01  2.60094E+01  2.53764E+01  2.61464E+01  2.79327E+01
   3.59731E+01  4.10873E+01  4.64736E+01  4.76329E+01  4.60086E+01  4.63444E+01  3.88721E+01  3.36328E+01  3.36072E+01  2.73759E+01
   2.71483E+01  2.70716E+01  1.95891E+01  2.23571E+01  2.23236E+01  2.10880E+01  2.13457E+01  2.18208E+01  2.13459E+01  2.04960E+01
   1.95577E+01  2.12679E+01  2.17462E+01  2.86648E+01  3.49421E+01  4.06592E+01  4.82343E+01  5.17263E+01  5.25845E+01  4.94086E+01
   4.14292E+01  3.67516E+01  3.20376E+01  2.79111E+01  2.52722E+01  2.08500E+01  2.02908E+01  1.79258E+01  1.78487E+01  1.82268E+01
   1.80420E+01  1.49403E+01  1.63427E+01  1.65558E+01  1.63707E+01  1.68341E+01  1.40962E+01  1.53076E+01  1.58605E+01  1.62791E+01
   1.54466E+01  1.28716E+01  1.35184E+01  1.38286E+01  1.31445E+01  1.18911E+01  1.22753E+01  1.48262E+01  1.39722E+01  1.31996E+01
   1.09715E+01  8.50940E+00  1.00275E+01  9.21650E+00  1.12033E+01  1.45145E+01  1.39803E+01  1.07113E+01  1.00314E+01  9.59277E+00
   9.11365E+00  7.75828E+00  7.01855E+00  5.75649E+00  5.35516E+00 -9.12034E-02  4.16173E+00  3.96851E+00  3.37415E+00  7.21033E+00
   3.71796E+00  2.71103E+00  1.74468E+00  7.14354E-01  3.29741E+00  2.90260E+00  7.54614E+00  6.90091E+00  8.07667E+00  9.79410E+00
   9.21568E+00  1.07830E+01  1.46051E+01  1.64562E+01  1.26947E+01  1.56121E+01  1.11984E+01  9.63402E+00  1.08921E+01  1.02725E+01
   9.20252E+00  8.44905E+00  1.22473E+01  1.32675E+01  1.25493E+01  1.12742E+01  7.88949E+00  9.53076E+00  3.85128E+00  5.02207E+00
   5.44617E+00  8.33801E+00  1.05377E+01  1.15921E+01  1.55501E+01  1.65375E+01  1.92475E+01  1.87437E+01  1.35584E+01  9.60875E+00
   9.99076E+00  6.41125E+00  6.93179E+00  7.23905E+00  1.05328E+01  1.13236E+01  1.37758E+01  1.32724E+01  1.53993E+01  1.54120E+01
   1.53250E+01  1.47389E+01  1.45732E+01  1.49686E+01  1.40728E+01  1.49922E+01  1.58425E+01  1.09836E+01  1.39953E+01  1.54591E+01
   1.39420E+01  1.18315E+01  1.30752E+01  1.23454E+01  1.40919E+01  1.64507E+01  1.56298E+01  1.67209E+01  1.78934E+01  1.85186E+01
   1.97667E+01  2.03381E+01  2.29838E+01  2.49214E+01  2.71468E+01  3.45864E+01  4.02384E+01  4.54912E+01  5.63125E+01  6.43799E+01
   7.25779E+01  7.54109E+01  6.56850E+01  4.96995E+01  3.72015E+01  2.99000E+01  2.85699E+01  2.32601E+01  1.64744E+01  1.59646E+01
   1.38996E+01  1.59257E+01  1.51905E+01  1.43595E+01  1.49313E+01  1.25648E+01  1.15890E+01  1.28325E+01  1.08534E+01  1.31150E+01
   1.30602E+01  9.87078E+00  1.15373E+01  1.23278E+01  1.10098E+01  1.06722E+01  1.29698E+01  9.86959E+00  1.18329E+01  8.64135E+00
   1.21060E+01  1.04886E+01  1.09734E+01  1.50373E+01  1.20037E+01  1.22183E+01  1.25123E+01  1.17534E+01  1.15363E+01  1.37901E+01
   1.24988E+01  1.12301E+01  1.39778E+01  1.56274E+01  1.31204E+01  1.29173E+01  1.52386E+01  1.40175E+01  1.43293E+01  1.59767E+01
   1.58524E+01  1.52551E+01  1.51006E+01  1.76593E+01  1.57543E+01  1.56613E+01  1.64916E+01  1.66361E+01  1.47929E+01  1.70116E+01
   1.59379E+01  1.63851E+01  1.48478E+01  1.42535E+01  1.59129E+01  1.67339E+01  1.42162E+01  1.70493E+01  1.32735E+01  1.50304E+01
   1.32190E+01  1.33209E+01  1.26897E+01  1.30460E+01  1.41574E+01  1.26344E+01  1.47495E+01  1.27069E+01  1.36995E+01  1.45747E+01
   1.08564E+01  1.46405E+01  1.43772E+01  1.40183E+01  1.26037E+01  1.66426E+01  1.34483E+01  1.60126E+01  1.42614E+01  1.43875E+01
   1.24836E+01  1.28452E+01  1.55759E+01  1.36452E+01  1.31574E+01  1.51370E+01  1.51825E+01  1.46662E+01  1.21296E+01  1.25281E+01
   1.58325E+01  1.45753E+01  1.35332E+01  1.09284E+01  1.41022E+01  1.54132E+01  1.40275E+01  1.49131E+01  1.18552E+01  9.77725E+00
   1.16383E+01  1.42622E+01  1.04020E+01  8.53846E+00  1.17849E+01  1.17292E+01  9.51962E+00  9.20913E+00  8.67477E+00  1.12515E+01
   9.69355E+00  6.55039E+00  1.00623E+01  9.98350E+00  1.05728E+01  1.02378E+01  1.16799E+01  7.66738E+00  1.17762E+01  8.10504E+00
   1.06215E+01  1.06283E+01  9.97754E+00  1.12064E+01  9.25323E+00  1.27717E+01  1.07181E+01  9.38486E+00  1.02768E+01  1.23845E+01
   1.13143E+01  8.85844E+00  1.27321E+01  9.92018E+00  1.25347E+01  1.02733E+01  1.21846E+01  1.31566E+01  1.09342E+01  1.34959E+01
   9.84522E+00  9.15152E+00  9.56052E+00  1.26777E+01  8.69144E+00  1.01258E+01  8.54693E+00  8.11383E+00  7.13289E+00  8.02807E+00
   6.82821E+00  8.05101E+00  5.70261E+00  6.94209E+00  5.27380E+00  5.20920E+00  7.88400E+00  9.03661E+00  3.06041E+00  6.50031E+00
   6.78565E+00  4.70472E+00  6.61167E+00  6.29921E+00  4.02467E+00  5.16803E+00  5.79477E+00  6.44748E+00  2.52245E+00  4.93573E+00
   3.69839E+00  4.80318E+00  3.66236E+00  4.60409E+00  5.15489E+00  4.49518E+00  3.70291E+00  5.76389E+00  2.11424E+00  4.68058E+00
   3.74478E+00  5.22636E+00  4.63271E+00  4.34390E+00  4.76119E+00  4.18836E+00  6.14825E+00  4.05782E+00  3.72676E+00  4.79336E+00
   5.76119E+00  5.73957E+00  4.61665E+00  5.67389E+00  2.88425E+00  3.32311E+00  3.87175E+00  4.27010E+00  6.84379E+00  3.39586E+00
   5.75783E+00  5.54998E+00  4.25524E+00  5.93717E+00  3.09713E+00  4.48199E+00  4.61758E+00  3.07225E+00  5.44413E+00  5.45995E+00
   4.76582E+00  4.07034E+00  4.56782E+00  4.71578E+00  4.69946E+00  6.10927E+00  4.07761E+00  2.89748E+00  4.60050E+00  4.67607E+00
   4.59401E+00  3.03386E+00  3.16528E+00  5.18705E+00  6.68029E-01  7.86464E+00  3.24564E+00  3.17788E+00
 NY points of the fit to the data follow
   5.47737E+01  5.44142E+01  5.43329E+01  5.47543E+01  5.57964E+01  5.76726E+01  6.04283E+01  6.39823E+01  6.79680E+01  7.16280E+01
   7.39450E+01  7.40719E+01  7.18785E+01  6.81231E+01  6.39837E+01  6.03560E+01  5.74354E+01  5.49625E+01  5.28179E+01  5.11532E+01
   4.99458E+01  4.91537E+01  4.85550E+01  4.80818E+01  4.76943E+01  4.75033E+01  4.76524E+01  4.82283E+01  4.91784E+01  5.02568E+01
   5.10654E+01  5.11895E+01  5.04708E+01  4.91043E+01  4.73784E+01  4.54984E+01  4.36792E+01  4.21509E+01  4.12276E+01  4.09452E+01
   4.09539E+01  4.10439E+01  4.11076E+01  4.11718E+01  4.12805E+01  4.13809E+01  4.13962E+01  4.12063E+01  4.07234E+01  3.99720E+01
   3.90338E+01  3.80587E+01  3.72037E+01  3.64965E+01  3.58603E+01  3.52953E+01  3.48612E+01  3.45496E+01  3.42858E+01  3.40142E+01
   3.36990E+01  3.32926E+01  3.27807E+01  3.22036E+01  3.16424E+01  3.11720E+01  3.08076E+01  3.05198E+01  3.02817E+01  3.00743E+01
   2.98722E+01  2.96585E+01  2.94111E+01  2.91155E+01  2.87721E+01  2.84005E+01  2.80322E+01  2.76868E+01  2.73617E+01  2.70471E+01
   2.67305E+01  2.64155E+01  2.60937E+01  2.57519E+01  2.53783E+01  2.49671E+01  2.45284E+01  2.40955E+01  2.37208E+01  2.34542E+01
   2.33114E+01  2.32578E+01  2.32393E+01  2.32207E+01  2.32075E+01  2.32789E+01  2.37809E+01  2.51152E+01  2.73149E+01  3.05857E+01
   3.50364E+01  4.02894E+01  4.52875E+01  4.85208E+01  4.86480E+01  4.53998E+01  4.00776E+01  3.47392E+01  3.06596E+01  2.77202E+01
   2.51435E+01  2.26504E+01  2.08807E+01  2.01773E+01  1.98656E+01  1.96605E+01  1.95052E+01  1.93934E+01  1.93464E+01  1.94545E+01
   2.01286E+01  2.19296E+01  2.48692E+01  2.91147E+01  3.47811E+01  4.14686E+01  4.79861E+01  5.25181E+01  5.33263E+01  4.98791E+01
   4.35781E+01  3.69286E+01  3.16136E+01  2.75747E+01  2.38784E+01  2.02026E+01  1.74871E+01  1.64792E+01  1.63427E+01  1.64952E+01
   1.66595E+01  1.67007E+01  1.66027E+01  1.63734E+01  1.60495E+01  1.57029E+01  1.53596E+01  1.50069E+01  1.46500E+01  1.42918E+01
   1.39616E+01  1.36670E+01  1.34119E+01  1.32031E+01  1.30160E+01  1.28346E+01  1.26387E+01  1.23864E+01  1.20591E+01  1.16567E+01
   1.12503E+01  1.09699E+01  1.09005E+01  1.09896E+01  1.10577E+01  1.09133E+01  1.04917E+01  9.92049E+00  9.40709E+00  9.03114E+00
   8.69712E+00  8.34115E+00  7.92776E+00  7.48439E+00  7.09706E+00  6.82240E+00  6.72475E+00  6.81746E+00  6.98355E+00  7.05009E+00
   6.92363E+00  6.71241E+00  6.62783E+00  6.76172E+00  7.04228E+00  7.37032E+00  7.80139E+00  8.51499E+00  9.50764E+00  1.05368E+01
   1.12403E+01  1.14066E+01  1.11182E+01  1.05940E+01  1.00685E+01  9.69159E+00  9.50887E+00  9.61515E+00  1.00656E+01  1.08015E+01
   1.17107E+01  1.26201E+01  1.33009E+01  1.35173E+01  1.31779E+01  1.22278E+01  1.07208E+01  8.93040E+00  7.33466E+00  6.43211E+00
   6.48065E+00  7.45661E+00  9.17508E+00  1.13164E+01  1.34142E+01  1.49280E+01  1.53510E+01  1.44452E+01  1.23937E+01  9.76515E+00
   7.42414E+00  5.91024E+00  5.39491E+00  5.96543E+00  7.52517E+00  9.68311E+00  1.17119E+01  1.30711E+01  1.37707E+01  1.40712E+01
   1.42034E+01  1.42042E+01  1.41554E+01  1.42727E+01  1.46266E+01  1.50439E+01  1.53666E+01  1.55291E+01  1.54755E+01  1.51574E+01
   1.46174E+01  1.40922E+01  1.38613E+01  1.40553E+01  1.46190E+01  1.53800E+01  1.61501E+01  1.67354E+01  1.71691E+01  1.77073E+01
   1.84991E+01  1.95902E+01  2.10851E+01  2.37197E+01  2.80730E+01  3.36099E+01  4.03676E+01  4.85480E+01  5.77475E+01  6.63655E+01
   7.17163E+01  7.10708E+01  6.37250E+01  5.23690E+01  4.14481E+01  3.35870E+01  2.81355E+01  2.32055E+01  1.82551E+01  1.48676E+01
   1.37549E+01  1.32968E+01  1.30354E+01  1.28988E+01  1.28017E+01  1.26591E+01  1.24638E+01  1.22286E+01  1.19883E+01  1.17721E+01
   1.15858E+01  1.14201E+01  1.12813E+01  1.11801E+01  1.11068E+01  1.10431E+01  1.09846E+01  1.09424E+01  1.09276E+01  1.09419E+01
   1.09838E+01  1.10576E+01  1.11635E+01  1.12950E+01  1.14452E+01  1.16137E+01  1.18035E+01  1.20176E+01  1.22566E+01  1.25196E+01
   1.28051E+01  1.31105E+01  1.34281E+01  1.37485E+01  1.40636E+01  1.43662E+01  1.46502E+01  1.49090E+01  1.51366E+01  1.53297E+01
   1.54850E+01  1.56003E+01  1.56755E+01  1.57122E+01  1.57136E+01  1.56842E+01  1.56294E+01  1.55562E+01  1.54731E+01  1.53923E+01
   1.53314E+01  1.52915E+01  1.52601E+01  1.52321E+01  1.51882E+01  1.50904E+01  1.48923E+01  1.45645E+01  1.41344E+01  1.36966E+01
   1.33566E+01  1.31877E+01  1.31967E+01  1.33462E+01  1.35931E+01  1.38996E+01  1.42078E+01  1.44170E+01  1.44738E+01  1.44382E+01
   1.43932E+01  1.43731E+01  1.43586E+01  1.43258E+01  1.42903E+01  1.42731E+01  1.42446E+01  1.41831E+01  1.40958E+01  1.40097E+01
   1.39590E+01  1.39671E+01  1.40316E+01  1.41316E+01  1.42425E+01  1.43424E+01  1.44072E+01  1.44057E+01  1.43292E+01  1.42017E+01
   1.40453E+01  1.38645E+01  1.36526E+01  1.34091E+01  1.31505E+01  1.28852E+01  1.26115E+01  1.23307E+01  1.20459E+01  1.17606E+01
   1.14786E+01  1.12035E+01  1.09384E+01  1.06864E+01  1.04502E+01  1.02327E+01  1.00358E+01  9.86156E+00  9.71124E+00  9.58620E+00
   9.48763E+00  9.41652E+00  9.37350E+00  9.35887E+00  9.37272E+00  9.41500E+00  9.48546E+00  9.58334E+00  9.70732E+00  9.85547E+00
   1.00254E+01  1.02141E+01  1.04180E+01  1.06328E+01  1.08531E+01  1.10734E+01  1.12875E+01  1.14893E+01  1.16724E+01  1.18304E+01
   1.19575E+01  1.20483E+01  1.20986E+01  1.21054E+01  1.20667E+01  1.19818E+01  1.18513E+01  1.16773E+01  1.14632E+01  1.12135E+01
   1.09331E+01  1.06278E+01  1.03034E+01  9.96630E+00  9.62244E+00  9.27745E+00  8.93629E+00  8.60322E+00  8.28186E+00  7.97517E+00
   7.68532E+00  7.41371E+00  7.16096E+00  6.92721E+00  6.71223E+00  6.51550E+00  6.33616E+00  6.17305E+00  6.02488E+00  5.89037E+00
   5.76837E+00  5.65774E+00  5.55734E+00  5.46599E+00  5.38265E+00  5.30644E+00  5.23668E+00  5.17271E+00  5.11385E+00  5.05946E+00
   5.00902E+00  4.96218E+00  4.91867E+00  4.87817E+00  4.84032E+00  4.80479E+00  4.77137E+00  4.73997E+00  4.71049E+00  4.68273E+00
   4.65647E+00  4.63156E+00  4.60794E+00  4.58561E+00  4.56452E+00  4.54449E+00  4.52539E+00  4.50715E+00  4.48977E+00  4.47328E+00
   4.45760E+00  4.44260E+00  4.42817E+00  4.41434E+00  4.40113E+00  4.38855E+00  4.37651E+00  4.36489E+00  4.35364E+00  4.34281E+00
   4.33246E+00  4.32254E+00  4.31295E+00  4.30362E+00  4.29454E+00  4.28579E+00  4.27737E+00  4.26924E+00  4.26128E+00  4.25345E+00
   4.24581E+00  4.23840E+00  4.23122E+00  4.22418E+00  4.21720E+00  4.21028E+00  4.20349E+00  4.19687E+00  4.19037E+00  4.18390E+00
   4.17741E+00  4.17095E+00  4.16458E+00  4.15832E+00  4.15209E+00  4.14581E+00  4.13949E+00  4.13320E+00
 NY background values follow
     5.355E+01    5.317E+01    5.279E+01    5.241E+01    5.203E+01    5.165E+01    5.127E+01    5.089E+01    5.051E+01    5.013E+01
     4.975E+01    4.937E+01    4.899E+01    4.861E+01    4.823E+01    4.785E+01    4.747E+01    4.709E+01    4.671E+01    4.633E+01
     4.596E+01    4.558E+01    4.521E+01    4.483E+01    4.446E+01    4.408E+01    4.371E+01    4.334E+01    4.297E+01    4.260E+01
     4.223E+01    4.187E+01    4.150E+01    4.114E+01    4.077E+01    4.041E+01    4.005E+01    3.969E+01    3.933E+01    3.898E+01
     3.862E+01    3.827E+01    3.792E+01    3.757E+01    3.722E+01    3.688E+01    3.653E+01    3.619E+01    3.585E+01    3.551E+01
     3.518E+01    3.484E+01    3.451E+01    3.418E+01    3.385E+01    3.353E+01    3.320E+01    3.288E+01    3.256E+01    3.224E+01
     3.193E+01    3.161E+01    3.130E+01    3.099E+01    3.068E+01    3.038E+01    3.008E+01    2.978E+01    2.948E+01    2.918E+01
     2.889E+01    2.860E+01    2.831E+01    2.802E+01    2.773E+01    2.745E+01    2.717E+01    2.689E+01    2.662E+01    2.635E+01
     2.607E+01    2.581E+01    2.554E+01    2.528E+01    2.502E+01    2.476E+01    2.450E+01    2.425E+01    2.400E+01    2.375E+01
     2.350E+01    2.326E+01    2.302E+01    2.278E+01    2.255E+01    2.231E+01    2.208E+01    2.186E+01    2.163E+01    2.141E+01
     2.119E+01    2.097E+01    2.075E+01    2.054E+01    2.033E+01    2.012E+01    1.991E+01    1.970E+01    1.950E+01    1.930E+01
     1.910E+01    1.890E+01    1.871E+01    1.851E+01    1.832E+01    1.813E+01    1.795E+01    1.776E+01    1.758E+01    1.740E+01
     1.722E+01    1.704E+01    1.686E+01    1.669E+01    1.652E+01    1.635E+01    1.618E+01    1.601E+01    1.584E+01    1.568E+01
     1.551E+01    1.535E+01    1.519E+01    1.503E+01    1.488E+01    1.472E+01    1.457E+01    1.441E+01    1.426E+01    1.411E+01
     1.396E+01    1.382E+01    1.367E+01    1.353E+01    1.338E+01    1.324E+01    1.310E+01    1.296E+01    1.283E+01    1.269E+01
     1.256E+01    1.243E+01    1.230E+01    1.217E+01    1.205E+01    1.192E+01    1.180E+01    1.168E+01    1.156E+01    1.145E+01
     1.133E+01    1.122E+01    1.111E+01    1.100E+01    1.090E+01    1.079E+01    1.069E+01    1.059E+01    1.050E+01    1.040E+01
     1.031E+01    1.022E+01    1.013E+01    1.004E+01    9.961E+00    9.880E+00    9.801E+00    9.725E+00    9.651E+00    9.580E+00
     9.511E+00    9.445E+00    9.381E+00    9.320E+00    9.261E+00    9.205E+00    9.151E+00    9.099E+00    9.050E+00    9.003E+00
     8.958E+00    8.915E+00    8.874E+00    8.835E+00    8.798E+00    8.763E+00    8.730E+00    8.698E+00    8.669E+00    8.641E+00
     8.614E+00    8.590E+00    8.566E+00    8.545E+00    8.524E+00    8.505E+00    8.488E+00    8.472E+00    8.456E+00    8.443E+00
     8.430E+00    8.418E+00    8.408E+00    8.398E+00    8.389E+00    8.382E+00    8.375E+00    8.368E+00    8.363E+00    8.358E+00
     8.354E+00    8.351E+00    8.348E+00    8.345E+00    8.343E+00    8.341E+00    8.340E+00    8.339E+00    8.338E+00    8.337E+00
     8.337E+00    8.337E+00    8.337E+00    8.337E+00    8.337E+00    8.338E+00    8.339E+00    8.340E+00    8.341E+00    8.342E+00
     8.343E+00    8.345E+00    8.346E+00    8.348E+00    8.350E+00    8.351E+00    8.353E+00    8.355E+00    8.357E+00    8.359E+00
     8.361E+00    8.362E+00    8.364E+00    8.366E+00    8.367E+00    8.369E+00    8.371E+00    8.372E+00    8.373E+00    8.374E+00
     8.375E+00    8.376E+00    8.377E+00    8.378E+00    8.378E+00    8.378E+00    8.378E+00    8.378E+00    8.377E+00    8.376E+00
     8.375E+00    8.374E+00    8.373E+00    8.371E+00    8.369E+00    8.366E+00    8.363E+00    8.360E+00    8.357E+00    8.353E+00
     8.349E+00    8.344E+00    8.340E+00    8.335E+00    8.329E+00    8.323E+00    8.317E+00    8.310E+00    8.303E+00    8.296E+00
     8.288E+00    8.280E+00    8.272E+00    8.263E+00    8.253E+00    8.243E+00    8.233E+00    8.222E+00    8.211E+00    8.200E+00
     8.188E+00    8.175E+00    8.162E+00    8.149E+00    8.135E+00    8.121E+00    8.106E+00    8.091E+00    8.075E+00    8.058E+00
     8.042E+00    8.024E+00    8.006E+00    7.988E+00    7.969E+00    7.949E+00    7.929E+00    7.909E+00    7.888E+00    7.866E+00
     7.844E+00    7.821E+00    7.798E+00    7.774E+00    7.750E+00    7.725E+00    7.700E+00    7.674E+00    7.648E+00    7.622E+00
     7.595E+00    7.567E+00    7.540E+00    7.511E+00    7.483E+00    7.454E+00    7.425E+00    7.395E+00    7.365E+00    7.335E+00
     7.304E+00    7.273E+00    7.241E+00    7.210E+00    7.178E+00    7.146E+00    7.113E+00    7.080E+00    7.047E+00    7.014E+00
     6.980E+00    6.947E+00    6.913E+00    6.879E+00    6.844E+00    6.810E+00    6.775E+00    6.740E+00    6.705E+00    6.670E+00
     6.635E+00    6.599E+00    6.564E+00    6.528E+00    6.492E+00    6.456E+00    6.420E+00    6.384E+00    6.348E+00    6.312E+00
     6.276E+00    6.240E+00    6.204E+00    6.168E+00    6.132E+00    6.096E+00    6.060E+00    6.025E+00    5.989E+00    5.954E+00
     5.918E+00    5.883E+00    5.848E+00    5.813E+00    5.778E+00    5.744E+00    5.709E+00    5.675E+00    5.642E+00    5.608E+00
     5.575E+00    5.542E+00    5.509E+00    5.477E+00    5.444E+00    5.413E+00    5.381E+00    5.350E+00    5.320E+00    5.290E+00
     5.260E+00    5.230E+00    5.201E+00    5.173E+00    5.145E+00    5.117E+00    5.090E+00    5.064E+00    5.038E+00    5.012E+00
     4.987E+00    4.963E+00    4.939E+00    4.915E+00    4.892E+00    4.869E+00    4.847E+00    4.826E+00    4.805E+00    4.784E+00
     4.764E+00    4.744E+00    4.725E+00    4.706E+00    4.687E+00    4.669E+00    4.652E+00    4.634E+00    4.618E+00    4.601E+00
     4.585E+00    4.570E+00    4.555E+00    4.540E+00    4.526E+00    4.512E+00    4.498E+00    4.485E+00    4.472E+00    4.459E+00
     4.447E+00    4.436E+00    4.424E+00    4.413E+00    4.402E+00    4.392E+00    4.382E+00    4.372E+00    4.362E+00    4.353E+00
     4.344E+00    4.336E+00    4.328E+00    4.320E+00    4.312E+00    4.305E+00    4.297E+00    4.291E+00    4.284E+00    4.277E+00
     4.271E+00    4.265E+00    4.259E+00    4.254E+00    4.248E+00    4.243E+00    4.238E+00    4.233E+00    4.228E+00    4.224E+00
     4.219E+00    4.215E+00    4.211E+00    4.206E+00    4.202E+00    4.198E+00    4.194E+00    4.190E+00    4.186E+00    4.183E+00
     4.179E+00    4.175E+00    4.171E+00    4.167E+00    4.163E+00    4.160E+00    4.156E+00    4.152E+00    4.148E+00    4.144E+00
     4.140E+00    4.135E+00    4.131E+00    4.127E+00    4.122E+00    4.118E+00    4.113E+00    4.108E+00
 Ala      Conc. = 7.46E+01
