 LCModel (Version 6.3-1L) Copyright: S.W. Provencher.          Ref.: Magn. Reson. Med. 30:672-679 (1993).                
 Slice#3 Row#8 Col#2  PD_05_press_1_raw_act
 36 lines in following concentration table = NCONC+1
    Conc.  %SD /Cr+PCr  Metabolite                                         
    0.000 999%   0.000 Ala                                                 
   17.389  38%   0.000 Asp                                                 
    0.000 999%   0.000 Cr                                                  
    0.000 999%   0.000 PCr                                                 
   10.524  37%   0.000 GABA                                                
   10.550  37%   0.000 Glc                                                 
 2.19E+03  19%   0.000 Gln                                                 
 1.12E+03  45%   0.000 Glu                                                 
    0.000 999%   0.000 GPC                                                 
   22.848  69%   0.000 PCh                                                 
    0.000 999%   0.000 GSH                                                 
  704.266  27%   0.000 Ins                                                 
    0.000 999%   0.000 Lac                                                 
   94.434  99%   0.000 NAA                                                 
  186.149  56%   0.000 NAAG                                                
    3.592  36%   0.000 Scyllo                                              
   17.893  36%   0.000 Tau                                                 
    0.000 999%   0.000 -CrCH2                                              
   22.848  69%   0.000 GPC+PCh                                             
  280.583  24%   0.000 NAA+NAAG                                            
    0.000 999%   0.000 Cr+PCr                                              
 3.32E+03  22%   0.000 Glu+Gln                                             
    0.000 999%   0.000 Lip13a                                              
    0.000 999%   0.000 Lip13b                                              
    0.000 999%   0.000 Lip09                                               
  377.598  19%   0.000 MM09                                                
   16.405 245%   0.000 Lip20                                               
  852.523  17%   0.000 MM20                                                
  110.613  37%   0.000 MM12                                                
    0.000 999%   0.000 MM14                                                
  480.829  15%   0.000 MM17                                                
    0.000 999%   0.000 Lip13a+Lip13b                                       
  110.613  37%   0.000 MM14+Lip13a+Lip13b+MM12                             
  377.598  19%   0.000 MM09+Lip09                                          
  868.929  17%   0.000 MM20+Lip20                                          
   6 lines in following misc. output table
  FWHM = 0.183 ppm    S/N =   2                                            
  Data shift =-0.084 ppm                                                   
  Ph: 173 deg      19.1 deg/ppm                                            
  alphaB,S = 4.3E-01,   3.6E+01                                            
   13 spline knots.   Ns = 9(2)                                            
  (15)11 infls.   (11) 5 extrs.                                            
  498 points on ppm-axis = NY
      4.000000     3.992357     3.984714     3.977070     3.969427     3.961784     3.954141     3.946497     3.938854     3.931211
      3.923568     3.915925     3.908281     3.900638     3.892995     3.885352     3.877708     3.870065     3.862422     3.854779
      3.847136     3.839492     3.831849     3.824206     3.816563     3.808919     3.801276     3.793633     3.785990     3.778347
      3.770703     3.763060     3.755417     3.747774     3.740130     3.732487     3.724844     3.717201     3.709558     3.701914
      3.694271     3.686628     3.678985     3.671341     3.663698     3.656055     3.648412     3.640769     3.633125     3.625482
      3.617839     3.610196     3.602552     3.594909     3.587266     3.579623     3.571980     3.564336     3.556693     3.549050
      3.541407     3.533763     3.526120     3.518477     3.510834     3.503191     3.495547     3.487904     3.480261     3.472618
      3.464974     3.457331     3.449688     3.442045     3.434402     3.426758     3.419115     3.411472     3.403829     3.396185
      3.388542     3.380899     3.373256     3.365613     3.357969     3.350326     3.342683     3.335040     3.327396     3.319753
      3.312110     3.304467     3.296824     3.289180     3.281537     3.273894     3.266251     3.258607     3.250964     3.243321
      3.235678     3.228034     3.220391     3.212748     3.205105     3.197462     3.189818     3.182175     3.174532     3.166889
      3.159245     3.151602     3.143959     3.136316     3.128673     3.121029     3.113386     3.105743     3.098100     3.090456
      3.082813     3.075170     3.067527     3.059884     3.052240     3.044597     3.036954     3.029311     3.021667     3.014024
      3.006381     2.998738     2.991095     2.983451     2.975808     2.968165     2.960522     2.952878     2.945235     2.937592
      2.929949     2.922306     2.914662     2.907019     2.899376     2.891733     2.884089     2.876446     2.868803     2.861160
      2.853517     2.845873     2.838230     2.830587     2.822944     2.815300     2.807657     2.800014     2.792371     2.784728
      2.777084     2.769441     2.761798     2.754155     2.746511     2.738868     2.731225     2.723582     2.715939     2.708295
      2.700652     2.693009     2.685366     2.677722     2.670079     2.662436     2.654793     2.647150     2.639506     2.631863
      2.624220     2.616577     2.608933     2.601290     2.593647     2.586004     2.578361     2.570717     2.563074     2.555431
      2.547788     2.540144     2.532501     2.524858     2.517215     2.509572     2.501928     2.494285     2.486642     2.478999
      2.471355     2.463712     2.456069     2.448426     2.440783     2.433139     2.425496     2.417853     2.410210     2.402566
      2.394923     2.387280     2.379637     2.371994     2.364350     2.356707     2.349064     2.341421     2.333777     2.326134
      2.318491     2.310848     2.303205     2.295561     2.287918     2.280275     2.272632     2.264988     2.257345     2.249702
      2.242059     2.234416     2.226772     2.219129     2.211486     2.203843     2.196199     2.188556     2.180913     2.173270
      2.165627     2.157983     2.150340     2.142697     2.135054     2.127410     2.119767     2.112124     2.104481     2.096838
      2.089194     2.081551     2.073908     2.066265     2.058621     2.050978     2.043335     2.035692     2.028049     2.020405
      2.012762     2.005119     1.997476     1.989833     1.982190     1.974546     1.966903     1.959260     1.951617     1.943974
      1.936331     1.928688     1.921045     1.913402     1.905759     1.898115     1.890472     1.882829     1.875186     1.867543
      1.859900     1.852257     1.844614     1.836971     1.829327     1.821684     1.814041     1.806398     1.798755     1.791112
      1.783469     1.775826     1.768183     1.760540     1.752896     1.745253     1.737610     1.729967     1.722324     1.714681
      1.707038     1.699395     1.691752     1.684108     1.676465     1.668822     1.661179     1.653536     1.645893     1.638250
      1.630607     1.622964     1.615321     1.607677     1.600034     1.592391     1.584748     1.577105     1.569462     1.561819
      1.554176     1.546533     1.538890     1.531246     1.523603     1.515960     1.508317     1.500674     1.493031     1.485388
      1.477745     1.470102     1.462458     1.454815     1.447172     1.439529     1.431886     1.424243     1.416600     1.408957
      1.401314     1.393671     1.386027     1.378384     1.370741     1.363098     1.355455     1.347812     1.340169     1.332526
      1.324883     1.317240     1.309596     1.301953     1.294310     1.286667     1.279024     1.271381     1.263738     1.256095
      1.248452     1.240808     1.233165     1.225522     1.217879     1.210236     1.202593     1.194950     1.187307     1.179664
      1.172021     1.164377     1.156734     1.149091     1.141448     1.133805     1.126162     1.118519     1.110876     1.103233
      1.095590     1.087946     1.080303     1.072660     1.065017     1.057374     1.049731     1.042088     1.034445     1.026802
      1.019158     1.011515     1.003872     0.996229     0.988586     0.980943     0.973300     0.965657     0.958014     0.950371
      0.942727     0.935084     0.927441     0.919798     0.912155     0.904512     0.896869     0.889226     0.881583     0.873940
      0.866296     0.858653     0.851010     0.843367     0.835724     0.828081     0.820438     0.812795     0.805152     0.797508
      0.789865     0.782222     0.774579     0.766936     0.759293     0.751650     0.744007     0.736364     0.728721     0.721077
      0.713434     0.705791     0.698148     0.690505     0.682862     0.675219     0.667576     0.659933     0.652290     0.644646
      0.637003     0.629360     0.621717     0.614074     0.606431     0.598788     0.591145     0.583502     0.575858     0.568215
      0.560572     0.552929     0.545286     0.537643     0.530000     0.522357     0.514714     0.507071     0.499427     0.491784
      0.484141     0.476498     0.468855     0.461212     0.453569     0.445925     0.438282     0.430639     0.422996     0.415353
      0.407710     0.400067     0.392424     0.384780     0.377137     0.369494     0.361851     0.354208     0.346565     0.338922
      0.331278     0.323635     0.315992     0.308349     0.300706     0.293063     0.285420     0.277777     0.270133     0.262490
      0.254847     0.247204     0.239561     0.231918     0.224275     0.216631     0.208988     0.201345
 NY phased data points follow
   5.66451E+01  5.52260E+01  5.46102E+01  5.45785E+01  5.19906E+01  5.44970E+01  5.34971E+01  5.28832E+01  5.25768E+01  5.22530E+01
   5.26552E+01  4.90981E+01  5.01172E+01  4.98883E+01  5.13161E+01  5.06291E+01  4.79136E+01  4.91562E+01  4.87422E+01  4.87593E+01
   4.88205E+01  4.60863E+01  4.68950E+01  4.77738E+01  4.58184E+01  4.88895E+01  4.78895E+01  4.85063E+01  4.72890E+01  4.67834E+01
   4.44393E+01  4.55004E+01  4.68776E+01  4.64267E+01  4.57583E+01  4.40102E+01  4.29509E+01  4.60843E+01  4.50656E+01  4.53494E+01
   4.16016E+01  4.36025E+01  4.33341E+01  4.06285E+01  4.06901E+01  4.16622E+01  4.21515E+01  4.26941E+01  4.19751E+01  4.01824E+01
   4.04276E+01  4.02732E+01  4.09078E+01  4.11219E+01  3.89951E+01  3.90399E+01  3.98587E+01  3.60936E+01  3.97620E+01  3.60430E+01
   3.74405E+01  3.69402E+01  3.79636E+01  3.75142E+01  3.67232E+01  3.72741E+01  3.44095E+01  3.59046E+01  3.68948E+01  3.69275E+01
   3.39757E+01  3.57933E+01  3.25119E+01  3.37130E+01  3.43544E+01  3.42184E+01  3.47004E+01  3.36159E+01  3.40976E+01  3.36808E+01
   3.37931E+01  3.14854E+01  3.07036E+01  3.13473E+01  3.05618E+01  2.96783E+01  2.93524E+01  2.85864E+01  3.00719E+01  2.86883E+01
   3.12085E+01  2.78993E+01  2.80975E+01  2.83983E+01  2.74164E+01  2.75950E+01  2.76569E+01  2.83559E+01  2.70464E+01  2.66705E+01
   2.63012E+01  2.53893E+01  2.57678E+01  2.52306E+01  2.81113E+01  2.59297E+01  2.63954E+01  2.51106E+01  2.46685E+01  2.39402E+01
   2.43732E+01  2.39882E+01  2.41182E+01  2.39419E+01  2.24734E+01  2.13042E+01  2.33329E+01  2.15371E+01  2.27319E+01  2.40656E+01
   2.22754E+01  2.24074E+01  2.15066E+01  2.17315E+01  2.13691E+01  2.17696E+01  2.27978E+01  2.01760E+01  1.99806E+01  1.93923E+01
   2.12044E+01  2.07199E+01  2.04247E+01  2.04738E+01  1.91741E+01  1.78308E+01  1.88034E+01  1.85526E+01  1.86536E+01  1.97387E+01
   1.81174E+01  1.80790E+01  1.96704E+01  1.77944E+01  1.81131E+01  1.75101E+01  1.68574E+01  1.65807E+01  1.82148E+01  1.79821E+01
   1.73412E+01  1.86008E+01  1.73778E+01  1.59476E+01  1.71957E+01  1.66439E+01  1.53070E+01  1.74618E+01  1.56283E+01  1.55451E+01
   1.69532E+01  1.56014E+01  1.66396E+01  1.50694E+01  1.33171E+01  1.57086E+01  1.65047E+01  1.48637E+01  1.40319E+01  1.39425E+01
   1.50313E+01  1.33064E+01  1.47578E+01  1.43733E+01  1.41319E+01  1.47882E+01  1.44251E+01  1.31136E+01  1.51159E+01  1.45354E+01
   1.52755E+01  1.43450E+01  1.33270E+01  1.61308E+01  1.45499E+01  1.62465E+01  1.58890E+01  1.35706E+01  1.32577E+01  1.38480E+01
   1.53427E+01  1.55086E+01  1.33965E+01  1.38377E+01  1.63585E+01  1.29758E+01  1.32379E+01  1.55116E+01  1.49350E+01  1.61225E+01
   1.44714E+01  1.47728E+01  1.63485E+01  1.66522E+01  1.62862E+01  1.57638E+01  1.52491E+01  1.75731E+01  1.60596E+01  1.56860E+01
   1.67643E+01  1.71965E+01  1.70298E+01  1.90542E+01  1.93347E+01  1.63100E+01  1.52377E+01  1.69126E+01  1.75019E+01  2.00111E+01
   1.89586E+01  1.89194E+01  2.02153E+01  2.14134E+01  2.07196E+01  1.90051E+01  2.12502E+01  2.24002E+01  2.16956E+01  2.40686E+01
   2.33310E+01  2.13830E+01  2.34626E+01  2.40545E+01  2.44830E+01  2.32638E+01  2.31983E+01  2.56973E+01  2.39304E+01  2.48307E+01
   2.64991E+01  2.66577E+01  2.53717E+01  2.71554E+01  2.85851E+01  2.69639E+01  2.82838E+01  2.80819E+01  2.83883E+01  2.94260E+01
   2.89295E+01  2.88590E+01  2.95783E+01  2.74903E+01  2.94915E+01  3.03070E+01  3.11145E+01  3.12753E+01  2.88577E+01  2.79793E+01
   3.02533E+01  3.07068E+01  2.96070E+01  3.07119E+01  3.05832E+01  2.94512E+01  2.95959E+01  3.12290E+01  3.14032E+01  3.02924E+01
   2.98995E+01  3.06010E+01  2.98685E+01  2.83203E+01  2.95949E+01  2.99432E+01  3.21679E+01  3.06106E+01  3.28058E+01  3.21318E+01
   3.05907E+01  2.98869E+01  3.02405E+01  3.05135E+01  3.16040E+01  2.86813E+01  3.19543E+01  2.98638E+01  3.13829E+01  3.10524E+01
   3.00967E+01  3.03361E+01  3.17901E+01  2.79621E+01  3.02456E+01  3.07913E+01  2.83562E+01  2.97259E+01  2.94466E+01  2.93295E+01
   2.89944E+01  2.82608E+01  3.05355E+01  2.74609E+01  2.82603E+01  2.73546E+01  2.85395E+01  2.61733E+01  2.72457E+01  2.60195E+01
   2.57830E+01  2.53746E+01  2.59545E+01  2.53043E+01  2.61533E+01  2.80970E+01  2.57868E+01  2.61975E+01  2.46836E+01  2.45278E+01
   2.47713E+01  2.41748E+01  2.40447E+01  2.42304E+01  2.58867E+01  2.17832E+01  2.37382E+01  2.09739E+01  2.43061E+01  2.44142E+01
   2.21782E+01  2.06718E+01  2.19205E+01  2.28955E+01  2.12111E+01  2.08756E+01  2.04422E+01  2.11295E+01  2.05209E+01  1.94459E+01
   2.15700E+01  2.01888E+01  2.11047E+01  1.90468E+01  2.22900E+01  1.95593E+01  1.97264E+01  1.95815E+01  1.75780E+01  2.00253E+01
   2.07093E+01  1.73101E+01  1.90750E+01  1.58945E+01  1.82937E+01  1.84108E+01  1.84191E+01  1.76133E+01  1.84139E+01  1.65196E+01
   1.93521E+01  1.85026E+01  1.76726E+01  1.75600E+01  1.87634E+01  1.66998E+01  1.71187E+01  1.58064E+01  1.90246E+01  1.60136E+01
   1.80813E+01  1.82439E+01  1.74034E+01  1.87101E+01  1.79577E+01  1.57601E+01  1.73584E+01  1.53172E+01  1.68974E+01  1.74029E+01
   1.65004E+01  1.57407E+01  1.63760E+01  1.58244E+01  1.58852E+01  1.52714E+01  1.56135E+01  1.48204E+01  1.60898E+01  1.50495E+01
   1.49707E+01  1.46790E+01  1.36625E+01  1.50443E+01  1.46836E+01  1.49359E+01  1.38534E+01  1.58200E+01  1.50265E+01  1.67584E+01
   1.51531E+01  1.71276E+01  1.47925E+01  1.56155E+01  1.76735E+01  1.44361E+01  1.58510E+01  1.53557E+01  1.53231E+01  1.51411E+01
   1.46844E+01  1.55288E+01  1.47197E+01  1.47735E+01  1.46645E+01  1.49321E+01  1.45041E+01  1.43581E+01  1.47576E+01  1.29465E+01
   1.43316E+01  1.36685E+01  1.42513E+01  1.22736E+01  1.35983E+01  1.26575E+01  1.57192E+01  1.36137E+01  1.43494E+01  1.29290E+01
   1.25379E+01  1.34613E+01  1.35757E+01  1.40957E+01  1.41705E+01  1.37484E+01  1.39190E+01  1.14692E+01  1.16407E+01  1.20579E+01
   1.31468E+01  1.19301E+01  1.25796E+01  1.17735E+01  1.36328E+01  1.26145E+01  1.18414E+01  1.32294E+01  1.26180E+01  1.27506E+01
   1.38719E+01  1.17821E+01  1.09854E+01  1.12104E+01  1.00224E+01  1.00552E+01  1.33115E+01  1.15351E+01  1.18391E+01  1.16372E+01
   1.23155E+01  1.09855E+01  1.07560E+01  1.01000E+01  1.15174E+01  1.02228E+01  1.22919E+01  1.29048E+01  1.11430E+01  1.15716E+01
   1.03027E+01  1.22416E+01  1.10607E+01  1.05812E+01  8.67693E+00  1.01993E+01  1.02404E+01  9.61637E+00  1.23486E+01  9.44867E+00
   1.14825E+01  1.13637E+01  8.66443E+00  1.05526E+01  1.04622E+01  1.18548E+01  1.05772E+01  7.92144E+00  1.02660E+01  9.54876E+00
   1.02988E+01  1.03251E+01  9.75005E+00  9.61217E+00  7.94410E+00  9.32877E+00  9.30942E+00  1.14249E+01
 NY points of the fit to the data follow
   5.49797E+01  5.46426E+01  5.43548E+01  5.39861E+01  5.36693E+01  5.33399E+01  5.30507E+01  5.27992E+01  5.23019E+01  5.18253E+01
   5.12494E+01  5.07847E+01  5.02429E+01  4.99340E+01  4.99003E+01  4.97180E+01  4.95052E+01  4.93305E+01  4.91138E+01  4.87652E+01
   4.83243E+01  4.80292E+01  4.75893E+01  4.74180E+01  4.72630E+01  4.72362E+01  4.71191E+01  4.69660E+01  4.65454E+01  4.63833E+01
   4.61863E+01  4.61604E+01  4.58166E+01  4.55709E+01  4.51801E+01  4.49251E+01  4.46343E+01  4.45829E+01  4.47674E+01  4.47213E+01
   4.42914E+01  4.39075E+01  4.31596E+01  4.26421E+01  4.22021E+01  4.22348E+01  4.23845E+01  4.24683E+01  4.23355E+01  4.19356E+01
   4.11453E+01  4.06032E+01  3.99136E+01  3.97548E+01  3.98059E+01  3.96929E+01  3.95560E+01  3.91069E+01  3.88188E+01  3.82909E+01
   3.80532E+01  3.76440E+01  3.74796E+01  3.70455E+01  3.68080E+01  3.62958E+01  3.60290E+01  3.55151E+01  3.52887E+01  3.48166E+01
   3.46427E+01  3.42264E+01  3.40865E+01  3.37133E+01  3.36048E+01  3.32122E+01  3.30946E+01  3.26582E+01  3.25199E+01  3.20821E+01
   3.18126E+01  3.13861E+01  3.11305E+01  3.07725E+01  3.05736E+01  3.02920E+01  3.01376E+01  2.97541E+01  2.95493E+01  2.91800E+01
   2.89595E+01  2.85888E+01  2.83678E+01  2.79370E+01  2.77148E+01  2.73658E+01  2.72388E+01  2.69570E+01  2.68702E+01  2.65478E+01
   2.64305E+01  2.61146E+01  2.59943E+01  2.57045E+01  2.55774E+01  2.52832E+01  2.51915E+01  2.49400E+01  2.48928E+01  2.46839E+01
   2.46607E+01  2.43039E+01  2.41857E+01  2.38074E+01  2.36579E+01  2.33354E+01  2.32354E+01  2.29548E+01  2.28902E+01  2.26062E+01
   2.25019E+01  2.21900E+01  2.20134E+01  2.17489E+01  2.15477E+01  2.13638E+01  2.11884E+01  2.10166E+01  2.08462E+01  2.06728E+01
   2.04989E+01  2.03233E+01  2.01470E+01  1.99700E+01  1.97923E+01  1.96111E+01  1.94270E+01  1.92425E+01  1.90661E+01  1.88861E+01
   1.87122E+01  1.85368E+01  1.83555E+01  1.81759E+01  1.80022E+01  1.78357E+01  1.76618E+01  1.75000E+01  1.73258E+01  1.71685E+01
   1.70138E+01  1.68725E+01  1.67161E+01  1.65874E+01  1.64402E+01  1.63170E+01  1.61819E+01  1.60693E+01  1.59388E+01  1.58420E+01
   1.57183E+01  1.56191E+01  1.55063E+01  1.54224E+01  1.53226E+01  1.52612E+01  1.51811E+01  1.51146E+01  1.50321E+01  1.49792E+01
   1.49311E+01  1.49070E+01  1.48847E+01  1.48666E+01  1.48510E+01  1.48045E+01  1.46946E+01  1.46714E+01  1.45154E+01  1.44554E+01
   1.43325E+01  1.42983E+01  1.41910E+01  1.43704E+01  1.45350E+01  1.47517E+01  1.48248E+01  1.52199E+01  1.52158E+01  1.54182E+01
   1.52466E+01  1.51459E+01  1.43182E+01  1.46312E+01  1.44194E+01  1.47975E+01  1.44679E+01  1.51144E+01  1.50809E+01  1.57211E+01
   1.56262E+01  1.60239E+01  1.55273E+01  1.58548E+01  1.53450E+01  1.59172E+01  1.60246E+01  1.68380E+01  1.68669E+01  1.74796E+01
   1.71775E+01  1.78404E+01  1.77179E+01  1.81124E+01  1.79603E+01  1.81512E+01  1.77278E+01  1.83910E+01  1.86198E+01  1.93942E+01
   1.97247E+01  2.01999E+01  2.03226E+01  2.06540E+01  2.05184E+01  2.07348E+01  2.11250E+01  2.16842E+01  2.21979E+01  2.24881E+01
   2.31032E+01  2.32284E+01  2.33929E+01  2.36378E+01  2.34830E+01  2.35332E+01  2.33983E+01  2.35770E+01  2.41307E+01  2.45741E+01
   2.51852E+01  2.54297E+01  2.59090E+01  2.61156E+01  2.68103E+01  2.68624E+01  2.77320E+01  2.77222E+01  2.83784E+01  2.77130E+01
   2.83731E+01  2.78253E+01  2.85566E+01  2.84529E+01  2.95465E+01  2.94019E+01  3.03250E+01  2.98024E+01  3.03311E+01  2.97410E+01
   3.02672E+01  3.01336E+01  3.07805E+01  3.07347E+01  3.09713E+01  3.08307E+01  3.11040E+01  3.11857E+01  3.12338E+01  3.11124E+01
   3.10205E+01  3.06752E+01  3.04494E+01  3.01717E+01  2.98795E+01  2.98076E+01  2.95971E+01  2.97109E+01  2.96083E+01  2.97022E+01
   2.96503E+01  2.97160E+01  2.97760E+01  2.98947E+01  2.99843E+01  3.00928E+01  3.02046E+01  3.02756E+01  3.03692E+01  3.04047E+01
   3.04459E+01  3.04013E+01  3.03555E+01  3.02277E+01  3.00989E+01  2.99143E+01  2.97352E+01  2.95069E+01  2.92904E+01  2.90318E+01
   2.87817E+01  2.85039E+01  2.82335E+01  2.79497E+01  2.76799E+01  2.74057E+01  2.71514E+01  2.68981E+01  2.66623E+01  2.64308E+01
   2.62103E+01  2.59949E+01  2.57891E+01  2.55875E+01  2.53957E+01  2.52072E+01  2.50255E+01  2.48470E+01  2.46717E+01  2.44986E+01
   2.43263E+01  2.41544E+01  2.39836E+01  2.38127E+01  2.36423E+01  2.34721E+01  2.33018E+01  2.31318E+01  2.29617E+01  2.27918E+01
   2.26219E+01  2.24523E+01  2.22829E+01  2.21139E+01  2.19455E+01  2.17776E+01  2.16106E+01  2.14444E+01  2.12794E+01  2.11156E+01
   2.09533E+01  2.07927E+01  2.06340E+01  2.04774E+01  2.03231E+01  2.01713E+01  2.00221E+01  1.98759E+01  1.97328E+01  1.95927E+01
   1.94559E+01  1.93221E+01  1.91913E+01  1.90633E+01  1.89380E+01  1.88150E+01  1.86941E+01  1.85750E+01  1.84572E+01  1.83405E+01
   1.82242E+01  1.81082E+01  1.79920E+01  1.78753E+01  1.77579E+01  1.76396E+01  1.75202E+01  1.73998E+01  1.72786E+01  1.71566E+01
   1.70342E+01  1.69118E+01  1.67899E+01  1.66689E+01  1.65495E+01  1.64323E+01  1.63180E+01  1.62072E+01  1.61008E+01  1.59993E+01
   1.59036E+01  1.58143E+01  1.57322E+01  1.56578E+01  1.55918E+01  1.55349E+01  1.54876E+01  1.54503E+01  1.54233E+01  1.54070E+01
   1.54014E+01  1.54062E+01  1.54212E+01  1.54455E+01  1.54784E+01  1.55185E+01  1.55642E+01  1.56138E+01  1.56650E+01  1.57156E+01
   1.57631E+01  1.58049E+01  1.58385E+01  1.58616E+01  1.58720E+01  1.58681E+01  1.58484E+01  1.58122E+01  1.57591E+01  1.56893E+01
   1.56033E+01  1.55024E+01  1.53881E+01  1.52623E+01  1.51270E+01  1.49843E+01  1.48366E+01  1.46859E+01  1.45343E+01  1.43836E+01
   1.42355E+01  1.40912E+01  1.39518E+01  1.38182E+01  1.36908E+01  1.35700E+01  1.34559E+01  1.33484E+01  1.32473E+01  1.31523E+01
   1.30632E+01  1.29794E+01  1.29005E+01  1.28262E+01  1.27558E+01  1.26891E+01  1.26256E+01  1.25649E+01  1.25067E+01  1.24506E+01
   1.23965E+01  1.23439E+01  1.22926E+01  1.22425E+01  1.21933E+01  1.21449E+01  1.20970E+01  1.20495E+01  1.20022E+01  1.19552E+01
   1.19082E+01  1.18614E+01  1.18145E+01  1.17677E+01  1.17207E+01  1.16738E+01  1.16267E+01  1.15795E+01  1.15323E+01  1.14848E+01
   1.14373E+01  1.13896E+01  1.13417E+01  1.12937E+01  1.12455E+01  1.11972E+01  1.11487E+01  1.11001E+01  1.10512E+01  1.10023E+01
   1.09532E+01  1.09040E+01  1.08546E+01  1.08051E+01  1.07555E+01  1.07058E+01  1.06560E+01  1.06061E+01  1.05561E+01  1.05060E+01
   1.04558E+01  1.04056E+01  1.03554E+01  1.03051E+01  1.02547E+01  1.02044E+01  1.01540E+01  1.01036E+01  1.00533E+01  1.00029E+01
   9.95253E+00  9.90220E+00  9.85191E+00  9.80166E+00  9.75145E+00  9.70127E+00  9.65113E+00  9.60104E+00
 NY background values follow
     5.290E+01    5.258E+01    5.226E+01    5.195E+01    5.163E+01    5.132E+01    5.100E+01    5.069E+01    5.038E+01    5.006E+01
     4.975E+01    4.944E+01    4.913E+01    4.882E+01    4.851E+01    4.820E+01    4.789E+01    4.758E+01    4.728E+01    4.697E+01
     4.667E+01    4.636E+01    4.606E+01    4.576E+01    4.546E+01    4.515E+01    4.486E+01    4.456E+01    4.426E+01    4.396E+01
     4.367E+01    4.337E+01    4.308E+01    4.279E+01    4.250E+01    4.221E+01    4.192E+01    4.163E+01    4.135E+01    4.107E+01
     4.078E+01    4.050E+01    4.022E+01    3.994E+01    3.967E+01    3.939E+01    3.912E+01    3.884E+01    3.857E+01    3.830E+01
     3.803E+01    3.777E+01    3.750E+01    3.724E+01    3.698E+01    3.672E+01    3.646E+01    3.620E+01    3.595E+01    3.569E+01
     3.544E+01    3.519E+01    3.494E+01    3.469E+01    3.444E+01    3.420E+01    3.395E+01    3.371E+01    3.347E+01    3.323E+01
     3.299E+01    3.275E+01    3.251E+01    3.227E+01    3.204E+01    3.180E+01    3.157E+01    3.133E+01    3.110E+01    3.087E+01
     3.064E+01    3.041E+01    3.018E+01    2.995E+01    2.973E+01    2.950E+01    2.928E+01    2.905E+01    2.883E+01    2.860E+01
     2.838E+01    2.816E+01    2.794E+01    2.771E+01    2.749E+01    2.727E+01    2.705E+01    2.683E+01    2.661E+01    2.640E+01
     2.618E+01    2.596E+01    2.574E+01    2.552E+01    2.531E+01    2.509E+01    2.488E+01    2.466E+01    2.445E+01    2.424E+01
     2.403E+01    2.382E+01    2.361E+01    2.340E+01    2.319E+01    2.299E+01    2.278E+01    2.258E+01    2.238E+01    2.218E+01
     2.198E+01    2.179E+01    2.159E+01    2.140E+01    2.121E+01    2.102E+01    2.084E+01    2.065E+01    2.047E+01    2.029E+01
     2.012E+01    1.994E+01    1.977E+01    1.960E+01    1.944E+01    1.927E+01    1.911E+01    1.895E+01    1.880E+01    1.865E+01
     1.850E+01    1.835E+01    1.821E+01    1.807E+01    1.793E+01    1.780E+01    1.767E+01    1.755E+01    1.742E+01    1.731E+01
     1.719E+01    1.708E+01    1.698E+01    1.687E+01    1.677E+01    1.668E+01    1.659E+01    1.650E+01    1.642E+01    1.634E+01
     1.626E+01    1.619E+01    1.612E+01    1.606E+01    1.600E+01    1.594E+01    1.589E+01    1.584E+01    1.580E+01    1.576E+01
     1.573E+01    1.569E+01    1.567E+01    1.564E+01    1.563E+01    1.561E+01    1.560E+01    1.560E+01    1.559E+01    1.560E+01
     1.560E+01    1.561E+01    1.563E+01    1.565E+01    1.567E+01    1.570E+01    1.573E+01    1.577E+01    1.581E+01    1.586E+01
     1.591E+01    1.596E+01    1.602E+01    1.609E+01    1.615E+01    1.623E+01    1.630E+01    1.639E+01    1.647E+01    1.656E+01
     1.666E+01    1.676E+01    1.686E+01    1.697E+01    1.708E+01    1.720E+01    1.732E+01    1.744E+01    1.757E+01    1.770E+01
     1.783E+01    1.797E+01    1.811E+01    1.825E+01    1.839E+01    1.854E+01    1.868E+01    1.883E+01    1.899E+01    1.914E+01
     1.929E+01    1.945E+01    1.961E+01    1.977E+01    1.993E+01    2.009E+01    2.025E+01    2.041E+01    2.057E+01    2.073E+01
     2.089E+01    2.106E+01    2.122E+01    2.138E+01    2.154E+01    2.170E+01    2.186E+01    2.202E+01    2.217E+01    2.233E+01
     2.248E+01    2.263E+01    2.278E+01    2.293E+01    2.308E+01    2.322E+01    2.336E+01    2.350E+01    2.364E+01    2.377E+01
     2.390E+01    2.403E+01    2.416E+01    2.428E+01    2.440E+01    2.451E+01    2.462E+01    2.473E+01    2.484E+01    2.494E+01
     2.504E+01    2.514E+01    2.523E+01    2.532E+01    2.540E+01    2.548E+01    2.556E+01    2.563E+01    2.570E+01    2.577E+01
     2.583E+01    2.589E+01    2.595E+01    2.600E+01    2.605E+01    2.609E+01    2.613E+01    2.616E+01    2.620E+01    2.622E+01
     2.624E+01    2.626E+01    2.628E+01    2.629E+01    2.629E+01    2.629E+01    2.629E+01    2.628E+01    2.627E+01    2.625E+01
     2.623E+01    2.620E+01    2.617E+01    2.613E+01    2.609E+01    2.605E+01    2.600E+01    2.594E+01    2.588E+01    2.582E+01
     2.575E+01    2.567E+01    2.559E+01    2.551E+01    2.542E+01    2.532E+01    2.523E+01    2.513E+01    2.502E+01    2.491E+01
     2.480E+01    2.468E+01    2.456E+01    2.444E+01    2.431E+01    2.419E+01    2.405E+01    2.392E+01    2.378E+01    2.364E+01
     2.350E+01    2.336E+01    2.321E+01    2.306E+01    2.291E+01    2.276E+01    2.261E+01    2.246E+01    2.230E+01    2.214E+01
     2.199E+01    2.183E+01    2.167E+01    2.151E+01    2.135E+01    2.119E+01    2.103E+01    2.086E+01    2.070E+01    2.054E+01
     2.038E+01    2.022E+01    2.006E+01    1.990E+01    1.974E+01    1.959E+01    1.943E+01    1.927E+01    1.912E+01    1.897E+01
     1.882E+01    1.867E+01    1.852E+01    1.837E+01    1.823E+01    1.808E+01    1.794E+01    1.780E+01    1.766E+01    1.752E+01
     1.739E+01    1.725E+01    1.712E+01    1.699E+01    1.686E+01    1.673E+01    1.660E+01    1.648E+01    1.636E+01    1.623E+01
     1.611E+01    1.600E+01    1.588E+01    1.577E+01    1.565E+01    1.554E+01    1.543E+01    1.532E+01    1.522E+01    1.511E+01
     1.501E+01    1.491E+01    1.481E+01    1.472E+01    1.462E+01    1.453E+01    1.444E+01    1.435E+01    1.426E+01    1.417E+01
     1.409E+01    1.401E+01    1.393E+01    1.385E+01    1.377E+01    1.370E+01    1.363E+01    1.356E+01    1.349E+01    1.342E+01
     1.336E+01    1.330E+01    1.324E+01    1.318E+01    1.312E+01    1.307E+01    1.301E+01    1.296E+01    1.291E+01    1.286E+01
     1.282E+01    1.277E+01    1.272E+01    1.268E+01    1.264E+01    1.260E+01    1.256E+01    1.252E+01    1.248E+01    1.244E+01
     1.241E+01    1.237E+01    1.234E+01    1.230E+01    1.227E+01    1.224E+01    1.220E+01    1.217E+01    1.214E+01    1.211E+01
     1.208E+01    1.205E+01    1.202E+01    1.199E+01    1.196E+01    1.193E+01    1.190E+01    1.187E+01    1.184E+01    1.181E+01
     1.178E+01    1.175E+01    1.172E+01    1.169E+01    1.166E+01    1.162E+01    1.159E+01    1.156E+01    1.152E+01    1.149E+01
     1.145E+01    1.142E+01    1.138E+01    1.135E+01    1.131E+01    1.127E+01    1.123E+01    1.119E+01    1.116E+01    1.112E+01
     1.108E+01    1.103E+01    1.099E+01    1.095E+01    1.091E+01    1.087E+01    1.083E+01    1.078E+01    1.074E+01    1.070E+01
     1.065E+01    1.061E+01    1.056E+01    1.052E+01    1.047E+01    1.043E+01    1.038E+01    1.034E+01    1.029E+01    1.024E+01
     1.020E+01    1.015E+01    1.011E+01    1.006E+01    1.001E+01    9.967E+00    9.920E+00    9.874E+00    9.827E+00    9.780E+00
     9.734E+00    9.687E+00    9.640E+00    9.594E+00    9.547E+00    9.501E+00    9.455E+00    9.409E+00
 Asp      Conc. = 1.74E+01
