 LCModel (Version 6.3-1L) Copyright: S.W. Provencher.          Ref.: Magn. Reson. Med. 30:672-679 (1993).                
 Slice#3 Row#2 Col#12  PD_05_press_1_raw_act
 36 lines in following concentration table = NCONC+1
    Conc.  %SD /Cr+PCr  Metabolite                                         
    0.000 999%   0.000 Ala                                                 
    0.000 999%   0.000 Asp                                                 
    0.000 999%   0.000 Cr                                                  
    0.000 999%   0.000 PCr                                                 
    0.000 999%   0.000 GABA                                                
    0.721 999%   0.000 Glc                                                 
    0.000 999%   0.000 Gln                                                 
 1.07E+04  14%   0.000 Glu                                                 
    0.000 999%   0.000 GPC                                                 
    0.000 999%   0.000 PCh                                                 
    0.000 999%   0.000 GSH                                                 
  991.770  54%   0.000 Ins                                                 
    0.000 999%   0.000 Lac                                                 
  113.142 146%   0.000 NAA                                                 
    0.000 999%   0.000 NAAG                                                
    0.618 999%   0.000 Scyllo                                              
    0.000 999%   0.000 Tau                                                 
    0.000 999%   0.000 -CrCH2                                              
    0.000 999%   0.000 GPC+PCh                                             
  113.142 146%   0.000 NAA+NAAG                                            
    0.000 999%   0.000 Cr+PCr                                              
 1.07E+04  14%   0.000 Glu+Gln                                             
 8.11E+04  10%   0.000 Lip13a                                              
    0.000 999%   0.000 Lip13b                                              
 3.43E+04  10%   0.000+Lip09                                               
    0.000 999%   0.000 MM09                                                
    0.000 999%   0.000-Lip20                                               
    0.000 999%   0.000 MM20                                                
 4.21E+04  14%   0.000+MM12                                                
 1.86E+04  30%   0.000 MM14                                                
 2.81E+03  24%   0.000 MM17                                                
 8.11E+04  10%   0.000 Lip13a+Lip13b                                       
 1.42E+05   3%   0.000 MM14+Lip13a+Lip13b+MM12                             
 3.43E+04  10%   0.000 MM09+Lip09                                          
    0.000 999%   0.000 MM20+Lip20                                          
   6 lines in following misc. output table
  FWHM = 0.183 ppm    S/N =  73                                            
  Data shift = 0.061 ppm                                                   
  Ph:  -6 deg      79.6 deg/ppm                                            
  alphaB,S = 4.0E+00,   9.9E+01                                            
    7 spline knots.   Ns = 9(2)                                            
  (13) 2 infls.   ( 7) 1 extrs.                                            
  498 points on ppm-axis = NY
      4.000000     3.992357     3.984714     3.977070     3.969427     3.961784     3.954141     3.946497     3.938854     3.931211
      3.923568     3.915925     3.908281     3.900638     3.892995     3.885352     3.877708     3.870065     3.862422     3.854779
      3.847136     3.839492     3.831849     3.824206     3.816563     3.808919     3.801276     3.793633     3.785990     3.778347
      3.770703     3.763060     3.755417     3.747774     3.740130     3.732487     3.724844     3.717201     3.709558     3.701914
      3.694271     3.686628     3.678985     3.671341     3.663698     3.656055     3.648412     3.640769     3.633125     3.625482
      3.617839     3.610196     3.602552     3.594909     3.587266     3.579623     3.571980     3.564336     3.556693     3.549050
      3.541407     3.533763     3.526120     3.518477     3.510834     3.503191     3.495547     3.487904     3.480261     3.472618
      3.464974     3.457331     3.449688     3.442045     3.434402     3.426758     3.419115     3.411472     3.403829     3.396185
      3.388542     3.380899     3.373256     3.365613     3.357969     3.350326     3.342683     3.335040     3.327396     3.319753
      3.312110     3.304467     3.296824     3.289180     3.281537     3.273894     3.266251     3.258607     3.250964     3.243321
      3.235678     3.228034     3.220391     3.212748     3.205105     3.197462     3.189818     3.182175     3.174532     3.166889
      3.159245     3.151602     3.143959     3.136316     3.128673     3.121029     3.113386     3.105743     3.098100     3.090456
      3.082813     3.075170     3.067527     3.059884     3.052240     3.044597     3.036954     3.029311     3.021667     3.014024
      3.006381     2.998738     2.991095     2.983451     2.975808     2.968165     2.960522     2.952878     2.945235     2.937592
      2.929949     2.922306     2.914662     2.907019     2.899376     2.891733     2.884089     2.876446     2.868803     2.861160
      2.853517     2.845873     2.838230     2.830587     2.822944     2.815300     2.807657     2.800014     2.792371     2.784728
      2.777084     2.769441     2.761798     2.754155     2.746511     2.738868     2.731225     2.723582     2.715939     2.708295
      2.700652     2.693009     2.685366     2.677722     2.670079     2.662436     2.654793     2.647150     2.639506     2.631863
      2.624220     2.616577     2.608933     2.601290     2.593647     2.586004     2.578361     2.570717     2.563074     2.555431
      2.547788     2.540144     2.532501     2.524858     2.517215     2.509572     2.501928     2.494285     2.486642     2.478999
      2.471355     2.463712     2.456069     2.448426     2.440783     2.433139     2.425496     2.417853     2.410210     2.402566
      2.394923     2.387280     2.379637     2.371994     2.364350     2.356707     2.349064     2.341421     2.333777     2.326134
      2.318491     2.310848     2.303205     2.295561     2.287918     2.280275     2.272632     2.264988     2.257345     2.249702
      2.242059     2.234416     2.226772     2.219129     2.211486     2.203843     2.196199     2.188556     2.180913     2.173270
      2.165627     2.157983     2.150340     2.142697     2.135054     2.127410     2.119767     2.112124     2.104481     2.096838
      2.089194     2.081551     2.073908     2.066265     2.058621     2.050978     2.043335     2.035692     2.028049     2.020405
      2.012762     2.005119     1.997476     1.989833     1.982190     1.974546     1.966903     1.959260     1.951617     1.943974
      1.936331     1.928688     1.921045     1.913402     1.905759     1.898115     1.890472     1.882829     1.875186     1.867543
      1.859900     1.852257     1.844614     1.836971     1.829327     1.821684     1.814041     1.806398     1.798755     1.791112
      1.783469     1.775826     1.768183     1.760540     1.752896     1.745253     1.737610     1.729967     1.722324     1.714681
      1.707038     1.699395     1.691752     1.684108     1.676465     1.668822     1.661179     1.653536     1.645893     1.638250
      1.630607     1.622964     1.615321     1.607677     1.600034     1.592391     1.584748     1.577105     1.569462     1.561819
      1.554176     1.546533     1.538890     1.531246     1.523603     1.515960     1.508317     1.500674     1.493031     1.485388
      1.477745     1.470102     1.462458     1.454815     1.447172     1.439529     1.431886     1.424243     1.416600     1.408957
      1.401314     1.393671     1.386027     1.378384     1.370741     1.363098     1.355455     1.347812     1.340169     1.332526
      1.324883     1.317240     1.309596     1.301953     1.294310     1.286667     1.279024     1.271381     1.263738     1.256095
      1.248452     1.240808     1.233165     1.225522     1.217879     1.210236     1.202593     1.194950     1.187307     1.179664
      1.172021     1.164377     1.156734     1.149091     1.141448     1.133805     1.126162     1.118519     1.110876     1.103233
      1.095590     1.087946     1.080303     1.072660     1.065017     1.057374     1.049731     1.042088     1.034445     1.026802
      1.019158     1.011515     1.003872     0.996229     0.988586     0.980943     0.973300     0.965657     0.958014     0.950371
      0.942727     0.935084     0.927441     0.919798     0.912155     0.904512     0.896869     0.889226     0.881583     0.873940
      0.866296     0.858653     0.851010     0.843367     0.835724     0.828081     0.820438     0.812795     0.805152     0.797508
      0.789865     0.782222     0.774579     0.766936     0.759293     0.751650     0.744007     0.736364     0.728721     0.721077
      0.713434     0.705791     0.698148     0.690505     0.682862     0.675219     0.667576     0.659933     0.652290     0.644646
      0.637003     0.629360     0.621717     0.614074     0.606431     0.598788     0.591145     0.583502     0.575858     0.568215
      0.560572     0.552929     0.545286     0.537643     0.530000     0.522357     0.514714     0.507071     0.499427     0.491784
      0.484141     0.476498     0.468855     0.461212     0.453569     0.445925     0.438282     0.430639     0.422996     0.415353
      0.407710     0.400067     0.392424     0.384780     0.377137     0.369494     0.361851     0.354208     0.346565     0.338922
      0.331278     0.323635     0.315992     0.308349     0.300706     0.293063     0.285420     0.277777     0.270133     0.262490
      0.254847     0.247204     0.239561     0.231918     0.224275     0.216631     0.208988     0.201345
 NY phased data points follow
   2.37112E+01  2.23190E+01  2.42412E+01  2.32050E+01  2.18508E+01  2.06996E+01  2.14906E+01  2.31929E+01  2.30961E+01  2.26385E+01
   2.23458E+01  2.12596E+01  2.16269E+01  2.27090E+01  2.08340E+01  2.28930E+01  1.97745E+01  2.01782E+01  2.07077E+01  2.33270E+01
   2.02668E+01  2.12031E+01  2.08829E+01  2.06511E+01  2.12635E+01  1.97929E+01  2.00732E+01  1.83772E+01  1.93692E+01  1.83886E+01
   2.12929E+01  1.89092E+01  1.86496E+01  1.75097E+01  1.88990E+01  1.93244E+01  1.89241E+01  1.83823E+01  1.81658E+01  1.57174E+01
   1.73744E+01  1.76034E+01  1.91848E+01  1.70441E+01  1.50235E+01  1.68331E+01  1.86570E+01  1.55520E+01  1.57483E+01  1.49621E+01
   1.65571E+01  1.51669E+01  1.35688E+01  1.49370E+01  1.51238E+01  1.62768E+01  1.44406E+01  1.59639E+01  1.47441E+01  1.25033E+01
   1.45321E+01  1.28348E+01  1.50473E+01  1.31149E+01  1.38898E+01  1.35773E+01  1.20794E+01  1.05714E+01  1.34316E+01  9.75614E+00
   1.33293E+01  1.12391E+01  9.49098E+00  9.65387E+00  9.28557E+00  8.78235E+00  7.16191E+00  8.16211E+00  6.31503E+00  7.61370E+00
   7.67589E+00  8.34256E+00  7.48339E+00  5.44366E+00  7.45361E+00  8.01850E+00  6.56026E+00  6.89383E+00  4.74330E+00  5.66727E+00
   5.39889E+00  3.07662E+00  4.57193E+00  2.36486E+00  1.48035E+00  2.78183E+00  2.45280E+00  4.32388E-01  2.15743E+00  1.91887E-01
   5.48735E-01 -2.26358E-01 -2.61601E-01 -2.17421E+00 -1.19711E+00 -3.21051E+00 -1.50371E+00 -2.96316E+00 -2.35641E+00 -2.47548E+00
  -3.16659E+00 -4.32346E+00 -4.96537E+00 -5.05108E+00 -6.56264E+00 -6.53681E+00 -6.22290E+00 -7.39879E+00 -8.02797E+00 -1.06233E+01
  -9.26994E+00 -9.91041E+00 -1.05221E+01 -9.82862E+00 -1.28784E+01 -1.30576E+01 -1.19156E+01 -1.25554E+01 -1.09832E+01 -1.27135E+01
  -1.20529E+01 -1.45970E+01 -1.48509E+01 -1.52970E+01 -1.48190E+01 -1.55944E+01 -1.69596E+01 -1.88821E+01 -1.79791E+01 -1.66173E+01
  -1.95723E+01 -1.95727E+01 -2.19410E+01 -2.33207E+01 -2.20401E+01 -2.45332E+01 -2.07645E+01 -2.32341E+01 -2.34261E+01 -2.37912E+01
  -2.62014E+01 -2.46270E+01 -2.87962E+01 -2.58290E+01 -2.88244E+01 -3.02173E+01 -3.12275E+01 -3.10883E+01 -3.19663E+01 -3.27669E+01
  -3.10514E+01 -3.40592E+01 -3.55067E+01 -3.67081E+01 -3.56822E+01 -3.71985E+01 -3.61841E+01 -3.79275E+01 -3.95009E+01 -3.95468E+01
  -3.94477E+01 -4.11862E+01 -4.34495E+01 -4.09214E+01 -4.02620E+01 -4.37715E+01 -4.44642E+01 -4.46110E+01 -4.38754E+01 -4.58333E+01
  -4.71182E+01 -4.68016E+01 -4.85841E+01 -5.12214E+01 -5.05855E+01 -5.08089E+01 -5.10168E+01 -5.11837E+01 -5.11051E+01 -5.35226E+01
  -5.42571E+01 -5.40118E+01 -5.51887E+01 -5.68327E+01 -5.76156E+01 -5.80921E+01 -6.00279E+01 -5.94793E+01 -6.24489E+01 -6.28757E+01
  -6.22375E+01 -6.70286E+01 -6.77558E+01 -6.86658E+01 -6.97691E+01 -7.10447E+01 -7.02307E+01 -7.25085E+01 -7.57964E+01 -7.46814E+01
  -7.52140E+01 -7.71025E+01 -7.99463E+01 -8.23748E+01 -8.40545E+01 -8.31005E+01 -8.37201E+01 -8.74769E+01 -8.86153E+01 -8.99231E+01
  -9.22409E+01 -9.27178E+01 -9.58357E+01 -9.47865E+01 -9.86176E+01 -9.81820E+01 -1.00581E+02 -1.02215E+02 -1.01168E+02 -1.02966E+02
  -1.04234E+02 -1.03679E+02 -1.05858E+02 -1.06487E+02 -1.06939E+02 -1.06660E+02 -1.08824E+02 -1.08188E+02 -1.09219E+02 -1.07847E+02
  -1.07304E+02 -1.08806E+02 -1.09682E+02 -1.09645E+02 -1.09837E+02 -1.07374E+02 -1.07984E+02 -1.06827E+02 -1.06233E+02 -1.05362E+02
  -1.05013E+02 -1.03655E+02 -1.03563E+02 -1.04685E+02 -1.01748E+02 -1.01110E+02 -1.02254E+02 -1.02143E+02 -1.02311E+02 -1.03266E+02
  -9.85936E+01 -9.81434E+01 -9.68563E+01 -9.94444E+01 -9.94791E+01 -9.85974E+01 -9.67431E+01 -9.56043E+01 -9.68395E+01 -9.54856E+01
  -9.17291E+01 -9.26567E+01 -9.33123E+01 -9.09902E+01 -9.15260E+01 -8.89059E+01 -9.18851E+01 -8.95855E+01 -8.71505E+01 -9.05447E+01
  -8.76513E+01 -8.96275E+01 -8.79099E+01 -8.93689E+01 -8.89795E+01 -8.95613E+01 -9.13257E+01 -9.21597E+01 -9.13283E+01 -9.19104E+01
  -9.22913E+01 -9.29135E+01 -9.20024E+01 -9.35951E+01 -9.35433E+01 -9.21987E+01 -9.25501E+01 -9.36805E+01 -9.31025E+01 -9.23510E+01
  -9.24551E+01 -9.46651E+01 -9.19517E+01 -9.39324E+01 -9.21524E+01 -9.05879E+01 -8.96570E+01 -9.11551E+01 -8.91872E+01 -8.94046E+01
  -8.60352E+01 -8.26629E+01 -8.18182E+01 -8.05514E+01 -8.14991E+01 -7.88663E+01 -7.52853E+01 -6.91853E+01 -6.94444E+01 -6.41494E+01
  -6.16578E+01 -5.58035E+01 -4.90415E+01 -4.32768E+01 -3.61884E+01 -2.94476E+01 -2.10269E+01 -1.23884E+01 -5.06292E-01  7.84791E+00
   1.71887E+01  3.06251E+01  4.20927E+01  5.53020E+01  6.92989E+01  8.51593E+01  9.86307E+01  1.13502E+02  1.30279E+02  1.47087E+02
   1.68323E+02  1.87223E+02  2.06248E+02  2.26488E+02  2.46501E+02  2.67909E+02  2.87207E+02  3.10521E+02  3.31539E+02  3.51233E+02
   3.71747E+02  3.88867E+02  4.04805E+02  4.20048E+02  4.36602E+02  4.48817E+02  4.60221E+02  4.70745E+02  4.75497E+02  4.77724E+02
   4.76683E+02  4.72112E+02  4.62420E+02  4.53755E+02  4.37276E+02  4.19746E+02  4.02755E+02  3.84362E+02  3.61055E+02  3.41682E+02
   3.25013E+02  3.01579E+02  2.83719E+02  2.64680E+02  2.46435E+02  2.31072E+02  2.15561E+02  1.99205E+02  1.86024E+02  1.71243E+02
   1.61942E+02  1.51113E+02  1.39727E+02  1.28528E+02  1.22595E+02  1.14785E+02  1.06839E+02  1.00604E+02  9.36391E+01  9.12735E+01
   8.41890E+01  8.10221E+01  7.57116E+01  7.38509E+01  6.93754E+01  6.65397E+01  6.60370E+01  6.02346E+01  5.89112E+01  5.58763E+01
   5.31421E+01  5.20068E+01  4.88387E+01  4.89114E+01  4.61133E+01  4.22761E+01  4.06512E+01  4.04190E+01  3.80406E+01  3.57100E+01
   3.44757E+01  3.17948E+01  3.09364E+01  2.86374E+01  2.47581E+01  2.58706E+01  2.46249E+01  2.25588E+01  2.04395E+01  1.72499E+01
   1.55999E+01  1.36624E+01  1.06416E+01  1.23811E+01  8.31453E+00  8.74175E+00  6.46072E+00  5.28919E+00  1.16809E-01 -1.14238E+00
  -1.45617E+00 -4.97320E+00 -4.87073E+00 -5.71780E+00 -1.01338E+01 -9.09491E+00 -1.11487E+01 -1.40667E+01 -1.30874E+01 -1.56008E+01
  -1.31082E+01 -2.03285E+01 -2.08800E+01 -2.25284E+01 -2.13126E+01 -2.31769E+01 -2.44522E+01 -2.37797E+01 -2.70824E+01 -2.55025E+01
  -2.63177E+01 -2.90128E+01 -2.85583E+01 -3.14939E+01 -3.23534E+01 -3.13898E+01 -3.35369E+01 -3.43023E+01 -3.45869E+01 -3.45267E+01
  -3.44462E+01 -3.68139E+01 -3.75728E+01 -3.81505E+01 -3.79020E+01 -3.75986E+01 -3.70201E+01 -4.04316E+01 -3.89329E+01 -4.04910E+01
  -3.81194E+01 -4.19752E+01 -4.07390E+01 -4.36661E+01 -4.29466E+01 -4.43240E+01 -4.19941E+01 -4.54434E+01 -4.44973E+01 -4.61563E+01
  -4.39780E+01 -4.50898E+01 -4.58168E+01 -4.51840E+01 -4.43524E+01 -4.34279E+01 -4.64789E+01 -4.55042E+01 -4.66862E+01 -4.69161E+01
  -4.56266E+01 -4.61516E+01 -4.56351E+01 -4.67949E+01 -4.65176E+01 -4.71316E+01 -4.48246E+01 -4.69520E+01
 NY points of the fit to the data follow
   2.37536E+01  2.33648E+01  2.29543E+01  2.25758E+01  2.21920E+01  2.18471E+01  2.15293E+01  2.12851E+01  2.11283E+01  2.09049E+01
   2.04266E+01  2.02172E+01  1.95932E+01  1.95297E+01  1.90956E+01  1.96109E+01  1.92954E+01  2.00697E+01  1.93984E+01  2.02634E+01
   1.92141E+01  2.02196E+01  1.92636E+01  2.05667E+01  1.95761E+01  2.09272E+01  1.96430E+01  2.09329E+01  1.94472E+01  2.07897E+01
   1.94965E+01  2.09239E+01  1.97497E+01  2.10886E+01  1.98893E+01  2.09679E+01  1.96991E+01  2.05170E+01  1.94178E+01  2.00298E+01
   1.92153E+01  1.96055E+01  1.89273E+01  1.89898E+01  1.83939E+01  1.81892E+01  1.79785E+01  1.77343E+01  1.81521E+01  1.76224E+01
   1.74300E+01  1.64358E+01  1.58669E+01  1.47604E+01  1.46225E+01  1.41712E+01  1.46561E+01  1.43911E+01  1.45355E+01  1.40686E+01
   1.35777E+01  1.28790E+01  1.26149E+01  1.20491E+01  1.18735E+01  1.13336E+01  1.11750E+01  1.06517E+01  1.05411E+01  1.01609E+01
   1.02082E+01  9.84669E+00  9.85157E+00  9.44016E+00  9.40079E+00  8.95026E+00  8.87533E+00  8.38745E+00  8.28878E+00  7.78255E+00
   7.63232E+00  7.16629E+00  7.02760E+00  6.60228E+00  6.46157E+00  6.01967E+00  5.83433E+00  5.36638E+00  5.13472E+00  4.67128E+00
   4.41896E+00  3.98297E+00  3.71819E+00  3.31074E+00  3.07490E+00  2.68671E+00  2.44978E+00  2.07235E+00  1.82811E+00  1.46557E+00
   1.21294E+00  8.63953E-01  5.98457E-01  2.58890E-01 -2.10825E-02 -3.47148E-01 -6.38469E-01 -9.49508E-01 -1.26639E+00 -1.61935E+00
  -1.98889E+00 -2.38930E+00 -2.78450E+00 -3.20814E+00 -3.61764E+00 -4.05205E+00 -4.45608E+00 -4.89993E+00 -5.29696E+00 -5.75471E+00
  -6.19201E+00 -6.68329E+00 -7.16198E+00 -7.68241E+00 -8.20496E+00 -8.75715E+00 -9.32288E+00 -9.89837E+00 -1.04904E+01 -1.10915E+01
  -1.17091E+01 -1.23351E+01 -1.29761E+01 -1.36252E+01 -1.42868E+01 -1.49573E+01 -1.56380E+01 -1.63294E+01 -1.70300E+01 -1.77416E+01
  -1.84630E+01 -1.91950E+01 -1.99371E+01 -2.06905E+01 -2.14515E+01 -2.22235E+01 -2.30011E+01 -2.37892E+01 -2.45840E+01 -2.53890E+01
  -2.62001E+01 -2.70212E+01 -2.78464E+01 -2.86819E+01 -2.95213E+01 -3.03703E+01 -3.12235E+01 -3.20850E+01 -3.29521E+01 -3.38258E+01
  -3.47032E+01 -3.55884E+01 -3.64767E+01 -3.73741E+01 -3.82705E+01 -3.91765E+01 -4.00798E+01 -4.09949E+01 -4.19048E+01 -4.28303E+01
  -4.37404E+01 -4.46704E+01 -4.55787E+01 -4.65113E+01 -4.74169E+01 -4.83505E+01 -4.92494E+01 -5.01806E+01 -5.10679E+01 -5.19873E+01
  -5.28570E+01 -5.37562E+01 -5.46102E+01 -5.54887E+01 -5.63167E+01 -5.71523E+01 -5.79235E+01 -5.86705E+01 -5.93531E+01 -6.01502E+01
  -6.08297E+01 -6.16502E+01 -6.25861E+01 -6.33971E+01 -6.44918E+01 -6.51652E+01 -6.61314E+01 -6.63638E+01 -6.66138E+01 -6.68220E+01
  -6.71235E+01 -6.75490E+01 -6.79727E+01 -6.88430E+01 -6.97286E+01 -7.11958E+01 -7.18220E+01 -7.34686E+01 -7.42509E+01 -7.60434E+01
  -7.70196E+01 -7.89872E+01 -8.00248E+01 -8.20162E+01 -8.27301E+01 -8.45075E+01 -8.51241E+01 -8.68579E+01 -8.76117E+01 -8.92669E+01
  -9.01708E+01 -9.16943E+01 -9.26796E+01 -9.39725E+01 -9.48708E+01 -9.58761E+01 -9.66072E+01 -9.71579E+01 -9.76076E+01 -9.81208E+01
  -9.82058E+01 -9.87190E+01 -9.91925E+01 -9.99119E+01 -1.00706E+02 -1.01130E+02 -1.01533E+02 -1.01072E+02 -9.96625E+01 -9.92458E+01
  -9.77644E+01 -9.78230E+01 -9.64857E+01 -9.75312E+01 -9.75917E+01 -9.97910E+01 -9.96173E+01 -1.01543E+02 -1.01317E+02 -1.02664E+02
  -1.02269E+02 -1.03023E+02 -1.02594E+02 -1.03025E+02 -1.02845E+02 -1.02881E+02 -1.02972E+02 -1.02551E+02 -1.02767E+02 -1.01775E+02
  -1.02096E+02 -1.00514E+02 -1.01244E+02 -9.94594E+01 -1.00488E+02 -9.87949E+01 -9.96723E+01 -9.76168E+01 -9.81800E+01 -9.60161E+01
  -9.61353E+01 -9.40638E+01 -9.42588E+01 -9.26685E+01 -9.28156E+01 -9.13336E+01 -9.12222E+01 -8.99457E+01 -8.97442E+01 -8.88916E+01
  -8.90785E+01 -8.86650E+01 -8.88081E+01 -8.85505E+01 -8.87711E+01 -8.87625E+01 -8.89368E+01 -8.93118E+01 -8.96541E+01 -9.01567E+01
  -9.05996E+01 -9.12111E+01 -9.17218E+01 -9.23928E+01 -9.29491E+01 -9.34888E+01 -9.38434E+01 -9.41546E+01 -9.42954E+01 -9.43592E+01
  -9.42693E+01 -9.40775E+01 -9.37867E+01 -9.33763E+01 -9.28482E+01 -9.21946E+01 -9.14148E+01 -9.05025E+01 -8.94515E+01 -8.82528E+01
  -8.69013E+01 -8.53764E+01 -8.36616E+01 -8.17379E+01 -7.95767E+01 -7.71506E+01 -7.44232E+01 -7.13595E+01 -6.79159E+01 -6.40514E+01
  -5.97175E+01 -5.48703E+01 -4.94605E+01 -4.34462E+01 -3.67826E+01 -2.94330E+01 -2.13672E+01 -1.25619E+01 -3.00184E+00  7.31934E+00
   1.83999E+01  3.02303E+01  4.27950E+01  5.60742E+01  7.00462E+01  8.46898E+01  9.99866E+01  1.15922E+02  1.32488E+02  1.49680E+02
   1.67495E+02  1.85932E+02  2.04979E+02  2.24615E+02  2.44797E+02  2.65453E+02  2.86474E+02  3.07711E+02  3.28966E+02  3.49997E+02
   3.70513E+02  3.90188E+02  4.08663E+02  4.25568E+02  4.40532E+02  4.53203E+02  4.63267E+02  4.70464E+02  4.74604E+02  4.75579E+02
   4.73367E+02  4.68038E+02  4.59746E+02  4.48728E+02  4.35282E+02  4.19761E+02  4.02550E+02  3.84048E+02  3.64655E+02  3.44752E+02
   3.24692E+02  3.04784E+02  2.85295E+02  2.66439E+02  2.48381E+02  2.31240E+02  2.15091E+02  1.99974E+02  1.85896E+02  1.72842E+02
   1.60780E+02  1.49663E+02  1.39441E+02  1.30057E+02  1.21456E+02  1.13581E+02  1.06381E+02  9.98052E+01  9.38073E+01  8.83434E+01
   8.33723E+01  7.88546E+01  7.47530E+01  7.10312E+01  6.76542E+01  6.45879E+01  6.17989E+01  5.92549E+01  5.69245E+01  5.47775E+01
   5.27848E+01  5.09191E+01  4.91544E+01  4.74670E+01  4.58346E+01  4.42376E+01  4.26582E+01  4.10812E+01  3.94934E+01  3.78840E+01
   3.62444E+01  3.45682E+01  3.28507E+01  3.10896E+01  2.92840E+01  2.74345E+01  2.55432E+01  2.36135E+01  2.16497E+01  1.96568E+01
   1.76405E+01  1.56070E+01  1.35626E+01  1.15141E+01  9.46788E+00  7.43038E+00  5.40783E+00  3.40605E+00  1.43053E+00 -5.13650E-01
  -2.42195E+00 -4.29030E+00 -6.11515E+00 -7.89338E+00 -9.62253E+00 -1.13005E+01 -1.29256E+01 -1.44967E+01 -1.60131E+01 -1.74742E+01
  -1.88801E+01 -2.02309E+01 -2.15271E+01 -2.27694E+01 -2.39587E+01 -2.50960E+01 -2.61827E+01 -2.72198E+01 -2.82091E+01 -2.91517E+01
  -3.00494E+01 -3.09037E+01 -3.17162E+01 -3.24884E+01 -3.32220E+01 -3.39186E+01 -3.45797E+01 -3.52069E+01 -3.58016E+01 -3.63655E+01
  -3.68998E+01 -3.74061E+01 -3.78856E+01 -3.83397E+01 -3.87698E+01 -3.91768E+01 -3.95622E+01 -3.99270E+01 -4.02724E+01 -4.05993E+01
  -4.09089E+01 -4.12020E+01 -4.14797E+01 -4.17428E+01 -4.19922E+01 -4.22287E+01 -4.24532E+01 -4.26664E+01 -4.28689E+01 -4.30616E+01
  -4.32452E+01 -4.34201E+01 -4.35872E+01 -4.37469E+01 -4.38999E+01 -4.40467E+01 -4.41878E+01 -4.43237E+01 -4.44550E+01 -4.45821E+01
  -4.47054E+01 -4.48254E+01 -4.49424E+01 -4.50569E+01 -4.51693E+01 -4.52799E+01 -4.53890E+01 -4.54969E+01
 NY background values follow
     1.941E+01    1.901E+01    1.862E+01    1.825E+01    1.788E+01    1.752E+01    1.718E+01    1.684E+01    1.651E+01    1.619E+01
     1.588E+01    1.558E+01    1.529E+01    1.501E+01    1.473E+01    1.446E+01    1.420E+01    1.395E+01    1.371E+01    1.347E+01
     1.324E+01    1.302E+01    1.280E+01    1.259E+01    1.239E+01    1.219E+01    1.200E+01    1.181E+01    1.163E+01    1.146E+01
     1.129E+01    1.112E+01    1.096E+01    1.081E+01    1.066E+01    1.051E+01    1.037E+01    1.023E+01    1.009E+01    9.960E+00
     9.831E+00    9.705E+00    9.583E+00    9.462E+00    9.344E+00    9.229E+00    9.115E+00    9.004E+00    8.894E+00    8.785E+00
     8.678E+00    8.572E+00    8.467E+00    8.362E+00    8.258E+00    8.154E+00    8.051E+00    7.947E+00    7.843E+00    7.739E+00
     7.634E+00    7.528E+00    7.421E+00    7.313E+00    7.203E+00    7.092E+00    6.979E+00    6.863E+00    6.746E+00    6.626E+00
     6.504E+00    6.379E+00    6.251E+00    6.119E+00    5.985E+00    5.847E+00    5.705E+00    5.559E+00    5.409E+00    5.254E+00
     5.095E+00    4.931E+00    4.763E+00    4.589E+00    4.410E+00    4.225E+00    4.035E+00    3.839E+00    3.636E+00    3.428E+00
     3.213E+00    2.991E+00    2.762E+00    2.527E+00    2.284E+00    2.033E+00    1.775E+00    1.510E+00    1.236E+00    9.536E-01
     6.631E-01    3.640E-01    5.602E-02   -2.609E-01   -5.871E-01   -9.226E-01   -1.268E+00   -1.623E+00   -1.987E+00   -2.362E+00
    -2.748E+00   -3.144E+00   -3.551E+00   -3.968E+00   -4.397E+00   -4.837E+00   -5.289E+00   -5.752E+00   -6.227E+00   -6.715E+00
    -7.214E+00   -7.726E+00   -8.251E+00   -8.789E+00   -9.340E+00   -9.904E+00   -1.048E+01   -1.107E+01   -1.167E+01   -1.229E+01
    -1.292E+01   -1.356E+01   -1.421E+01   -1.487E+01   -1.555E+01   -1.623E+01   -1.693E+01   -1.764E+01   -1.836E+01   -1.908E+01
    -1.982E+01   -2.057E+01   -2.133E+01   -2.210E+01   -2.287E+01   -2.366E+01   -2.446E+01   -2.526E+01   -2.607E+01   -2.689E+01
    -2.772E+01   -2.856E+01   -2.940E+01   -3.025E+01   -3.111E+01   -3.198E+01   -3.285E+01   -3.373E+01   -3.461E+01   -3.550E+01
    -3.640E+01   -3.730E+01   -3.821E+01   -3.912E+01   -4.004E+01   -4.096E+01   -4.189E+01   -4.282E+01   -4.375E+01   -4.469E+01
    -4.564E+01   -4.658E+01   -4.753E+01   -4.849E+01   -4.944E+01   -5.040E+01   -5.136E+01   -5.232E+01   -5.329E+01   -5.425E+01
    -5.522E+01   -5.619E+01   -5.716E+01   -5.813E+01   -5.911E+01   -6.008E+01   -6.105E+01   -6.202E+01   -6.300E+01   -6.397E+01
    -6.494E+01   -6.591E+01   -6.688E+01   -6.785E+01   -6.882E+01   -6.978E+01   -7.075E+01   -7.171E+01   -7.267E+01   -7.362E+01
    -7.458E+01   -7.553E+01   -7.648E+01   -7.742E+01   -7.836E+01   -7.930E+01   -8.023E+01   -8.116E+01   -8.208E+01   -8.300E+01
    -8.391E+01   -8.482E+01   -8.573E+01   -8.663E+01   -8.752E+01   -8.840E+01   -8.928E+01   -9.016E+01   -9.103E+01   -9.189E+01
    -9.274E+01   -9.358E+01   -9.442E+01   -9.525E+01   -9.608E+01   -9.689E+01   -9.770E+01   -9.850E+01   -9.928E+01   -1.001E+02
    -1.008E+02   -1.016E+02   -1.023E+02   -1.031E+02   -1.038E+02   -1.045E+02   -1.053E+02   -1.060E+02   -1.066E+02   -1.073E+02
    -1.080E+02   -1.086E+02   -1.093E+02   -1.099E+02   -1.105E+02   -1.111E+02   -1.117E+02   -1.123E+02   -1.129E+02   -1.134E+02
    -1.140E+02   -1.145E+02   -1.150E+02   -1.155E+02   -1.160E+02   -1.165E+02   -1.170E+02   -1.174E+02   -1.178E+02   -1.183E+02
    -1.187E+02   -1.191E+02   -1.195E+02   -1.198E+02   -1.202E+02   -1.206E+02   -1.209E+02   -1.212E+02   -1.215E+02   -1.218E+02
    -1.221E+02   -1.224E+02   -1.227E+02   -1.229E+02   -1.232E+02   -1.234E+02   -1.236E+02   -1.239E+02   -1.241E+02   -1.243E+02
    -1.244E+02   -1.246E+02   -1.248E+02   -1.249E+02   -1.251E+02   -1.252E+02   -1.253E+02   -1.254E+02   -1.255E+02   -1.256E+02
    -1.257E+02   -1.258E+02   -1.258E+02   -1.259E+02   -1.259E+02   -1.259E+02   -1.260E+02   -1.260E+02   -1.260E+02   -1.260E+02
    -1.260E+02   -1.259E+02   -1.259E+02   -1.259E+02   -1.258E+02   -1.258E+02   -1.257E+02   -1.256E+02   -1.255E+02   -1.254E+02
    -1.254E+02   -1.252E+02   -1.251E+02   -1.250E+02   -1.249E+02   -1.247E+02   -1.246E+02   -1.244E+02   -1.243E+02   -1.241E+02
    -1.239E+02   -1.238E+02   -1.236E+02   -1.234E+02   -1.232E+02   -1.230E+02   -1.228E+02   -1.225E+02   -1.223E+02   -1.221E+02
    -1.218E+02   -1.216E+02   -1.213E+02   -1.211E+02   -1.208E+02   -1.206E+02   -1.203E+02   -1.200E+02   -1.197E+02   -1.194E+02
    -1.191E+02   -1.188E+02   -1.185E+02   -1.182E+02   -1.179E+02   -1.176E+02   -1.172E+02   -1.169E+02   -1.166E+02   -1.162E+02
    -1.159E+02   -1.155E+02   -1.152E+02   -1.148E+02   -1.145E+02   -1.141E+02   -1.137E+02   -1.133E+02   -1.130E+02   -1.126E+02
    -1.122E+02   -1.118E+02   -1.114E+02   -1.110E+02   -1.106E+02   -1.102E+02   -1.098E+02   -1.094E+02   -1.090E+02   -1.086E+02
    -1.082E+02   -1.078E+02   -1.073E+02   -1.069E+02   -1.065E+02   -1.061E+02   -1.056E+02   -1.052E+02   -1.048E+02   -1.043E+02
    -1.039E+02   -1.035E+02   -1.030E+02   -1.026E+02   -1.021E+02   -1.017E+02   -1.012E+02   -1.008E+02   -1.003E+02   -9.988E+01
    -9.943E+01   -9.897E+01   -9.852E+01   -9.806E+01   -9.761E+01   -9.715E+01   -9.669E+01   -9.623E+01   -9.578E+01   -9.532E+01
    -9.486E+01   -9.440E+01   -9.393E+01   -9.347E+01   -9.301E+01   -9.255E+01   -9.209E+01   -9.163E+01   -9.117E+01   -9.071E+01
    -9.025E+01   -8.979E+01   -8.933E+01   -8.887E+01   -8.841E+01   -8.795E+01   -8.750E+01   -8.704E+01   -8.659E+01   -8.613E+01
    -8.568E+01   -8.523E+01   -8.477E+01   -8.432E+01   -8.388E+01   -8.343E+01   -8.298E+01   -8.254E+01   -8.210E+01   -8.166E+01
    -8.122E+01   -8.078E+01   -8.034E+01   -7.991E+01   -7.948E+01   -7.905E+01   -7.862E+01   -7.820E+01   -7.778E+01   -7.736E+01
    -7.694E+01   -7.652E+01   -7.611E+01   -7.570E+01   -7.530E+01   -7.489E+01   -7.449E+01   -7.409E+01   -7.370E+01   -7.331E+01
    -7.292E+01   -7.253E+01   -7.215E+01   -7.177E+01   -7.139E+01   -7.102E+01   -7.066E+01   -7.029E+01   -6.993E+01   -6.957E+01
    -6.922E+01   -6.887E+01   -6.853E+01   -6.819E+01   -6.785E+01   -6.752E+01   -6.719E+01   -6.687E+01   -6.655E+01   -6.623E+01
    -6.592E+01   -6.562E+01   -6.532E+01   -6.502E+01   -6.473E+01   -6.445E+01   -6.417E+01   -6.389E+01   -6.362E+01   -6.336E+01
    -6.310E+01   -6.285E+01   -6.260E+01   -6.236E+01   -6.212E+01   -6.189E+01   -6.166E+01   -6.145E+01   -6.123E+01   -6.102E+01
    -6.082E+01   -6.063E+01   -6.044E+01   -6.026E+01   -6.008E+01   -5.991E+01   -5.975E+01   -5.959E+01
 Glc      Conc. = 7.21E-01
