 LCModel (Version 6.3-1L) Copyright: S.W. Provencher.          Ref.: Magn. Reson. Med. 30:672-679 (1993).                
 Slice#3 Row#8 Col#12  PD_05_press_1_raw_act
 36 lines in following concentration table = NCONC+1
    Conc.  %SD /Cr+PCr  Metabolite                                         
   27.581 186%   0.130 Ala                                                 
   92.883  69%   0.437 Asp                                                 
    0.000 999%   0.000 Cr                                                  
  212.655  11%   1.000 PCr                                                 
    0.993 999% 4.7E-03 GABA                                                
   27.140 148%   0.128 Glc                                                 
  455.986  23%   2.144 Gln                                                 
  498.064  24%   2.342 Glu                                                 
   45.493 131%   0.214 GPC                                                 
   10.531 572% 5.0E-02 PCh                                                 
   14.260 223% 6.7E-02 GSH                                                 
   92.580 124%   0.435 Ins                                                 
    0.000 999%   0.000 Lac                                                 
  827.852   4%   3.893 NAA                                                 
    0.000 999%   0.000 NAAG                                                
   22.829  42%   0.107 Scyllo                                              
   69.862  93%   0.329 Tau                                                 
  140.178  28%   0.659 -CrCH2                                              
   56.024  15%   0.263 GPC+PCh                                             
  827.852   4%   3.893 NAA+NAAG                                            
  212.655  11%   1.000 Cr+PCr                                              
  954.050  18%   4.486 Glu+Gln                                             
 9.73E+03   8%  45.778 Lip13a                                              
    0.000 999%   0.000 Lip13b                                              
    0.000 999%   0.000-Lip09                                               
  238.643  34%   1.122 MM09                                                
  559.009  44%   2.629 Lip20                                               
  311.846  52%   1.466 MM20                                                
   79.306  58%   0.373 MM12                                                
  624.619  25%   2.937 MM14                                                
  329.841  30%   1.551 MM17                                                
 9.73E+03   8%  45.778 Lip13a+Lip13b                                       
 1.04E+04   7%  49.088 MM14+Lip13a+Lip13b+MM12                             
  238.643  34%   1.122 MM09+Lip09                                          
  870.854  24%   4.095 MM20+Lip20                                          
   6 lines in following misc. output table
  FWHM = 0.054 ppm    S/N =  10                                            
  Data shift = 0.000 ppm                                                   
  Ph: -72 deg     -49.1 deg/ppm                                            
  alphaB,S = 6.9E-01,   1.8E+02                                            
   14 spline knots.   Ns = 8(1)                                            
  (13) 2 infls.   ( 5) 1 extrs.                                            
  498 points on ppm-axis = NY
      4.000000     3.992357     3.984714     3.977070     3.969427     3.961784     3.954141     3.946497     3.938854     3.931211
      3.923568     3.915925     3.908281     3.900638     3.892995     3.885352     3.877708     3.870065     3.862422     3.854779
      3.847136     3.839492     3.831849     3.824206     3.816563     3.808919     3.801276     3.793633     3.785990     3.778347
      3.770703     3.763060     3.755417     3.747774     3.740130     3.732487     3.724844     3.717201     3.709558     3.701914
      3.694271     3.686628     3.678985     3.671341     3.663698     3.656055     3.648412     3.640769     3.633125     3.625482
      3.617839     3.610196     3.602552     3.594909     3.587266     3.579623     3.571980     3.564336     3.556693     3.549050
      3.541407     3.533763     3.526120     3.518477     3.510834     3.503191     3.495547     3.487904     3.480261     3.472618
      3.464974     3.457331     3.449688     3.442045     3.434402     3.426758     3.419115     3.411472     3.403829     3.396185
      3.388542     3.380899     3.373256     3.365613     3.357969     3.350326     3.342683     3.335040     3.327396     3.319753
      3.312110     3.304467     3.296824     3.289180     3.281537     3.273894     3.266251     3.258607     3.250964     3.243321
      3.235678     3.228034     3.220391     3.212748     3.205105     3.197462     3.189818     3.182175     3.174532     3.166889
      3.159245     3.151602     3.143959     3.136316     3.128673     3.121029     3.113386     3.105743     3.098100     3.090456
      3.082813     3.075170     3.067527     3.059884     3.052240     3.044597     3.036954     3.029311     3.021667     3.014024
      3.006381     2.998738     2.991095     2.983451     2.975808     2.968165     2.960522     2.952878     2.945235     2.937592
      2.929949     2.922306     2.914662     2.907019     2.899376     2.891733     2.884089     2.876446     2.868803     2.861160
      2.853517     2.845873     2.838230     2.830587     2.822944     2.815300     2.807657     2.800014     2.792371     2.784728
      2.777084     2.769441     2.761798     2.754155     2.746511     2.738868     2.731225     2.723582     2.715939     2.708295
      2.700652     2.693009     2.685366     2.677722     2.670079     2.662436     2.654793     2.647150     2.639506     2.631863
      2.624220     2.616577     2.608933     2.601290     2.593647     2.586004     2.578361     2.570717     2.563074     2.555431
      2.547788     2.540144     2.532501     2.524858     2.517215     2.509572     2.501928     2.494285     2.486642     2.478999
      2.471355     2.463712     2.456069     2.448426     2.440783     2.433139     2.425496     2.417853     2.410210     2.402566
      2.394923     2.387280     2.379637     2.371994     2.364350     2.356707     2.349064     2.341421     2.333777     2.326134
      2.318491     2.310848     2.303205     2.295561     2.287918     2.280275     2.272632     2.264988     2.257345     2.249702
      2.242059     2.234416     2.226772     2.219129     2.211486     2.203843     2.196199     2.188556     2.180913     2.173270
      2.165627     2.157983     2.150340     2.142697     2.135054     2.127410     2.119767     2.112124     2.104481     2.096838
      2.089194     2.081551     2.073908     2.066265     2.058621     2.050978     2.043335     2.035692     2.028049     2.020405
      2.012762     2.005119     1.997476     1.989833     1.982190     1.974546     1.966903     1.959260     1.951617     1.943974
      1.936331     1.928688     1.921045     1.913402     1.905759     1.898115     1.890472     1.882829     1.875186     1.867543
      1.859900     1.852257     1.844614     1.836971     1.829327     1.821684     1.814041     1.806398     1.798755     1.791112
      1.783469     1.775826     1.768183     1.760540     1.752896     1.745253     1.737610     1.729967     1.722324     1.714681
      1.707038     1.699395     1.691752     1.684108     1.676465     1.668822     1.661179     1.653536     1.645893     1.638250
      1.630607     1.622964     1.615321     1.607677     1.600034     1.592391     1.584748     1.577105     1.569462     1.561819
      1.554176     1.546533     1.538890     1.531246     1.523603     1.515960     1.508317     1.500674     1.493031     1.485388
      1.477745     1.470102     1.462458     1.454815     1.447172     1.439529     1.431886     1.424243     1.416600     1.408957
      1.401314     1.393671     1.386027     1.378384     1.370741     1.363098     1.355455     1.347812     1.340169     1.332526
      1.324883     1.317240     1.309596     1.301953     1.294310     1.286667     1.279024     1.271381     1.263738     1.256095
      1.248452     1.240808     1.233165     1.225522     1.217879     1.210236     1.202593     1.194950     1.187307     1.179664
      1.172021     1.164377     1.156734     1.149091     1.141448     1.133805     1.126162     1.118519     1.110876     1.103233
      1.095590     1.087946     1.080303     1.072660     1.065017     1.057374     1.049731     1.042088     1.034445     1.026802
      1.019158     1.011515     1.003872     0.996229     0.988586     0.980943     0.973300     0.965657     0.958014     0.950371
      0.942727     0.935084     0.927441     0.919798     0.912155     0.904512     0.896869     0.889226     0.881583     0.873940
      0.866296     0.858653     0.851010     0.843367     0.835724     0.828081     0.820438     0.812795     0.805152     0.797508
      0.789865     0.782222     0.774579     0.766936     0.759293     0.751650     0.744007     0.736364     0.728721     0.721077
      0.713434     0.705791     0.698148     0.690505     0.682862     0.675219     0.667576     0.659933     0.652290     0.644646
      0.637003     0.629360     0.621717     0.614074     0.606431     0.598788     0.591145     0.583502     0.575858     0.568215
      0.560572     0.552929     0.545286     0.537643     0.530000     0.522357     0.514714     0.507071     0.499427     0.491784
      0.484141     0.476498     0.468855     0.461212     0.453569     0.445925     0.438282     0.430639     0.422996     0.415353
      0.407710     0.400067     0.392424     0.384780     0.377137     0.369494     0.361851     0.354208     0.346565     0.338922
      0.331278     0.323635     0.315992     0.308349     0.300706     0.293063     0.285420     0.277777     0.270133     0.262490
      0.254847     0.247204     0.239561     0.231918     0.224275     0.216631     0.208988     0.201345
 NY phased data points follow
   1.04534E+01  9.02846E+00  1.19326E+01  1.02090E+01  1.18357E+01  8.88348E+00  9.23540E+00  1.06901E+01  9.00054E+00  1.17030E+01
   9.68227E+00  9.52496E+00  9.36544E+00  1.01660E+01  9.33744E+00  9.18581E+00  1.14874E+01  9.17528E+00  9.19480E+00  8.81582E+00
   9.28239E+00  8.60034E+00  1.02952E+01  9.51936E+00  1.03242E+01  1.08350E+01  1.04150E+01  1.01184E+01  9.78152E+00  9.82816E+00
   1.15771E+01  9.38249E+00  1.07329E+01  1.04000E+01  8.95710E+00  9.37986E+00  9.80563E+00  8.61038E+00  9.41838E+00  9.11673E+00
   1.26011E+01  1.34898E+01  1.25975E+01  1.14994E+01  9.18862E+00  9.87919E+00  1.20858E+01  1.03326E+01  1.09710E+01  1.24694E+01
   9.77639E+00  1.03450E+01  1.16993E+01  1.10743E+01  1.03976E+01  9.71767E+00  1.07462E+01  1.07066E+01  1.02104E+01  1.06561E+01
   1.26110E+01  9.95106E+00  9.19293E+00  1.18693E+01  1.10326E+01  9.87296E+00  1.05303E+01  1.00579E+01  9.46087E+00  1.19037E+01
   9.94992E+00  9.73735E+00  1.24448E+01  9.46452E+00  1.10340E+01  9.86764E+00  1.10418E+01  9.91436E+00  1.21428E+01  1.05925E+01
   1.08745E+01  1.04331E+01  1.29337E+01  1.07209E+01  1.16016E+01  1.28416E+01  1.20916E+01  1.12366E+01  1.16721E+01  1.22783E+01
   1.29363E+01  1.20480E+01  1.25074E+01  1.20625E+01  1.15837E+01  1.43832E+01  1.31928E+01  1.41715E+01  1.12695E+01  1.38688E+01
   1.43774E+01  1.46508E+01  1.45477E+01  1.67974E+01  1.66707E+01  1.52353E+01  1.51682E+01  1.44021E+01  1.24793E+01  1.30819E+01
   1.39716E+01  1.03479E+01  1.06877E+01  1.02379E+01  1.14884E+01  1.27787E+01  1.29703E+01  1.38982E+01  1.00520E+01  1.47694E+01
   1.37128E+01  1.42922E+01  1.43590E+01  1.55881E+01  1.50810E+01  1.67048E+01  1.94559E+01  1.76856E+01  1.94194E+01  1.78207E+01
   1.85581E+01  1.55562E+01  1.29720E+01  1.38166E+01  1.30366E+01  1.21060E+01  1.06430E+01  1.13864E+01  1.21709E+01  1.43124E+01
   1.26024E+01  1.22842E+01  1.40026E+01  1.16843E+01  1.43851E+01  1.37032E+01  1.24352E+01  1.22996E+01  1.38169E+01  1.42155E+01
   1.35664E+01  1.29566E+01  1.35546E+01  1.45902E+01  1.30889E+01  1.18803E+01  1.55141E+01  1.40425E+01  1.45213E+01  1.55146E+01
   1.52620E+01  1.47449E+01  1.24575E+01  1.34745E+01  1.54750E+01  1.55223E+01  1.25769E+01  1.46564E+01  1.22729E+01  1.26666E+01
   1.38876E+01  1.40559E+01  1.65128E+01  1.48120E+01  1.53333E+01  1.35258E+01  1.26239E+01  1.63385E+01  1.39305E+01  1.57215E+01
   1.52699E+01  1.50092E+01  1.77405E+01  1.74002E+01  1.49252E+01  1.74156E+01  1.61402E+01  1.65232E+01  1.68623E+01  1.89715E+01
   1.99457E+01  1.78208E+01  1.93075E+01  1.85010E+01  1.85019E+01  1.85703E+01  2.04505E+01  1.76762E+01  1.77335E+01  1.95985E+01
   1.95853E+01  2.09562E+01  1.95273E+01  2.38487E+01  2.37490E+01  2.29041E+01  2.30551E+01  2.11477E+01  2.20193E+01  2.07220E+01
   2.19990E+01  2.17432E+01  2.26352E+01  2.43276E+01  2.79191E+01  2.77967E+01  2.87023E+01  2.85958E+01  2.80612E+01  2.73938E+01
   2.62816E+01  2.45778E+01  2.66157E+01  2.55758E+01  2.67041E+01  2.43588E+01  2.80704E+01  2.84781E+01  2.87068E+01  2.94177E+01
   3.00129E+01  2.84015E+01  2.90678E+01  3.00990E+01  3.00124E+01  2.89862E+01  2.90359E+01  3.04711E+01  2.94078E+01  2.81232E+01
   2.94074E+01  2.97701E+01  2.88027E+01  2.89530E+01  2.95235E+01  2.99432E+01  3.07400E+01  3.10607E+01  3.08293E+01  3.19793E+01
   3.23230E+01  3.19387E+01  3.30066E+01  3.39008E+01  3.71495E+01  3.76853E+01  4.02491E+01  4.56229E+01  5.05359E+01  5.54199E+01
   5.99917E+01  5.98884E+01  5.71545E+01  5.38720E+01  4.91733E+01  4.56878E+01  4.02787E+01  4.07075E+01  3.73172E+01  3.61334E+01
   3.46934E+01  3.50176E+01  3.56421E+01  3.68926E+01  3.61572E+01  3.72172E+01  3.59118E+01  3.46009E+01  3.41370E+01  3.49549E+01
   3.41005E+01  3.43542E+01  3.40979E+01  3.39134E+01  3.42942E+01  3.57557E+01  3.40039E+01  3.48603E+01  3.42171E+01  3.46080E+01
   3.40775E+01  3.49728E+01  3.37494E+01  3.58808E+01  3.41629E+01  3.75469E+01  3.74938E+01  3.62093E+01  3.62422E+01  3.93558E+01
   3.71504E+01  3.63381E+01  3.79842E+01  3.93608E+01  3.82570E+01  3.80944E+01  3.82923E+01  3.92447E+01  4.00067E+01  4.12160E+01
   4.28334E+01  4.00706E+01  4.20694E+01  4.34731E+01  4.25675E+01  4.44201E+01  4.32751E+01  4.47326E+01  4.49942E+01  4.51291E+01
   4.45691E+01  4.51121E+01  4.72001E+01  4.66072E+01  4.65049E+01  4.70418E+01  4.59292E+01  4.81787E+01  4.82067E+01  4.58704E+01
   4.93817E+01  4.74289E+01  4.97700E+01  4.99982E+01  5.03427E+01  5.21052E+01  5.11977E+01  5.03166E+01  5.39147E+01  5.12844E+01
   5.20616E+01  5.28230E+01  4.99243E+01  5.19636E+01  5.17368E+01  5.34865E+01  5.42220E+01  5.41029E+01  5.49538E+01  5.37533E+01
   5.27857E+01  5.38005E+01  5.40911E+01  5.37414E+01  5.48046E+01  5.44353E+01  5.20635E+01  5.17048E+01  5.21015E+01  5.17800E+01
   5.33577E+01  5.17616E+01  5.05930E+01  5.18786E+01  4.97072E+01  5.18502E+01  4.87436E+01  4.80332E+01  4.83728E+01  4.78700E+01
   4.71088E+01  4.57492E+01  4.57311E+01  4.36615E+01  4.48433E+01  4.52581E+01  4.19890E+01  4.13373E+01  3.91413E+01  4.04163E+01
   4.06852E+01  3.77845E+01  3.81551E+01  3.94657E+01  3.64683E+01  3.63448E+01  3.75285E+01  3.48828E+01  3.42064E+01  3.30605E+01
   3.15303E+01  3.34030E+01  3.24801E+01  3.22546E+01  3.35316E+01  3.04843E+01  3.17760E+01  3.10275E+01  3.07853E+01  3.05598E+01
   3.12565E+01  3.10225E+01  2.97962E+01  2.75632E+01  3.00677E+01  2.93281E+01  2.97526E+01  2.80835E+01  2.94648E+01  2.81332E+01
   2.84895E+01  2.70157E+01  2.80876E+01  2.83039E+01  2.78370E+01  2.79613E+01  2.57758E+01  2.64326E+01  2.60337E+01  2.65867E+01
   2.48899E+01  2.46681E+01  2.62423E+01  2.47033E+01  2.35838E+01  2.27749E+01  2.32619E+01  2.62476E+01  2.37948E+01  2.23881E+01
   2.25541E+01  2.26304E+01  2.12720E+01  2.30459E+01  2.31802E+01  2.28836E+01  2.04330E+01  1.99533E+01  2.14008E+01  2.31593E+01
   2.03882E+01  2.04533E+01  1.97446E+01  2.05918E+01  1.99557E+01  2.02934E+01  2.07394E+01  1.89499E+01  1.98005E+01  1.70107E+01
   1.85481E+01  1.78938E+01  2.04611E+01  1.80325E+01  1.88359E+01  1.86292E+01  1.78955E+01  1.86282E+01  1.92780E+01  1.72955E+01
   1.75476E+01  1.60439E+01  1.75951E+01  1.79839E+01  1.87648E+01  1.73493E+01  1.46567E+01  1.58845E+01  1.69153E+01  1.47315E+01
   1.29123E+01  1.58807E+01  1.66554E+01  1.64786E+01  1.67747E+01  1.59598E+01  1.47278E+01  1.42415E+01  1.42595E+01  1.68716E+01
   1.38580E+01  1.60889E+01  1.40871E+01  1.39872E+01  1.35988E+01  1.51029E+01  1.52759E+01  1.30678E+01  1.30906E+01  1.39006E+01
   1.23194E+01  1.32998E+01  1.39513E+01  1.34983E+01  1.39119E+01  1.31936E+01  1.30648E+01  1.34902E+01
 NY points of the fit to the data follow
   9.09400E+00  9.16669E+00  9.28439E+00  9.46191E+00  9.71303E+00  1.00211E+01  1.03334E+01  1.05814E+01  1.07081E+01  1.06937E+01
   1.05652E+01  1.03748E+01  1.01746E+01  1.00045E+01  9.88391E+00  9.79894E+00  9.72885E+00  9.68633E+00  9.70833E+00  9.79274E+00
   9.88687E+00  9.97975E+00  1.00447E+01  1.00405E+01  9.94818E+00  9.78437E+00  9.61628E+00  9.55134E+00  9.67872E+00  1.00243E+01
   1.05237E+01  1.10397E+01  1.14040E+01  1.14958E+01  1.12984E+01  1.09003E+01  1.04414E+01  1.00724E+01  9.86939E+00  9.83727E+00
   9.93223E+00  1.01000E+01  1.03072E+01  1.05127E+01  1.07018E+01  1.08705E+01  1.09909E+01  1.10374E+01  1.10028E+01  1.09039E+01
   1.07689E+01  1.06268E+01  1.05022E+01  1.04105E+01  1.03513E+01  1.03203E+01  1.03175E+01  1.03437E+01  1.03930E+01  1.04504E+01
   1.04990E+01  1.05301E+01  1.05436E+01  1.05450E+01  1.05447E+01  1.05515E+01  1.05666E+01  1.05900E+01  1.06225E+01  1.06650E+01
   1.07202E+01  1.07916E+01  1.08757E+01  1.09596E+01  1.10270E+01  1.10617E+01  1.10556E+01  1.10188E+01  1.09834E+01  1.09833E+01
   1.10288E+01  1.11331E+01  1.13076E+01  1.15357E+01  1.17767E+01  1.19821E+01  1.21009E+01  1.21027E+01  1.20002E+01  1.18309E+01
   1.16363E+01  1.14563E+01  1.13168E+01  1.12266E+01  1.12065E+01  1.13185E+01  1.15918E+01  1.20195E+01  1.26109E+01  1.33875E+01
   1.43000E+01  1.52059E+01  1.59064E+01  1.62236E+01  1.60949E+01  1.55930E+01  1.48673E+01  1.40834E+01  1.33793E+01  1.28162E+01
   1.23618E+01  1.19831E+01  1.17188E+01  1.16208E+01  1.16151E+01  1.16387E+01  1.16794E+01  1.17460E+01  1.18908E+01  1.21746E+01
   1.25941E+01  1.31815E+01  1.40160E+01  1.51176E+01  1.63660E+01  1.75224E+01  1.83094E+01  1.85344E+01  1.81887E+01  1.74235E+01
   1.64560E+01  1.54939E+01  1.46791E+01  1.40394E+01  1.35157E+01  1.30932E+01  1.28566E+01  1.28257E+01  1.28686E+01  1.29334E+01
   1.30075E+01  1.30887E+01  1.31797E+01  1.32822E+01  1.33918E+01  1.34987E+01  1.35952E+01  1.36783E+01  1.37506E+01  1.38198E+01
   1.38942E+01  1.39774E+01  1.40650E+01  1.41458E+01  1.42134E+01  1.42682E+01  1.43049E+01  1.43149E+01  1.42941E+01  1.42578E+01
   1.42450E+01  1.42974E+01  1.44295E+01  1.46183E+01  1.48169E+01  1.49779E+01  1.50737E+01  1.51056E+01  1.50938E+01  1.50634E+01
   1.50362E+01  1.50062E+01  1.49637E+01  1.49160E+01  1.48921E+01  1.49366E+01  1.50572E+01  1.52313E+01  1.54285E+01  1.56192E+01
   1.57997E+01  1.59903E+01  1.62008E+01  1.64311E+01  1.66868E+01  1.69706E+01  1.72778E+01  1.76158E+01  1.79958E+01  1.83895E+01
   1.87435E+01  1.90089E+01  1.91862E+01  1.93274E+01  1.94843E+01  1.96913E+01  1.99663E+01  2.03190E+01  2.07658E+01  2.13161E+01
   2.19326E+01  2.25385E+01  2.30162E+01  2.32735E+01  2.32377E+01  2.28621E+01  2.21964E+01  2.14253E+01  2.07737E+01  2.04360E+01
   2.05394E+01  2.11212E+01  2.21018E+01  2.33113E+01  2.45316E+01  2.55280E+01  2.61323E+01  2.62990E+01  2.60592E+01  2.55078E+01
   2.48321E+01  2.43241E+01  2.41723E+01  2.44041E+01  2.49593E+01  2.57377E+01  2.66158E+01  2.74280E+01  2.80368E+01  2.84343E+01
   2.86678E+01  2.87771E+01  2.87865E+01  2.87599E+01  2.88028E+01  2.89932E+01  2.93451E+01  2.98099E+01  3.02785E+01  3.06315E+01
   3.07946E+01  3.07579E+01  3.05941E+01  3.04325E+01  3.03685E+01  3.04303E+01  3.06180E+01  3.09359E+01  3.13499E+01  3.18330E+01
   3.23819E+01  3.30090E+01  3.38491E+01  3.51217E+01  3.67994E+01  3.89917E+01  4.20458E+01  4.61161E+01  5.07966E+01  5.51786E+01
   5.81529E+01  5.89036E+01  5.73454E+01  5.40641E+01  4.99301E+01  4.57923E+01  4.22569E+01  3.94685E+01  3.71753E+01  3.52796E+01
   3.41142E+01  3.38024E+01  3.37818E+01  3.38365E+01  3.39267E+01  3.40267E+01  3.41153E+01  3.41911E+01  3.42548E+01  3.43116E+01
   3.43687E+01  3.44310E+01  3.44993E+01  3.45765E+01  3.46655E+01  3.47651E+01  3.48722E+01  3.49851E+01  3.51040E+01  3.52297E+01
   3.53622E+01  3.55016E+01  3.56499E+01  3.58090E+01  3.59804E+01  3.61654E+01  3.63658E+01  3.65830E+01  3.68182E+01  3.70726E+01
   3.73472E+01  3.76427E+01  3.79589E+01  3.82954E+01  3.86508E+01  3.90231E+01  3.94099E+01  3.98084E+01  4.02152E+01  4.06271E+01
   4.10405E+01  4.14524E+01  4.18600E+01  4.22613E+01  4.26551E+01  4.30411E+01  4.34198E+01  4.37931E+01  4.41643E+01  4.45377E+01
   4.49138E+01  4.52922E+01  4.56751E+01  4.60606E+01  4.64387E+01  4.67952E+01  4.71184E+01  4.74096E+01  4.76823E+01  4.79540E+01
   4.82436E+01  4.85691E+01  4.89408E+01  4.93554E+01  4.97953E+01  5.02374E+01  5.06629E+01  5.10595E+01  5.14148E+01  5.17290E+01
   5.20138E+01  5.22811E+01  5.25362E+01  5.27774E+01  5.30033E+01  5.32199E+01  5.34280E+01  5.36196E+01  5.37885E+01  5.39294E+01
   5.40372E+01  5.41075E+01  5.41356E+01  5.41179E+01  5.40506E+01  5.39312E+01  5.37575E+01  5.35283E+01  5.32431E+01  5.29024E+01
   5.25075E+01  5.20603E+01  5.15637E+01  5.10210E+01  5.04362E+01  4.98138E+01  4.91585E+01  4.84752E+01  4.77691E+01  4.70452E+01
   4.63086E+01  4.55641E+01  4.48164E+01  4.40698E+01  4.33282E+01  4.25953E+01  4.18742E+01  4.11677E+01  4.04782E+01  3.98078E+01
   3.91581E+01  3.85303E+01  3.79256E+01  3.73447E+01  3.67879E+01  3.62558E+01  3.57482E+01  3.52653E+01  3.48068E+01  3.43723E+01
   3.39613E+01  3.35731E+01  3.32069E+01  3.28617E+01  3.25362E+01  3.22290E+01  3.19383E+01  3.16623E+01  3.13990E+01  3.11459E+01
   3.09007E+01  3.06608E+01  3.04237E+01  3.01870E+01  2.99482E+01  2.97055E+01  2.94570E+01  2.92013E+01  2.89375E+01  2.86653E+01
   2.83845E+01  2.80956E+01  2.77996E+01  2.74977E+01  2.71913E+01  2.68821E+01  2.65720E+01  2.62626E+01  2.59557E+01  2.56528E+01
   2.53553E+01  2.50642E+01  2.47804E+01  2.45045E+01  2.42369E+01  2.39777E+01  2.37269E+01  2.34841E+01  2.32492E+01  2.30217E+01
   2.28010E+01  2.25868E+01  2.23784E+01  2.21754E+01  2.19772E+01  2.17834E+01  2.15937E+01  2.14076E+01  2.12247E+01  2.10449E+01
   2.08677E+01  2.06930E+01  2.05205E+01  2.03502E+01  2.01818E+01  2.00152E+01  1.98503E+01  1.96870E+01  1.95251E+01  1.93647E+01
   1.92056E+01  1.90478E+01  1.88911E+01  1.87357E+01  1.85814E+01  1.84282E+01  1.82759E+01  1.81247E+01  1.79743E+01  1.78249E+01
   1.76763E+01  1.75286E+01  1.73816E+01  1.72354E+01  1.70900E+01  1.69452E+01  1.68012E+01  1.66578E+01  1.65150E+01  1.63729E+01
   1.62314E+01  1.60905E+01  1.59501E+01  1.58103E+01  1.56710E+01  1.55323E+01  1.53940E+01  1.52563E+01  1.51190E+01  1.49822E+01
   1.48458E+01  1.47099E+01  1.45745E+01  1.44394E+01  1.43047E+01  1.41705E+01  1.40366E+01  1.39032E+01  1.37701E+01  1.36374E+01
   1.35050E+01  1.33730E+01  1.32414E+01  1.31101E+01  1.29791E+01  1.28485E+01  1.27183E+01  1.25883E+01
 NY background values follow
     8.507E+00    8.523E+00    8.539E+00    8.556E+00    8.572E+00    8.589E+00    8.606E+00    8.623E+00    8.641E+00    8.658E+00
     8.676E+00    8.694E+00    8.712E+00    8.730E+00    8.748E+00    8.767E+00    8.786E+00    8.805E+00    8.824E+00    8.843E+00
     8.862E+00    8.882E+00    8.901E+00    8.921E+00    8.941E+00    8.961E+00    8.981E+00    9.002E+00    9.022E+00    9.043E+00
     9.064E+00    9.085E+00    9.106E+00    9.127E+00    9.148E+00    9.170E+00    9.191E+00    9.213E+00    9.235E+00    9.257E+00
     9.279E+00    9.301E+00    9.323E+00    9.346E+00    9.368E+00    9.391E+00    9.413E+00    9.436E+00    9.459E+00    9.482E+00
     9.505E+00    9.528E+00    9.551E+00    9.574E+00    9.598E+00    9.621E+00    9.644E+00    9.668E+00    9.691E+00    9.714E+00
     9.738E+00    9.761E+00    9.784E+00    9.808E+00    9.831E+00    9.854E+00    9.877E+00    9.900E+00    9.923E+00    9.946E+00
     9.969E+00    9.992E+00    1.001E+01    1.004E+01    1.006E+01    1.008E+01    1.010E+01    1.013E+01    1.015E+01    1.017E+01
     1.019E+01    1.021E+01    1.023E+01    1.026E+01    1.028E+01    1.030E+01    1.032E+01    1.034E+01    1.036E+01    1.038E+01
     1.040E+01    1.042E+01    1.044E+01    1.045E+01    1.047E+01    1.049E+01    1.051E+01    1.053E+01    1.055E+01    1.057E+01
     1.059E+01    1.061E+01    1.062E+01    1.064E+01    1.066E+01    1.068E+01    1.071E+01    1.073E+01    1.075E+01    1.077E+01
     1.079E+01    1.082E+01    1.084E+01    1.087E+01    1.089E+01    1.092E+01    1.095E+01    1.097E+01    1.100E+01    1.103E+01
     1.107E+01    1.110E+01    1.113E+01    1.117E+01    1.120E+01    1.124E+01    1.128E+01    1.132E+01    1.136E+01    1.140E+01
     1.145E+01    1.149E+01    1.154E+01    1.159E+01    1.164E+01    1.169E+01    1.175E+01    1.180E+01    1.186E+01    1.192E+01
     1.198E+01    1.205E+01    1.211E+01    1.218E+01    1.225E+01    1.232E+01    1.239E+01    1.247E+01    1.254E+01    1.262E+01
     1.270E+01    1.278E+01    1.287E+01    1.296E+01    1.304E+01    1.314E+01    1.323E+01    1.332E+01    1.342E+01    1.352E+01
     1.362E+01    1.372E+01    1.383E+01    1.394E+01    1.405E+01    1.416E+01    1.427E+01    1.439E+01    1.451E+01    1.463E+01
     1.475E+01    1.488E+01    1.501E+01    1.514E+01    1.527E+01    1.540E+01    1.554E+01    1.568E+01    1.582E+01    1.597E+01
     1.611E+01    1.626E+01    1.641E+01    1.657E+01    1.672E+01    1.688E+01    1.704E+01    1.720E+01    1.736E+01    1.753E+01
     1.770E+01    1.787E+01    1.804E+01    1.821E+01    1.838E+01    1.856E+01    1.873E+01    1.891E+01    1.909E+01    1.927E+01
     1.945E+01    1.963E+01    1.981E+01    1.999E+01    2.017E+01    2.035E+01    2.054E+01    2.072E+01    2.090E+01    2.109E+01
     2.127E+01    2.145E+01    2.164E+01    2.182E+01    2.200E+01    2.218E+01    2.237E+01    2.255E+01    2.273E+01    2.291E+01
     2.309E+01    2.326E+01    2.344E+01    2.362E+01    2.379E+01    2.396E+01    2.414E+01    2.431E+01    2.447E+01    2.464E+01
     2.481E+01    2.497E+01    2.513E+01    2.530E+01    2.546E+01    2.561E+01    2.577E+01    2.592E+01    2.608E+01    2.623E+01
     2.638E+01    2.653E+01    2.668E+01    2.682E+01    2.696E+01    2.711E+01    2.725E+01    2.738E+01    2.752E+01    2.765E+01
     2.779E+01    2.792E+01    2.805E+01    2.818E+01    2.830E+01    2.843E+01    2.855E+01    2.867E+01    2.879E+01    2.890E+01
     2.902E+01    2.913E+01    2.924E+01    2.935E+01    2.946E+01    2.956E+01    2.966E+01    2.977E+01    2.986E+01    2.996E+01
     3.006E+01    3.015E+01    3.024E+01    3.033E+01    3.042E+01    3.050E+01    3.058E+01    3.066E+01    3.074E+01    3.082E+01
     3.089E+01    3.096E+01    3.103E+01    3.110E+01    3.117E+01    3.123E+01    3.129E+01    3.135E+01    3.141E+01    3.146E+01
     3.151E+01    3.156E+01    3.161E+01    3.166E+01    3.170E+01    3.174E+01    3.178E+01    3.182E+01    3.185E+01    3.189E+01
     3.192E+01    3.194E+01    3.197E+01    3.199E+01    3.201E+01    3.203E+01    3.205E+01    3.206E+01    3.208E+01    3.209E+01
     3.209E+01    3.210E+01    3.210E+01    3.210E+01    3.210E+01    3.210E+01    3.209E+01    3.208E+01    3.207E+01    3.206E+01
     3.204E+01    3.202E+01    3.200E+01    3.198E+01    3.195E+01    3.193E+01    3.190E+01    3.187E+01    3.183E+01    3.180E+01
     3.176E+01    3.172E+01    3.168E+01    3.163E+01    3.159E+01    3.154E+01    3.149E+01    3.144E+01    3.139E+01    3.133E+01
     3.127E+01    3.121E+01    3.115E+01    3.109E+01    3.102E+01    3.096E+01    3.089E+01    3.082E+01    3.075E+01    3.067E+01
     3.060E+01    3.052E+01    3.044E+01    3.036E+01    3.028E+01    3.020E+01    3.011E+01    3.003E+01    2.994E+01    2.985E+01
     2.976E+01    2.966E+01    2.957E+01    2.948E+01    2.938E+01    2.928E+01    2.918E+01    2.908E+01    2.898E+01    2.887E+01
     2.877E+01    2.866E+01    2.856E+01    2.845E+01    2.834E+01    2.823E+01    2.812E+01    2.801E+01    2.789E+01    2.778E+01
     2.766E+01    2.755E+01    2.743E+01    2.731E+01    2.719E+01    2.707E+01    2.695E+01    2.683E+01    2.671E+01    2.658E+01
     2.646E+01    2.634E+01    2.621E+01    2.609E+01    2.596E+01    2.583E+01    2.570E+01    2.558E+01    2.545E+01    2.532E+01
     2.519E+01    2.506E+01    2.493E+01    2.480E+01    2.467E+01    2.453E+01    2.440E+01    2.427E+01    2.414E+01    2.401E+01
     2.387E+01    2.374E+01    2.361E+01    2.347E+01    2.334E+01    2.321E+01    2.307E+01    2.294E+01    2.280E+01    2.267E+01
     2.253E+01    2.240E+01    2.226E+01    2.213E+01    2.199E+01    2.186E+01    2.172E+01    2.159E+01    2.145E+01    2.132E+01
     2.118E+01    2.105E+01    2.091E+01    2.078E+01    2.064E+01    2.051E+01    2.037E+01    2.024E+01    2.010E+01    1.997E+01
     1.983E+01    1.970E+01    1.956E+01    1.943E+01    1.929E+01    1.916E+01    1.903E+01    1.889E+01    1.876E+01    1.863E+01
     1.849E+01    1.836E+01    1.823E+01    1.809E+01    1.796E+01    1.783E+01    1.770E+01    1.757E+01    1.743E+01    1.730E+01
     1.717E+01    1.704E+01    1.691E+01    1.678E+01    1.665E+01    1.652E+01    1.639E+01    1.626E+01    1.613E+01    1.600E+01
     1.587E+01    1.574E+01    1.561E+01    1.549E+01    1.536E+01    1.523E+01    1.510E+01    1.497E+01    1.485E+01    1.472E+01
     1.459E+01    1.446E+01    1.434E+01    1.421E+01    1.408E+01    1.396E+01    1.383E+01    1.371E+01    1.358E+01    1.345E+01
     1.333E+01    1.320E+01    1.308E+01    1.295E+01    1.283E+01    1.270E+01    1.258E+01    1.245E+01
 Ala      Conc. = 2.76E+01
