 LCModel (Version 6.3-1L) Copyright: S.W. Provencher.          Ref.: Magn. Reson. Med. 30:672-679 (1993).                
 Slice#1 Row#10 Col#10  PD_05_press_1_raw_act
 36 lines in following concentration table = NCONC+1
    Conc.  %SD /Cr+PCr  Metabolite                                         
    3.868 999% 5.2E-03 Ala                                                 
    0.000 999%   0.000 Asp                                                 
  213.839  62%   0.288 Cr                                                  
  529.668  26%   0.712 PCr                                                 
    0.000 999%   0.000 GABA                                                
    7.235 999% 9.7E-03 Glc                                                 
  590.559  22%   0.794 Gln                                                 
  905.914  16%   1.218 Glu                                                 
  298.353   5%   0.401 GPC                                                 
    0.000 999%   0.000 PCh                                                 
  165.938  27%   0.223 GSH                                                 
  800.003  19%   1.076 Ins                                                 
    0.000 999%   0.000 Lac                                                 
 1.46E+03   5%   1.959 NAA                                                 
  516.711  13%   0.695 NAAG                                                
   62.657  27% 8.4E-02 Scyllo                                              
  156.050  81%   0.210 Tau                                                 
  323.879  21%   0.436 -CrCH2                                              
  298.353   5%   0.401 GPC+PCh                                             
 1.97E+03   3%   2.654 NAA+NAAG                                            
  743.507   5%   1.000 Cr+PCr                                              
 1.50E+03  13%   2.013 Glu+Gln                                             
 1.31E+03  29%   1.759 Lip13a                                              
    0.000 999%   0.000 Lip13b                                              
  249.031  83%   0.335 Lip09                                               
  921.777  23%   1.240 MM09                                                
  212.089  69%   0.285 Lip20                                               
 1.76E+03  16%   2.368 MM20                                                
  264.422  54%   0.356 MM12                                                
  714.145  36%   0.961 MM14                                                
  468.190  32%   0.630 MM17                                                
 1.31E+03  29%   1.759 Lip13a+Lip13b                                       
 2.29E+03  11%   3.076 MM14+Lip13a+Lip13b+MM12                             
 1.17E+03  11%   1.575 MM09+Lip09                                          
 1.97E+03  14%   2.653 MM20+Lip20                                          
   6 lines in following misc. output table
  FWHM = 0.046 ppm    S/N =  14                                            
  Data shift = 0.015 ppm                                                   
  Ph: -20 deg      -4.9 deg/ppm                                            
  alphaB,S = 1.2E+00,   9.9E+01                                            
   14 spline knots.   Ns = 6(1)                                            
  ( 9) 2 infls.   ( 3) 1 extrs.                                            
  498 points on ppm-axis = NY
      4.000000     3.992357     3.984714     3.977070     3.969427     3.961784     3.954141     3.946497     3.938854     3.931211
      3.923568     3.915925     3.908281     3.900638     3.892995     3.885352     3.877708     3.870065     3.862422     3.854779
      3.847136     3.839492     3.831849     3.824206     3.816563     3.808919     3.801276     3.793633     3.785990     3.778347
      3.770703     3.763060     3.755417     3.747774     3.740130     3.732487     3.724844     3.717201     3.709558     3.701914
      3.694271     3.686628     3.678985     3.671341     3.663698     3.656055     3.648412     3.640769     3.633125     3.625482
      3.617839     3.610196     3.602552     3.594909     3.587266     3.579623     3.571980     3.564336     3.556693     3.549050
      3.541407     3.533763     3.526120     3.518477     3.510834     3.503191     3.495547     3.487904     3.480261     3.472618
      3.464974     3.457331     3.449688     3.442045     3.434402     3.426758     3.419115     3.411472     3.403829     3.396185
      3.388542     3.380899     3.373256     3.365613     3.357969     3.350326     3.342683     3.335040     3.327396     3.319753
      3.312110     3.304467     3.296824     3.289180     3.281537     3.273894     3.266251     3.258607     3.250964     3.243321
      3.235678     3.228034     3.220391     3.212748     3.205105     3.197462     3.189818     3.182175     3.174532     3.166889
      3.159245     3.151602     3.143959     3.136316     3.128673     3.121029     3.113386     3.105743     3.098100     3.090456
      3.082813     3.075170     3.067527     3.059884     3.052240     3.044597     3.036954     3.029311     3.021667     3.014024
      3.006381     2.998738     2.991095     2.983451     2.975808     2.968165     2.960522     2.952878     2.945235     2.937592
      2.929949     2.922306     2.914662     2.907019     2.899376     2.891733     2.884089     2.876446     2.868803     2.861160
      2.853517     2.845873     2.838230     2.830587     2.822944     2.815300     2.807657     2.800014     2.792371     2.784728
      2.777084     2.769441     2.761798     2.754155     2.746511     2.738868     2.731225     2.723582     2.715939     2.708295
      2.700652     2.693009     2.685366     2.677722     2.670079     2.662436     2.654793     2.647150     2.639506     2.631863
      2.624220     2.616577     2.608933     2.601290     2.593647     2.586004     2.578361     2.570717     2.563074     2.555431
      2.547788     2.540144     2.532501     2.524858     2.517215     2.509572     2.501928     2.494285     2.486642     2.478999
      2.471355     2.463712     2.456069     2.448426     2.440783     2.433139     2.425496     2.417853     2.410210     2.402566
      2.394923     2.387280     2.379637     2.371994     2.364350     2.356707     2.349064     2.341421     2.333777     2.326134
      2.318491     2.310848     2.303205     2.295561     2.287918     2.280275     2.272632     2.264988     2.257345     2.249702
      2.242059     2.234416     2.226772     2.219129     2.211486     2.203843     2.196199     2.188556     2.180913     2.173270
      2.165627     2.157983     2.150340     2.142697     2.135054     2.127410     2.119767     2.112124     2.104481     2.096838
      2.089194     2.081551     2.073908     2.066265     2.058621     2.050978     2.043335     2.035692     2.028049     2.020405
      2.012762     2.005119     1.997476     1.989833     1.982190     1.974546     1.966903     1.959260     1.951617     1.943974
      1.936331     1.928688     1.921045     1.913402     1.905759     1.898115     1.890472     1.882829     1.875186     1.867543
      1.859900     1.852257     1.844614     1.836971     1.829327     1.821684     1.814041     1.806398     1.798755     1.791112
      1.783469     1.775826     1.768183     1.760540     1.752896     1.745253     1.737610     1.729967     1.722324     1.714681
      1.707038     1.699395     1.691752     1.684108     1.676465     1.668822     1.661179     1.653536     1.645893     1.638250
      1.630607     1.622964     1.615321     1.607677     1.600034     1.592391     1.584748     1.577105     1.569462     1.561819
      1.554176     1.546533     1.538890     1.531246     1.523603     1.515960     1.508317     1.500674     1.493031     1.485388
      1.477745     1.470102     1.462458     1.454815     1.447172     1.439529     1.431886     1.424243     1.416600     1.408957
      1.401314     1.393671     1.386027     1.378384     1.370741     1.363098     1.355455     1.347812     1.340169     1.332526
      1.324883     1.317240     1.309596     1.301953     1.294310     1.286667     1.279024     1.271381     1.263738     1.256095
      1.248452     1.240808     1.233165     1.225522     1.217879     1.210236     1.202593     1.194950     1.187307     1.179664
      1.172021     1.164377     1.156734     1.149091     1.141448     1.133805     1.126162     1.118519     1.110876     1.103233
      1.095590     1.087946     1.080303     1.072660     1.065017     1.057374     1.049731     1.042088     1.034445     1.026802
      1.019158     1.011515     1.003872     0.996229     0.988586     0.980943     0.973300     0.965657     0.958014     0.950371
      0.942727     0.935084     0.927441     0.919798     0.912155     0.904512     0.896869     0.889226     0.881583     0.873940
      0.866296     0.858653     0.851010     0.843367     0.835724     0.828081     0.820438     0.812795     0.805152     0.797508
      0.789865     0.782222     0.774579     0.766936     0.759293     0.751650     0.744007     0.736364     0.728721     0.721077
      0.713434     0.705791     0.698148     0.690505     0.682862     0.675219     0.667576     0.659933     0.652290     0.644646
      0.637003     0.629360     0.621717     0.614074     0.606431     0.598788     0.591145     0.583502     0.575858     0.568215
      0.560572     0.552929     0.545286     0.537643     0.530000     0.522357     0.514714     0.507071     0.499427     0.491784
      0.484141     0.476498     0.468855     0.461212     0.453569     0.445925     0.438282     0.430639     0.422996     0.415353
      0.407710     0.400067     0.392424     0.384780     0.377137     0.369494     0.361851     0.354208     0.346565     0.338922
      0.331278     0.323635     0.315992     0.308349     0.300706     0.293063     0.285420     0.277777     0.270133     0.262490
      0.254847     0.247204     0.239561     0.231918     0.224275     0.216631     0.208988     0.201345
 NY phased data points follow
   2.88960E+00  2.39487E+00 -2.30306E-01  2.89649E+00  1.40638E+00  4.03001E+00  4.86107E+00  7.03458E+00  1.08455E+01  9.43569E+00
   1.02482E+01  1.11309E+01  1.13340E+01  8.35245E+00  9.76940E+00  8.43879E+00  1.07594E+00  3.25197E+00  3.74266E+00  1.95754E+00
   5.55330E-01  1.30328E+00  1.34446E+00  8.88570E-01  2.05116E+00  2.54377E-01  2.36409E+00  3.24631E+00  3.86796E+00 -3.47313E-01
   5.03354E+00  6.58899E+00  4.01405E+00  6.34710E+00  6.13227E+00  3.94861E+00  1.09076E+00  2.90696E+00  2.53305E+00  5.10078E+00
   5.23194E+00  3.08427E+00  5.95122E+00  4.48667E+00  6.63092E+00  5.12800E+00  1.00151E+01  9.70052E+00  1.13895E+01  2.87957E+00
   5.65684E+00  4.38161E+00  6.38981E+00  2.80293E+00  2.95005E+00  2.65990E+00  3.93460E+00  3.65769E+00  5.59294E+00  3.17560E+00
   6.10444E-01 -9.00651E-01  1.95289E+00  2.55960E-01  3.36539E-01  9.80237E-01  1.23539E-01 -2.20441E-01 -5.37188E-01 -1.43185E-01
  -3.39080E+00 -1.86798E-01  2.87394E+00  2.17362E+00  8.54235E-01 -2.12277E+00  1.28060E+00  2.09202E-01  1.53422E+00  2.64940E-01
   9.27692E-01  6.84929E-01  8.51327E-01  2.99475E+00  2.90797E+00  1.06538E+00  1.68604E-02  3.82197E+00  4.97560E-02  1.06424E+00
   1.48451E+00  2.85719E+00  2.60298E+00  3.54045E+00  6.03572E+00  2.20552E+00  4.02257E+00  1.63534E+00  5.21304E+00  7.90965E+00
   1.48624E+01  2.43685E+01  2.81834E+01  2.91520E+01  2.75273E+01  2.05637E+01  2.00189E+01  1.27862E+01  6.40670E+00  5.40667E+00
   2.59146E+00  2.25805E+00 -2.87341E-01  4.58760E-01 -9.71742E-01  3.53760E+00  1.70767E+00  3.35289E+00  6.66453E+00  1.92686E+00
   1.12141E+00  1.74638E+00  5.38214E+00  6.11424E+00  1.12719E+01  1.71974E+01  2.74306E+01  2.57975E+01  2.57540E+01  2.37610E+01
   1.78277E+01  1.08679E+01  6.10436E+00  5.59307E+00  4.20876E+00  6.62500E-01 -2.91986E-01 -3.40495E+00 -1.31135E+00  2.09256E+00
   1.24854E+00  2.23164E+00 -1.56533E+00  2.50970E+00 -1.44980E+00  7.43025E-01 -3.38059E+00 -3.72690E-01  2.79587E+00 -1.50398E-01
  -1.18413E+00 -1.15563E+00  4.30886E+00  9.84645E-01 -1.81809E+00  1.54326E-01  1.84386E+00  6.27180E-01 -1.14578E+00 -3.27583E+00
  -2.51617E+00 -1.33183E+00 -3.58647E+00 -2.87216E+00 -1.54463E+00 -4.45780E+00 -1.08562E+00 -6.76693E+00 -5.56715E+00 -8.79443E+00
  -9.70316E+00 -8.47363E+00 -7.28715E+00 -1.01225E+01 -1.05242E+01 -1.44550E+01 -9.53565E+00 -1.14684E+01 -1.16029E+01 -9.32211E+00
  -9.63103E+00 -5.29920E+00 -5.82997E+00 -6.13647E+00 -6.88333E+00 -8.00467E+00 -6.43177E+00 -5.56742E+00 -4.90592E+00 -5.49739E+00
  -6.23875E+00 -7.84101E+00 -1.99368E+00 -5.65315E+00 -7.71792E+00 -5.93604E+00 -1.02494E+01 -8.01541E+00 -8.79175E+00 -8.52235E+00
  -3.04588E+00  2.04409E-01 -3.56676E+00  2.47582E+00  6.24006E-01  2.12323E+00  2.36088E-01 -8.82258E-01 -7.43556E+00 -3.86332E+00
  -4.55433E+00 -3.58050E+00  2.64806E+00  5.59448E-01  6.29549E+00  6.73981E+00  6.71417E+00  5.17700E+00  5.21633E+00  1.02292E+00
  -1.76645E+00 -3.71797E+00 -2.38670E+00 -3.36416E+00 -3.02797E+00  4.00386E-01  2.71450E+00  2.10985E+00  4.90706E+00  3.83340E+00
   1.94492E+00  3.76533E+00  3.43767E+00  4.72318E+00  2.39929E+00  6.97973E+00  1.61459E+00  4.58074E+00  4.08834E+00  3.61733E+00
  -1.09605E+00 -1.67033E+00 -1.34354E+00 -3.94669E+00  1.23569E-02  1.20019E-02  3.69718E+00  5.38723E+00  7.00336E+00  3.44415E+00
   6.02890E+00  9.79015E+00  1.49190E+01  2.06951E+01  2.74727E+01  3.11634E+01  3.79898E+01  4.13325E+01  4.94547E+01  6.29246E+01
   7.03056E+01  6.67691E+01  5.35130E+01  3.29243E+01  2.21332E+01  1.56473E+01  1.38090E+01  7.72323E+00  7.13454E+00  1.43472E+00
   3.25795E+00  2.06257E-01  3.38490E+00  4.90346E-01  1.77851E+00  1.64815E+00  1.10340E+00  1.12834E+00  1.41521E+00  2.47564E+00
  -2.61861E-01  1.53164E+00  2.51273E+00 -3.82522E-02  2.01193E+00  1.16923E+00  3.15117E-01  2.16779E+00  3.16837E+00  1.44873E+00
   2.07531E+00  1.13028E+00  3.63045E+00  1.36417E+00  1.17736E+00  4.17455E-01  2.60699E+00 -2.36463E+00  4.73813E-01  1.64583E+00
   2.87182E+00 -8.87915E-01  8.31625E-01 -4.72632E-01  2.31452E+00 -9.13592E-01  5.60375E-01  3.07820E+00  7.92907E-01  5.79820E-02
   1.53699E+00  3.03787E+00  6.81200E-01  2.69809E+00 -4.98359E-01  7.84596E-02  1.92866E+00  2.44946E+00  1.89494E+00 -3.94973E-01
   2.60211E+00  1.92168E+00  4.98204E-01  1.36230E+00  2.16650E-01  2.75965E+00  6.90367E-01  2.49663E+00  1.56727E+00  1.68691E+00
   1.84188E+00  4.49129E+00  2.53267E+00  3.97955E+00  6.98114E-01  5.04464E+00  1.26616E+00  4.65810E+00  4.64825E+00  3.83062E+00
   4.07417E+00  5.48526E+00  4.15671E+00  4.38114E+00  9.78358E+00  8.35504E+00  7.75042E+00  8.00567E+00  7.16785E+00  8.59291E+00
   7.93628E+00  6.85746E+00  7.53677E+00  9.02911E+00  6.02225E+00  7.80108E+00  6.42096E+00  6.89977E+00  6.09430E+00  4.26470E+00
   3.75747E+00  6.19980E+00  4.61337E+00  4.06696E+00  6.35323E+00  7.74933E+00  5.08017E+00  4.30635E+00  6.08757E+00  4.74901E+00
   4.68495E+00  3.69381E+00  2.24583E+00  6.17117E+00  5.08932E-01  1.14293E+00  4.51309E+00  4.00723E+00  2.58719E+00  1.78050E+00
   2.15410E+00  2.55911E+00  2.14564E+00  5.84112E+00  4.34331E+00  2.22079E-02  2.09167E+00  3.01997E+00  2.35782E+00  2.90504E+00
   2.76687E+00  3.70380E+00  6.19525E+00  4.12172E+00  7.78725E+00  6.61593E+00  7.29634E+00  5.75893E+00  8.09070E+00  8.30040E+00
   6.91929E+00  7.83186E+00  6.57365E+00  7.11160E+00  8.56161E+00  9.58575E+00  8.28888E+00  7.03128E+00  1.05765E+01  1.06609E+01
   8.28252E+00  7.45504E+00  5.03850E+00  8.32002E+00  4.53116E+00  4.34787E+00  5.88453E+00  4.02836E+00  4.10777E+00  1.19532E+00
   3.29810E+00  3.87505E+00  4.49135E+00  5.39775E-01  3.83955E+00  5.17098E-01  1.12034E+00  3.71949E+00  3.19637E+00  2.79048E+00
   2.64768E+00  7.19714E-01  2.68102E+00  2.73822E+00 -3.87338E-01  1.61088E+00  1.16876E+00  1.07182E+00 -1.38684E+00  7.05970E-01
   1.57920E+00  3.48960E-01  2.27236E+00 -9.62950E-02  1.36363E+00 -1.41018E-01  2.18226E+00  1.49138E-01  1.69698E+00  1.47356E+00
   9.20926E-01 -6.51199E-01 -4.34987E-01 -8.23736E-02  3.76210E+00  1.08745E+00  1.73031E+00  2.78565E+00  1.81735E+00  5.72404E+00
   8.73560E-01  3.64354E-01  1.73620E+00  3.52879E+00  9.41969E-01 -8.11530E-01  9.34785E-01  3.15327E+00  1.26098E+00  2.10606E+00
  -5.44631E-01  1.41691E+00  3.28817E+00 -1.36975E+00  1.50112E+00  1.08198E+00  6.60034E-01  1.78127E-01  4.61993E+00  2.07169E+00
   2.04788E+00  2.39632E+00 -5.97554E-01  1.51563E+00 -4.90851E-01  2.30085E+00  1.95835E+00 -1.31713E-01 -5.71600E-01  8.46208E-01
  -3.51629E-01  3.14092E+00  4.92564E-01  2.02542E+00  3.84972E-01  1.81060E+00 -1.78770E-01 -4.63954E-01
 NY points of the fit to the data follow
   1.79485E+00  1.61280E+00  1.61698E+00  1.84288E+00  2.45589E+00  3.44480E+00  4.92193E+00  6.82683E+00  8.90711E+00  1.07587E+01
   1.19001E+01  1.19652E+01  1.09723E+01  9.33552E+00  7.60655E+00  6.16282E+00  5.07975E+00  4.26269E+00  3.65786E+00  3.16685E+00
   2.88856E+00  2.73508E+00  2.51465E+00  2.17414E+00  1.82419E+00  1.56352E+00  1.59903E+00  2.20213E+00  3.47100E+00  5.17066E+00
   6.76317E+00  7.71735E+00  7.76554E+00  6.97505E+00  5.62900E+00  4.12794E+00  2.70240E+00  1.62512E+00  1.14191E+00  1.11797E+00
   1.45081E+00  2.09858E+00  2.99903E+00  4.12894E+00  5.47923E+00  6.95848E+00  8.14605E+00  8.46584E+00  7.67357E+00  6.03704E+00
   4.18284E+00  2.70615E+00  1.76643E+00  1.20000E+00  8.95588E-01  9.33616E-01  1.32070E+00  1.88856E+00  2.45837E+00  2.85489E+00
   2.90222E+00  2.54475E+00  1.89701E+00  1.23223E+00  7.79091E-01  6.07370E-01  6.67266E-01  8.70776E-01  1.11932E+00  1.38841E+00
   1.67603E+00  1.91023E+00  2.04594E+00  2.06408E+00  1.95423E+00  1.72505E+00  1.38387E+00  9.82155E-01  5.80854E-01  3.12303E-01
   3.31498E-01  6.43817E-01  1.08644E+00  1.61660E+00  2.19553E+00  2.59773E+00  2.56234E+00  2.02314E+00  1.17699E+00  3.94786E-01
  -2.90281E-02 -1.28274E-01 -1.33762E-01 -1.91888E-01 -2.28722E-01 -8.42088E-02  3.76677E-01  1.84382E+00  4.69373E+00  9.02538E+00
   1.51716E+01  2.24669E+01  2.86348E+01  3.10726E+01  2.87429E+01  2.28686E+01  1.61624E+01  1.08313E+01  7.25906E+00  4.53860E+00
   2.06892E+00  5.22669E-01 -2.53144E-02 -2.59076E-01 -3.95646E-01 -4.93391E-01 -5.55847E-01 -5.87131E-01 -5.76145E-01 -4.80080E-01
  -1.50802E-01  9.97767E-01  3.44298E+00  7.17413E+00  1.24496E+01  1.89070E+01  2.47592E+01  2.76548E+01  2.63748E+01  2.16734E+01
   1.58285E+01  1.09475E+01  7.57534E+00  4.94560E+00  2.34565E+00  3.40578E-01 -5.46031E-01 -8.26629E-01 -7.52215E-01 -4.96705E-01
  -2.36950E-01 -7.77009E-02 -5.29475E-02 -1.62068E-01 -3.45265E-01 -5.34926E-01 -7.09215E-01 -8.67655E-01 -1.03853E+00 -1.22792E+00
  -1.42565E+00 -1.64055E+00 -1.84067E+00 -1.96233E+00 -1.96641E+00 -1.89510E+00 -1.83356E+00 -1.89973E+00 -2.21118E+00 -2.71228E+00
  -3.20585E+00 -3.45855E+00 -3.35581E+00 -3.03842E+00 -2.85009E+00 -3.03551E+00 -3.56353E+00 -4.17545E+00 -4.60368E+00 -4.80890E+00
  -4.91127E+00 -5.07569E+00 -5.37812E+00 -5.78607E+00 -6.20311E+00 -6.46292E+00 -6.39952E+00 -6.06699E+00 -5.74417E+00 -5.66176E+00
  -5.79172E+00 -5.88894E+00 -5.72598E+00 -5.31724E+00 -4.91912E+00 -4.62853E+00 -4.17316E+00 -3.34725E+00 -2.20174E+00 -1.08529E+00
  -4.23745E-01 -3.53182E-01 -7.84678E-01 -1.44926E+00 -2.06192E+00 -2.48621E+00 -2.63630E+00 -2.42401E+00 -1.82237E+00 -8.79246E-01
   2.67495E-01  1.37169E+00  2.15285E+00  2.35451E+00  1.72487E+00  2.95504E-01 -1.81360E+00 -4.23967E+00 -6.30903E+00 -7.35276E+00
  -7.10820E+00 -5.74673E+00 -3.64121E+00 -1.15177E+00  1.33923E+00  3.29176E+00  4.05366E+00  3.26252E+00  1.14801E+00 -1.42069E+00
  -3.72263E+00 -5.35427E+00 -5.93675E+00 -5.26312E+00 -3.49161E+00 -1.24508E+00  6.35594E-01  1.79372E+00  2.30091E+00  2.36950E+00
   2.13947E+00  1.77086E+00  1.50651E+00  1.52520E+00  1.82760E+00  2.35554E+00  2.98593E+00  3.55040E+00  3.84941E+00  3.65651E+00
   2.95067E+00  2.04884E+00  1.41839E+00  1.32736E+00  1.74314E+00  2.47392E+00  3.22973E+00  3.85050E+00  4.44507E+00  5.46311E+00
   7.35948E+00  1.01062E+01  1.39414E+01  1.88970E+01  2.49398E+01  3.16570E+01  3.77580E+01  4.44452E+01  5.32398E+01  6.23835E+01
   6.70454E+01  6.34676E+01  5.20401E+01  3.77622E+01  2.61571E+01  1.85924E+01  1.33735E+01  8.43965E+00  4.62016E+00  3.29963E+00
   2.77660E+00  2.45436E+00  2.25368E+00  2.11538E+00  1.93783E+00  1.69112E+00  1.39719E+00  1.11340E+00  8.85823E-01  7.35208E-01
   6.44861E-01  5.93433E-01  5.76718E-01  5.83243E-01  5.72694E-01  5.29851E-01  4.77387E-01  4.41840E-01  4.39890E-01  4.79695E-01
   5.68869E-01  7.04916E-01  8.54342E-01  9.82943E-01  1.07824E+00  1.14278E+00  1.18600E+00  1.21817E+00  1.24481E+00  1.27683E+00
   1.32104E+00  1.36810E+00  1.40404E+00  1.42090E+00  1.41805E+00  1.39934E+00  1.36489E+00  1.31491E+00  1.25619E+00  1.19338E+00
   1.12933E+00  1.06724E+00  1.01018E+00  9.61741E-01  9.24934E-01  9.02546E-01  8.96249E-01  9.07806E-01  9.38466E-01  9.89794E-01
   1.06267E+00  1.15796E+00  1.27383E+00  1.40851E+00  1.56005E+00  1.72425E+00  1.89464E+00  2.06783E+00  2.24522E+00  2.43361E+00
   2.63903E+00  2.86204E+00  3.09989E+00  3.34996E+00  3.60870E+00  3.87121E+00  4.12847E+00  4.37423E+00  4.60920E+00  4.83806E+00
   5.06421E+00  5.28798E+00  5.50692E+00  5.72108E+00  5.93055E+00  6.13309E+00  6.32620E+00  6.50775E+00  6.67472E+00  6.82403E+00
   6.95213E+00  7.05615E+00  7.13319E+00  7.18094E+00  7.19690E+00  7.17939E+00  7.12725E+00  7.04074E+00  6.92065E+00  6.76877E+00
   6.58702E+00  6.37840E+00  6.14636E+00  5.89536E+00  5.62976E+00  5.35421E+00  5.07282E+00  4.79013E+00  4.51030E+00  4.23772E+00
   3.97588E+00  3.72804E+00  3.49666E+00  3.28440E+00  3.09344E+00  2.92601E+00  2.78353E+00  2.66742E+00  2.57871E+00  2.51895E+00
   2.48941E+00  2.49159E+00  2.52639E+00  2.59500E+00  2.69830E+00  2.83759E+00  3.01356E+00  3.22669E+00  3.47635E+00  3.76164E+00
   4.08061E+00  4.43077E+00  4.80808E+00  5.20740E+00  5.62191E+00  6.04410E+00  6.46526E+00  6.87624E+00  7.26690E+00  7.62710E+00
   7.94665E+00  8.21659E+00  8.42893E+00  8.57750E+00  8.65750E+00  8.66646E+00  8.60390E+00  8.47206E+00  8.27506E+00  8.01905E+00
   7.71122E+00  7.36021E+00  6.97518E+00  6.56605E+00  6.14222E+00  5.71277E+00  5.28549E+00  4.86753E+00  4.46471E+00  4.08205E+00
   3.72287E+00  3.38954E+00  3.08299E+00  2.80371E+00  2.55127E+00  2.32499E+00  2.12331E+00  1.94454E+00  1.78656E+00  1.64768E+00
   1.52597E+00  1.41985E+00  1.32734E+00  1.24687E+00  1.17679E+00  1.11607E+00  1.06354E+00  1.01837E+00  9.79387E-01  9.45865E-01
   9.17012E-01  8.92551E-01  8.71918E-01  8.54784E-01  8.40473E-01  8.28759E-01  8.19293E-01  8.12121E-01  8.06901E-01  8.03492E-01
   8.01451E-01  8.00799E-01  8.01378E-01  8.03333E-01  8.06370E-01  8.10422E-01  8.15179E-01  8.20791E-01  8.27169E-01  8.34454E-01
   8.42346E-01  8.50831E-01  8.59701E-01  8.69184E-01  8.79196E-01  8.89837E-01  9.00801E-01  9.12124E-01  9.23680E-01  9.35723E-01
   9.48143E-01  9.60994E-01  9.73988E-01  9.87228E-01  1.00065E+00  1.01449E+00  1.02860E+00  1.04299E+00  1.05741E+00  1.07202E+00
   1.08680E+00  1.10195E+00  1.11726E+00  1.13274E+00  1.14819E+00  1.16385E+00  1.17967E+00  1.19580E+00  1.21200E+00  1.22831E+00
   1.24459E+00  1.26109E+00  1.27774E+00  1.29466E+00  1.31157E+00  1.32856E+00  1.34556E+00  1.36282E+00
 NY background values follow
    -9.595E-02   -1.112E-01   -1.265E-01   -1.418E-01   -1.570E-01   -1.723E-01   -1.875E-01   -2.028E-01   -2.180E-01   -2.333E-01
    -2.485E-01   -2.638E-01   -2.790E-01   -2.942E-01   -3.095E-01   -3.247E-01   -3.400E-01   -3.552E-01   -3.705E-01   -3.857E-01
    -4.010E-01   -4.162E-01   -4.315E-01   -4.468E-01   -4.620E-01   -4.773E-01   -4.926E-01   -5.079E-01   -5.233E-01   -5.386E-01
    -5.539E-01   -5.693E-01   -5.846E-01   -6.000E-01   -6.154E-01   -6.308E-01   -6.462E-01   -6.616E-01   -6.770E-01   -6.925E-01
    -7.080E-01   -7.234E-01   -7.390E-01   -7.545E-01   -7.700E-01   -7.856E-01   -8.012E-01   -8.168E-01   -8.324E-01   -8.481E-01
    -8.637E-01   -8.794E-01   -8.951E-01   -9.109E-01   -9.266E-01   -9.424E-01   -9.582E-01   -9.740E-01   -9.898E-01   -1.006E+00
    -1.022E+00   -1.037E+00   -1.053E+00   -1.069E+00   -1.085E+00   -1.101E+00   -1.117E+00   -1.133E+00   -1.149E+00   -1.166E+00
    -1.182E+00   -1.198E+00   -1.214E+00   -1.230E+00   -1.246E+00   -1.263E+00   -1.279E+00   -1.295E+00   -1.312E+00   -1.328E+00
    -1.344E+00   -1.361E+00   -1.377E+00   -1.393E+00   -1.410E+00   -1.426E+00   -1.443E+00   -1.459E+00   -1.476E+00   -1.493E+00
    -1.509E+00   -1.526E+00   -1.543E+00   -1.559E+00   -1.576E+00   -1.593E+00   -1.610E+00   -1.626E+00   -1.643E+00   -1.660E+00
    -1.677E+00   -1.694E+00   -1.710E+00   -1.727E+00   -1.744E+00   -1.761E+00   -1.778E+00   -1.795E+00   -1.812E+00   -1.829E+00
    -1.845E+00   -1.862E+00   -1.879E+00   -1.896E+00   -1.913E+00   -1.930E+00   -1.946E+00   -1.963E+00   -1.980E+00   -1.997E+00
    -2.013E+00   -2.030E+00   -2.047E+00   -2.064E+00   -2.080E+00   -2.097E+00   -2.113E+00   -2.130E+00   -2.146E+00   -2.163E+00
    -2.179E+00   -2.196E+00   -2.212E+00   -2.229E+00   -2.245E+00   -2.261E+00   -2.277E+00   -2.293E+00   -2.309E+00   -2.325E+00
    -2.341E+00   -2.357E+00   -2.373E+00   -2.389E+00   -2.405E+00   -2.420E+00   -2.436E+00   -2.451E+00   -2.466E+00   -2.481E+00
    -2.496E+00   -2.511E+00   -2.526E+00   -2.541E+00   -2.555E+00   -2.570E+00   -2.584E+00   -2.598E+00   -2.612E+00   -2.626E+00
    -2.639E+00   -2.653E+00   -2.666E+00   -2.679E+00   -2.692E+00   -2.705E+00   -2.717E+00   -2.730E+00   -2.742E+00   -2.754E+00
    -2.765E+00   -2.777E+00   -2.788E+00   -2.799E+00   -2.810E+00   -2.820E+00   -2.831E+00   -2.841E+00   -2.850E+00   -2.860E+00
    -2.869E+00   -2.878E+00   -2.887E+00   -2.895E+00   -2.904E+00   -2.911E+00   -2.919E+00   -2.926E+00   -2.934E+00   -2.940E+00
    -2.947E+00   -2.953E+00   -2.959E+00   -2.965E+00   -2.971E+00   -2.976E+00   -2.981E+00   -2.986E+00   -2.991E+00   -2.995E+00
    -2.999E+00   -3.003E+00   -3.007E+00   -3.011E+00   -3.014E+00   -3.017E+00   -3.020E+00   -3.022E+00   -3.025E+00   -3.027E+00
    -3.029E+00   -3.031E+00   -3.032E+00   -3.034E+00   -3.035E+00   -3.036E+00   -3.036E+00   -3.037E+00   -3.037E+00   -3.038E+00
    -3.038E+00   -3.037E+00   -3.037E+00   -3.037E+00   -3.036E+00   -3.035E+00   -3.034E+00   -3.033E+00   -3.031E+00   -3.030E+00
    -3.028E+00   -3.026E+00   -3.024E+00   -3.022E+00   -3.020E+00   -3.017E+00   -3.014E+00   -3.011E+00   -3.008E+00   -3.005E+00
    -3.002E+00   -2.998E+00   -2.995E+00   -2.991E+00   -2.987E+00   -2.983E+00   -2.978E+00   -2.974E+00   -2.969E+00   -2.964E+00
    -2.959E+00   -2.954E+00   -2.949E+00   -2.944E+00   -2.938E+00   -2.932E+00   -2.926E+00   -2.920E+00   -2.914E+00   -2.908E+00
    -2.901E+00   -2.895E+00   -2.888E+00   -2.881E+00   -2.874E+00   -2.867E+00   -2.860E+00   -2.852E+00   -2.844E+00   -2.837E+00
    -2.829E+00   -2.821E+00   -2.812E+00   -2.804E+00   -2.796E+00   -2.787E+00   -2.778E+00   -2.769E+00   -2.760E+00   -2.751E+00
    -2.742E+00   -2.732E+00   -2.723E+00   -2.713E+00   -2.703E+00   -2.693E+00   -2.683E+00   -2.673E+00   -2.663E+00   -2.652E+00
    -2.641E+00   -2.631E+00   -2.620E+00   -2.609E+00   -2.598E+00   -2.587E+00   -2.575E+00   -2.564E+00   -2.552E+00   -2.540E+00
    -2.529E+00   -2.517E+00   -2.505E+00   -2.493E+00   -2.480E+00   -2.468E+00   -2.455E+00   -2.443E+00   -2.430E+00   -2.417E+00
    -2.404E+00   -2.391E+00   -2.378E+00   -2.365E+00   -2.352E+00   -2.338E+00   -2.325E+00   -2.311E+00   -2.297E+00   -2.283E+00
    -2.269E+00   -2.255E+00   -2.241E+00   -2.227E+00   -2.212E+00   -2.198E+00   -2.184E+00   -2.169E+00   -2.154E+00   -2.139E+00
    -2.124E+00   -2.109E+00   -2.094E+00   -2.079E+00   -2.064E+00   -2.048E+00   -2.033E+00   -2.017E+00   -2.002E+00   -1.986E+00
    -1.970E+00   -1.954E+00   -1.938E+00   -1.922E+00   -1.906E+00   -1.890E+00   -1.874E+00   -1.857E+00   -1.841E+00   -1.824E+00
    -1.808E+00   -1.791E+00   -1.774E+00   -1.757E+00   -1.740E+00   -1.723E+00   -1.706E+00   -1.689E+00   -1.672E+00   -1.654E+00
    -1.637E+00   -1.619E+00   -1.602E+00   -1.584E+00   -1.567E+00   -1.549E+00   -1.531E+00   -1.513E+00   -1.495E+00   -1.477E+00
    -1.459E+00   -1.441E+00   -1.422E+00   -1.404E+00   -1.386E+00   -1.367E+00   -1.349E+00   -1.330E+00   -1.312E+00   -1.293E+00
    -1.274E+00   -1.255E+00   -1.236E+00   -1.218E+00   -1.199E+00   -1.179E+00   -1.160E+00   -1.141E+00   -1.122E+00   -1.103E+00
    -1.083E+00   -1.064E+00   -1.045E+00   -1.025E+00   -1.006E+00   -9.861E-01   -9.664E-01   -9.468E-01   -9.271E-01   -9.073E-01
    -8.875E-01   -8.676E-01   -8.477E-01   -8.277E-01   -8.078E-01   -7.877E-01   -7.676E-01   -7.475E-01   -7.273E-01   -7.071E-01
    -6.869E-01   -6.666E-01   -6.463E-01   -6.259E-01   -6.056E-01   -5.851E-01   -5.647E-01   -5.442E-01   -5.237E-01   -5.031E-01
    -4.826E-01   -4.620E-01   -4.413E-01   -4.207E-01   -4.000E-01   -3.793E-01   -3.586E-01   -3.378E-01   -3.171E-01   -2.963E-01
    -2.755E-01   -2.547E-01   -2.338E-01   -2.130E-01   -1.921E-01   -1.712E-01   -1.503E-01   -1.294E-01   -1.085E-01   -8.762E-02
    -6.669E-02   -4.576E-02   -2.483E-02   -3.884E-03    1.706E-02    3.801E-02    5.895E-02    7.990E-02    1.009E-01    1.218E-01
     1.427E-01    1.637E-01    1.846E-01    2.055E-01    2.265E-01    2.474E-01    2.683E-01    2.892E-01    3.101E-01    3.310E-01
     3.519E-01    3.728E-01    3.936E-01    4.145E-01    4.354E-01    4.562E-01    4.771E-01    4.979E-01    5.188E-01    5.396E-01
     5.605E-01    5.813E-01    6.021E-01    6.230E-01    6.438E-01    6.646E-01    6.854E-01    7.062E-01    7.270E-01    7.478E-01
     7.686E-01    7.894E-01    8.101E-01    8.309E-01    8.517E-01    8.725E-01    8.932E-01    9.140E-01    9.347E-01    9.555E-01
     9.762E-01    9.970E-01    1.018E+00    1.038E+00    1.059E+00    1.080E+00    1.101E+00    1.121E+00
 Ala      Conc. = 3.87E+00
