 LCModel (Version 6.3-1L) Copyright: S.W. Provencher.          Ref.: Magn. Reson. Med. 30:672-679 (1993).                
 Slice#2 Row#4 Col#2  PD_05_press_1_raw_act
 36 lines in following concentration table = NCONC+1
    Conc.  %SD /Cr+PCr  Metabolite                                         
   20.084 213%   0.273 Ala                                                 
   10.804 158%   0.147 Asp                                                 
    0.000 999%   0.000 Cr                                                  
   73.491  25%   1.000 PCr                                                 
   10.290 100%   0.140 GABA                                                
    7.039 146% 9.6E-02 Glc                                                 
   95.631  94%   1.301 Gln                                                 
    0.000 999%   0.000 Glu                                                 
    0.000 999%   0.000 GPC                                                 
   23.841  31%   0.324 PCh                                                 
    0.000 999%   0.000 GSH                                                 
  290.863  32%   3.958 Ins                                                 
    0.000 999%   0.000 Lac                                                 
  152.481  15%   2.075 NAA                                                 
    0.000 999%   0.000 NAAG                                                
    2.991 111% 4.1E-02 Scyllo                                              
   13.627 125%   0.185 Tau                                                 
    0.000 999%   0.000 -CrCH2                                              
   23.841  31%   0.324 GPC+PCh                                             
  152.481  15%   2.075 NAA+NAAG                                            
   73.491  25%   1.000 Cr+PCr                                              
   95.631  94%   1.301 Glu+Gln                                             
  586.405  28%   7.979 Lip13a                                              
   93.394  66%   1.271 Lip13b                                              
    0.000 999%   0.000 Lip09                                               
    0.000 999%   0.000 MM09                                                
  157.111  39%   2.138 Lip20                                               
 1.83E-02 999% 2.5E-04 MM20                                                
 7.77E-04 999% 1.1E-05 MM12                                                
 5.53E-03 999% 7.5E-05 MM14                                                
 3.66E-02 999% 5.0E-04 MM17                                                
  679.799  18%   9.250 Lip13a+Lip13b                                       
  679.805  18%   9.250 MM14+Lip13a+Lip13b+MM12                             
    0.000 999%   0.000 MM09+Lip09                                          
  157.129  39%   2.138 MM20+Lip20                                          
   6 lines in following misc. output table
  FWHM = 0.076 ppm    S/N =   2                                            
  Data shift =-0.023 ppm                                                   
  Ph:  45 deg     -31.4 deg/ppm                                            
  alphaB,S = 8.7E-01,   1.3E+01                                            
   14 spline knots.   Ns = 7(1)                                            
  ( 9) 5 infls.   (10) 6 extrs.                                            
  498 points on ppm-axis = NY
      4.000000     3.992357     3.984714     3.977070     3.969427     3.961784     3.954141     3.946497     3.938854     3.931211
      3.923568     3.915925     3.908281     3.900638     3.892995     3.885352     3.877708     3.870065     3.862422     3.854779
      3.847136     3.839492     3.831849     3.824206     3.816563     3.808919     3.801276     3.793633     3.785990     3.778347
      3.770703     3.763060     3.755417     3.747774     3.740130     3.732487     3.724844     3.717201     3.709558     3.701914
      3.694271     3.686628     3.678985     3.671341     3.663698     3.656055     3.648412     3.640769     3.633125     3.625482
      3.617839     3.610196     3.602552     3.594909     3.587266     3.579623     3.571980     3.564336     3.556693     3.549050
      3.541407     3.533763     3.526120     3.518477     3.510834     3.503191     3.495547     3.487904     3.480261     3.472618
      3.464974     3.457331     3.449688     3.442045     3.434402     3.426758     3.419115     3.411472     3.403829     3.396185
      3.388542     3.380899     3.373256     3.365613     3.357969     3.350326     3.342683     3.335040     3.327396     3.319753
      3.312110     3.304467     3.296824     3.289180     3.281537     3.273894     3.266251     3.258607     3.250964     3.243321
      3.235678     3.228034     3.220391     3.212748     3.205105     3.197462     3.189818     3.182175     3.174532     3.166889
      3.159245     3.151602     3.143959     3.136316     3.128673     3.121029     3.113386     3.105743     3.098100     3.090456
      3.082813     3.075170     3.067527     3.059884     3.052240     3.044597     3.036954     3.029311     3.021667     3.014024
      3.006381     2.998738     2.991095     2.983451     2.975808     2.968165     2.960522     2.952878     2.945235     2.937592
      2.929949     2.922306     2.914662     2.907019     2.899376     2.891733     2.884089     2.876446     2.868803     2.861160
      2.853517     2.845873     2.838230     2.830587     2.822944     2.815300     2.807657     2.800014     2.792371     2.784728
      2.777084     2.769441     2.761798     2.754155     2.746511     2.738868     2.731225     2.723582     2.715939     2.708295
      2.700652     2.693009     2.685366     2.677722     2.670079     2.662436     2.654793     2.647150     2.639506     2.631863
      2.624220     2.616577     2.608933     2.601290     2.593647     2.586004     2.578361     2.570717     2.563074     2.555431
      2.547788     2.540144     2.532501     2.524858     2.517215     2.509572     2.501928     2.494285     2.486642     2.478999
      2.471355     2.463712     2.456069     2.448426     2.440783     2.433139     2.425496     2.417853     2.410210     2.402566
      2.394923     2.387280     2.379637     2.371994     2.364350     2.356707     2.349064     2.341421     2.333777     2.326134
      2.318491     2.310848     2.303205     2.295561     2.287918     2.280275     2.272632     2.264988     2.257345     2.249702
      2.242059     2.234416     2.226772     2.219129     2.211486     2.203843     2.196199     2.188556     2.180913     2.173270
      2.165627     2.157983     2.150340     2.142697     2.135054     2.127410     2.119767     2.112124     2.104481     2.096838
      2.089194     2.081551     2.073908     2.066265     2.058621     2.050978     2.043335     2.035692     2.028049     2.020405
      2.012762     2.005119     1.997476     1.989833     1.982190     1.974546     1.966903     1.959260     1.951617     1.943974
      1.936331     1.928688     1.921045     1.913402     1.905759     1.898115     1.890472     1.882829     1.875186     1.867543
      1.859900     1.852257     1.844614     1.836971     1.829327     1.821684     1.814041     1.806398     1.798755     1.791112
      1.783469     1.775826     1.768183     1.760540     1.752896     1.745253     1.737610     1.729967     1.722324     1.714681
      1.707038     1.699395     1.691752     1.684108     1.676465     1.668822     1.661179     1.653536     1.645893     1.638250
      1.630607     1.622964     1.615321     1.607677     1.600034     1.592391     1.584748     1.577105     1.569462     1.561819
      1.554176     1.546533     1.538890     1.531246     1.523603     1.515960     1.508317     1.500674     1.493031     1.485388
      1.477745     1.470102     1.462458     1.454815     1.447172     1.439529     1.431886     1.424243     1.416600     1.408957
      1.401314     1.393671     1.386027     1.378384     1.370741     1.363098     1.355455     1.347812     1.340169     1.332526
      1.324883     1.317240     1.309596     1.301953     1.294310     1.286667     1.279024     1.271381     1.263738     1.256095
      1.248452     1.240808     1.233165     1.225522     1.217879     1.210236     1.202593     1.194950     1.187307     1.179664
      1.172021     1.164377     1.156734     1.149091     1.141448     1.133805     1.126162     1.118519     1.110876     1.103233
      1.095590     1.087946     1.080303     1.072660     1.065017     1.057374     1.049731     1.042088     1.034445     1.026802
      1.019158     1.011515     1.003872     0.996229     0.988586     0.980943     0.973300     0.965657     0.958014     0.950371
      0.942727     0.935084     0.927441     0.919798     0.912155     0.904512     0.896869     0.889226     0.881583     0.873940
      0.866296     0.858653     0.851010     0.843367     0.835724     0.828081     0.820438     0.812795     0.805152     0.797508
      0.789865     0.782222     0.774579     0.766936     0.759293     0.751650     0.744007     0.736364     0.728721     0.721077
      0.713434     0.705791     0.698148     0.690505     0.682862     0.675219     0.667576     0.659933     0.652290     0.644646
      0.637003     0.629360     0.621717     0.614074     0.606431     0.598788     0.591145     0.583502     0.575858     0.568215
      0.560572     0.552929     0.545286     0.537643     0.530000     0.522357     0.514714     0.507071     0.499427     0.491784
      0.484141     0.476498     0.468855     0.461212     0.453569     0.445925     0.438282     0.430639     0.422996     0.415353
      0.407710     0.400067     0.392424     0.384780     0.377137     0.369494     0.361851     0.354208     0.346565     0.338922
      0.331278     0.323635     0.315992     0.308349     0.300706     0.293063     0.285420     0.277777     0.270133     0.262490
      0.254847     0.247204     0.239561     0.231918     0.224275     0.216631     0.208988     0.201345
 NY phased data points follow
   6.37956E+01  6.28537E+01  5.92321E+01  5.78378E+01  6.05694E+01  5.77211E+01  5.73322E+01  5.89373E+01  5.62872E+01  5.67532E+01
   5.62401E+01  5.59677E+01  5.37316E+01  5.38255E+01  5.30833E+01  5.36440E+01  5.30575E+01  5.28007E+01  5.12769E+01  5.03615E+01
   4.97166E+01  5.11648E+01  4.97598E+01  4.90560E+01  4.78902E+01  4.72132E+01  4.72877E+01  4.67862E+01  4.68320E+01  4.71526E+01
   4.68692E+01  4.69357E+01  4.73868E+01  4.53931E+01  4.76863E+01  4.55996E+01  4.48685E+01  4.57214E+01  4.33222E+01  4.54443E+01
   4.45739E+01  4.62577E+01  4.23639E+01  4.42479E+01  4.35391E+01  4.29114E+01  4.22107E+01  4.15560E+01  4.22259E+01  4.20072E+01
   4.29686E+01  4.28424E+01  4.19596E+01  4.23289E+01  4.33269E+01  4.13708E+01  4.12603E+01  3.97323E+01  4.11381E+01  3.98264E+01
   3.96798E+01  4.03156E+01  4.01732E+01  3.79867E+01  3.80482E+01  3.94298E+01  3.76797E+01  3.98141E+01  3.81705E+01  3.84588E+01
   3.87483E+01  3.73922E+01  3.69195E+01  3.58027E+01  3.70086E+01  3.74464E+01  3.34065E+01  3.62446E+01  3.57966E+01  3.62609E+01
   3.67233E+01  3.46662E+01  3.53627E+01  3.46672E+01  3.42822E+01  3.25299E+01  3.30852E+01  3.29069E+01  3.38329E+01  3.37689E+01
   3.25268E+01  3.37414E+01  3.24047E+01  3.40730E+01  3.33448E+01  3.25785E+01  3.08244E+01  3.09340E+01  3.19666E+01  3.15646E+01
   3.50210E+01  3.24543E+01  3.29251E+01  3.28750E+01  3.15734E+01  3.26538E+01  3.12146E+01  3.25651E+01  3.04589E+01  3.05556E+01
   3.14316E+01  2.96574E+01  3.17172E+01  2.95741E+01  2.98851E+01  2.88911E+01  2.86951E+01  3.01940E+01  2.78977E+01  2.74095E+01
   2.88922E+01  2.61325E+01  2.69812E+01  2.77503E+01  2.66320E+01  3.00138E+01  2.84484E+01  2.75385E+01  2.96721E+01  3.03843E+01
   2.90576E+01  2.95962E+01  2.53859E+01  2.70807E+01  2.94217E+01  2.74847E+01  2.68188E+01  2.67100E+01  2.57703E+01  2.57190E+01
   2.82911E+01  2.57877E+01  2.58613E+01  2.53011E+01  2.59996E+01  2.43091E+01  2.47885E+01  2.57209E+01  2.68653E+01  2.39193E+01
   2.54306E+01  2.53363E+01  2.51882E+01  2.49903E+01  2.77410E+01  2.52140E+01  2.33911E+01  2.61798E+01  2.42538E+01  2.51554E+01
   2.29577E+01  2.43321E+01  2.52418E+01  2.30804E+01  2.51285E+01  2.51393E+01  2.50873E+01  2.42234E+01  2.16619E+01  2.37523E+01
   2.40370E+01  2.43041E+01  2.48503E+01  2.23492E+01  2.23802E+01  2.36002E+01  2.30307E+01  2.28946E+01  2.36994E+01  2.14055E+01
   2.23881E+01  2.16463E+01  2.28770E+01  2.09554E+01  2.09804E+01  2.24007E+01  2.10655E+01  2.10066E+01  1.96988E+01  1.89869E+01
   2.12423E+01  2.08479E+01  2.03625E+01  2.25046E+01  2.14627E+01  2.25864E+01  2.27351E+01  2.26877E+01  2.16091E+01  2.04065E+01
   2.08652E+01  2.06108E+01  2.17878E+01  2.11030E+01  2.31325E+01  2.19670E+01  2.01612E+01  1.99487E+01  2.20867E+01  1.84359E+01
   1.99788E+01  1.90675E+01  2.11426E+01  2.03455E+01  1.92899E+01  2.16592E+01  2.15493E+01  1.99389E+01  2.04871E+01  2.13116E+01
   1.91317E+01  2.25876E+01  2.07185E+01  2.11576E+01  2.13331E+01  2.21766E+01  1.98144E+01  2.17378E+01  2.34163E+01  1.91206E+01
   1.96259E+01  2.05618E+01  2.22168E+01  1.77502E+01  2.03355E+01  2.03261E+01  2.07863E+01  2.12878E+01  2.02251E+01  2.26769E+01
   2.16455E+01  2.10509E+01  2.14363E+01  2.17068E+01  1.85005E+01  2.13209E+01  2.13580E+01  2.00320E+01  2.04789E+01  1.72590E+01
   1.95273E+01  1.98688E+01  1.95224E+01  1.95371E+01  1.96915E+01  1.89766E+01  2.09336E+01  2.09429E+01  2.18389E+01  2.25429E+01
   2.16248E+01  2.34332E+01  2.47253E+01  2.31792E+01  2.52581E+01  2.21515E+01  2.25611E+01  2.21534E+01  1.72591E+01  2.00368E+01
   2.05059E+01  1.92005E+01  1.83817E+01  1.98873E+01  1.86761E+01  1.94238E+01  1.74996E+01  1.97432E+01  1.66034E+01  1.91034E+01
   1.87234E+01  1.87231E+01  1.93583E+01  1.71126E+01  1.71923E+01  1.71767E+01  2.08847E+01  1.77493E+01  1.80246E+01  1.75441E+01
   1.82935E+01  1.73461E+01  1.76954E+01  1.48942E+01  1.79757E+01  1.84804E+01  1.59486E+01  1.68401E+01  1.47228E+01  1.82376E+01
   1.76393E+01  1.62638E+01  1.86182E+01  1.67789E+01  1.62366E+01  1.79301E+01  1.63701E+01  2.02739E+01  1.78034E+01  1.78881E+01
   1.72666E+01  1.62799E+01  1.48821E+01  1.51799E+01  1.69685E+01  1.46001E+01  1.49662E+01  1.48791E+01  1.42114E+01  1.60252E+01
   1.59484E+01  1.35374E+01  1.49722E+01  1.55888E+01  1.39059E+01  1.62006E+01  1.65127E+01  1.36039E+01  1.50115E+01  1.57353E+01
   1.52243E+01  1.30038E+01  1.47529E+01  1.48930E+01  1.44582E+01  1.60973E+01  1.39464E+01  1.51424E+01  1.69044E+01  1.42666E+01
   1.62965E+01  1.75758E+01  1.47600E+01  1.35600E+01  1.53233E+01  1.55094E+01  1.70235E+01  1.52002E+01  1.48518E+01  1.75109E+01
   1.79793E+01  1.77034E+01  1.56953E+01  1.66874E+01  1.56252E+01  1.71935E+01  1.65630E+01  1.41908E+01  1.46238E+01  1.67431E+01
   1.58225E+01  1.27513E+01  1.14701E+01  1.14213E+01  1.19389E+01  1.20956E+01  1.35549E+01  1.52361E+01  1.56595E+01  1.33468E+01
   1.23848E+01  1.45881E+01  1.26171E+01  1.32437E+01  1.35858E+01  1.13447E+01  1.01666E+01  1.08095E+01  1.08924E+01  1.03258E+01
   1.05672E+01  1.03354E+01  1.09163E+01  1.06323E+01  9.32690E+00  8.22406E+00  8.77106E+00  9.59719E+00  8.56191E+00  8.24931E+00
   9.85470E+00  1.04596E+01  9.19690E+00  1.05706E+01  1.01130E+01  6.16593E+00  7.94282E+00  7.80235E+00  7.64491E+00  6.74515E+00
   8.65280E+00  8.85303E+00  5.66051E+00  8.62584E+00  8.76955E+00  8.20210E+00  7.71080E+00  8.48470E+00  9.24729E+00  7.98755E+00
   8.43162E+00  8.22131E+00  7.67430E+00  9.06934E+00  6.23745E+00  7.97995E+00  7.97410E+00  8.00088E+00  9.89659E+00  5.32487E+00
   8.29716E+00  7.85302E+00  7.18667E+00  6.37824E+00  7.61447E+00  6.62800E+00  8.00239E+00  8.03907E+00  8.48072E+00  6.87888E+00
   7.56466E+00  5.35513E+00  9.75372E+00  8.42331E+00  6.58674E+00  8.25813E+00  6.73281E+00  4.87649E+00  7.22507E+00  7.81174E+00
   8.30539E+00  8.14310E+00  8.53263E+00  7.27397E+00  7.07856E+00  7.22051E+00  4.89696E+00  6.04177E+00  7.30819E+00  6.60478E+00
   7.56529E+00  4.19646E+00  5.24401E+00  6.97018E+00  5.08721E+00  8.16311E+00  3.73265E+00  5.29412E+00  5.35424E+00  6.04079E+00
   8.16694E+00  6.01007E+00  4.95102E+00  8.00803E+00  3.47657E+00  6.24913E+00  5.54530E+00  6.06278E+00  5.86214E+00  3.54119E+00
   5.72038E+00  6.24294E+00  5.03736E+00  4.77171E+00  6.01060E+00  4.92175E+00  5.32590E+00  4.57110E+00  3.83126E+00  2.72404E+00
   4.84200E+00  4.57448E+00  5.73908E+00  6.26410E+00  5.75872E+00  4.92161E+00  3.41306E+00  3.39006E+00  5.87648E+00  5.76501E+00
   4.32912E+00  4.32600E+00  5.22023E+00  6.14786E+00  4.34366E+00  4.22997E+00  1.86969E+00  3.73933E+00
 NY points of the fit to the data follow
   5.84409E+01  5.78549E+01  5.71053E+01  5.65632E+01  5.62116E+01  5.59578E+01  5.57930E+01  5.55964E+01  5.53169E+01  5.51006E+01
   5.50462E+01  5.49505E+01  5.46518E+01  5.42163E+01  5.37751E+01  5.34001E+01  5.28329E+01  5.20032E+01  5.13973E+01  5.10311E+01
   5.07324E+01  5.04544E+01  5.01588E+01  4.98382E+01  4.95046E+01  4.91825E+01  4.88794E+01  4.85844E+01  4.83022E+01  4.80307E+01
   4.77597E+01  4.74719E+01  4.71551E+01  4.68870E+01  4.67523E+01  4.66389E+01  4.64264E+01  4.61352E+01  4.58168E+01  4.54790E+01
   4.50949E+01  4.46638E+01  4.42024E+01  4.38602E+01  4.38084E+01  4.39618E+01  4.39823E+01  4.37388E+01  4.35214E+01  4.35201E+01
   4.36234E+01  4.35582E+01  4.31933E+01  4.26894E+01  4.22303E+01  4.17475E+01  4.10335E+01  4.02956E+01  3.99377E+01  3.98820E+01
   3.98350E+01  3.97520E+01  3.96681E+01  3.95624E+01  3.93938E+01  3.91355E+01  3.88551E+01  3.85683E+01  3.82143E+01  3.78696E+01
   3.75935E+01  3.73758E+01  3.72286E+01  3.71178E+01  3.70422E+01  3.69428E+01  3.67649E+01  3.65259E+01  3.62692E+01  3.60292E+01
   3.57517E+01  3.54499E+01  3.52266E+01  3.50104E+01  3.47405E+01  3.44199E+01  3.40953E+01  3.38271E+01  3.35782E+01  3.32784E+01
   3.29388E+01  3.26346E+01  3.24318E+01  3.22895E+01  3.21131E+01  3.19570E+01  3.18425E+01  3.17201E+01  3.17488E+01  3.19760E+01
   3.22073E+01  3.22714E+01  3.21432E+01  3.20066E+01  3.21082E+01  3.22610E+01  3.21727E+01  3.19004E+01  3.16177E+01  3.14362E+01
   3.11298E+01  3.03673E+01  2.96501E+01  2.93868E+01  2.92323E+01  2.90805E+01  2.89357E+01  2.87966E+01  2.86562E+01  2.84844E+01
   2.82418E+01  2.80601E+01  2.81652E+01  2.84867E+01  2.87692E+01  2.88722E+01  2.88411E+01  2.89565E+01  2.92894E+01  2.94659E+01
   2.93113E+01  2.89945E+01  2.87213E+01  2.85111E+01  2.79153E+01  2.70072E+01  2.65399E+01  2.63649E+01  2.62345E+01  2.61152E+01
   2.60104E+01  2.59195E+01  2.58373E+01  2.57509E+01  2.56567E+01  2.55683E+01  2.54837E+01  2.53965E+01  2.53065E+01  2.52157E+01
   2.51288E+01  2.50425E+01  2.49548E+01  2.48673E+01  2.47831E+01  2.46994E+01  2.46001E+01  2.44829E+01  2.43641E+01  2.42651E+01
   2.41919E+01  2.41114E+01  2.40024E+01  2.38875E+01  2.37889E+01  2.37140E+01  2.36420E+01  2.35466E+01  2.34612E+01  2.33993E+01
   2.33151E+01  2.31962E+01  2.30382E+01  2.28925E+01  2.28136E+01  2.27529E+01  2.26652E+01  2.25504E+01  2.24535E+01  2.24019E+01
   2.23739E+01  2.23209E+01  2.22242E+01  2.21497E+01  2.21355E+01  2.21164E+01  2.20682E+01  2.20082E+01  2.19652E+01  2.19620E+01
   2.19537E+01  2.19296E+01  2.18922E+01  2.18447E+01  2.18075E+01  2.17563E+01  2.16604E+01  2.15817E+01  2.15491E+01  2.15385E+01
   2.15376E+01  2.15589E+01  2.16037E+01  2.16560E+01  2.16718E+01  2.15945E+01  2.14677E+01  2.13488E+01  2.12364E+01  2.10977E+01
   2.08990E+01  2.06647E+01  2.05086E+01  2.04612E+01  2.04777E+01  2.05220E+01  2.05791E+01  2.07248E+01  2.09363E+01  2.10126E+01
   2.09997E+01  2.10089E+01  2.09892E+01  2.09477E+01  2.09121E+01  2.08818E+01  2.08432E+01  2.07910E+01  2.07398E+01  2.07054E+01
   2.06654E+01  2.05732E+01  2.04416E+01  2.03297E+01  2.02695E+01  2.02594E+01  2.02710E+01  2.02706E+01  2.02705E+01  2.02858E+01
   2.02953E+01  2.02821E+01  2.02579E+01  2.02552E+01  2.02460E+01  2.01569E+01  2.00367E+01  1.99378E+01  1.98372E+01  1.97293E+01
   1.97012E+01  1.97563E+01  1.97768E+01  1.96736E+01  1.95728E+01  1.99180E+01  2.07756E+01  2.16648E+01  2.21830E+01  2.22953E+01
   2.25030E+01  2.32110E+01  2.38530E+01  2.38401E+01  2.33633E+01  2.28616E+01  2.25868E+01  2.18224E+01  2.01532E+01  1.90248E+01
   1.87465E+01  1.86338E+01  1.85511E+01  1.84808E+01  1.84171E+01  1.83548E+01  1.82928E+01  1.82369E+01  1.81841E+01  1.81253E+01
   1.80622E+01  1.79983E+01  1.79346E+01  1.78705E+01  1.78031E+01  1.77357E+01  1.76741E+01  1.76159E+01  1.75579E+01  1.75007E+01
   1.74436E+01  1.73868E+01  1.73297E+01  1.72696E+01  1.72070E+01  1.71441E+01  1.70813E+01  1.70174E+01  1.69533E+01  1.68898E+01
   1.68261E+01  1.67623E+01  1.66993E+01  1.66363E+01  1.65730E+01  1.65095E+01  1.64460E+01  1.63826E+01  1.63192E+01  1.62558E+01
   1.61927E+01  1.61298E+01  1.60673E+01  1.60052E+01  1.59436E+01  1.58827E+01  1.58226E+01  1.57635E+01  1.57052E+01  1.56473E+01
   1.55893E+01  1.55455E+01  1.55323E+01  1.55286E+01  1.54982E+01  1.54359E+01  1.53615E+01  1.53053E+01  1.52568E+01  1.51602E+01
   1.50284E+01  1.49323E+01  1.48935E+01  1.48807E+01  1.48267E+01  1.47540E+01  1.47956E+01  1.49252E+01  1.50388E+01  1.51194E+01
   1.51859E+01  1.52768E+01  1.53790E+01  1.54191E+01  1.54372E+01  1.55082E+01  1.56169E+01  1.57505E+01  1.59002E+01  1.60554E+01
   1.62024E+01  1.63254E+01  1.64075E+01  1.64336E+01  1.63926E+01  1.62793E+01  1.60958E+01  1.58506E+01  1.55575E+01  1.52329E+01
   1.48934E+01  1.45534E+01  1.42240E+01  1.39120E+01  1.36205E+01  1.33496E+01  1.30976E+01  1.28621E+01  1.26407E+01  1.24310E+01
   1.22317E+01  1.20416E+01  1.18601E+01  1.16870E+01  1.15219E+01  1.13647E+01  1.12152E+01  1.10731E+01  1.09379E+01  1.08093E+01
   1.06869E+01  1.05701E+01  1.04584E+01  1.03514E+01  1.02486E+01  1.01497E+01  1.00542E+01  9.96179E+00  9.87214E+00  9.78499E+00
   9.70012E+00  9.61730E+00  9.53635E+00  9.45711E+00  9.37944E+00  9.30324E+00  9.22842E+00  9.15489E+00  9.08256E+00  9.01138E+00
   8.94130E+00  8.87229E+00  8.80432E+00  8.73734E+00  8.67131E+00  8.60623E+00  8.54209E+00  8.47888E+00  8.41656E+00  8.35510E+00
   8.29446E+00  8.23462E+00  8.17555E+00  8.11723E+00  8.05962E+00  8.00269E+00  7.94641E+00  7.89077E+00  7.83575E+00  7.78133E+00
   7.72747E+00  7.67415E+00  7.62135E+00  7.56906E+00  7.51726E+00  7.46593E+00  7.41504E+00  7.36456E+00  7.31449E+00  7.26481E+00
   7.21551E+00  7.16656E+00  7.11793E+00  7.06960E+00  7.02158E+00  6.97384E+00  6.92637E+00  6.87914E+00  6.83212E+00  6.78531E+00
   6.73869E+00  6.69226E+00  6.64599E+00  6.59984E+00  6.55381E+00  6.50790E+00  6.46208E+00  6.41633E+00  6.37064E+00  6.32498E+00
   6.27933E+00  6.23370E+00  6.18807E+00  6.14241E+00  6.09673E+00  6.05101E+00  6.00528E+00  5.95954E+00  5.91378E+00  5.86800E+00
   5.82219E+00  5.77637E+00  5.73054E+00  5.68471E+00  5.63886E+00  5.59300E+00  5.54712E+00  5.50124E+00  5.45536E+00  5.40948E+00
   5.36360E+00  5.31770E+00  5.27180E+00  5.22591E+00  5.18003E+00  5.13415E+00  5.08827E+00  5.04239E+00  4.99652E+00  4.95067E+00
   4.90484E+00  4.85902E+00  4.81320E+00  4.76740E+00  4.72162E+00  4.67587E+00  4.63014E+00  4.58443E+00  4.53875E+00  4.49308E+00
   4.44746E+00  4.40187E+00  4.35632E+00  4.31080E+00  4.26531E+00  4.21987E+00  4.17448E+00  4.12914E+00
 NY background values follow
     5.680E+01    5.648E+01    5.616E+01    5.585E+01    5.553E+01    5.521E+01    5.489E+01    5.457E+01    5.426E+01    5.394E+01
     5.362E+01    5.331E+01    5.299E+01    5.268E+01    5.236E+01    5.205E+01    5.174E+01    5.142E+01    5.111E+01    5.080E+01
     5.049E+01    5.018E+01    4.988E+01    4.957E+01    4.926E+01    4.896E+01    4.866E+01    4.835E+01    4.805E+01    4.775E+01
     4.745E+01    4.716E+01    4.686E+01    4.657E+01    4.628E+01    4.599E+01    4.570E+01    4.541E+01    4.512E+01    4.484E+01
     4.456E+01    4.428E+01    4.400E+01    4.372E+01    4.345E+01    4.318E+01    4.291E+01    4.264E+01    4.237E+01    4.211E+01
     4.185E+01    4.159E+01    4.133E+01    4.107E+01    4.082E+01    4.057E+01    4.032E+01    4.007E+01    3.983E+01    3.958E+01
     3.934E+01    3.910E+01    3.887E+01    3.863E+01    3.840E+01    3.817E+01    3.794E+01    3.771E+01    3.749E+01    3.726E+01
     3.704E+01    3.682E+01    3.661E+01    3.639E+01    3.618E+01    3.597E+01    3.576E+01    3.555E+01    3.534E+01    3.514E+01
     3.494E+01    3.474E+01    3.454E+01    3.434E+01    3.415E+01    3.396E+01    3.377E+01    3.358E+01    3.339E+01    3.320E+01
     3.302E+01    3.284E+01    3.266E+01    3.248E+01    3.231E+01    3.213E+01    3.196E+01    3.179E+01    3.162E+01    3.145E+01
     3.129E+01    3.112E+01    3.096E+01    3.080E+01    3.064E+01    3.049E+01    3.033E+01    3.018E+01    3.002E+01    2.987E+01
     2.972E+01    2.958E+01    2.943E+01    2.929E+01    2.914E+01    2.900E+01    2.886E+01    2.872E+01    2.859E+01    2.845E+01
     2.832E+01    2.819E+01    2.805E+01    2.792E+01    2.780E+01    2.767E+01    2.754E+01    2.742E+01    2.730E+01    2.717E+01
     2.705E+01    2.694E+01    2.682E+01    2.670E+01    2.659E+01    2.647E+01    2.636E+01    2.625E+01    2.614E+01    2.603E+01
     2.592E+01    2.581E+01    2.571E+01    2.560E+01    2.550E+01    2.540E+01    2.530E+01    2.520E+01    2.510E+01    2.500E+01
     2.490E+01    2.481E+01    2.472E+01    2.462E+01    2.453E+01    2.444E+01    2.435E+01    2.426E+01    2.417E+01    2.409E+01
     2.400E+01    2.392E+01    2.383E+01    2.375E+01    2.367E+01    2.359E+01    2.351E+01    2.343E+01    2.336E+01    2.328E+01
     2.320E+01    2.313E+01    2.306E+01    2.298E+01    2.291E+01    2.284E+01    2.277E+01    2.271E+01    2.264E+01    2.257E+01
     2.251E+01    2.244E+01    2.238E+01    2.231E+01    2.225E+01    2.219E+01    2.213E+01    2.207E+01    2.201E+01    2.196E+01
     2.190E+01    2.184E+01    2.179E+01    2.173E+01    2.168E+01    2.163E+01    2.157E+01    2.152E+01    2.147E+01    2.142E+01
     2.137E+01    2.132E+01    2.127E+01    2.122E+01    2.118E+01    2.113E+01    2.108E+01    2.104E+01    2.099E+01    2.095E+01
     2.090E+01    2.086E+01    2.081E+01    2.077E+01    2.073E+01    2.069E+01    2.064E+01    2.060E+01    2.056E+01    2.052E+01
     2.048E+01    2.044E+01    2.040E+01    2.036E+01    2.032E+01    2.028E+01    2.024E+01    2.020E+01    2.017E+01    2.013E+01
     2.009E+01    2.005E+01    2.001E+01    1.997E+01    1.994E+01    1.990E+01    1.986E+01    1.982E+01    1.979E+01    1.975E+01
     1.971E+01    1.967E+01    1.964E+01    1.960E+01    1.956E+01    1.952E+01    1.948E+01    1.944E+01    1.940E+01    1.936E+01
     1.933E+01    1.929E+01    1.925E+01    1.921E+01    1.916E+01    1.912E+01    1.908E+01    1.904E+01    1.900E+01    1.896E+01
     1.891E+01    1.887E+01    1.882E+01    1.878E+01    1.873E+01    1.869E+01    1.864E+01    1.859E+01    1.855E+01    1.850E+01
     1.845E+01    1.840E+01    1.835E+01    1.830E+01    1.825E+01    1.819E+01    1.814E+01    1.809E+01    1.803E+01    1.798E+01
     1.792E+01    1.786E+01    1.781E+01    1.775E+01    1.769E+01    1.763E+01    1.757E+01    1.751E+01    1.745E+01    1.739E+01
     1.733E+01    1.726E+01    1.720E+01    1.713E+01    1.707E+01    1.700E+01    1.694E+01    1.687E+01    1.681E+01    1.674E+01
     1.667E+01    1.660E+01    1.653E+01    1.646E+01    1.639E+01    1.632E+01    1.625E+01    1.618E+01    1.611E+01    1.603E+01
     1.596E+01    1.589E+01    1.581E+01    1.574E+01    1.566E+01    1.559E+01    1.551E+01    1.544E+01    1.536E+01    1.528E+01
     1.520E+01    1.513E+01    1.505E+01    1.497E+01    1.489E+01    1.481E+01    1.473E+01    1.465E+01    1.457E+01    1.449E+01
     1.441E+01    1.433E+01    1.425E+01    1.416E+01    1.408E+01    1.400E+01    1.392E+01    1.384E+01    1.375E+01    1.367E+01
     1.359E+01    1.351E+01    1.342E+01    1.334E+01    1.326E+01    1.318E+01    1.309E+01    1.301E+01    1.293E+01    1.284E+01
     1.276E+01    1.268E+01    1.260E+01    1.251E+01    1.243E+01    1.235E+01    1.227E+01    1.218E+01    1.210E+01    1.202E+01
     1.194E+01    1.186E+01    1.178E+01    1.169E+01    1.161E+01    1.153E+01    1.145E+01    1.137E+01    1.129E+01    1.121E+01
     1.113E+01    1.105E+01    1.098E+01    1.090E+01    1.082E+01    1.074E+01    1.067E+01    1.059E+01    1.051E+01    1.044E+01
     1.036E+01    1.029E+01    1.021E+01    1.014E+01    1.006E+01    9.989E+00    9.916E+00    9.844E+00    9.772E+00    9.700E+00
     9.629E+00    9.559E+00    9.489E+00    9.419E+00    9.350E+00    9.282E+00    9.214E+00    9.147E+00    9.081E+00    9.015E+00
     8.949E+00    8.885E+00    8.821E+00    8.757E+00    8.695E+00    8.632E+00    8.571E+00    8.510E+00    8.450E+00    8.391E+00
     8.332E+00    8.274E+00    8.217E+00    8.160E+00    8.104E+00    8.048E+00    7.993E+00    7.938E+00    7.884E+00    7.831E+00
     7.778E+00    7.725E+00    7.673E+00    7.621E+00    7.570E+00    7.519E+00    7.469E+00    7.419E+00    7.369E+00    7.320E+00
     7.271E+00    7.222E+00    7.174E+00    7.126E+00    7.078E+00    7.031E+00    6.983E+00    6.936E+00    6.889E+00    6.843E+00
     6.796E+00    6.750E+00    6.703E+00    6.657E+00    6.611E+00    6.565E+00    6.520E+00    6.474E+00    6.428E+00    6.383E+00
     6.337E+00    6.291E+00    6.245E+00    6.200E+00    6.154E+00    6.108E+00    6.062E+00    6.017E+00    5.971E+00    5.925E+00
     5.879E+00    5.833E+00    5.787E+00    5.741E+00    5.695E+00    5.649E+00    5.603E+00    5.557E+00    5.511E+00    5.465E+00
     5.419E+00    5.373E+00    5.327E+00    5.281E+00    5.235E+00    5.188E+00    5.142E+00    5.096E+00    5.050E+00    5.004E+00
     4.958E+00    4.912E+00    4.866E+00    4.820E+00    4.774E+00    4.728E+00    4.682E+00    4.636E+00    4.590E+00    4.544E+00
     4.498E+00    4.452E+00    4.406E+00    4.361E+00    4.315E+00    4.269E+00    4.223E+00    4.177E+00
 Ala      Conc. = 2.01E+01
