 LCModel (Version 6.3-1L) Copyright: S.W. Provencher.          Ref.: Magn. Reson. Med. 30:672-679 (1993).                
 Slice#3 Row#14 Col#3  PD_05_press_1_raw_act
 36 lines in following concentration table = NCONC+1
    Conc.  %SD /Cr+PCr  Metabolite                                         
  676.661  36%   3.994 Ala                                                 
   12.956  26% 7.6E-02 Asp                                                 
    0.000 999%   0.000 Cr                                                  
  169.426  17%   1.000 PCr                                                 
    7.782  26% 4.6E-02 GABA                                                
    7.780  26% 4.6E-02 Glc                                                 
 2.00E+03  12%  11.811 Gln                                                 
    0.000 999%   0.000 Glu                                                 
   10.261 115% 6.1E-02 GPC                                                 
    0.000 999%   0.000 PCh                                                 
    0.000 999%   0.000 GSH                                                 
  347.619  32%   2.052 Ins                                                 
    0.000 999%   0.000 Lac                                                 
   59.163  64%   0.349 NAA                                                 
    0.000 999%   0.000 NAAG                                                
    2.596  26% 1.5E-02 Scyllo                                              
   12.973  26% 7.7E-02 Tau                                                 
   16.789  19% 9.9E-02 -CrCH2                                              
   10.261 115% 6.1E-02 GPC+PCh                                             
   59.163  64%   0.349 NAA+NAAG                                            
  169.426  17%   1.000 Cr+PCr                                              
 2.00E+03  12%  11.811 Glu+Gln                                             
  236.810  62%   1.398 Lip13a                                              
    0.000 999%   0.000 Lip13b                                              
    0.000 999%   0.000 Lip09                                               
  155.540  35%   0.918 MM09                                                
  125.359  69%   0.740 Lip20                                               
  680.632  21%   4.017 MM20                                                
   96.289  71%   0.568 MM12                                                
  688.818  21%   4.066 MM14                                                
 1.12E+03  10%   6.585+MM17                                                
  236.810  62%   1.398 Lip13a+Lip13b                                       
 1.02E+03  21%   6.032 MM14+Lip13a+Lip13b+MM12                             
  155.540  35%   0.918 MM09+Lip09                                          
  805.991  16%   4.757 MM20+Lip20                                          
   6 lines in following misc. output table
  FWHM = 0.168 ppm    S/N =   5                                            
  Data shift = 0.161 ppm                                                   
  Ph: 163 deg     -10.5 deg/ppm                                            
  alphaB,S = 2.1E+00,   2.6E+02                                            
    8 spline knots.   Ns = 9(2)                                            
  (15) 2 infls.   (15) 1 extrs.                                            
  498 points on ppm-axis = NY
      4.000000     3.992357     3.984714     3.977070     3.969427     3.961784     3.954141     3.946497     3.938854     3.931211
      3.923568     3.915925     3.908281     3.900638     3.892995     3.885352     3.877708     3.870065     3.862422     3.854779
      3.847136     3.839492     3.831849     3.824206     3.816563     3.808919     3.801276     3.793633     3.785990     3.778347
      3.770703     3.763060     3.755417     3.747774     3.740130     3.732487     3.724844     3.717201     3.709558     3.701914
      3.694271     3.686628     3.678985     3.671341     3.663698     3.656055     3.648412     3.640769     3.633125     3.625482
      3.617839     3.610196     3.602552     3.594909     3.587266     3.579623     3.571980     3.564336     3.556693     3.549050
      3.541407     3.533763     3.526120     3.518477     3.510834     3.503191     3.495547     3.487904     3.480261     3.472618
      3.464974     3.457331     3.449688     3.442045     3.434402     3.426758     3.419115     3.411472     3.403829     3.396185
      3.388542     3.380899     3.373256     3.365613     3.357969     3.350326     3.342683     3.335040     3.327396     3.319753
      3.312110     3.304467     3.296824     3.289180     3.281537     3.273894     3.266251     3.258607     3.250964     3.243321
      3.235678     3.228034     3.220391     3.212748     3.205105     3.197462     3.189818     3.182175     3.174532     3.166889
      3.159245     3.151602     3.143959     3.136316     3.128673     3.121029     3.113386     3.105743     3.098100     3.090456
      3.082813     3.075170     3.067527     3.059884     3.052240     3.044597     3.036954     3.029311     3.021667     3.014024
      3.006381     2.998738     2.991095     2.983451     2.975808     2.968165     2.960522     2.952878     2.945235     2.937592
      2.929949     2.922306     2.914662     2.907019     2.899376     2.891733     2.884089     2.876446     2.868803     2.861160
      2.853517     2.845873     2.838230     2.830587     2.822944     2.815300     2.807657     2.800014     2.792371     2.784728
      2.777084     2.769441     2.761798     2.754155     2.746511     2.738868     2.731225     2.723582     2.715939     2.708295
      2.700652     2.693009     2.685366     2.677722     2.670079     2.662436     2.654793     2.647150     2.639506     2.631863
      2.624220     2.616577     2.608933     2.601290     2.593647     2.586004     2.578361     2.570717     2.563074     2.555431
      2.547788     2.540144     2.532501     2.524858     2.517215     2.509572     2.501928     2.494285     2.486642     2.478999
      2.471355     2.463712     2.456069     2.448426     2.440783     2.433139     2.425496     2.417853     2.410210     2.402566
      2.394923     2.387280     2.379637     2.371994     2.364350     2.356707     2.349064     2.341421     2.333777     2.326134
      2.318491     2.310848     2.303205     2.295561     2.287918     2.280275     2.272632     2.264988     2.257345     2.249702
      2.242059     2.234416     2.226772     2.219129     2.211486     2.203843     2.196199     2.188556     2.180913     2.173270
      2.165627     2.157983     2.150340     2.142697     2.135054     2.127410     2.119767     2.112124     2.104481     2.096838
      2.089194     2.081551     2.073908     2.066265     2.058621     2.050978     2.043335     2.035692     2.028049     2.020405
      2.012762     2.005119     1.997476     1.989833     1.982190     1.974546     1.966903     1.959260     1.951617     1.943974
      1.936331     1.928688     1.921045     1.913402     1.905759     1.898115     1.890472     1.882829     1.875186     1.867543
      1.859900     1.852257     1.844614     1.836971     1.829327     1.821684     1.814041     1.806398     1.798755     1.791112
      1.783469     1.775826     1.768183     1.760540     1.752896     1.745253     1.737610     1.729967     1.722324     1.714681
      1.707038     1.699395     1.691752     1.684108     1.676465     1.668822     1.661179     1.653536     1.645893     1.638250
      1.630607     1.622964     1.615321     1.607677     1.600034     1.592391     1.584748     1.577105     1.569462     1.561819
      1.554176     1.546533     1.538890     1.531246     1.523603     1.515960     1.508317     1.500674     1.493031     1.485388
      1.477745     1.470102     1.462458     1.454815     1.447172     1.439529     1.431886     1.424243     1.416600     1.408957
      1.401314     1.393671     1.386027     1.378384     1.370741     1.363098     1.355455     1.347812     1.340169     1.332526
      1.324883     1.317240     1.309596     1.301953     1.294310     1.286667     1.279024     1.271381     1.263738     1.256095
      1.248452     1.240808     1.233165     1.225522     1.217879     1.210236     1.202593     1.194950     1.187307     1.179664
      1.172021     1.164377     1.156734     1.149091     1.141448     1.133805     1.126162     1.118519     1.110876     1.103233
      1.095590     1.087946     1.080303     1.072660     1.065017     1.057374     1.049731     1.042088     1.034445     1.026802
      1.019158     1.011515     1.003872     0.996229     0.988586     0.980943     0.973300     0.965657     0.958014     0.950371
      0.942727     0.935084     0.927441     0.919798     0.912155     0.904512     0.896869     0.889226     0.881583     0.873940
      0.866296     0.858653     0.851010     0.843367     0.835724     0.828081     0.820438     0.812795     0.805152     0.797508
      0.789865     0.782222     0.774579     0.766936     0.759293     0.751650     0.744007     0.736364     0.728721     0.721077
      0.713434     0.705791     0.698148     0.690505     0.682862     0.675219     0.667576     0.659933     0.652290     0.644646
      0.637003     0.629360     0.621717     0.614074     0.606431     0.598788     0.591145     0.583502     0.575858     0.568215
      0.560572     0.552929     0.545286     0.537643     0.530000     0.522357     0.514714     0.507071     0.499427     0.491784
      0.484141     0.476498     0.468855     0.461212     0.453569     0.445925     0.438282     0.430639     0.422996     0.415353
      0.407710     0.400067     0.392424     0.384780     0.377137     0.369494     0.361851     0.354208     0.346565     0.338922
      0.331278     0.323635     0.315992     0.308349     0.300706     0.293063     0.285420     0.277777     0.270133     0.262490
      0.254847     0.247204     0.239561     0.231918     0.224275     0.216631     0.208988     0.201345
 NY phased data points follow
   1.94297E+01  1.63811E+01  1.86245E+01  1.82192E+01  1.80094E+01  1.64713E+01  1.79360E+01  1.74348E+01  1.60350E+01  1.61682E+01
   1.64261E+01  1.61764E+01  1.69059E+01  1.63847E+01  1.55864E+01  1.57974E+01  1.54880E+01  1.60284E+01  1.46430E+01  1.54191E+01
   1.41267E+01  1.48333E+01  1.52781E+01  1.54676E+01  1.43801E+01  1.47407E+01  1.41302E+01  1.42018E+01  1.31310E+01  1.18305E+01
   1.41497E+01  1.37080E+01  1.42081E+01  1.33446E+01  1.24967E+01  1.16174E+01  1.34783E+01  1.35200E+01  1.15884E+01  1.34977E+01
   1.28836E+01  1.26826E+01  1.14388E+01  1.24206E+01  1.35690E+01  1.11304E+01  1.12296E+01  1.08248E+01  1.14181E+01  1.18371E+01
   1.08069E+01  9.83047E+00  1.11350E+01  1.13397E+01  1.15892E+01  1.08466E+01  1.16735E+01  1.17748E+01  1.10196E+01  1.15574E+01
   1.02908E+01  9.60316E+00  1.02513E+01  1.02869E+01  1.01130E+01  9.50867E+00  9.48452E+00  9.22094E+00  9.97307E+00  9.08329E+00
   1.09282E+01  9.16531E+00  1.00664E+01  8.19602E+00  8.24569E+00  9.91021E+00  8.90186E+00  7.81977E+00  8.26598E+00  6.58289E+00
   8.20248E+00  7.92282E+00  7.62479E+00  7.64238E+00  6.07682E+00  6.99701E+00  7.43326E+00  7.29794E+00  7.61845E+00  8.22156E+00
   7.54698E+00  7.40496E+00  6.48425E+00  7.37938E+00  7.20140E+00  8.29214E+00  6.81223E+00  6.24217E+00  6.59773E+00  5.93331E+00
   6.06466E+00  5.66400E+00  6.87133E+00  5.83094E+00  6.00056E+00  4.93598E+00  4.89861E+00  5.93312E+00  6.01950E+00  4.92987E+00
   4.14002E+00  5.79245E+00  5.08894E+00  6.60313E+00  7.18522E+00  5.33100E+00  5.41136E+00  5.51099E+00  7.45468E+00  6.47101E+00
   6.00212E+00  5.68812E+00  6.93515E+00  6.00821E+00  5.67268E+00  6.16322E+00  6.82331E+00  5.53184E+00  5.92229E+00  6.57275E+00
   6.24788E+00  6.53428E+00  5.30792E+00  6.64881E+00  6.53702E+00  5.44639E+00  4.95056E+00  5.19281E+00  5.01109E+00  4.25250E+00
   5.06713E+00  5.34099E+00  4.33729E+00  3.83980E+00  4.90563E+00  4.97223E+00  3.52794E+00  3.34148E+00  3.65810E+00  3.30059E+00
   4.27629E+00  5.16406E+00  5.12186E+00  3.18970E+00  4.50264E+00  3.83927E+00  2.97333E+00  3.41108E+00  3.07628E+00  3.28548E+00
   1.35531E+00  2.33559E+00  2.76031E+00  1.99895E+00  1.78498E+00  1.56961E+00  2.66989E+00  1.95190E+00  2.51954E+00  3.55243E+00
   2.49728E+00  1.33388E+00  2.51802E+00  1.33332E+00  2.55814E+00  9.72937E-01  8.51980E-01  5.89604E-01  5.78071E-01  6.47635E-01
   3.89034E-01  3.55614E-01  6.99588E-01  1.77220E+00 -8.33969E-03  1.43175E+00  3.58805E-02  5.34332E-01  1.51068E-01  1.09914E+00
   1.11941E+00  1.57005E+00  1.24981E+00  5.72539E-01  5.04756E-01  1.18885E+00  9.03674E-01  6.49330E-01  5.37224E-01  3.08219E-01
   9.75700E-01  4.08566E-01  7.85595E-01  9.52016E-01 -4.07823E-02 -3.99958E-01  1.62677E-01  8.96357E-01  1.98535E-01  1.02729E+00
   3.18106E+00  1.24531E+00  1.97185E+00  2.13351E+00  3.93409E+00  1.95505E+00  3.27494E+00  3.44664E+00  3.34658E+00  3.02910E+00
   3.69477E+00  4.52375E+00  4.34950E+00  4.12949E+00  3.64240E+00  4.25549E+00  4.24961E+00  1.38520E+00  3.37533E+00  4.46493E+00
   4.35252E+00  3.69658E+00  3.94450E+00  4.76526E+00  4.98363E+00  4.92377E+00  4.31846E+00  4.38877E+00  4.90088E+00  3.55828E+00
   4.00536E+00  3.20921E+00  3.83614E+00  3.92836E+00  6.26704E+00  4.02435E+00  3.87682E+00  2.64260E+00  3.99844E+00  4.01803E+00
   4.44050E+00  4.44035E+00  4.26346E+00  4.57525E+00  5.12753E+00  5.51256E+00  4.90445E+00  5.95169E+00  4.76796E+00  5.09727E+00
   5.17256E+00  5.73897E+00  5.55280E+00  4.84287E+00  4.38008E+00  5.11262E+00  5.57707E+00  4.47734E+00  6.19552E+00  5.56772E+00
   4.95433E+00  5.00185E+00  5.51355E+00  6.53745E+00  5.81682E+00  6.20172E+00  5.28304E+00  6.47636E+00  6.69513E+00  6.81601E+00
   7.83134E+00  7.20517E+00  8.09759E+00  7.22325E+00  1.00584E+01  1.01323E+01  9.79446E+00  1.12865E+01  1.07257E+01  9.94704E+00
   1.03250E+01  1.11945E+01  1.05433E+01  1.10917E+01  1.17035E+01  1.05335E+01  1.00675E+01  9.94692E+00  1.03630E+01  8.83212E+00
   8.45043E+00  8.74118E+00  7.73062E+00  7.46972E+00  7.59068E+00  7.44991E+00  6.06893E+00  6.73112E+00  7.88611E+00  7.23733E+00
   6.09086E+00  6.01870E+00  6.64918E+00  7.66502E+00  7.22358E+00  7.64507E+00  6.27388E+00  6.14620E+00  8.41984E+00  7.10340E+00
   7.08420E+00  6.47864E+00  6.75231E+00  7.35619E+00  7.27352E+00  7.42102E+00  7.47016E+00  6.73957E+00  7.46709E+00  8.96551E+00
   6.72273E+00  7.33474E+00  6.69385E+00  7.35246E+00  6.53911E+00  5.39353E+00  7.92183E+00  6.61214E+00  6.50074E+00  5.51845E+00
   6.24636E+00  5.81606E+00  6.27957E+00  6.33219E+00  5.83175E+00  5.33504E+00  6.90965E+00  5.69081E+00  5.42446E+00  6.53826E+00
   4.04274E+00  6.91267E+00  5.54041E+00  5.99918E+00  5.83083E+00  5.20990E+00  5.19726E+00  6.45492E+00  3.75350E+00  4.65988E+00
   5.51356E+00  4.75954E+00  4.39218E+00  5.92347E+00  5.16859E+00  4.94099E+00  4.47205E+00  4.37142E+00  4.82677E+00  3.73538E+00
   3.27596E+00  4.34948E+00  3.36931E+00  3.00128E+00  5.09064E+00  4.21548E+00  3.60252E+00  3.92196E+00  4.02440E+00  4.36908E+00
   4.23633E+00  2.88285E+00  3.19206E+00  3.91483E+00  4.43108E+00  3.97487E+00  4.33866E+00  3.90715E+00  3.33659E+00  4.92422E+00
   3.34157E+00  4.01576E+00  4.10828E+00  3.09560E+00  2.70251E+00  3.52970E+00  2.83710E+00  4.10514E+00  3.52801E+00  3.99220E+00
   2.41968E+00  3.30255E+00  3.90908E+00  3.37385E+00  2.12709E+00  3.45972E+00  3.99141E+00  3.17258E+00  2.71264E+00  4.73521E+00
   2.98300E+00  1.78634E+00  3.60068E+00  2.32864E+00  2.79514E+00  3.00455E+00  2.59965E+00  3.35801E+00  3.59907E+00  2.56598E+00
   2.15782E+00  2.98463E+00  3.73144E+00  3.21687E+00  2.72043E+00  2.86560E+00  3.57086E+00  3.38563E+00  2.89820E+00  2.83075E+00
   3.46518E+00  3.28849E+00  1.90533E+00  3.51077E+00  1.05149E+00  2.48721E+00  2.40536E+00  2.41518E+00  1.34676E+00  1.54566E+00
   2.33295E+00  1.84911E+00  5.01063E-01  1.85507E+00  1.85376E+00  1.50906E+00  1.50029E+00  1.43919E+00  1.63536E+00  2.65044E+00
  -3.18902E-01  1.47856E+00  1.03548E+00  6.71856E-01  2.34362E+00  1.91737E+00  1.89975E+00  2.89152E+00  1.86695E+00  2.05982E+00
   2.05613E+00  1.12627E+00  6.19153E-01  1.97529E+00  1.11301E+00  4.71839E-01  1.90863E+00  2.38298E+00  2.18111E+00  1.27103E+00
   2.13334E+00  2.01560E+00  2.68523E+00  9.95620E-01 -3.01423E-01  2.53099E+00  1.36746E+00  2.09940E+00  4.50459E-01  1.74219E+00
   2.72236E+00  2.05909E+00  1.00052E+00  1.12198E+00  3.45655E-01  1.77687E+00  2.06353E+00  1.06016E+00  4.51547E-01  6.61781E-01
   1.15047E+00  1.25173E+00  1.11484E+00  1.70687E+00  9.65676E-01  4.58970E-01  3.20193E-01  1.21182E+00
 NY points of the fit to the data follow
   1.71630E+01  1.70224E+01  1.70804E+01  1.69004E+01  1.69710E+01  1.67795E+01  1.68806E+01  1.66423E+01  1.66844E+01  1.63976E+01
   1.63878E+01  1.60816E+01  1.60812E+01  1.58731E+01  1.58331E+01  1.56882E+01  1.55762E+01  1.54375E+01  1.52290E+01  1.51340E+01
   1.49196E+01  1.48949E+01  1.46588E+01  1.46641E+01  1.44059E+01  1.43843E+01  1.41322E+01  1.40681E+01  1.38428E+01  1.37694E+01
   1.36255E+01  1.35751E+01  1.35013E+01  1.33999E+01  1.33786E+01  1.32300E+01  1.32608E+01  1.30774E+01  1.31497E+01  1.29056E+01
   1.29832E+01  1.26957E+01  1.27747E+01  1.24642E+01  1.25802E+01  1.22915E+01  1.24374E+01  1.21100E+01  1.21654E+01  1.17915E+01
   1.17958E+01  1.14218E+01  1.14443E+01  1.12202E+01  1.12259E+01  1.10315E+01  1.09985E+01  1.07922E+01  1.06978E+01  1.04835E+01
   1.04286E+01  1.02359E+01  1.01780E+01  9.98443E+00  9.93259E+00  9.74056E+00  9.68531E+00  9.49704E+00  9.44659E+00  9.28018E+00
   9.25199E+00  9.08702E+00  9.04178E+00  8.86353E+00  8.80509E+00  8.61850E+00  8.55131E+00  8.35841E+00  8.28540E+00  8.09321E+00
   8.00813E+00  7.82868E+00  7.74750E+00  7.58569E+00  7.51210E+00  7.37388E+00  7.28999E+00  7.17023E+00  7.07253E+00  6.97518E+00
   6.86732E+00  6.79705E+00  6.68204E+00  6.63788E+00  6.52265E+00  6.50154E+00  6.37925E+00  6.37262E+00  6.24576E+00  6.24948E+00
   6.11963E+00  6.12956E+00  5.99799E+00  6.01031E+00  5.88016E+00  5.89389E+00  5.77044E+00  5.78820E+00  5.69429E+00  5.78255E+00
   5.72810E+00  5.82843E+00  5.80691E+00  5.91184E+00  5.92592E+00  6.04346E+00  6.09866E+00  6.22036E+00  6.30681E+00  6.40504E+00
   6.49455E+00  6.52778E+00  6.60543E+00  6.58020E+00  6.64973E+00  6.58482E+00  6.62986E+00  6.51796E+00  6.53859E+00  6.38580E+00
   6.38080E+00  6.19024E+00  6.15952E+00  5.94155E+00  5.88542E+00  5.63725E+00  5.55614E+00  5.29449E+00  5.19280E+00  4.92357E+00
   4.80705E+00  4.55264E+00  4.42977E+00  4.19661E+00  4.06986E+00  3.84820E+00  3.72066E+00  3.53093E+00  3.42857E+00  3.35503E+00
   3.28752E+00  3.22331E+00  3.16047E+00  3.10047E+00  3.04012E+00  2.98341E+00  2.92436E+00  2.86993E+00  2.81121E+00  2.75812E+00
   2.70080E+00  2.64984E+00  2.59407E+00  2.54431E+00  2.49020E+00  2.44267E+00  2.39210E+00  2.34711E+00  2.30183E+00  2.25932E+00
   2.21824E+00  2.17939E+00  2.14312E+00  2.10816E+00  2.06891E+00  2.00980E+00  1.96461E+00  1.85093E+00  1.78837E+00  1.63497E+00
   1.56334E+00  1.38536E+00  1.36673E+00  1.21802E+00  1.26118E+00  1.12340E+00  1.26156E+00  1.13210E+00  1.33209E+00  1.18542E+00
   1.35889E+00  1.04292E+00  1.27975E+00  9.20174E-01  1.21432E+00  7.83546E-01  1.10238E+00  5.75818E-01  9.13970E-01  3.32413E-01
   7.32917E-01  1.79747E-01  6.79094E-01  2.33186E-01  8.06496E-01  4.53843E-01  1.06889E+00  8.01930E-01  1.42240E+00  1.22100E+00
   1.82093E+00  1.68552E+00  2.23990E+00  2.16717E+00  2.66310E+00  2.62175E+00  3.01961E+00  2.91184E+00  3.23263E+00  3.12755E+00
   3.43637E+00  3.40685E+00  3.79389E+00  3.80169E+00  4.14230E+00  4.12327E+00  4.43810E+00  4.39201E+00  4.61422E+00  4.50141E+00
   4.50517E+00  4.20441E+00  4.15977E+00  3.94277E+00  3.84487E+00  3.70900E+00  3.59388E+00  3.54553E+00  3.43394E+00  3.49825E+00
   3.38757E+00  3.57012E+00  3.49607E+00  3.79854E+00  3.70876E+00  4.09011E+00  3.96026E+00  4.39757E+00  4.20928E+00  4.68084E+00
   4.45262E+00  4.93811E+00  4.68691E+00  5.18261E+00  4.91210E+00  5.38102E+00  5.04127E+00  5.35748E+00  5.02261E+00  5.31506E+00
   5.05425E+00  5.35681E+00  5.21408E+00  5.45891E+00  5.26962E+00  5.45800E+00  5.24136E+00  5.36062E+00  5.15100E+00  5.24728E+00
   5.08377E+00  5.20746E+00  5.16502E+00  5.34933E+00  5.42831E+00  5.67547E+00  5.87182E+00  6.16856E+00  6.45598E+00  6.80802E+00
   7.16366E+00  7.57587E+00  8.01656E+00  8.46963E+00  8.91877E+00  9.35571E+00  9.76358E+00  1.01320E+01  1.04460E+01  1.06972E+01
   1.08744E+01  1.09735E+01  1.09892E+01  1.09239E+01  1.07784E+01  1.05614E+01  1.02796E+01  9.94725E+00  9.57435E+00  9.17726E+00
   8.76717E+00  8.36079E+00  7.96778E+00  7.60276E+00  7.27335E+00  6.99180E+00  6.76485E+00  6.60763E+00  6.54369E+00  6.59260E+00
   6.56378E+00  6.68676E+00  6.66277E+00  6.83044E+00  6.78567E+00  6.96235E+00  6.82115E+00  7.08830E+00  6.93932E+00  7.20509E+00
   7.01534E+00  7.21151E+00  7.00824E+00  7.16874E+00  7.00137E+00  7.13851E+00  7.04549E+00  7.14436E+00  7.13409E+00  7.14581E+00
   7.17240E+00  7.08625E+00  7.14069E+00  6.96729E+00  7.03596E+00  6.77689E+00  6.87400E+00  6.56921E+00  6.69721E+00  6.36179E+00
   6.53089E+00  6.21032E+00  6.41193E+00  6.09436E+00  6.28882E+00  5.97729E+00  6.18781E+00  5.92193E+00  6.16690E+00  6.03503E+00
   6.14982E+00  5.97368E+00  5.99853E+00  5.78202E+00  5.70323E+00  5.44777E+00  5.26613E+00  5.14390E+00  5.04685E+00  4.96364E+00
   4.88701E+00  4.81470E+00  4.74341E+00  4.67306E+00  4.60172E+00  4.53022E+00  4.45732E+00  4.38435E+00  4.31046E+00  4.23725E+00
   4.16406E+00  4.09260E+00  4.02227E+00  3.95482E+00  3.88962E+00  3.82835E+00  3.77033E+00  3.71714E+00  3.66798E+00  3.62436E+00
   3.58538E+00  3.55242E+00  3.52447E+00  3.50282E+00  3.48633E+00  3.47617E+00  3.47108E+00  3.47204E+00  3.47763E+00  3.48864E+00
   3.50342E+00  3.52254E+00  3.54410E+00  3.56843E+00  3.59340E+00  3.61912E+00  3.64333E+00  3.66602E+00  3.68489E+00  3.69999E+00
   3.70915E+00  3.71262E+00  3.70856E+00  3.69760E+00  3.67830E+00  3.65176E+00  3.61703E+00  3.57565E+00  3.52712E+00  3.47334E+00
   3.41409E+00  3.35151E+00  3.28547E+00  3.21816E+00  3.14941E+00  3.08127E+00  3.01340E+00  2.94763E+00  2.88337E+00  2.82218E+00
   2.76322E+00  2.70782E+00  2.65491E+00  2.60563E+00  2.55876E+00  2.51532E+00  2.47400E+00  2.43573E+00  2.39919E+00  2.36530E+00
   2.33272E+00  2.30238E+00  2.27296E+00  2.24544E+00  2.21852E+00  2.19319E+00  2.16820E+00  2.14458E+00  2.12109E+00  2.09878E+00
   2.07645E+00  2.05516E+00  2.03373E+00  2.01324E+00  1.99252E+00  1.97265E+00  1.95250E+00  1.93313E+00  1.91342E+00  1.89445E+00
   1.87510E+00  1.85645E+00  1.83739E+00  1.81901E+00  1.80019E+00  1.78203E+00  1.76341E+00  1.74543E+00  1.72698E+00  1.70916E+00
   1.69085E+00  1.67315E+00  1.65496E+00  1.63738E+00  1.61930E+00  1.60182E+00  1.58383E+00  1.56644E+00  1.54854E+00  1.53122E+00
   1.51340E+00  1.49616E+00  1.47841E+00  1.46124E+00  1.44355E+00  1.42645E+00  1.40883E+00  1.39180E+00  1.37425E+00  1.35728E+00
   1.33979E+00  1.32289E+00  1.30548E+00  1.28865E+00  1.27130E+00  1.25455E+00  1.23728E+00  1.22061E+00  1.20343E+00  1.18685E+00
   1.16977E+00  1.15330E+00  1.13634E+00  1.11999E+00  1.10318E+00  1.08699E+00  1.07037E+00  1.05442E+00
 NY background values follow
     1.519E+01    1.508E+01    1.498E+01    1.487E+01    1.477E+01    1.466E+01    1.456E+01    1.445E+01    1.435E+01    1.425E+01
     1.414E+01    1.404E+01    1.393E+01    1.383E+01    1.373E+01    1.362E+01    1.352E+01    1.342E+01    1.331E+01    1.321E+01
     1.311E+01    1.301E+01    1.290E+01    1.280E+01    1.270E+01    1.260E+01    1.250E+01    1.240E+01    1.230E+01    1.219E+01
     1.209E+01    1.199E+01    1.189E+01    1.179E+01    1.170E+01    1.160E+01    1.150E+01    1.140E+01    1.130E+01    1.120E+01
     1.111E+01    1.101E+01    1.091E+01    1.081E+01    1.072E+01    1.062E+01    1.053E+01    1.043E+01    1.034E+01    1.024E+01
     1.015E+01    1.005E+01    9.958E+00    9.864E+00    9.771E+00    9.678E+00    9.586E+00    9.493E+00    9.402E+00    9.310E+00
     9.219E+00    9.129E+00    9.039E+00    8.949E+00    8.859E+00    8.770E+00    8.682E+00    8.594E+00    8.506E+00    8.418E+00
     8.331E+00    8.245E+00    8.159E+00    8.073E+00    7.988E+00    7.903E+00    7.819E+00    7.735E+00    7.651E+00    7.569E+00
     7.486E+00    7.404E+00    7.322E+00    7.241E+00    7.161E+00    7.081E+00    7.001E+00    6.922E+00    6.844E+00    6.766E+00
     6.688E+00    6.611E+00    6.534E+00    6.458E+00    6.383E+00    6.308E+00    6.234E+00    6.160E+00    6.087E+00    6.014E+00
     5.942E+00    5.870E+00    5.799E+00    5.729E+00    5.659E+00    5.589E+00    5.521E+00    5.452E+00    5.385E+00    5.318E+00
     5.251E+00    5.185E+00    5.120E+00    5.055E+00    4.991E+00    4.927E+00    4.864E+00    4.802E+00    4.740E+00    4.679E+00
     4.618E+00    4.558E+00    4.498E+00    4.439E+00    4.381E+00    4.323E+00    4.266E+00    4.210E+00    4.154E+00    4.098E+00
     4.043E+00    3.989E+00    3.936E+00    3.883E+00    3.830E+00    3.779E+00    3.727E+00    3.677E+00    3.627E+00    3.578E+00
     3.529E+00    3.481E+00    3.433E+00    3.386E+00    3.340E+00    3.294E+00    3.249E+00    3.205E+00    3.161E+00    3.118E+00
     3.076E+00    3.034E+00    2.992E+00    2.952E+00    2.912E+00    2.872E+00    2.833E+00    2.795E+00    2.758E+00    2.721E+00
     2.685E+00    2.649E+00    2.614E+00    2.580E+00    2.546E+00    2.513E+00    2.481E+00    2.449E+00    2.418E+00    2.387E+00
     2.358E+00    2.328E+00    2.300E+00    2.272E+00    2.245E+00    2.218E+00    2.192E+00    2.167E+00    2.143E+00    2.119E+00
     2.096E+00    2.073E+00    2.051E+00    2.030E+00    2.009E+00    1.989E+00    1.970E+00    1.951E+00    1.934E+00    1.916E+00
     1.900E+00    1.884E+00    1.869E+00    1.854E+00    1.840E+00    1.827E+00    1.815E+00    1.803E+00    1.792E+00    1.781E+00
     1.771E+00    1.762E+00    1.754E+00    1.746E+00    1.739E+00    1.733E+00    1.727E+00    1.722E+00    1.717E+00    1.713E+00
     1.709E+00    1.707E+00    1.704E+00    1.703E+00    1.701E+00    1.701E+00    1.701E+00    1.701E+00    1.702E+00    1.703E+00
     1.705E+00    1.708E+00    1.710E+00    1.714E+00    1.718E+00    1.722E+00    1.726E+00    1.731E+00    1.737E+00    1.743E+00
     1.749E+00    1.756E+00    1.763E+00    1.770E+00    1.778E+00    1.786E+00    1.794E+00    1.803E+00    1.812E+00    1.821E+00
     1.831E+00    1.841E+00    1.851E+00    1.862E+00    1.873E+00    1.884E+00    1.895E+00    1.906E+00    1.918E+00    1.930E+00
     1.942E+00    1.954E+00    1.967E+00    1.979E+00    1.992E+00    2.005E+00    2.018E+00    2.031E+00    2.044E+00    2.058E+00
     2.071E+00    2.085E+00    2.099E+00    2.112E+00    2.126E+00    2.140E+00    2.154E+00    2.168E+00    2.182E+00    2.196E+00
     2.210E+00    2.224E+00    2.238E+00    2.252E+00    2.266E+00    2.280E+00    2.293E+00    2.307E+00    2.321E+00    2.334E+00
     2.348E+00    2.361E+00    2.375E+00    2.388E+00    2.401E+00    2.414E+00    2.426E+00    2.439E+00    2.451E+00    2.463E+00
     2.475E+00    2.487E+00    2.499E+00    2.510E+00    2.521E+00    2.532E+00    2.543E+00    2.553E+00    2.564E+00    2.573E+00
     2.583E+00    2.592E+00    2.601E+00    2.610E+00    2.619E+00    2.627E+00    2.635E+00    2.642E+00    2.650E+00    2.657E+00
     2.664E+00    2.670E+00    2.677E+00    2.683E+00    2.689E+00    2.694E+00    2.699E+00    2.705E+00    2.709E+00    2.714E+00
     2.718E+00    2.722E+00    2.726E+00    2.730E+00    2.733E+00    2.736E+00    2.739E+00    2.742E+00    2.744E+00    2.746E+00
     2.748E+00    2.750E+00    2.751E+00    2.752E+00    2.753E+00    2.754E+00    2.754E+00    2.755E+00    2.755E+00    2.755E+00
     2.754E+00    2.754E+00    2.753E+00    2.752E+00    2.751E+00    2.749E+00    2.748E+00    2.746E+00    2.744E+00    2.742E+00
     2.739E+00    2.736E+00    2.734E+00    2.731E+00    2.727E+00    2.724E+00    2.720E+00    2.716E+00    2.712E+00    2.708E+00
     2.704E+00    2.699E+00    2.694E+00    2.689E+00    2.684E+00    2.679E+00    2.673E+00    2.668E+00    2.662E+00    2.656E+00
     2.650E+00    2.643E+00    2.637E+00    2.630E+00    2.623E+00    2.616E+00    2.609E+00    2.601E+00    2.594E+00    2.586E+00
     2.578E+00    2.570E+00    2.562E+00    2.554E+00    2.545E+00    2.537E+00    2.528E+00    2.519E+00    2.510E+00    2.501E+00
     2.491E+00    2.482E+00    2.472E+00    2.462E+00    2.453E+00    2.442E+00    2.432E+00    2.422E+00    2.412E+00    2.401E+00
     2.390E+00    2.379E+00    2.368E+00    2.357E+00    2.346E+00    2.335E+00    2.324E+00    2.312E+00    2.300E+00    2.289E+00
     2.277E+00    2.265E+00    2.253E+00    2.240E+00    2.228E+00    2.216E+00    2.203E+00    2.190E+00    2.178E+00    2.165E+00
     2.152E+00    2.139E+00    2.126E+00    2.113E+00    2.099E+00    2.086E+00    2.072E+00    2.059E+00    2.045E+00    2.031E+00
     2.018E+00    2.004E+00    1.990E+00    1.976E+00    1.962E+00    1.947E+00    1.933E+00    1.919E+00    1.904E+00    1.890E+00
     1.875E+00    1.861E+00    1.846E+00    1.831E+00    1.816E+00    1.802E+00    1.787E+00    1.772E+00    1.757E+00    1.742E+00
     1.726E+00    1.711E+00    1.696E+00    1.681E+00    1.665E+00    1.650E+00    1.635E+00    1.619E+00    1.604E+00    1.588E+00
     1.573E+00    1.557E+00    1.541E+00    1.526E+00    1.510E+00    1.494E+00    1.479E+00    1.463E+00    1.447E+00    1.431E+00
     1.415E+00    1.399E+00    1.383E+00    1.368E+00    1.352E+00    1.336E+00    1.320E+00    1.304E+00    1.288E+00    1.272E+00
     1.256E+00    1.240E+00    1.224E+00    1.208E+00    1.192E+00    1.176E+00    1.160E+00    1.144E+00    1.128E+00    1.112E+00
     1.096E+00    1.080E+00    1.064E+00    1.048E+00    1.032E+00    1.016E+00    1.001E+00    9.847E-01
 Ala      Conc. = 6.77E+02
