 LCModel (Version 6.3-1L) Copyright: S.W. Provencher.          Ref.: Magn. Reson. Med. 30:672-679 (1993).                
 Slice#3 Row#10 Col#5  PD_05_press_1_raw_act
 36 lines in following concentration table = NCONC+1
    Conc.  %SD /Cr+PCr  Metabolite                                         
   76.830  74% 8.1E-02 Ala                                                 
    0.000 999%   0.000 Asp                                                 
  320.737  36%   0.337 Cr                                                  
  630.064  19%   0.663 PCr                                                 
    0.000 999%   0.000 GABA                                                
    0.000 999%   0.000 Glc                                                 
  383.103  31%   0.403 Gln                                                 
 1.03E+03  13%   1.087 Glu                                                 
  242.161   4%   0.255 GPC                                                 
    0.000 999%   0.000 PCh                                                 
  281.850  13%   0.296 GSH                                                 
  111.184 110%   0.117 Ins                                                 
   61.895 100% 6.5E-02 Lac                                                 
 1.35E+03   5%   1.423 NAA                                                 
  202.173  39%   0.213 NAAG                                                
    0.000 999%   0.000 Scyllo                                              
    0.000 999%   0.000 Tau                                                 
    0.000 999%   0.000 -CrCH2                                              
  242.161   4%   0.255 GPC+PCh                                             
 1.56E+03   3%   1.636 NAA+NAAG                                            
  950.800   3%   1.000 Cr+PCr                                              
 1.42E+03  13%   1.490 Glu+Gln                                             
 1.55E+03  22%   1.631 Lip13a                                              
    0.000 999%   0.000 Lip13b                                              
    0.000 999%   0.000 Lip09                                               
  763.286  18%   0.803 MM09                                                
  340.952  43%   0.359 Lip20                                               
 1.80E+03  14%   1.895 MM20                                                
  290.104  38%   0.305 MM12                                                
  914.883  27%   0.962 MM14                                                
  824.415  24%   0.867 MM17                                                
 1.55E+03  22%   1.631 Lip13a+Lip13b                                       
 2.76E+03  14%   2.898 MM14+Lip13a+Lip13b+MM12                             
  763.286  18%   0.803 MM09+Lip09                                          
 2.14E+03  11%   2.253 MM20+Lip20                                          
   6 lines in following misc. output table
  FWHM = 0.054 ppm    S/N =  15                                            
  Data shift = 0.000 ppm                                                   
  Ph:  14 deg       0.4 deg/ppm                                            
  alphaB,S = 6.3E-01,   1.6E+02                                            
   14 spline knots.   Ns = 7(1)                                            
  (11) 2 infls.   ( 9) 1 extrs.                                            
  498 points on ppm-axis = NY
      4.000000     3.992357     3.984714     3.977070     3.969427     3.961784     3.954141     3.946497     3.938854     3.931211
      3.923568     3.915925     3.908281     3.900638     3.892995     3.885352     3.877708     3.870065     3.862422     3.854779
      3.847136     3.839492     3.831849     3.824206     3.816563     3.808919     3.801276     3.793633     3.785990     3.778347
      3.770703     3.763060     3.755417     3.747774     3.740130     3.732487     3.724844     3.717201     3.709558     3.701914
      3.694271     3.686628     3.678985     3.671341     3.663698     3.656055     3.648412     3.640769     3.633125     3.625482
      3.617839     3.610196     3.602552     3.594909     3.587266     3.579623     3.571980     3.564336     3.556693     3.549050
      3.541407     3.533763     3.526120     3.518477     3.510834     3.503191     3.495547     3.487904     3.480261     3.472618
      3.464974     3.457331     3.449688     3.442045     3.434402     3.426758     3.419115     3.411472     3.403829     3.396185
      3.388542     3.380899     3.373256     3.365613     3.357969     3.350326     3.342683     3.335040     3.327396     3.319753
      3.312110     3.304467     3.296824     3.289180     3.281537     3.273894     3.266251     3.258607     3.250964     3.243321
      3.235678     3.228034     3.220391     3.212748     3.205105     3.197462     3.189818     3.182175     3.174532     3.166889
      3.159245     3.151602     3.143959     3.136316     3.128673     3.121029     3.113386     3.105743     3.098100     3.090456
      3.082813     3.075170     3.067527     3.059884     3.052240     3.044597     3.036954     3.029311     3.021667     3.014024
      3.006381     2.998738     2.991095     2.983451     2.975808     2.968165     2.960522     2.952878     2.945235     2.937592
      2.929949     2.922306     2.914662     2.907019     2.899376     2.891733     2.884089     2.876446     2.868803     2.861160
      2.853517     2.845873     2.838230     2.830587     2.822944     2.815300     2.807657     2.800014     2.792371     2.784728
      2.777084     2.769441     2.761798     2.754155     2.746511     2.738868     2.731225     2.723582     2.715939     2.708295
      2.700652     2.693009     2.685366     2.677722     2.670079     2.662436     2.654793     2.647150     2.639506     2.631863
      2.624220     2.616577     2.608933     2.601290     2.593647     2.586004     2.578361     2.570717     2.563074     2.555431
      2.547788     2.540144     2.532501     2.524858     2.517215     2.509572     2.501928     2.494285     2.486642     2.478999
      2.471355     2.463712     2.456069     2.448426     2.440783     2.433139     2.425496     2.417853     2.410210     2.402566
      2.394923     2.387280     2.379637     2.371994     2.364350     2.356707     2.349064     2.341421     2.333777     2.326134
      2.318491     2.310848     2.303205     2.295561     2.287918     2.280275     2.272632     2.264988     2.257345     2.249702
      2.242059     2.234416     2.226772     2.219129     2.211486     2.203843     2.196199     2.188556     2.180913     2.173270
      2.165627     2.157983     2.150340     2.142697     2.135054     2.127410     2.119767     2.112124     2.104481     2.096838
      2.089194     2.081551     2.073908     2.066265     2.058621     2.050978     2.043335     2.035692     2.028049     2.020405
      2.012762     2.005119     1.997476     1.989833     1.982190     1.974546     1.966903     1.959260     1.951617     1.943974
      1.936331     1.928688     1.921045     1.913402     1.905759     1.898115     1.890472     1.882829     1.875186     1.867543
      1.859900     1.852257     1.844614     1.836971     1.829327     1.821684     1.814041     1.806398     1.798755     1.791112
      1.783469     1.775826     1.768183     1.760540     1.752896     1.745253     1.737610     1.729967     1.722324     1.714681
      1.707038     1.699395     1.691752     1.684108     1.676465     1.668822     1.661179     1.653536     1.645893     1.638250
      1.630607     1.622964     1.615321     1.607677     1.600034     1.592391     1.584748     1.577105     1.569462     1.561819
      1.554176     1.546533     1.538890     1.531246     1.523603     1.515960     1.508317     1.500674     1.493031     1.485388
      1.477745     1.470102     1.462458     1.454815     1.447172     1.439529     1.431886     1.424243     1.416600     1.408957
      1.401314     1.393671     1.386027     1.378384     1.370741     1.363098     1.355455     1.347812     1.340169     1.332526
      1.324883     1.317240     1.309596     1.301953     1.294310     1.286667     1.279024     1.271381     1.263738     1.256095
      1.248452     1.240808     1.233165     1.225522     1.217879     1.210236     1.202593     1.194950     1.187307     1.179664
      1.172021     1.164377     1.156734     1.149091     1.141448     1.133805     1.126162     1.118519     1.110876     1.103233
      1.095590     1.087946     1.080303     1.072660     1.065017     1.057374     1.049731     1.042088     1.034445     1.026802
      1.019158     1.011515     1.003872     0.996229     0.988586     0.980943     0.973300     0.965657     0.958014     0.950371
      0.942727     0.935084     0.927441     0.919798     0.912155     0.904512     0.896869     0.889226     0.881583     0.873940
      0.866296     0.858653     0.851010     0.843367     0.835724     0.828081     0.820438     0.812795     0.805152     0.797508
      0.789865     0.782222     0.774579     0.766936     0.759293     0.751650     0.744007     0.736364     0.728721     0.721077
      0.713434     0.705791     0.698148     0.690505     0.682862     0.675219     0.667576     0.659933     0.652290     0.644646
      0.637003     0.629360     0.621717     0.614074     0.606431     0.598788     0.591145     0.583502     0.575858     0.568215
      0.560572     0.552929     0.545286     0.537643     0.530000     0.522357     0.514714     0.507071     0.499427     0.491784
      0.484141     0.476498     0.468855     0.461212     0.453569     0.445925     0.438282     0.430639     0.422996     0.415353
      0.407710     0.400067     0.392424     0.384780     0.377137     0.369494     0.361851     0.354208     0.346565     0.338922
      0.331278     0.323635     0.315992     0.308349     0.300706     0.293063     0.285420     0.277777     0.270133     0.262490
      0.254847     0.247204     0.239561     0.231918     0.224275     0.216631     0.208988     0.201345
 NY phased data points follow
   5.02496E+01  5.01555E+01  4.79570E+01  5.05694E+01  5.21837E+01  5.33805E+01  5.55037E+01  5.92517E+01  6.00791E+01  6.31121E+01
   6.53980E+01  6.49615E+01  6.06220E+01  5.84405E+01  5.60720E+01  5.32390E+01  4.87333E+01  4.60590E+01  4.27571E+01  4.34746E+01
   4.40250E+01  4.34207E+01  4.37707E+01  4.18176E+01  4.45752E+01  4.20864E+01  4.27647E+01  4.46052E+01  4.18610E+01  4.43516E+01
   4.46570E+01  4.32255E+01  4.25329E+01  4.18280E+01  3.92117E+01  3.79007E+01  3.67729E+01  3.75616E+01  3.64238E+01  3.71872E+01
   3.60320E+01  3.72299E+01  3.40485E+01  3.59728E+01  3.36722E+01  3.55740E+01  3.69052E+01  3.80302E+01  3.70078E+01  3.72710E+01
   3.56589E+01  3.42701E+01  3.41683E+01  3.20843E+01  2.99579E+01  3.05436E+01  3.26760E+01  2.78211E+01  3.02624E+01  3.03586E+01
   2.96308E+01  2.89554E+01  2.39311E+01  2.58861E+01  2.52250E+01  2.20803E+01  2.53236E+01  2.56456E+01  2.23112E+01  2.41856E+01
   2.10857E+01  2.29641E+01  2.39087E+01  2.42791E+01  2.36466E+01  1.91513E+01  2.32047E+01  2.25631E+01  2.21557E+01  2.34279E+01
   2.20361E+01  1.97246E+01  1.89578E+01  2.21719E+01  2.22735E+01  2.12122E+01  2.33163E+01  2.04581E+01  1.91772E+01  2.21145E+01
   2.18340E+01  2.06186E+01  2.08068E+01  2.07900E+01  2.12280E+01  2.14888E+01  2.12018E+01  2.51265E+01  2.54157E+01  2.64692E+01
   3.03033E+01  3.34341E+01  4.05204E+01  4.03774E+01  4.04129E+01  3.90753E+01  3.40962E+01  2.92888E+01  2.61232E+01  2.47477E+01
   2.27121E+01  2.13553E+01  1.93182E+01  1.75924E+01  1.76579E+01  1.98748E+01  1.93880E+01  1.90246E+01  1.91580E+01  2.06564E+01
   2.03120E+01  2.02596E+01  2.36678E+01  2.59049E+01  3.30584E+01  3.79079E+01  4.32896E+01  4.36531E+01  4.69940E+01  4.29807E+01
   3.82211E+01  3.13178E+01  2.66233E+01  2.05101E+01  2.22600E+01  1.73890E+01  1.61254E+01  1.53768E+01  1.31565E+01  1.46779E+01
   1.65681E+01  1.42635E+01  1.46040E+01  1.44360E+01  1.44227E+01  1.38662E+01  1.42149E+01  1.26776E+01  1.33797E+01  1.23178E+01
   1.41849E+01  1.35682E+01  1.12632E+01  1.20570E+01  9.81358E+00  1.18134E+01  1.05939E+01  1.03548E+01  9.43712E+00  9.41519E+00
   1.14253E+01  9.66394E+00  9.20436E+00  8.44918E+00  1.03946E+01  1.00974E+01  1.11114E+01  8.10294E+00  1.02393E+01  6.45998E+00
   6.03182E+00  4.14137E+00  2.17670E+00  3.58800E+00  2.92234E+00  1.73734E+00 -1.31326E-01  3.77198E+00  7.93944E-01  1.37891E+00
   3.79019E+00  3.50918E+00  2.16645E+00  2.78738E+00  1.53242E+00  4.14357E-01  3.47282E+00  7.02113E+00  4.73086E+00  8.44520E+00
   7.39352E+00  8.83286E+00  9.11878E+00  1.16320E+01  1.16602E+01  1.04620E+01  1.02251E+01  5.31209E+00  6.73421E+00  8.56675E+00
   6.18837E+00  8.63861E+00  6.31639E+00  7.84069E+00  1.06670E+01  9.23501E+00  5.80857E+00  7.04987E+00  4.26645E+00  4.06507E+00
   3.86782E+00  5.08310E+00  9.60468E+00  9.91575E+00  1.09143E+01  1.36082E+01  1.28448E+01  1.30726E+01  1.24552E+01  9.40519E+00
   7.92193E+00  5.77837E+00  3.84669E+00  5.87492E+00  3.90837E+00  6.66883E+00  7.61354E+00  1.04222E+01  1.25052E+01  1.29340E+01
   1.38799E+01  9.85578E+00  1.06354E+01  1.12761E+01  1.00703E+01  9.13017E+00  1.33656E+01  1.09894E+01  9.65874E+00  8.88706E+00
   1.01291E+01  9.47505E+00  9.32774E+00  9.62793E+00  8.98643E+00  1.07442E+01  1.27976E+01  1.48151E+01  1.42621E+01  1.73559E+01
   2.01020E+01  2.05457E+01  2.01100E+01  2.35468E+01  2.62105E+01  3.06745E+01  3.52806E+01  4.17999E+01  5.07525E+01  5.62972E+01
   6.02974E+01  5.90394E+01  5.58702E+01  4.61701E+01  3.50070E+01  2.52676E+01  1.85410E+01  1.59536E+01  1.15633E+01  1.13537E+01
   1.11091E+01  9.91117E+00  1.24428E+01  9.68645E+00  1.14918E+01  9.62521E+00  9.51390E+00  1.12788E+01  9.03692E+00  7.65929E+00
   8.28691E+00  7.00074E+00  8.47920E+00  9.16876E+00  9.29913E+00  9.55801E+00  8.78875E+00  6.78900E+00  9.50731E+00  8.15487E+00
   7.52520E+00  8.27268E+00  8.74359E+00  8.93604E+00  9.69483E+00  1.04394E+01  9.63215E+00  8.36121E+00  8.96385E+00  8.51013E+00
   1.20366E+01  8.82340E+00  1.02328E+01  9.21940E+00  9.86041E+00  1.34792E+01  1.39585E+01  1.29605E+01  1.04617E+01  1.15387E+01
   1.24494E+01  1.21528E+01  1.20398E+01  1.24981E+01  1.32261E+01  1.38112E+01  1.42408E+01  1.30276E+01  1.27257E+01  1.25165E+01
   1.29317E+01  1.36471E+01  1.58033E+01  1.38745E+01  1.20266E+01  1.31811E+01  1.31613E+01  1.46885E+01  1.49766E+01  1.15856E+01
   1.30321E+01  1.15630E+01  1.22470E+01  1.22189E+01  1.24736E+01  1.17986E+01  1.19974E+01  1.24800E+01  1.27616E+01  1.44569E+01
   1.10073E+01  1.32502E+01  1.35991E+01  1.51713E+01  1.49249E+01  1.33403E+01  1.45215E+01  1.26557E+01  1.60944E+01  1.45406E+01
   1.49670E+01  1.05065E+01  1.41442E+01  1.28543E+01  1.55916E+01  1.31720E+01  1.53111E+01  1.39585E+01  1.43458E+01  1.51089E+01
   1.33609E+01  1.63053E+01  1.50211E+01  1.40864E+01  1.22159E+01  1.46525E+01  1.19991E+01  1.34622E+01  1.58775E+01  1.08740E+01
   1.09274E+01  1.09769E+01  1.11399E+01  1.25869E+01  1.14104E+01  1.14077E+01  1.02884E+01  1.08922E+01  1.11771E+01  9.57178E+00
   1.04574E+01  7.93321E+00  7.78962E+00  1.08622E+01  7.68893E+00  9.75886E+00  8.53682E+00  1.05397E+01  8.73796E+00  1.10324E+01
   7.17958E+00  9.93060E+00  7.34328E+00  9.07500E+00  1.05271E+01  8.73942E+00  1.15248E+01  1.07122E+01  1.00355E+01  9.19786E+00
   1.19504E+01  1.00908E+01  8.53267E+00  1.08681E+01  9.63867E+00  1.00698E+01  8.46010E+00  1.05898E+01  1.14142E+01  1.09337E+01
   1.06050E+01  1.03393E+01  8.25250E+00  9.86500E+00  7.81800E+00  8.09894E+00  9.16014E+00  7.60504E+00  1.11047E+01  8.48496E+00
   8.68218E+00  6.08433E+00  7.34707E+00  6.67435E+00  7.93395E+00  5.51997E+00  6.25483E+00  8.62581E+00  1.01098E+01  5.77700E+00
   6.28159E+00  4.77783E+00  6.29088E+00  6.10852E+00  6.74118E+00  6.96737E+00  6.28309E+00  5.52167E+00  4.92406E+00  5.26279E+00
   5.28778E+00  6.31844E+00  4.63042E+00  4.04590E+00  5.62153E+00  4.10366E+00  5.80435E+00  6.24580E+00  6.99590E+00  3.68119E+00
   2.68659E+00  4.45952E+00  5.03335E+00  4.17653E+00  4.19241E+00  4.55224E+00  4.28342E+00  6.33538E+00  3.41737E+00  4.28263E+00
   2.71249E+00  6.27139E+00  3.62399E+00  5.72343E+00  5.15996E+00  3.45689E+00  2.23717E+00  4.05362E+00  4.42498E+00  5.38529E+00
   2.30919E+00  5.54688E+00  6.96032E+00  4.05882E+00  5.50545E+00  3.17238E+00  4.02362E+00  4.97576E+00  3.17710E+00  6.00197E+00
   3.06614E+00  4.66138E+00  4.91222E+00  4.06291E+00  5.30170E+00  4.37749E+00  3.56732E+00  3.61472E+00  3.53832E+00  5.23642E+00
   5.78438E+00  3.01241E+00  5.00308E+00  2.89594E+00  1.39956E+00  4.21031E+00  4.41977E+00  1.31881E+00
 NY points of the fit to the data follow
   4.76189E+01  4.76132E+01  4.81463E+01  4.91765E+01  5.06007E+01  5.26352E+01  5.52412E+01  5.81868E+01  6.10533E+01  6.32871E+01
   6.43183E+01  6.37493E+01  6.16039E+01  5.83730E+01  5.47592E+01  5.13652E+01  4.85077E+01  4.63050E+01  4.48140E+01  4.38110E+01
   4.30759E+01  4.24958E+01  4.20447E+01  4.18233E+01  4.17050E+01  4.16909E+01  4.19402E+01  4.25468E+01  4.33891E+01  4.41819E+01
   4.47018E+01  4.47674E+01  4.42097E+01  4.30560E+01  4.15010E+01  3.98105E+01  3.82327E+01  3.68847E+01  3.59076E+01  3.54345E+01
   3.53551E+01  3.54669E+01  3.55883E+01  3.56397E+01  3.55887E+01  3.54000E+01  3.50961E+01  3.47133E+01  3.42721E+01  3.37954E+01
   3.32779E+01  3.27267E+01  3.21852E+01  3.16717E+01  3.11731E+01  3.07049E+01  3.02872E+01  2.99105E+01  2.95550E+01  2.92135E+01
   2.88773E+01  2.85331E+01  2.81729E+01  2.77985E+01  2.74256E+01  2.70770E+01  2.67621E+01  2.64798E+01  2.62260E+01  2.59928E+01
   2.57673E+01  2.55378E+01  2.52959E+01  2.50396E+01  2.47705E+01  2.44930E+01  2.42146E+01  2.39423E+01  2.36793E+01  2.34234E+01
   2.31677E+01  2.29107E+01  2.26503E+01  2.23856E+01  2.21152E+01  2.18400E+01  2.15662E+01  2.13055E+01  2.10703E+01  2.08723E+01
   2.07171E+01  2.06002E+01  2.05148E+01  2.04593E+01  2.04561E+01  2.06501E+01  2.15692E+01  2.32373E+01  2.52327E+01  2.77432E+01
   3.10439E+01  3.48696E+01  3.83869E+01  4.06476E+01  4.09609E+01  3.90651E+01  3.53049E+01  3.06482E+01  2.62459E+01  2.28106E+01
   2.03836E+01  1.87288E+01  1.78299E+01  1.74802E+01  1.72998E+01  1.71836E+01  1.71110E+01  1.70917E+01  1.71776E+01  1.76170E+01
   1.91014E+01  2.15323E+01  2.44420E+01  2.80950E+01  3.27674E+01  3.80129E+01  4.27237E+01  4.56683E+01  4.59606E+01  4.33541E+01
   3.84044E+01  3.23823E+01  2.67016E+01  2.21474E+01  1.87274E+01  1.62179E+01  1.47144E+01  1.40309E+01  1.38018E+01  1.38736E+01
   1.40882E+01  1.42889E+01  1.43745E+01  1.42849E+01  1.40198E+01  1.36498E+01  1.32481E+01  1.28543E+01  1.24937E+01  1.21701E+01
   1.18818E+01  1.16188E+01  1.13776E+01  1.11492E+01  1.09055E+01  1.06777E+01  1.04753E+01  1.02728E+01  1.00465E+01  9.74617E+00
   9.41139E+00  9.13254E+00  8.95999E+00  8.87098E+00  8.80191E+00  8.66951E+00  8.40193E+00  7.99449E+00  7.51169E+00  7.01782E+00
   6.58288E+00  6.25319E+00  5.96306E+00  5.66095E+00  5.34999E+00  5.09394E+00  4.95671E+00  4.93563E+00  4.96736E+00  4.98552E+00
   4.93208E+00  4.85384E+00  4.81914E+00  4.87683E+00  5.05702E+00  5.36627E+00  5.81311E+00  6.42200E+00  7.15974E+00  7.92291E+00
   8.52610E+00  8.79591E+00  8.71596E+00  8.36577E+00  7.87346E+00  7.38508E+00  7.06106E+00  7.06907E+00  7.40139E+00  7.97527E+00
   8.68557E+00  9.36514E+00  9.82214E+00  9.92254E+00  9.63172E+00  8.91996E+00  7.80448E+00  6.50691E+00  5.36131E+00  4.69992E+00
   4.67937E+00  5.23116E+00  6.34042E+00  7.90011E+00  9.58010E+00  1.09233E+01  1.15318E+01  1.12539E+01  1.01282E+01  8.30175E+00
   6.20643E+00  4.42068E+00  3.40136E+00  3.36064E+00  4.21623E+00  5.76379E+00  7.64145E+00  9.32130E+00  1.04424E+01  1.09862E+01
   1.11605E+01  1.11262E+01  1.10136E+01  1.10335E+01  1.12917E+01  1.16916E+01  1.20661E+01  1.22900E+01  1.22963E+01  1.20410E+01
   1.15354E+01  1.09762E+01  1.06519E+01  1.07262E+01  1.11876E+01  1.19579E+01  1.29129E+01  1.38496E+01  1.46639E+01  1.54725E+01
   1.62581E+01  1.71091E+01  1.85055E+01  2.17603E+01  2.65484E+01  3.16752E+01  3.73179E+01  4.38867E+01  5.07967E+01  5.65194E+01
   5.95516E+01  5.88879E+01  5.41604E+01  4.60471E+01  3.64848E+01  2.77647E+01  2.11003E+01  1.63688E+01  1.30766E+01  1.13193E+01
   1.06046E+01  1.01895E+01  9.91325E+00  9.73210E+00  9.60142E+00  9.47283E+00  9.32922E+00  9.15621E+00  8.95420E+00  8.74623E+00
   8.55928E+00  8.40424E+00  8.28300E+00  8.19744E+00  8.14415E+00  8.11262E+00  8.09183E+00  8.08049E+00  8.08566E+00  8.11510E+00
   8.17229E+00  8.25993E+00  8.37780E+00  8.52299E+00  8.68952E+00  8.87200E+00  9.06805E+00  9.27879E+00  9.50624E+00  9.75120E+00
   1.00134E+01  1.02914E+01  1.05800E+01  1.08718E+01  1.11591E+01  1.14349E+01  1.16939E+01  1.19316E+01  1.21443E+01  1.23304E+01
   1.24887E+01  1.26191E+01  1.27219E+01  1.27990E+01  1.28532E+01  1.28883E+01  1.29092E+01  1.29219E+01  1.29336E+01  1.29555E+01
   1.30058E+01  1.30743E+01  1.31288E+01  1.31789E+01  1.32262E+01  1.32388E+01  1.31695E+01  1.29882E+01  1.27174E+01  1.24269E+01
   1.21593E+01  1.19736E+01  1.19381E+01  1.20812E+01  1.23701E+01  1.27406E+01  1.31331E+01  1.34797E+01  1.37175E+01  1.38436E+01
   1.39061E+01  1.39460E+01  1.39759E+01  1.40144E+01  1.40699E+01  1.41292E+01  1.41405E+01  1.40719E+01  1.39496E+01  1.38101E+01
   1.36823E+01  1.36225E+01  1.36854E+01  1.38793E+01  1.41594E+01  1.44621E+01  1.47331E+01  1.49137E+01  1.49592E+01  1.48759E+01
   1.47009E+01  1.44752E+01  1.42202E+01  1.39417E+01  1.36546E+01  1.33653E+01  1.30677E+01  1.27611E+01  1.24477E+01  1.21308E+01
   1.18141E+01  1.15014E+01  1.11962E+01  1.09020E+01  1.06219E+01  1.03583E+01  1.01137E+01  9.89006E+00  9.68885E+00  9.51128E+00
   9.35825E+00  9.23039E+00  9.12815E+00  9.05174E+00  9.00117E+00  8.97618E+00  8.97638E+00  9.00113E+00  9.04956E+00  9.12046E+00
   9.21224E+00  9.32290E+00  9.45002E+00  9.59077E+00  9.74181E+00  9.89933E+00  1.00591E+01  1.02166E+01  1.03671E+01  1.05058E+01
   1.06279E+01  1.07291E+01  1.08051E+01  1.08526E+01  1.08689E+01  1.08521E+01  1.08015E+01  1.07169E+01  1.05997E+01  1.04516E+01
   1.02755E+01  1.00749E+01  9.85363E+00  9.61604E+00  9.36648E+00  9.10934E+00  8.84880E+00  8.58871E+00  8.33244E+00  8.08290E+00
   7.84247E+00  7.61301E+00  7.39586E+00  7.19182E+00  7.00129E+00  6.82429E+00  6.66056E+00  6.50964E+00  6.37086E+00  6.24341E+00
   6.12642E+00  6.01901E+00  5.92034E+00  5.82957E+00  5.74590E+00  5.66854E+00  5.59681E+00  5.53009E+00  5.46785E+00  5.40960E+00
   5.35488E+00  5.30327E+00  5.25443E+00  5.20808E+00  5.16397E+00  5.12186E+00  5.08151E+00  5.04273E+00  5.00538E+00  4.96934E+00
   4.93448E+00  4.90068E+00  4.86783E+00  4.83583E+00  4.80463E+00  4.77418E+00  4.74441E+00  4.71525E+00  4.68662E+00  4.65850E+00
   4.63086E+00  4.60367E+00  4.57689E+00  4.55047E+00  4.52437E+00  4.49859E+00  4.47312E+00  4.44793E+00  4.42300E+00  4.39828E+00
   4.37377E+00  4.34948E+00  4.32539E+00  4.30149E+00  4.27775E+00  4.25416E+00  4.23070E+00  4.20740E+00  4.18425E+00  4.16122E+00
   4.13829E+00  4.11545E+00  4.09272E+00  4.07011E+00  4.04760E+00  4.02517E+00  4.00282E+00  3.98054E+00  3.95835E+00  3.93626E+00
   3.91425E+00  3.89231E+00  3.87042E+00  3.84862E+00  3.82691E+00  3.80530E+00  3.78376E+00  3.76230E+00
 NY background values follow
     4.648E+01    4.616E+01    4.583E+01    4.551E+01    4.518E+01    4.486E+01    4.453E+01    4.421E+01    4.389E+01    4.356E+01
     4.324E+01    4.291E+01    4.259E+01    4.226E+01    4.194E+01    4.162E+01    4.129E+01    4.097E+01    4.065E+01    4.032E+01
     4.000E+01    3.968E+01    3.936E+01    3.904E+01    3.872E+01    3.840E+01    3.808E+01    3.777E+01    3.745E+01    3.713E+01
     3.682E+01    3.650E+01    3.619E+01    3.588E+01    3.557E+01    3.526E+01    3.495E+01    3.464E+01    3.433E+01    3.403E+01
     3.372E+01    3.342E+01    3.312E+01    3.281E+01    3.251E+01    3.222E+01    3.192E+01    3.162E+01    3.133E+01    3.104E+01
     3.075E+01    3.046E+01    3.017E+01    2.988E+01    2.960E+01    2.931E+01    2.903E+01    2.875E+01    2.847E+01    2.820E+01
     2.792E+01    2.765E+01    2.738E+01    2.711E+01    2.684E+01    2.657E+01    2.631E+01    2.604E+01    2.578E+01    2.552E+01
     2.526E+01    2.501E+01    2.475E+01    2.450E+01    2.425E+01    2.400E+01    2.376E+01    2.351E+01    2.327E+01    2.303E+01
     2.279E+01    2.255E+01    2.232E+01    2.208E+01    2.185E+01    2.163E+01    2.140E+01    2.117E+01    2.095E+01    2.073E+01
     2.051E+01    2.030E+01    2.008E+01    1.987E+01    1.966E+01    1.945E+01    1.925E+01    1.904E+01    1.884E+01    1.864E+01
     1.844E+01    1.825E+01    1.805E+01    1.786E+01    1.767E+01    1.748E+01    1.729E+01    1.711E+01    1.692E+01    1.674E+01
     1.656E+01    1.638E+01    1.620E+01    1.603E+01    1.585E+01    1.568E+01    1.551E+01    1.534E+01    1.517E+01    1.500E+01
     1.484E+01    1.467E+01    1.451E+01    1.435E+01    1.419E+01    1.403E+01    1.387E+01    1.371E+01    1.356E+01    1.340E+01
     1.325E+01    1.309E+01    1.294E+01    1.279E+01    1.264E+01    1.249E+01    1.234E+01    1.220E+01    1.205E+01    1.191E+01
     1.176E+01    1.162E+01    1.148E+01    1.133E+01    1.119E+01    1.106E+01    1.092E+01    1.078E+01    1.065E+01    1.051E+01
     1.038E+01    1.025E+01    1.012E+01    9.989E+00    9.862E+00    9.736E+00    9.611E+00    9.488E+00    9.367E+00    9.247E+00
     9.129E+00    9.012E+00    8.897E+00    8.784E+00    8.672E+00    8.562E+00    8.454E+00    8.348E+00    8.243E+00    8.141E+00
     8.040E+00    7.941E+00    7.844E+00    7.749E+00    7.656E+00    7.565E+00    7.476E+00    7.389E+00    7.305E+00    7.222E+00
     7.142E+00    7.064E+00    6.988E+00    6.914E+00    6.843E+00    6.773E+00    6.706E+00    6.640E+00    6.577E+00    6.516E+00
     6.456E+00    6.399E+00    6.343E+00    6.289E+00    6.237E+00    6.187E+00    6.139E+00    6.092E+00    6.047E+00    6.003E+00
     5.961E+00    5.921E+00    5.882E+00    5.845E+00    5.809E+00    5.774E+00    5.741E+00    5.709E+00    5.679E+00    5.650E+00
     5.622E+00    5.595E+00    5.570E+00    5.545E+00    5.522E+00    5.500E+00    5.479E+00    5.459E+00    5.440E+00    5.421E+00
     5.404E+00    5.388E+00    5.372E+00    5.357E+00    5.343E+00    5.330E+00    5.317E+00    5.305E+00    5.293E+00    5.283E+00
     5.273E+00    5.263E+00    5.254E+00    5.246E+00    5.238E+00    5.231E+00    5.225E+00    5.219E+00    5.213E+00    5.208E+00
     5.204E+00    5.200E+00    5.196E+00    5.194E+00    5.191E+00    5.189E+00    5.188E+00    5.187E+00    5.186E+00    5.186E+00
     5.186E+00    5.187E+00    5.188E+00    5.190E+00    5.192E+00    5.194E+00    5.196E+00    5.199E+00    5.203E+00    5.206E+00
     5.210E+00    5.215E+00    5.219E+00    5.224E+00    5.229E+00    5.235E+00    5.241E+00    5.247E+00    5.253E+00    5.259E+00
     5.266E+00    5.273E+00    5.280E+00    5.287E+00    5.295E+00    5.302E+00    5.310E+00    5.318E+00    5.326E+00    5.334E+00
     5.343E+00    5.351E+00    5.360E+00    5.368E+00    5.377E+00    5.386E+00    5.395E+00    5.403E+00    5.412E+00    5.421E+00
     5.430E+00    5.439E+00    5.448E+00    5.457E+00    5.466E+00    5.475E+00    5.484E+00    5.492E+00    5.501E+00    5.510E+00
     5.518E+00    5.527E+00    5.535E+00    5.543E+00    5.551E+00    5.559E+00    5.567E+00    5.575E+00    5.582E+00    5.589E+00
     5.596E+00    5.603E+00    5.610E+00    5.616E+00    5.622E+00    5.628E+00    5.634E+00    5.640E+00    5.645E+00    5.650E+00
     5.654E+00    5.659E+00    5.663E+00    5.666E+00    5.670E+00    5.673E+00    5.676E+00    5.679E+00    5.682E+00    5.684E+00
     5.686E+00    5.687E+00    5.689E+00    5.690E+00    5.691E+00    5.692E+00    5.692E+00    5.692E+00    5.692E+00    5.692E+00
     5.691E+00    5.690E+00    5.689E+00    5.688E+00    5.686E+00    5.684E+00    5.682E+00    5.680E+00    5.677E+00    5.674E+00
     5.671E+00    5.667E+00    5.664E+00    5.660E+00    5.656E+00    5.651E+00    5.646E+00    5.642E+00    5.636E+00    5.631E+00
     5.625E+00    5.619E+00    5.613E+00    5.607E+00    5.600E+00    5.593E+00    5.586E+00    5.579E+00    5.571E+00    5.563E+00
     5.555E+00    5.547E+00    5.539E+00    5.530E+00    5.521E+00    5.512E+00    5.503E+00    5.494E+00    5.484E+00    5.474E+00
     5.464E+00    5.454E+00    5.444E+00    5.433E+00    5.423E+00    5.412E+00    5.401E+00    5.390E+00    5.378E+00    5.367E+00
     5.355E+00    5.344E+00    5.332E+00    5.320E+00    5.307E+00    5.295E+00    5.283E+00    5.270E+00    5.258E+00    5.245E+00
     5.232E+00    5.219E+00    5.206E+00    5.193E+00    5.180E+00    5.166E+00    5.153E+00    5.140E+00    5.126E+00    5.112E+00
     5.099E+00    5.085E+00    5.071E+00    5.057E+00    5.043E+00    5.029E+00    5.015E+00    5.000E+00    4.986E+00    4.972E+00
     4.957E+00    4.942E+00    4.928E+00    4.913E+00    4.898E+00    4.883E+00    4.868E+00    4.853E+00    4.838E+00    4.823E+00
     4.808E+00    4.792E+00    4.777E+00    4.761E+00    4.746E+00    4.730E+00    4.715E+00    4.699E+00    4.683E+00    4.667E+00
     4.651E+00    4.635E+00    4.619E+00    4.602E+00    4.586E+00    4.570E+00    4.553E+00    4.537E+00    4.520E+00    4.504E+00
     4.487E+00    4.470E+00    4.453E+00    4.436E+00    4.419E+00    4.402E+00    4.385E+00    4.368E+00    4.350E+00    4.333E+00
     4.316E+00    4.298E+00    4.281E+00    4.263E+00    4.245E+00    4.228E+00    4.210E+00    4.192E+00    4.174E+00    4.156E+00
     4.138E+00    4.120E+00    4.102E+00    4.084E+00    4.065E+00    4.047E+00    4.029E+00    4.010E+00    3.992E+00    3.973E+00
     3.955E+00    3.936E+00    3.917E+00    3.899E+00    3.880E+00    3.861E+00    3.842E+00    3.823E+00    3.805E+00    3.786E+00
     3.767E+00    3.747E+00    3.728E+00    3.709E+00    3.690E+00    3.671E+00    3.652E+00    3.632E+00
 Ala      Conc. = 7.68E+01
