 LCModel (Version 6.3-1L) Copyright: S.W. Provencher.          Ref.: Magn. Reson. Med. 30:672-679 (1993).                
 Slice#2 Row#11 Col#13  PD_05_press_1_raw_act
 36 lines in following concentration table = NCONC+1
    Conc.  %SD /Cr+PCr  Metabolite                                         
 2.43E+03  19%  81.551 Ala                                                 
    7.807  57%   0.262 Asp                                                 
   29.825  82%   1.000 Cr                                                  
    0.000 999%   0.000 PCr                                                 
    4.704  57%   0.158 GABA                                                
    4.788  56%   0.161 Glc                                                 
  536.948  38%  18.004 Gln                                                 
 1.34E+03  20%  44.769 Glu                                                 
    0.000 999%   0.000 GPC                                                 
   18.312  53%   0.614 PCh                                                 
    0.000 999%   0.000 GSH                                                 
  118.019  91%   3.957 Ins                                                 
  602.765  89%  20.210 Lac                                                 
   13.524 445%   0.453 NAA                                                 
   57.571 107%   1.930 NAAG                                                
    1.643  55% 5.5E-02 Scyllo                                              
    8.258  54%   0.277 Tau                                                 
    2.598 158% 8.7E-02 -CrCH2                                              
   18.312  53%   0.614 GPC+PCh                                             
   71.095  46%   2.384 NAA+NAAG                                            
   29.825  82%   1.000 Cr+PCr                                              
 1.87E+03  18%  62.772 Glu+Gln                                             
 1.96E+03  23%  65.651 Lip13a                                              
  240.474  39%   8.063 Lip13b                                              
  591.474  14%  19.832 Lip09                                               
    0.000 999%   0.000 MM09                                                
  219.931  48%   7.374 Lip20                                               
    0.000 999%   0.000 MM20                                                
    1.942 999% 6.5E-02 MM12                                                
 1.68E+03  17%  56.268 MM14                                                
 1.10E+03  16%  36.773 MM17                                                
 2.20E+03  18%  73.714 Lip13a+Lip13b                                       
 3.88E+03  12% 130.046 MM14+Lip13a+Lip13b+MM12                             
  591.474  14%  19.832 MM09+Lip09                                          
  219.931  48%   7.374 MM20+Lip20                                          
   6 lines in following misc. output table
  FWHM = 0.153 ppm    S/N =   8                                            
  Data shift = 0.061 ppm                                                   
  Ph:  52 deg    -107.9 deg/ppm                                            
  alphaB,S = 8.5E+01,   2.0E+02                                            
    6 spline knots.   Ns = 9(2)                                            
  (15) 2 infls.   (11) 1 extrs.                                            
  498 points on ppm-axis = NY
      4.000000     3.992357     3.984714     3.977070     3.969427     3.961784     3.954141     3.946497     3.938854     3.931211
      3.923568     3.915925     3.908281     3.900638     3.892995     3.885352     3.877708     3.870065     3.862422     3.854779
      3.847136     3.839492     3.831849     3.824206     3.816563     3.808919     3.801276     3.793633     3.785990     3.778347
      3.770703     3.763060     3.755417     3.747774     3.740130     3.732487     3.724844     3.717201     3.709558     3.701914
      3.694271     3.686628     3.678985     3.671341     3.663698     3.656055     3.648412     3.640769     3.633125     3.625482
      3.617839     3.610196     3.602552     3.594909     3.587266     3.579623     3.571980     3.564336     3.556693     3.549050
      3.541407     3.533763     3.526120     3.518477     3.510834     3.503191     3.495547     3.487904     3.480261     3.472618
      3.464974     3.457331     3.449688     3.442045     3.434402     3.426758     3.419115     3.411472     3.403829     3.396185
      3.388542     3.380899     3.373256     3.365613     3.357969     3.350326     3.342683     3.335040     3.327396     3.319753
      3.312110     3.304467     3.296824     3.289180     3.281537     3.273894     3.266251     3.258607     3.250964     3.243321
      3.235678     3.228034     3.220391     3.212748     3.205105     3.197462     3.189818     3.182175     3.174532     3.166889
      3.159245     3.151602     3.143959     3.136316     3.128673     3.121029     3.113386     3.105743     3.098100     3.090456
      3.082813     3.075170     3.067527     3.059884     3.052240     3.044597     3.036954     3.029311     3.021667     3.014024
      3.006381     2.998738     2.991095     2.983451     2.975808     2.968165     2.960522     2.952878     2.945235     2.937592
      2.929949     2.922306     2.914662     2.907019     2.899376     2.891733     2.884089     2.876446     2.868803     2.861160
      2.853517     2.845873     2.838230     2.830587     2.822944     2.815300     2.807657     2.800014     2.792371     2.784728
      2.777084     2.769441     2.761798     2.754155     2.746511     2.738868     2.731225     2.723582     2.715939     2.708295
      2.700652     2.693009     2.685366     2.677722     2.670079     2.662436     2.654793     2.647150     2.639506     2.631863
      2.624220     2.616577     2.608933     2.601290     2.593647     2.586004     2.578361     2.570717     2.563074     2.555431
      2.547788     2.540144     2.532501     2.524858     2.517215     2.509572     2.501928     2.494285     2.486642     2.478999
      2.471355     2.463712     2.456069     2.448426     2.440783     2.433139     2.425496     2.417853     2.410210     2.402566
      2.394923     2.387280     2.379637     2.371994     2.364350     2.356707     2.349064     2.341421     2.333777     2.326134
      2.318491     2.310848     2.303205     2.295561     2.287918     2.280275     2.272632     2.264988     2.257345     2.249702
      2.242059     2.234416     2.226772     2.219129     2.211486     2.203843     2.196199     2.188556     2.180913     2.173270
      2.165627     2.157983     2.150340     2.142697     2.135054     2.127410     2.119767     2.112124     2.104481     2.096838
      2.089194     2.081551     2.073908     2.066265     2.058621     2.050978     2.043335     2.035692     2.028049     2.020405
      2.012762     2.005119     1.997476     1.989833     1.982190     1.974546     1.966903     1.959260     1.951617     1.943974
      1.936331     1.928688     1.921045     1.913402     1.905759     1.898115     1.890472     1.882829     1.875186     1.867543
      1.859900     1.852257     1.844614     1.836971     1.829327     1.821684     1.814041     1.806398     1.798755     1.791112
      1.783469     1.775826     1.768183     1.760540     1.752896     1.745253     1.737610     1.729967     1.722324     1.714681
      1.707038     1.699395     1.691752     1.684108     1.676465     1.668822     1.661179     1.653536     1.645893     1.638250
      1.630607     1.622964     1.615321     1.607677     1.600034     1.592391     1.584748     1.577105     1.569462     1.561819
      1.554176     1.546533     1.538890     1.531246     1.523603     1.515960     1.508317     1.500674     1.493031     1.485388
      1.477745     1.470102     1.462458     1.454815     1.447172     1.439529     1.431886     1.424243     1.416600     1.408957
      1.401314     1.393671     1.386027     1.378384     1.370741     1.363098     1.355455     1.347812     1.340169     1.332526
      1.324883     1.317240     1.309596     1.301953     1.294310     1.286667     1.279024     1.271381     1.263738     1.256095
      1.248452     1.240808     1.233165     1.225522     1.217879     1.210236     1.202593     1.194950     1.187307     1.179664
      1.172021     1.164377     1.156734     1.149091     1.141448     1.133805     1.126162     1.118519     1.110876     1.103233
      1.095590     1.087946     1.080303     1.072660     1.065017     1.057374     1.049731     1.042088     1.034445     1.026802
      1.019158     1.011515     1.003872     0.996229     0.988586     0.980943     0.973300     0.965657     0.958014     0.950371
      0.942727     0.935084     0.927441     0.919798     0.912155     0.904512     0.896869     0.889226     0.881583     0.873940
      0.866296     0.858653     0.851010     0.843367     0.835724     0.828081     0.820438     0.812795     0.805152     0.797508
      0.789865     0.782222     0.774579     0.766936     0.759293     0.751650     0.744007     0.736364     0.728721     0.721077
      0.713434     0.705791     0.698148     0.690505     0.682862     0.675219     0.667576     0.659933     0.652290     0.644646
      0.637003     0.629360     0.621717     0.614074     0.606431     0.598788     0.591145     0.583502     0.575858     0.568215
      0.560572     0.552929     0.545286     0.537643     0.530000     0.522357     0.514714     0.507071     0.499427     0.491784
      0.484141     0.476498     0.468855     0.461212     0.453569     0.445925     0.438282     0.430639     0.422996     0.415353
      0.407710     0.400067     0.392424     0.384780     0.377137     0.369494     0.361851     0.354208     0.346565     0.338922
      0.331278     0.323635     0.315992     0.308349     0.300706     0.293063     0.285420     0.277777     0.270133     0.262490
      0.254847     0.247204     0.239561     0.231918     0.224275     0.216631     0.208988     0.201345
 NY phased data points follow
  -3.33792E+00 -3.05159E+00 -2.85337E+00 -3.50713E+00 -3.59699E+00 -2.70304E+00 -3.84184E+00 -3.38565E+00 -4.33814E+00 -3.27129E+00
  -2.66319E+00 -2.04386E+00 -2.27857E+00 -3.79125E+00 -2.44411E+00 -2.79444E+00 -1.41009E+00 -1.39961E+00 -2.22738E+00 -3.33521E+00
  -8.66877E-01 -1.66848E+00 -1.46818E+00 -2.10754E+00 -1.30318E+00 -3.72888E+00 -2.14573E+00 -8.18953E-01 -4.37445E-01 -6.74753E-01
  -1.55887E+00 -1.56323E+00 -1.20521E+00 -1.32535E+00 -8.25779E-01 -2.80260E+00 -1.16652E+00 -7.89070E-02 -8.29053E-01 -9.50131E-01
  -8.20349E-01 -9.24775E-01 -5.33238E-01 -3.11610E-01 -2.02264E+00 -5.65620E-01 -1.15851E+00 -7.26957E-01 -1.11300E+00 -5.57524E-01
  -6.12822E-01 -2.59907E-01  3.99412E-01 -9.10940E-01 -9.56549E-01 -9.13417E-01 -7.13408E-01 -4.33559E-02 -8.83275E-01  9.24283E-01
   5.67552E-01 -4.83756E-01  6.42926E-01 -2.36559E-01  4.43702E-01  1.28026E-01  1.65098E-01 -9.31963E-02 -2.28863E-01 -1.19114E+00
   1.31487E-01 -2.34545E-01  3.84821E-01  2.64356E+00  7.68158E-01  1.75361E-01  9.26904E-01  1.71503E-01  9.75874E-01  8.72487E-01
   1.63067E+00 -6.07673E-01  1.68846E+00  1.27534E+00  1.21748E+00  1.39239E+00  1.49359E+00  1.36176E+00  1.24543E+00  2.17623E+00
   8.68344E-02  2.34771E+00  2.44596E+00  3.03187E+00  2.33247E+00  2.14440E+00  9.62876E-01  9.12672E-01  1.59813E+00  7.46707E-01
   7.44630E-01  6.27780E-01  1.41437E+00  2.32685E+00  1.38875E+00  7.15519E-01  2.13560E+00  2.36520E+00  1.61935E+00  3.10214E+00
   1.42026E+00  1.92264E+00  3.31200E+00  3.20063E+00  2.66139E+00  2.25022E+00  3.54026E+00  3.01051E+00  3.52757E+00  3.11459E+00
   3.40805E+00  3.48759E+00  3.63184E+00  3.70818E+00  2.43908E+00  3.97687E+00  3.95419E+00  2.64838E+00  4.24777E+00  3.37650E+00
   2.98522E+00  3.27846E+00  3.29395E+00  3.45085E+00  3.87129E+00  3.23038E+00  3.52319E+00  3.94011E+00  3.64239E+00  3.62512E+00
   3.18336E+00  3.17924E+00  4.87840E+00  3.69490E+00  2.94940E+00  3.24421E+00  3.99728E+00  3.55147E+00  4.08688E+00  3.76000E+00
   3.39885E+00  4.68038E+00  4.56536E+00  5.42135E+00  4.52984E+00  4.72109E+00  4.42637E+00  4.48416E+00  4.62312E+00  5.14626E+00
   5.33736E+00  4.68078E+00  4.10184E+00  3.49963E+00  4.43374E+00  5.69064E+00  4.95386E+00  5.01707E+00  5.61288E+00  6.43804E+00
   4.88533E+00  4.98618E+00  6.03168E+00  5.35502E+00  5.45739E+00  5.12268E+00  6.29372E+00  6.11940E+00  6.33194E+00  5.65786E+00
   6.78532E+00  5.96956E+00  5.71514E+00  6.90457E+00  5.84565E+00  7.17649E+00  6.86818E+00  6.52169E+00  6.56117E+00  5.87065E+00
   6.35332E+00  7.47800E+00  5.92953E+00  6.28867E+00  5.94737E+00  5.95189E+00  5.39242E+00  5.38694E+00  6.65971E+00  6.93274E+00
   7.30793E+00  5.12821E+00  5.13882E+00  4.91496E+00  6.72425E+00  8.35036E+00  7.19430E+00  6.02182E+00  6.95051E+00  7.51775E+00
   7.49949E+00  8.07887E+00  6.51859E+00  7.77639E+00  7.89072E+00  8.84283E+00  6.76256E+00  6.65174E+00  6.86528E+00  8.58683E+00
   7.71662E+00  8.96613E+00  7.71350E+00  9.48389E+00  8.17498E+00  8.84221E+00  8.06786E+00  7.47122E+00  8.61624E+00  6.80666E+00
   9.25309E+00  7.80469E+00  8.68682E+00  7.20728E+00  7.58786E+00  9.94912E+00  7.81299E+00  9.07189E+00  9.33464E+00  8.44174E+00
   8.88006E+00  1.05354E+01  9.93015E+00  9.37702E+00  1.08026E+01  1.00971E+01  1.11335E+01  1.08137E+01  1.06005E+01  1.15040E+01
   1.20808E+01  1.11979E+01  1.28909E+01  1.34387E+01  1.15856E+01  1.06027E+01  1.26244E+01  1.29674E+01  1.12401E+01  1.18419E+01
   1.00796E+01  1.10076E+01  1.32609E+01  1.32368E+01  1.18853E+01  1.32607E+01  1.23565E+01  1.40740E+01  1.30812E+01  1.29437E+01
   1.46905E+01  1.39366E+01  1.48554E+01  1.32566E+01  1.40854E+01  1.47558E+01  1.43517E+01  1.46442E+01  1.39529E+01  1.48669E+01
   1.41051E+01  1.51847E+01  1.46058E+01  1.54213E+01  1.62493E+01  1.48966E+01  1.63812E+01  1.72115E+01  1.69090E+01  1.74937E+01
   1.89003E+01  1.86480E+01  1.73841E+01  1.82822E+01  1.78608E+01  1.86115E+01  1.91177E+01  1.92964E+01  2.05502E+01  2.04174E+01
   2.01243E+01  2.12102E+01  1.98234E+01  2.20669E+01  2.14057E+01  2.23395E+01  2.28032E+01  2.34055E+01  2.38964E+01  2.17522E+01
   2.21959E+01  2.39905E+01  2.41252E+01  2.32067E+01  2.49440E+01  2.52772E+01  2.61565E+01  2.64621E+01  2.75419E+01  2.73404E+01
   2.62086E+01  2.75172E+01  2.80602E+01  2.89688E+01  2.75297E+01  2.68637E+01  2.72866E+01  2.87031E+01  2.86008E+01  2.91192E+01
   2.89272E+01  3.00120E+01  2.89362E+01  2.75753E+01  2.84220E+01  2.82726E+01  3.06558E+01  2.88994E+01  2.78946E+01  2.81061E+01
   2.68415E+01  2.99081E+01  2.88052E+01  2.88595E+01  2.86519E+01  2.90707E+01  2.96677E+01  2.93393E+01  2.75852E+01  2.84827E+01
   2.83256E+01  2.78896E+01  2.78276E+01  2.75277E+01  2.77857E+01  2.71434E+01  2.55758E+01  2.50390E+01  2.39088E+01  2.34502E+01
   2.22370E+01  2.37055E+01  2.13175E+01  2.02847E+01  2.05898E+01  1.79755E+01  1.81403E+01  1.81672E+01  1.63901E+01  1.76114E+01
   1.73928E+01  1.58034E+01  1.70700E+01  1.50565E+01  1.58661E+01  1.38985E+01  1.44150E+01  1.48876E+01  1.49550E+01  1.43894E+01
   1.47763E+01  1.37001E+01  1.38552E+01  1.36224E+01  1.33189E+01  1.38663E+01  1.44467E+01  1.36000E+01  1.44308E+01  1.42797E+01
   1.45349E+01  1.45695E+01  1.23526E+01  1.39326E+01  1.48173E+01  1.18109E+01  1.49556E+01  1.35711E+01  1.44266E+01  1.12556E+01
   1.31072E+01  1.36575E+01  1.40390E+01  1.20320E+01  1.45304E+01  1.33813E+01  1.28845E+01  1.15937E+01  1.28736E+01  1.24351E+01
   1.29576E+01  1.26244E+01  1.13995E+01  1.33463E+01  1.26532E+01  1.14095E+01  1.22391E+01  1.14309E+01  1.04148E+01  1.23378E+01
   1.10151E+01  1.06222E+01  1.03919E+01  1.10514E+01  1.14451E+01  1.22962E+01  1.12343E+01  9.51257E+00  8.89827E+00  1.12572E+01
   1.12894E+01  1.11109E+01  9.16479E+00  9.62370E+00  1.13705E+01  1.03220E+01  9.71251E+00  1.01119E+01  9.19070E+00  9.70115E+00
   8.37113E+00  8.50064E+00  1.01722E+01  8.84426E+00  8.40140E+00  8.20831E+00  8.42498E+00  8.27234E+00  8.28515E+00  1.07576E+01
   8.55381E+00  7.32924E+00  8.99058E+00  7.80477E+00  9.52614E+00  7.03839E+00  8.46733E+00  7.38833E+00  8.56185E+00  7.25441E+00
   8.41456E+00  9.13200E+00  6.69004E+00  7.21458E+00  8.17128E+00  8.11932E+00  7.94052E+00  7.00910E+00  7.47463E+00  7.63762E+00
   7.94390E+00  7.31277E+00  8.46206E+00  6.93265E+00  7.89098E+00  7.99964E+00  6.95202E+00  6.49879E+00  6.35837E+00  6.64558E+00
   6.84036E+00  6.54635E+00  7.17292E+00  7.06291E+00  7.83974E+00  6.78168E+00  5.84571E+00  6.14773E+00  7.26772E+00  7.07827E+00
   6.71297E+00  7.00272E+00  6.41577E+00  9.20531E+00  7.12727E+00  7.19997E+00  5.49512E+00  6.50334E+00
 NY points of the fit to the data follow
  -3.04177E+00 -3.14331E+00 -2.98695E+00 -3.09495E+00 -2.98517E+00 -3.08654E+00 -2.97374E+00 -3.03698E+00 -2.83817E+00 -2.92333E+00
  -2.68106E+00 -2.84222E+00 -2.58508E+00 -2.83462E+00 -2.52716E+00 -2.84555E+00 -2.34762E+00 -2.68731E+00 -2.04457E+00 -2.50673E+00
  -1.82322E+00 -2.45314E+00 -1.73989E+00 -2.49682E+00 -1.72041E+00 -2.46796E+00 -1.55891E+00 -2.29091E+00 -1.35049E+00 -2.09133E+00
  -1.15695E+00 -1.88807E+00 -1.05328E+00 -1.78732E+00 -1.01841E+00 -1.67694E+00 -1.00795E+00 -1.58372E+00 -1.03180E+00 -1.41119E+00
  -9.16146E-01 -1.15881E+00 -7.43402E-01 -8.98016E-01 -5.98410E-01 -7.04551E-01 -5.59454E-01 -5.37637E-01 -3.35706E-01 -2.34582E-01
  -5.56938E-02  2.68379E-02  1.05274E-01  9.70579E-02  4.26858E-02 -2.46850E-02 -1.07664E-02  5.04865E-03  6.19060E-02  1.10522E-01
   1.61607E-01  1.99611E-01  2.56536E-01  2.73152E-01  3.22626E-01  3.33487E-01  3.79819E-01  3.86753E-01  4.30179E-01  4.38323E-01
   4.91545E-01  5.08726E-01  5.63688E-01  5.81697E-01  6.33736E-01  6.52309E-01  7.01879E-01  7.20965E-01  7.64156E-01  7.83122E-01
   8.14463E-01  8.30488E-01  8.53088E-01  8.67727E-01  8.79993E-01  8.91319E-01  9.15072E-01  9.29654E-01  9.56800E-01  9.68974E-01
   1.00293E+00  1.01213E+00  1.06270E+00  1.06987E+00  1.15184E+00  1.16244E+00  1.27524E+00  1.28763E+00  1.42252E+00  1.43319E+00
   1.58513E+00  1.59238E+00  1.75198E+00  1.75360E+00  1.92632E+00  1.92381E+00  2.09402E+00  2.08391E+00  2.24711E+00  2.23856E+00
   2.39372E+00  2.38124E+00  2.51599E+00  2.50099E+00  2.61131E+00  2.59611E+00  2.67501E+00  2.66645E+00  2.74264E+00  2.74747E+00
   2.82154E+00  2.83316E+00  2.89637E+00  2.90989E+00  2.96262E+00  2.98206E+00  3.06255E+00  3.09533E+00  3.18827E+00  3.22181E+00
   3.31757E+00  3.35028E+00  3.44554E+00  3.47600E+00  3.56736E+00  3.59416E+00  3.67794E+00  3.70076E+00  3.77455E+00  3.79148E+00
   3.85228E+00  3.87520E+00  3.93162E+00  3.95940E+00  4.01241E+00  4.04216E+00  4.09039E+00  4.12310E+00  4.16872E+00  4.21956E+00
   4.27597E+00  4.33163E+00  4.39034E+00  4.44722E+00  4.50669E+00  4.56315E+00  4.62198E+00  4.67656E+00  4.73301E+00  4.78516E+00
   4.83871E+00  4.88784E+00  4.93864E+00  4.98480E+00  5.03214E+00  5.07453E+00  5.11913E+00  5.15955E+00  5.20179E+00  5.23989E+00
   5.28048E+00  5.31674E+00  5.35804E+00  5.39515E+00  5.43964E+00  5.47927E+00  5.52152E+00  5.56175E+00  5.59927E+00  5.63424E+00
   5.66799E+00  5.69956E+00  5.72702E+00  5.76023E+00  5.79278E+00  5.83324E+00  5.86673E+00  5.92289E+00  5.97521E+00  6.04668E+00
   6.10486E+00  6.19963E+00  6.20909E+00  6.32071E+00  6.30962E+00  6.44969E+00  6.41025E+00  6.58834E+00  6.55562E+00  6.80032E+00
   6.69290E+00  6.98557E+00  6.83510E+00  7.17916E+00  6.98505E+00  7.35341E+00  7.17140E+00  7.62346E+00  7.40905E+00  7.90006E+00
   7.57187E+00  8.03355E+00  7.61648E+00  8.02386E+00  7.54413E+00  7.95390E+00  7.52296E+00  7.97313E+00  7.55977E+00  8.02858E+00
   7.68545E+00  8.15647E+00  7.85509E+00  8.28718E+00  7.99483E+00  8.37765E+00  8.10843E+00  8.46070E+00  8.27040E+00  8.58493E+00
   8.54511E+00  8.82491E+00  8.80346E+00  8.99309E+00  9.06382E+00  9.16965E+00  9.31085E+00  9.32499E+00  9.67050E+00  9.65116E+00
   1.00403E+01  9.95098E+00  1.03660E+01  1.01771E+01  1.05593E+01  1.02486E+01  1.06814E+01  1.03877E+01  1.08647E+01  1.06071E+01
   1.10933E+01  1.08897E+01  1.13713E+01  1.12408E+01  1.16784E+01  1.16430E+01  1.20205E+01  1.20317E+01  1.22891E+01  1.23613E+01
   1.25432E+01  1.26904E+01  1.27994E+01  1.29908E+01  1.30242E+01  1.31777E+01  1.31526E+01  1.33154E+01  1.32541E+01  1.34219E+01
   1.33733E+01  1.35473E+01  1.34753E+01  1.36317E+01  1.35750E+01  1.37579E+01  1.37576E+01  1.39793E+01  1.40743E+01  1.43094E+01
   1.44432E+01  1.46814E+01  1.48892E+01  1.51633E+01  1.54390E+01  1.57383E+01  1.60749E+01  1.63936E+01  1.67600E+01  1.71057E+01
   1.74899E+01  1.78437E+01  1.82244E+01  1.85686E+01  1.89226E+01  1.92444E+01  1.95681E+01  1.98561E+01  2.01340E+01  2.03771E+01
   2.06054E+01  2.08059E+01  2.09927E+01  2.11648E+01  2.13398E+01  2.15241E+01  2.17425E+01  2.20210E+01  2.24283E+01  2.29916E+01
   2.33215E+01  2.38703E+01  2.41472E+01  2.47424E+01  2.49562E+01  2.55795E+01  2.56112E+01  2.65121E+01  2.64689E+01  2.73000E+01
   2.70043E+01  2.76418E+01  2.71787E+01  2.77481E+01  2.72787E+01  2.79494E+01  2.77341E+01  2.85166E+01  2.83899E+01  2.89626E+01
   2.88233E+01  2.91304E+01  2.89522E+01  2.89494E+01  2.87347E+01  2.86302E+01  2.86091E+01  2.84406E+01  2.85030E+01  2.82812E+01
   2.86195E+01  2.85498E+01  2.88519E+01  2.87121E+01  2.88627E+01  2.87105E+01  2.88029E+01  2.86944E+01  2.86819E+01  2.90032E+01
   2.85490E+01  2.87600E+01  2.80059E+01  2.80193E+01  2.69057E+01  2.67060E+01  2.52821E+01  2.53226E+01  2.39941E+01  2.38713E+01
   2.25540E+01  2.23165E+01  2.10330E+01  2.07123E+01  1.95868E+01  1.92572E+01  1.83845E+01  1.80551E+01  1.74765E+01  1.72648E+01
   1.67531E+01  1.64866E+01  1.60492E+01  1.57169E+01  1.53463E+01  1.49741E+01  1.47189E+01  1.45184E+01  1.43510E+01  1.42088E+01
   1.40879E+01  1.39857E+01  1.39003E+01  1.38302E+01  1.37737E+01  1.37297E+01  1.36967E+01  1.36734E+01  1.36586E+01  1.36508E+01
   1.36486E+01  1.36507E+01  1.36556E+01  1.36617E+01  1.36676E+01  1.36717E+01  1.36724E+01  1.36684E+01  1.36581E+01  1.36402E+01
   1.36134E+01  1.35767E+01  1.35292E+01  1.34702E+01  1.33993E+01  1.33163E+01  1.32213E+01  1.31147E+01  1.29969E+01  1.28690E+01
   1.27319E+01  1.25868E+01  1.24351E+01  1.22783E+01  1.21178E+01  1.19550E+01  1.17915E+01  1.16287E+01  1.14677E+01  1.13097E+01
   1.11556E+01  1.10064E+01  1.08625E+01  1.07245E+01  1.05928E+01  1.04674E+01  1.03484E+01  1.02359E+01  1.01295E+01  1.00291E+01
   9.93431E+00  9.84490E+00  9.76045E+00  9.68057E+00  9.60489E+00  9.53302E+00  9.46461E+00  9.39927E+00  9.33669E+00  9.27654E+00
   9.21854E+00  9.16242E+00  9.10794E+00  9.05487E+00  9.00302E+00  8.95219E+00  8.90224E+00  8.85302E+00  8.80440E+00  8.75625E+00
   8.70849E+00  8.66101E+00  8.61374E+00  8.56660E+00  8.51955E+00  8.47249E+00  8.42541E+00  8.37824E+00  8.33096E+00  8.28351E+00
   8.23590E+00  8.18805E+00  8.13999E+00  8.09166E+00  8.04307E+00  7.99417E+00  7.94500E+00  7.89549E+00  7.84567E+00  7.79551E+00
   7.74504E+00  7.69421E+00  7.64306E+00  7.59154E+00  7.53971E+00  7.48751E+00  7.43501E+00  7.38215E+00  7.32899E+00  7.27548E+00
   7.22170E+00  7.16759E+00  7.11323E+00  7.05858E+00  7.00370E+00  6.94858E+00  6.89328E+00  6.83778E+00  6.78217E+00  6.72643E+00
   6.67066E+00  6.61487E+00  6.55916E+00  6.50356E+00  6.44821E+00  6.39318E+00  6.33865E+00  6.28475E+00
 NY background values follow
    -6.942E-01   -6.654E-01   -6.364E-01   -6.071E-01   -5.775E-01   -5.476E-01   -5.175E-01   -4.870E-01   -4.563E-01   -4.253E-01
    -3.940E-01   -3.624E-01   -3.306E-01   -2.984E-01   -2.660E-01   -2.334E-01   -2.004E-01   -1.672E-01   -1.337E-01   -9.995E-02
    -6.592E-02   -3.161E-02    2.958E-03    3.780E-02    7.290E-02    1.083E-01    1.439E-01    1.798E-01    2.160E-01    2.524E-01
     2.890E-01    3.260E-01    3.632E-01    4.006E-01    4.383E-01    4.763E-01    5.145E-01    5.529E-01    5.916E-01    6.306E-01
     6.698E-01    7.092E-01    7.489E-01    7.888E-01    8.290E-01    8.694E-01    9.100E-01    9.509E-01    9.920E-01    1.033E+00
     1.075E+00    1.117E+00    1.159E+00    1.201E+00    1.244E+00    1.286E+00    1.329E+00    1.372E+00    1.416E+00    1.459E+00
     1.503E+00    1.547E+00    1.591E+00    1.636E+00    1.680E+00    1.725E+00    1.770E+00    1.816E+00    1.861E+00    1.907E+00
     1.953E+00    1.999E+00    2.045E+00    2.091E+00    2.138E+00    2.185E+00    2.232E+00    2.279E+00    2.327E+00    2.374E+00
     2.422E+00    2.470E+00    2.518E+00    2.566E+00    2.615E+00    2.663E+00    2.712E+00    2.761E+00    2.810E+00    2.859E+00
     2.909E+00    2.958E+00    3.008E+00    3.058E+00    3.108E+00    3.158E+00    3.209E+00    3.259E+00    3.310E+00    3.361E+00
     3.411E+00    3.462E+00    3.514E+00    3.565E+00    3.616E+00    3.668E+00    3.720E+00    3.771E+00    3.823E+00    3.875E+00
     3.928E+00    3.980E+00    4.032E+00    4.085E+00    4.137E+00    4.190E+00    4.243E+00    4.296E+00    4.349E+00    4.402E+00
     4.455E+00    4.508E+00    4.562E+00    4.615E+00    4.669E+00    4.722E+00    4.776E+00    4.830E+00    4.884E+00    4.938E+00
     4.992E+00    5.046E+00    5.100E+00    5.154E+00    5.208E+00    5.262E+00    5.317E+00    5.371E+00    5.425E+00    5.480E+00
     5.534E+00    5.589E+00    5.643E+00    5.698E+00    5.753E+00    5.807E+00    5.862E+00    5.917E+00    5.972E+00    6.026E+00
     6.081E+00    6.136E+00    6.191E+00    6.245E+00    6.300E+00    6.355E+00    6.410E+00    6.465E+00    6.520E+00    6.574E+00
     6.629E+00    6.684E+00    6.739E+00    6.793E+00    6.848E+00    6.903E+00    6.957E+00    7.012E+00    7.067E+00    7.121E+00
     7.176E+00    7.230E+00    7.284E+00    7.339E+00    7.393E+00    7.447E+00    7.502E+00    7.556E+00    7.610E+00    7.664E+00
     7.718E+00    7.772E+00    7.826E+00    7.879E+00    7.933E+00    7.987E+00    8.040E+00    8.093E+00    8.147E+00    8.200E+00
     8.253E+00    8.306E+00    8.359E+00    8.412E+00    8.465E+00    8.517E+00    8.570E+00    8.622E+00    8.674E+00    8.727E+00
     8.779E+00    8.830E+00    8.882E+00    8.934E+00    8.985E+00    9.037E+00    9.088E+00    9.139E+00    9.190E+00    9.241E+00
     9.291E+00    9.342E+00    9.392E+00    9.442E+00    9.492E+00    9.542E+00    9.591E+00    9.641E+00    9.690E+00    9.739E+00
     9.788E+00    9.837E+00    9.885E+00    9.934E+00    9.982E+00    1.003E+01    1.008E+01    1.013E+01    1.017E+01    1.022E+01
     1.027E+01    1.031E+01    1.036E+01    1.041E+01    1.045E+01    1.050E+01    1.054E+01    1.059E+01    1.063E+01    1.068E+01
     1.072E+01    1.077E+01    1.081E+01    1.086E+01    1.090E+01    1.094E+01    1.099E+01    1.103E+01    1.107E+01    1.111E+01
     1.116E+01    1.120E+01    1.124E+01    1.128E+01    1.132E+01    1.136E+01    1.140E+01    1.144E+01    1.148E+01    1.152E+01
     1.156E+01    1.160E+01    1.164E+01    1.168E+01    1.172E+01    1.175E+01    1.179E+01    1.183E+01    1.187E+01    1.190E+01
     1.194E+01    1.197E+01    1.201E+01    1.205E+01    1.208E+01    1.211E+01    1.215E+01    1.218E+01    1.222E+01    1.225E+01
     1.228E+01    1.231E+01    1.235E+01    1.238E+01    1.241E+01    1.244E+01    1.247E+01    1.250E+01    1.253E+01    1.256E+01
     1.259E+01    1.262E+01    1.265E+01    1.268E+01    1.270E+01    1.273E+01    1.276E+01    1.279E+01    1.281E+01    1.284E+01
     1.286E+01    1.289E+01    1.291E+01    1.294E+01    1.296E+01    1.298E+01    1.301E+01    1.303E+01    1.305E+01    1.307E+01
     1.309E+01    1.312E+01    1.314E+01    1.316E+01    1.318E+01    1.319E+01    1.321E+01    1.323E+01    1.325E+01    1.327E+01
     1.328E+01    1.330E+01    1.332E+01    1.333E+01    1.335E+01    1.336E+01    1.338E+01    1.339E+01    1.340E+01    1.342E+01
     1.343E+01    1.344E+01    1.345E+01    1.346E+01    1.348E+01    1.349E+01    1.350E+01    1.350E+01    1.351E+01    1.352E+01
     1.353E+01    1.354E+01    1.354E+01    1.355E+01    1.356E+01    1.356E+01    1.357E+01    1.357E+01    1.358E+01    1.358E+01
     1.358E+01    1.358E+01    1.359E+01    1.359E+01    1.359E+01    1.359E+01    1.359E+01    1.359E+01    1.359E+01    1.359E+01
     1.358E+01    1.358E+01    1.358E+01    1.357E+01    1.357E+01    1.357E+01    1.356E+01    1.356E+01    1.355E+01    1.354E+01
     1.354E+01    1.353E+01    1.352E+01    1.351E+01    1.350E+01    1.349E+01    1.348E+01    1.347E+01    1.346E+01    1.345E+01
     1.344E+01    1.342E+01    1.341E+01    1.339E+01    1.338E+01    1.337E+01    1.335E+01    1.333E+01    1.332E+01    1.330E+01
     1.328E+01    1.326E+01    1.324E+01    1.322E+01    1.320E+01    1.318E+01    1.316E+01    1.314E+01    1.312E+01    1.310E+01
     1.307E+01    1.305E+01    1.303E+01    1.300E+01    1.298E+01    1.295E+01    1.292E+01    1.290E+01    1.287E+01    1.284E+01
     1.281E+01    1.278E+01    1.275E+01    1.272E+01    1.269E+01    1.266E+01    1.263E+01    1.259E+01    1.256E+01    1.253E+01
     1.249E+01    1.246E+01    1.242E+01    1.239E+01    1.235E+01    1.231E+01    1.228E+01    1.224E+01    1.220E+01    1.216E+01
     1.212E+01    1.208E+01    1.204E+01    1.200E+01    1.196E+01    1.191E+01    1.187E+01    1.183E+01    1.178E+01    1.174E+01
     1.169E+01    1.165E+01    1.160E+01    1.155E+01    1.151E+01    1.146E+01    1.141E+01    1.136E+01    1.131E+01    1.126E+01
     1.121E+01    1.116E+01    1.111E+01    1.105E+01    1.100E+01    1.095E+01    1.089E+01    1.084E+01    1.078E+01    1.073E+01
     1.067E+01    1.061E+01    1.056E+01    1.050E+01    1.044E+01    1.038E+01    1.032E+01    1.026E+01    1.020E+01    1.014E+01
     1.008E+01    1.002E+01    9.955E+00    9.891E+00    9.828E+00    9.764E+00    9.699E+00    9.633E+00    9.568E+00    9.501E+00
     9.434E+00    9.367E+00    9.299E+00    9.231E+00    9.162E+00    9.092E+00    9.023E+00    8.952E+00    8.881E+00    8.810E+00
     8.738E+00    8.665E+00    8.592E+00    8.519E+00    8.445E+00    8.370E+00    8.295E+00    8.220E+00
 Ala      Conc. = 2.43E+03
