 LCModel (Version 6.3-1L) Copyright: S.W. Provencher.          Ref.: Magn. Reson. Med. 30:672-679 (1993).                
 Slice#1 Row#1 Col#5  PD_05_press_1_raw_act
 36 lines in following concentration table = NCONC+1
    Conc.  %SD /Cr+PCr  Metabolite                                         
   27.094 121%   0.777 Ala                                                 
    6.205 112%   0.178 Asp                                                 
    0.000 999%   0.000 Cr                                                  
   34.887  56%   1.000 PCr                                                 
    3.554 117%   0.102 GABA                                                
    3.843 108%   0.110 Glc                                                 
  101.195  71%   2.901 Gln                                                 
   40.346 170%   1.156 Glu                                                 
    0.000 999%   0.000 GPC                                                 
    7.643  92%   0.219 PCh                                                 
   19.704 125%   0.565 GSH                                                 
   62.451 120%   1.790 Ins                                                 
   45.508  82%   1.304 Lac                                                 
   46.144  52%   1.323 NAA                                                 
   17.521 128%   0.502 NAAG                                                
    1.143 121% 3.3E-02 Scyllo                                              
    6.407 108%   0.184 Tau                                                 
    0.778 999% 2.2E-02 -CrCH2                                              
    7.643  92%   0.219 GPC+PCh                                             
   63.666  40%   1.825 NAA+NAAG                                            
   34.887  56%   1.000 Cr+PCr                                              
  141.540  69%   4.057 Glu+Gln                                             
 1.90E+03  11%  54.375 Lip13a                                              
    0.000 999%   0.000 Lip13b                                              
  467.539  19%  13.402 Lip09                                               
    0.000 999%   0.000 MM09                                                
  289.090  28%   8.287 Lip20                                               
 1.57E-02 999% 4.5E-04 MM20                                                
 5.02E-04 999% 1.4E-05 MM12                                                
    0.000 999%   0.000 MM14                                                
 2.42E-03 999% 6.9E-05 MM17                                                
 1.90E+03  11%  54.375 Lip13a+Lip13b                                       
 1.90E+03  11%  54.375 MM14+Lip13a+Lip13b+MM12                             
  467.539  19%  13.402 MM09+Lip09                                          
  289.106  28%   8.287 MM20+Lip20                                          
   6 lines in following misc. output table
  FWHM = 0.046 ppm    S/N =   2                                            
  Data shift = 0.054 ppm                                                   
  Ph:-133 deg     -43.8 deg/ppm                                            
  alphaB,S = 8.5E+01,   1.3E+01                                            
   14 spline knots.   Ns = 5(1)                                            
   2 inflections.     2 extrema                                            
  498 points on ppm-axis = NY
      4.000000     3.992357     3.984714     3.977070     3.969427     3.961784     3.954141     3.946497     3.938854     3.931211
      3.923568     3.915925     3.908281     3.900638     3.892995     3.885352     3.877708     3.870065     3.862422     3.854779
      3.847136     3.839492     3.831849     3.824206     3.816563     3.808919     3.801276     3.793633     3.785990     3.778347
      3.770703     3.763060     3.755417     3.747774     3.740130     3.732487     3.724844     3.717201     3.709558     3.701914
      3.694271     3.686628     3.678985     3.671341     3.663698     3.656055     3.648412     3.640769     3.633125     3.625482
      3.617839     3.610196     3.602552     3.594909     3.587266     3.579623     3.571980     3.564336     3.556693     3.549050
      3.541407     3.533763     3.526120     3.518477     3.510834     3.503191     3.495547     3.487904     3.480261     3.472618
      3.464974     3.457331     3.449688     3.442045     3.434402     3.426758     3.419115     3.411472     3.403829     3.396185
      3.388542     3.380899     3.373256     3.365613     3.357969     3.350326     3.342683     3.335040     3.327396     3.319753
      3.312110     3.304467     3.296824     3.289180     3.281537     3.273894     3.266251     3.258607     3.250964     3.243321
      3.235678     3.228034     3.220391     3.212748     3.205105     3.197462     3.189818     3.182175     3.174532     3.166889
      3.159245     3.151602     3.143959     3.136316     3.128673     3.121029     3.113386     3.105743     3.098100     3.090456
      3.082813     3.075170     3.067527     3.059884     3.052240     3.044597     3.036954     3.029311     3.021667     3.014024
      3.006381     2.998738     2.991095     2.983451     2.975808     2.968165     2.960522     2.952878     2.945235     2.937592
      2.929949     2.922306     2.914662     2.907019     2.899376     2.891733     2.884089     2.876446     2.868803     2.861160
      2.853517     2.845873     2.838230     2.830587     2.822944     2.815300     2.807657     2.800014     2.792371     2.784728
      2.777084     2.769441     2.761798     2.754155     2.746511     2.738868     2.731225     2.723582     2.715939     2.708295
      2.700652     2.693009     2.685366     2.677722     2.670079     2.662436     2.654793     2.647150     2.639506     2.631863
      2.624220     2.616577     2.608933     2.601290     2.593647     2.586004     2.578361     2.570717     2.563074     2.555431
      2.547788     2.540144     2.532501     2.524858     2.517215     2.509572     2.501928     2.494285     2.486642     2.478999
      2.471355     2.463712     2.456069     2.448426     2.440783     2.433139     2.425496     2.417853     2.410210     2.402566
      2.394923     2.387280     2.379637     2.371994     2.364350     2.356707     2.349064     2.341421     2.333777     2.326134
      2.318491     2.310848     2.303205     2.295561     2.287918     2.280275     2.272632     2.264988     2.257345     2.249702
      2.242059     2.234416     2.226772     2.219129     2.211486     2.203843     2.196199     2.188556     2.180913     2.173270
      2.165627     2.157983     2.150340     2.142697     2.135054     2.127410     2.119767     2.112124     2.104481     2.096838
      2.089194     2.081551     2.073908     2.066265     2.058621     2.050978     2.043335     2.035692     2.028049     2.020405
      2.012762     2.005119     1.997476     1.989833     1.982190     1.974546     1.966903     1.959260     1.951617     1.943974
      1.936331     1.928688     1.921045     1.913402     1.905759     1.898115     1.890472     1.882829     1.875186     1.867543
      1.859900     1.852257     1.844614     1.836971     1.829327     1.821684     1.814041     1.806398     1.798755     1.791112
      1.783469     1.775826     1.768183     1.760540     1.752896     1.745253     1.737610     1.729967     1.722324     1.714681
      1.707038     1.699395     1.691752     1.684108     1.676465     1.668822     1.661179     1.653536     1.645893     1.638250
      1.630607     1.622964     1.615321     1.607677     1.600034     1.592391     1.584748     1.577105     1.569462     1.561819
      1.554176     1.546533     1.538890     1.531246     1.523603     1.515960     1.508317     1.500674     1.493031     1.485388
      1.477745     1.470102     1.462458     1.454815     1.447172     1.439529     1.431886     1.424243     1.416600     1.408957
      1.401314     1.393671     1.386027     1.378384     1.370741     1.363098     1.355455     1.347812     1.340169     1.332526
      1.324883     1.317240     1.309596     1.301953     1.294310     1.286667     1.279024     1.271381     1.263738     1.256095
      1.248452     1.240808     1.233165     1.225522     1.217879     1.210236     1.202593     1.194950     1.187307     1.179664
      1.172021     1.164377     1.156734     1.149091     1.141448     1.133805     1.126162     1.118519     1.110876     1.103233
      1.095590     1.087946     1.080303     1.072660     1.065017     1.057374     1.049731     1.042088     1.034445     1.026802
      1.019158     1.011515     1.003872     0.996229     0.988586     0.980943     0.973300     0.965657     0.958014     0.950371
      0.942727     0.935084     0.927441     0.919798     0.912155     0.904512     0.896869     0.889226     0.881583     0.873940
      0.866296     0.858653     0.851010     0.843367     0.835724     0.828081     0.820438     0.812795     0.805152     0.797508
      0.789865     0.782222     0.774579     0.766936     0.759293     0.751650     0.744007     0.736364     0.728721     0.721077
      0.713434     0.705791     0.698148     0.690505     0.682862     0.675219     0.667576     0.659933     0.652290     0.644646
      0.637003     0.629360     0.621717     0.614074     0.606431     0.598788     0.591145     0.583502     0.575858     0.568215
      0.560572     0.552929     0.545286     0.537643     0.530000     0.522357     0.514714     0.507071     0.499427     0.491784
      0.484141     0.476498     0.468855     0.461212     0.453569     0.445925     0.438282     0.430639     0.422996     0.415353
      0.407710     0.400067     0.392424     0.384780     0.377137     0.369494     0.361851     0.354208     0.346565     0.338922
      0.331278     0.323635     0.315992     0.308349     0.300706     0.293063     0.285420     0.277777     0.270133     0.262490
      0.254847     0.247204     0.239561     0.231918     0.224275     0.216631     0.208988     0.201345
 NY phased data points follow
   1.91628E+00  1.29306E+00  2.44379E+00  1.46581E-01  1.51561E+00  4.09311E-01  1.41642E+00 -1.95536E+00  1.06592E+00  1.49047E+00
   3.49012E+00  4.10455E+00  2.33350E-01  2.44379E+00  5.44694E-01 -1.06714E+00  3.16900E+00  1.37603E+00  1.55176E-01  1.73755E+00
  -1.27350E-01  4.35517E-01 -5.05174E-01  6.03605E-01  3.24015E+00 -3.30098E-01 -3.47705E-01 -2.55123E-01  1.28782E+00  5.45517E-01
   3.45584E-01 -1.19317E+00  1.58841E+00  1.19773E+00  1.88278E+00  3.40902E+00  1.53869E+00  1.79547E+00 -3.02725E-01  6.67508E-01
  -1.45284E+00 -1.17248E+00  7.23412E-01 -3.38020E-01 -1.36547E+00  1.26096E+00  4.74948E-01  7.38933E-01 -2.36464E+00 -1.12518E+00
   1.50130E+00  1.80923E+00  2.00182E+00  1.82673E+00  9.93290E-01  9.49359E-01 -9.12666E-01  1.82709E+00  1.38034E-01 -6.83368E-01
   3.31463E+00  1.11745E+00 -9.34451E-01  5.85353E-01  3.01258E-01  2.91825E+00  1.58951E+00  3.87761E-01  4.73278E+00 -9.21705E-02
   3.16328E+00  5.79578E-02  1.25834E+00  1.94491E+00  2.07627E+00  3.21166E-01 -2.55407E-01  2.16089E+00  2.17606E+00  5.40337E+00
   8.93629E-01  4.24982E-02  2.33198E+00  8.92678E-01 -3.33071E-01  5.21369E+00  1.44753E+00 -2.70482E+00  7.58557E-02 -1.42134E+00
   2.71505E+00  1.50007E+00 -2.91719E+00 -5.32403E-01  2.76474E-02  2.02655E+00  2.65198E+00  3.50635E+00  9.01085E-01  5.51205E-01
  -1.29042E+00 -1.76816E-01  9.99436E-01  1.41267E+00  2.56522E+00  1.77987E+00 -2.52505E+00  3.30216E+00  1.77148E+00  9.96460E-01
   1.35289E+00 -9.75256E-01  1.31041E+00 -2.36685E+00 -1.32921E-01 -2.01214E+00  1.53503E+00  4.33307E+00 -6.19244E-01  2.89859E+00
   1.64788E+00  2.20280E+00 -1.63720E+00 -6.23373E-01  2.94333E+00  1.05217E+00  6.99548E-01  2.36712E+00  3.71207E-01  3.22009E+00
   2.33660E+00 -2.16188E+00  5.01905E+00  1.14146E+00  1.38706E+00  1.47225E+00  1.30124E+00  4.14826E-01  6.06791E-01 -2.21360E-01
  -7.76916E-01  1.62284E-01  8.77714E-01  3.67082E+00  2.68213E+00  2.04704E+00  8.54010E-01  2.02961E+00 -1.40808E+00 -1.55837E+00
   5.61660E-01  2.53832E-01 -1.54560E+00  1.51426E+00 -7.94293E-01 -9.92355E-02  1.69555E+00 -1.72309E-02  1.68611E+00 -7.60840E-01
  -1.32850E+00 -1.60475E+00 -6.14972E-01  4.45718E-01 -3.53092E-01  1.76152E+00  4.63516E-01  5.64402E-01  1.69309E+00  1.95227E+00
   2.84585E-01 -2.71265E+00 -7.42316E-01  8.16190E-02  1.81960E+00  1.05276E+00  1.24296E+00  4.72355E-01  8.73471E-03 -1.10614E+00
   2.39801E+00 -1.09725E+00  5.90912E-01 -1.78971E+00  2.48465E-01 -8.82584E-01 -3.79429E-01 -1.90488E+00 -1.31914E-01  1.00747E+00
   1.90270E+00 -3.26213E+00 -2.62901E+00  1.63950E+00  9.98023E-01 -1.58570E-01 -9.33298E-02  1.08265E+00 -2.46197E+00  2.59521E+00
   1.59410E+00  1.21065E-01  9.44557E-01  1.18771E+00  3.19093E+00  1.02354E+00  3.61618E+00  3.88256E+00  4.54634E-01  1.90748E+00
  -3.96896E+00 -6.47225E-01 -1.51079E+00 -4.73224E-01  4.68268E-01  7.79682E-01  3.84720E-01 -2.07632E-02 -6.70841E-01 -5.93888E-01
   2.93375E+00 -1.13956E+00 -1.24352E+00  9.35024E-01  1.98018E+00  2.71785E+00 -7.45151E-01 -1.43794E+00  1.95650E-01  1.03970E+00
  -2.11132E-01  1.17327E+00  3.27664E+00  3.31098E+00 -1.60077E-01  2.14453E+00  1.75615E+00  4.85818E+00  5.51680E-01  9.42202E-01
  -1.51708E+00  3.54609E-01  8.54318E-01  1.82863E+00  1.87994E+00 -2.88035E+00 -1.67513E-01  5.66962E-01  3.82872E-01  3.46910E+00
   2.99217E+00  2.32928E+00 -7.55522E-01  2.03616E+00  1.16199E+00  2.40320E+00  1.47548E+00  1.47870E+00  2.14056E+00  1.63260E+00
   2.95343E+00  3.73651E+00  2.14388E+00  3.76786E+00  1.53973E+00  2.88842E+00  7.79761E-01  1.09665E+00  1.75853E+00  2.68322E+00
   1.45019E+00 -1.14415E+00 -1.14965E+00  1.90111E+00  4.10074E-01  5.17055E-01 -1.64099E+00  6.89424E-01 -1.39226E+00 -2.55684E+00
   3.65818E+00 -1.71325E-01  3.13876E-01  2.90129E+00  2.29113E+00  2.07699E+00 -2.86660E-01  5.57920E-01 -1.20097E+00  2.54646E+00
   1.60534E+00  1.63497E+00 -7.04415E-01  2.23395E+00  1.35608E+00  4.99939E+00 -6.88359E-01  8.10917E-01  2.38494E+00  1.65297E-01
  -6.29403E-01  1.07050E+00  4.66733E+00  4.00215E+00  2.81942E+00 -2.07113E+00 -3.67678E-01 -5.68030E-01 -8.19781E-01  2.10657E-01
   2.67493E+00 -4.99451E-01 -1.99621E+00 -1.61678E-01 -9.15917E-01 -3.24428E+00 -1.23789E+00  1.25165E+00  3.40169E+00 -2.13276E+00
  -8.05097E-01  1.47825E-01  4.28599E-01 -1.58281E+00  9.07433E-01  4.02707E-03 -1.00815E+00  9.58171E-01 -2.14158E-01 -9.85395E-01
   2.33980E+00 -1.24556E+00  3.56627E-01  2.07571E+00 -3.92534E-02  2.08346E+00  3.53227E+00  4.11392E+00  4.41434E+00  4.68771E+00
   3.97048E+00  5.52904E+00  3.49744E+00  1.86888E+00  3.92754E+00  7.25452E+00  9.39460E+00  8.20828E+00  9.17962E+00  4.54182E+00
   8.29033E+00  3.73049E+00  9.25792E+00  3.26201E+00  5.23863E+00  7.39155E+00  4.58920E+00  5.83960E+00  8.14279E+00  2.71745E+00
   4.60946E+00  5.39603E+00  2.82926E+00  6.44751E+00  4.84526E+00  3.21063E+00  4.16100E+00  4.89988E+00  2.82179E+00  1.93225E+00
   2.92755E+00  6.48727E+00  4.66292E+00  5.85788E+00  7.59320E+00  5.57956E+00  5.73429E+00  5.94169E+00  2.92047E+00  4.17516E+00
   7.47708E+00  5.30289E+00  4.86543E+00  3.81948E+00  4.87120E+00  9.93222E+00  4.75971E+00  6.67581E+00  1.56484E+00  4.81065E+00
   6.47480E+00  2.62760E+00  2.77419E-01  3.08060E+00  1.34350E+00  3.11414E+00  1.31927E-02 -1.03852E-01  1.67933E+00  2.00493E+00
   2.03465E+00  1.78663E+00  3.54883E+00  3.53819E+00  2.05280E+00  1.42223E+00  1.35306E+00  3.00299E+00  1.12208E+00 -9.09184E-01
   1.02747E+00  2.03670E+00 -7.28524E-01  1.37900E+00  1.69977E+00  2.53616E-01  1.55274E+00  1.11497E+00  9.75634E-01  4.58401E-01
  -1.26643E+00 -8.50480E-01 -1.94224E-01  3.10099E-01  3.04183E-01 -8.39686E-01  2.51234E-01 -1.03654E+00  1.78619E+00 -2.74602E+00
  -8.10362E-01  1.43307E-01 -1.17887E-01  1.50141E+00  4.79279E+00 -2.32435E-01  2.04949E+00 -3.18977E+00 -2.61680E+00  1.93303E+00
  -1.75053E+00 -3.18961E-01 -5.18092E-01 -1.99213E+00 -1.34977E+00  1.14289E-01  1.45950E+00  1.28031E+00  5.33804E-01  5.44327E-01
   2.10772E-01 -2.00707E+00  1.68251E+00 -1.08937E+00  2.60014E+00 -1.14509E+00 -1.22690E+00 -1.03489E+00  1.59230E+00 -1.53161E+00
  -2.95768E+00 -2.92683E+00  1.93221E-01 -1.41820E+00 -8.69488E-01 -8.84680E-01  6.16350E-01 -2.76809E+00 -1.16472E+00 -9.53801E-01
   1.43208E+00 -1.69908E+00  3.98259E-01  2.01303E+00 -2.00259E+00 -4.37673E-01 -9.83611E-01 -1.82366E+00  1.39568E+00 -5.66347E-01
  -8.31696E-01  3.88963E-02  5.18734E-01  7.69577E-01 -1.23438E+00 -2.07622E+00 -1.07659E+00 -1.17827E+00 -6.53552E-01 -1.39859E+00
   1.85294E+00 -3.61560E+00  3.89884E-02  2.89563E+00 -2.85340E+00 -5.47843E-02  2.94735E-01 -4.43308E-01
 NY points of the fit to the data follow
   9.70661E-01  9.02782E-01  8.52927E-01  8.25992E-01  7.74359E-01  7.24654E-01  7.90352E-01  1.00956E+00  1.32372E+00  1.62571E+00
   1.82217E+00  1.87848E+00  1.79273E+00  1.58729E+00  1.30102E+00  1.01883E+00  8.69008E-01  8.13815E-01  7.83717E-01  7.74972E-01
   7.85832E-01  8.32757E-01  9.32958E-01  1.05444E+00  1.12045E+00  1.05160E+00  8.71167E-01  6.75757E-01  5.56318E-01  5.96657E-01
   8.20453E-01  1.17759E+00  1.57869E+00  1.86486E+00  1.91184E+00  1.71204E+00  1.36262E+00  1.01898E+00  7.41940E-01  5.86124E-01
   5.67925E-01  6.18378E-01  6.70867E-01  6.86676E-01  6.99510E-01  7.70679E-01  9.34929E-01  1.14657E+00  1.31796E+00  1.39287E+00
   1.35508E+00  1.21752E+00  1.00888E+00  7.81898E-01  6.12799E-01  5.44659E-01  5.52082E-01  5.95094E-01  6.62822E-01  7.52799E-01
   8.45500E-01  9.13838E-01  9.37544E-01  9.13093E-01  8.48381E-01  7.58525E-01  6.79021E-01  6.32523E-01  6.21033E-01  6.46697E-01
   6.92150E-01  7.40195E-01  7.80291E-01  8.07856E-01  8.24781E-01  8.29328E-01  8.19918E-01  7.92146E-01  7.49759E-01  7.12505E-01
   6.82640E-01  6.55464E-01  6.43281E-01  6.57076E-01  6.83561E-01  6.96929E-01  6.76600E-01  6.19100E-01  5.41716E-01  4.68290E-01
   4.15830E-01  3.91991E-01  4.02200E-01  4.51011E-01  5.13651E-01  5.63951E-01  5.89374E-01  5.84979E-01  5.29823E-01  4.31389E-01
   3.96550E-01  5.14712E-01  7.69855E-01  1.07751E+00  1.33118E+00  1.46358E+00  1.46014E+00  1.32050E+00  1.07450E+00  7.86432E-01
   5.82593E-01  5.20200E-01  5.02564E-01  4.95535E-01  4.91766E-01  4.92047E-01  4.93146E-01  4.91447E-01  4.85922E-01  4.76702E-01
   4.61342E-01  4.18837E-01  3.11800E-01  2.50443E-01  4.05524E-01  8.02849E-01  1.32764E+00  1.80166E+00  2.09059E+00  2.15713E+00
   2.01492E+00  1.71111E+00  1.31090E+00  9.51264E-01  7.90793E-01  7.14027E-01  6.29041E-01  5.40787E-01  4.75850E-01  4.57848E-01
   4.98108E-01  5.85825E-01  6.81173E-01  7.56920E-01  8.02781E-01  8.14705E-01  8.04916E-01  7.89529E-01  7.76620E-01  7.74466E-01
   7.75385E-01  7.73121E-01  7.64620E-01  7.52139E-01  7.39076E-01  7.32206E-01  7.38347E-01  7.51163E-01  7.57434E-01  7.48814E-01
   7.24117E-01  6.91068E-01  6.60934E-01  6.41446E-01  6.33024E-01  6.32232E-01  6.32307E-01  6.21122E-01  5.91200E-01  5.51116E-01
   5.15215E-01  4.93161E-01  4.83463E-01  4.66432E-01  4.34318E-01  3.95902E-01  3.62981E-01  3.39410E-01  3.21890E-01  3.04639E-01
   2.87972E-01  2.77948E-01  2.73648E-01  2.63041E-01  2.42161E-01  2.21420E-01  2.08943E-01  2.12643E-01  2.38815E-01  2.96454E-01
   3.78361E-01  4.63725E-01  5.22803E-01  5.24854E-01  4.47118E-01  2.96381E-01  1.05624E-01 -7.71285E-02 -1.87738E-01 -1.69449E-01
  -2.12414E-02  2.15673E-01  5.08738E-01  8.03053E-01  1.03456E+00  1.17193E+00  1.15506E+00  8.99272E-01  4.45307E-01 -5.41744E-02
  -4.56452E-01 -6.75202E-01 -6.53948E-01 -3.90603E-01  4.07805E-02  5.30761E-01  9.40704E-01  1.13402E+00  1.14263E+00  1.05469E+00
   8.78578E-01  6.62048E-01  4.85983E-01  4.17831E-01  4.47639E-01  5.42655E-01  6.83926E-01  8.43398E-01  9.68534E-01  1.00668E+00
   9.64036E-01  9.09563E-01  8.64945E-01  7.89081E-01  6.85011E-01  5.91804E-01  5.48856E-01  5.86416E-01  7.20103E-01  9.14252E-01
   1.10440E+00  1.23322E+00  1.24712E+00  1.10902E+00  8.91647E-01  6.87104E-01  5.24368E-01  4.29852E-01  4.44004E-01  5.50121E-01
   6.60429E-01  7.52669E-01  8.66901E-01  1.06101E+00  1.32312E+00  1.53291E+00  1.60326E+00  1.69144E+00  1.97453E+00  2.42245E+00
   2.86992E+00  3.13464E+00  3.16720E+00  3.02802E+00  2.67772E+00  2.11878E+00  1.47172E+00  1.01124E+00  8.34543E-01  7.41456E-01
   6.69643E-01  6.15523E-01  5.76572E-01  5.49311E-01  5.32485E-01  5.19879E-01  5.05990E-01  4.86961E-01  4.61888E-01  4.31815E-01
   4.01527E-01  3.76426E-01  3.58677E-01  3.47775E-01  3.41358E-01  3.37806E-01  3.36127E-01  3.34309E-01  3.30640E-01  3.26365E-01
   3.23816E-01  3.24081E-01  3.26746E-01  3.31853E-01  3.38834E-01  3.46415E-01  3.53461E-01  3.59286E-01  3.63981E-01  3.69554E-01
   3.77277E-01  3.87215E-01  3.99443E-01  4.13979E-01  4.30673E-01  4.49020E-01  4.68217E-01  4.88489E-01  5.10250E-01  5.33693E-01
   5.59091E-01  5.86625E-01  6.16448E-01  6.48804E-01  6.83927E-01  7.22062E-01  7.63496E-01  8.08546E-01  8.57536E-01  9.10673E-01
   9.67567E-01  1.02530E+00  1.08332E+00  1.18388E+00  1.36315E+00  1.58534E+00  1.77981E+00  1.89087E+00  1.90644E+00  1.85284E+00
   1.73425E+00  1.57001E+00  1.45321E+00  1.50014E+00  1.76760E+00  2.16459E+00  2.59054E+00  3.00525E+00  3.37867E+00  3.68379E+00
   3.89996E+00  4.02921E+00  4.14599E+00  4.35036E+00  4.70173E+00  5.15939E+00  5.59842E+00  5.90211E+00  6.01756E+00  5.96582E+00
   5.74872E+00  5.40577E+00  5.09898E+00  5.01428E+00  5.26117E+00  5.71786E+00  6.16924E+00  6.54098E+00  6.78830E+00  6.87342E+00
   6.77153E+00  6.50781E+00  6.23111E+00  6.00990E+00  5.80606E+00  5.60371E+00  5.39886E+00  5.19133E+00  4.98247E+00  4.77430E+00
   4.56908E+00  4.36908E+00  4.17645E+00  3.99312E+00  3.82081E+00  3.66094E+00  3.51467E+00  3.38286E+00  3.26609E+00  3.16463E+00
   3.07852E+00  3.00751E+00  2.95114E+00  2.90867E+00  2.87916E+00  2.86142E+00  2.85407E+00  2.85555E+00  2.86414E+00  2.87794E+00
   2.89499E+00  2.91323E+00  2.93061E+00  2.94511E+00  2.95479E+00  2.95787E+00  2.95276E+00  2.93813E+00  2.91293E+00  2.87644E+00
   2.82828E+00  2.76842E+00  2.69713E+00  2.61503E+00  2.52301E+00  2.42218E+00  2.31385E+00  2.19942E+00  2.08040E+00  1.95828E+00
   1.83454E+00  1.71055E+00  1.58759E+00  1.46678E+00  1.34907E+00  1.23528E+00  1.12601E+00  1.02174E+00  9.22770E-01  8.29273E-01
   7.41301E-01  6.58809E-01  5.81672E-01  5.09697E-01  4.42645E-01  3.80246E-01  3.22212E-01  2.68247E-01  2.18057E-01  1.71350E-01
   1.27844E-01  8.72763E-02  4.93991E-02  1.39838E-02 -1.91812E-02 -5.02926E-02 -7.95292E-02 -1.07053E-01 -1.33009E-01 -1.57530E-01
  -1.80735E-01 -2.02734E-01 -2.23627E-01 -2.43501E-01 -2.62435E-01 -2.80501E-01 -2.97765E-01 -3.14289E-01 -3.30126E-01 -3.45327E-01
  -3.59933E-01 -3.73987E-01 -3.87527E-01 -4.00588E-01 -4.13200E-01 -4.25391E-01 -4.37186E-01 -4.48610E-01 -4.59687E-01 -4.70439E-01
  -4.80883E-01 -4.91038E-01 -5.00918E-01 -5.10540E-01 -5.19918E-01 -5.29064E-01 -5.37990E-01 -5.46708E-01 -5.55227E-01 -5.63561E-01
  -5.71717E-01 -5.79706E-01 -5.87533E-01 -5.95207E-01 -6.02734E-01 -6.10122E-01 -6.17377E-01 -6.24505E-01 -6.31511E-01 -6.38401E-01
  -6.45180E-01 -6.51853E-01 -6.58424E-01 -6.64897E-01 -6.71276E-01 -6.77566E-01 -6.83768E-01 -6.89887E-01 -6.95927E-01 -7.01890E-01
  -7.07778E-01 -7.13595E-01 -7.19343E-01 -7.25025E-01 -7.30642E-01 -7.36198E-01 -7.41693E-01 -7.47130E-01
 NY background values follow
     7.608E-01    7.575E-01    7.542E-01    7.509E-01    7.476E-01    7.443E-01    7.410E-01    7.377E-01    7.344E-01    7.311E-01
     7.278E-01    7.245E-01    7.212E-01    7.179E-01    7.146E-01    7.113E-01    7.080E-01    7.047E-01    7.014E-01    6.981E-01
     6.948E-01    6.915E-01    6.882E-01    6.849E-01    6.816E-01    6.783E-01    6.750E-01    6.717E-01    6.684E-01    6.651E-01
     6.618E-01    6.585E-01    6.552E-01    6.519E-01    6.486E-01    6.453E-01    6.420E-01    6.387E-01    6.354E-01    6.321E-01
     6.288E-01    6.255E-01    6.222E-01    6.189E-01    6.156E-01    6.123E-01    6.090E-01    6.057E-01    6.024E-01    5.991E-01
     5.958E-01    5.925E-01    5.892E-01    5.859E-01    5.826E-01    5.793E-01    5.760E-01    5.727E-01    5.695E-01    5.662E-01
     5.629E-01    5.596E-01    5.563E-01    5.530E-01    5.497E-01    5.464E-01    5.431E-01    5.398E-01    5.365E-01    5.332E-01
     5.299E-01    5.266E-01    5.233E-01    5.200E-01    5.167E-01    5.134E-01    5.101E-01    5.068E-01    5.035E-01    5.002E-01
     4.969E-01    4.936E-01    4.903E-01    4.870E-01    4.837E-01    4.804E-01    4.771E-01    4.738E-01    4.705E-01    4.672E-01
     4.639E-01    4.606E-01    4.573E-01    4.540E-01    4.507E-01    4.474E-01    4.441E-01    4.408E-01    4.375E-01    4.342E-01
     4.309E-01    4.276E-01    4.243E-01    4.210E-01    4.177E-01    4.144E-01    4.111E-01    4.078E-01    4.045E-01    4.012E-01
     3.979E-01    3.946E-01    3.913E-01    3.880E-01    3.847E-01    3.814E-01    3.781E-01    3.748E-01    3.715E-01    3.682E-01
     3.649E-01    3.616E-01    3.583E-01    3.550E-01    3.517E-01    3.484E-01    3.451E-01    3.418E-01    3.385E-01    3.352E-01
     3.319E-01    3.286E-01    3.253E-01    3.220E-01    3.187E-01    3.154E-01    3.121E-01    3.088E-01    3.055E-01    3.022E-01
     2.989E-01    2.956E-01    2.923E-01    2.890E-01    2.857E-01    2.824E-01    2.791E-01    2.758E-01    2.725E-01    2.692E-01
     2.660E-01    2.627E-01    2.594E-01    2.561E-01    2.528E-01    2.495E-01    2.462E-01    2.429E-01    2.396E-01    2.363E-01
     2.330E-01    2.297E-01    2.264E-01    2.231E-01    2.198E-01    2.165E-01    2.132E-01    2.099E-01    2.066E-01    2.033E-01
     2.000E-01    1.967E-01    1.934E-01    1.901E-01    1.868E-01    1.835E-01    1.802E-01    1.769E-01    1.736E-01    1.703E-01
     1.670E-01    1.637E-01    1.604E-01    1.571E-01    1.538E-01    1.505E-01    1.472E-01    1.439E-01    1.406E-01    1.373E-01
     1.340E-01    1.307E-01    1.274E-01    1.241E-01    1.208E-01    1.175E-01    1.142E-01    1.109E-01    1.076E-01    1.043E-01
     1.010E-01    9.770E-02    9.440E-02    9.111E-02    8.781E-02    8.451E-02    8.121E-02    7.791E-02    7.461E-02    7.131E-02
     6.801E-02    6.471E-02    6.141E-02    5.812E-02    5.482E-02    5.152E-02    4.822E-02    4.492E-02    4.162E-02    3.832E-02
     3.502E-02    3.172E-02    2.842E-02    2.513E-02    2.183E-02    1.853E-02    1.523E-02    1.193E-02    8.631E-03    5.332E-03
     2.033E-03   -1.266E-03   -4.565E-03   -7.864E-03   -1.116E-02   -1.446E-02   -1.776E-02   -2.106E-02   -2.436E-02   -2.766E-02
    -3.096E-02   -3.426E-02   -3.755E-02   -4.085E-02   -4.415E-02   -4.745E-02   -5.075E-02   -5.405E-02   -5.735E-02   -6.065E-02
    -6.395E-02   -6.725E-02   -7.054E-02   -7.384E-02   -7.714E-02   -8.044E-02   -8.374E-02   -8.704E-02   -9.034E-02   -9.364E-02
    -9.694E-02   -1.002E-01   -1.035E-01   -1.068E-01   -1.101E-01   -1.134E-01   -1.167E-01   -1.200E-01   -1.233E-01   -1.266E-01
    -1.299E-01   -1.332E-01   -1.365E-01   -1.398E-01   -1.431E-01   -1.464E-01   -1.497E-01   -1.530E-01   -1.563E-01   -1.596E-01
    -1.629E-01   -1.662E-01   -1.695E-01   -1.728E-01   -1.761E-01   -1.794E-01   -1.827E-01   -1.860E-01   -1.893E-01   -1.926E-01
    -1.959E-01   -1.992E-01   -2.025E-01   -2.058E-01   -2.091E-01   -2.124E-01   -2.157E-01   -2.190E-01   -2.223E-01   -2.256E-01
    -2.289E-01   -2.322E-01   -2.355E-01   -2.388E-01   -2.421E-01   -2.454E-01   -2.487E-01   -2.520E-01   -2.553E-01   -2.586E-01
    -2.619E-01   -2.652E-01   -2.685E-01   -2.718E-01   -2.751E-01   -2.784E-01   -2.817E-01   -2.850E-01   -2.883E-01   -2.916E-01
    -2.949E-01   -2.982E-01   -3.015E-01   -3.048E-01   -3.081E-01   -3.114E-01   -3.147E-01   -3.180E-01   -3.213E-01   -3.246E-01
    -3.279E-01   -3.312E-01   -3.345E-01   -3.378E-01   -3.411E-01   -3.444E-01   -3.477E-01   -3.510E-01   -3.543E-01   -3.576E-01
    -3.609E-01   -3.642E-01   -3.675E-01   -3.708E-01   -3.741E-01   -3.774E-01   -3.807E-01   -3.840E-01   -3.872E-01   -3.905E-01
    -3.938E-01   -3.971E-01   -4.004E-01   -4.037E-01   -4.070E-01   -4.103E-01   -4.136E-01   -4.169E-01   -4.202E-01   -4.235E-01
    -4.268E-01   -4.301E-01   -4.334E-01   -4.367E-01   -4.400E-01   -4.433E-01   -4.466E-01   -4.499E-01   -4.532E-01   -4.565E-01
    -4.598E-01   -4.631E-01   -4.664E-01   -4.697E-01   -4.730E-01   -4.763E-01   -4.796E-01   -4.829E-01   -4.862E-01   -4.895E-01
    -4.928E-01   -4.961E-01   -4.994E-01   -5.027E-01   -5.060E-01   -5.093E-01   -5.126E-01   -5.159E-01   -5.192E-01   -5.225E-01
    -5.258E-01   -5.291E-01   -5.324E-01   -5.357E-01   -5.390E-01   -5.423E-01   -5.456E-01   -5.489E-01   -5.522E-01   -5.555E-01
    -5.588E-01   -5.621E-01   -5.654E-01   -5.687E-01   -5.720E-01   -5.753E-01   -5.786E-01   -5.819E-01   -5.852E-01   -5.885E-01
    -5.918E-01   -5.951E-01   -5.984E-01   -6.017E-01   -6.050E-01   -6.083E-01   -6.116E-01   -6.149E-01   -6.182E-01   -6.215E-01
    -6.248E-01   -6.281E-01   -6.314E-01   -6.347E-01   -6.380E-01   -6.413E-01   -6.446E-01   -6.479E-01   -6.512E-01   -6.545E-01
    -6.578E-01   -6.611E-01   -6.644E-01   -6.677E-01   -6.710E-01   -6.743E-01   -6.776E-01   -6.809E-01   -6.842E-01   -6.875E-01
    -6.908E-01   -6.941E-01   -6.974E-01   -7.007E-01   -7.040E-01   -7.073E-01   -7.106E-01   -7.138E-01   -7.171E-01   -7.204E-01
    -7.237E-01   -7.270E-01   -7.303E-01   -7.336E-01   -7.369E-01   -7.402E-01   -7.435E-01   -7.468E-01   -7.501E-01   -7.534E-01
    -7.567E-01   -7.600E-01   -7.633E-01   -7.666E-01   -7.699E-01   -7.732E-01   -7.765E-01   -7.798E-01   -7.831E-01   -7.864E-01
    -7.897E-01   -7.930E-01   -7.963E-01   -7.996E-01   -8.029E-01   -8.062E-01   -8.095E-01   -8.128E-01   -8.161E-01   -8.194E-01
    -8.227E-01   -8.260E-01   -8.293E-01   -8.326E-01   -8.359E-01   -8.392E-01   -8.425E-01   -8.458E-01   -8.491E-01   -8.524E-01
    -8.557E-01   -8.590E-01   -8.623E-01   -8.656E-01   -8.689E-01   -8.722E-01   -8.755E-01   -8.788E-01
 Ala      Conc. = 2.71E+01
