 LCModel (Version 6.3-1L) Copyright: S.W. Provencher.          Ref.: Magn. Reson. Med. 30:672-679 (1993).                
 Slice#2 Row#6 Col#1  PD_05_press_1_raw_act
 36 lines in following concentration table = NCONC+1
    Conc.  %SD /Cr+PCr  Metabolite                                         
   64.454  43%   0.800 Ala                                                 
   11.219 120%   0.139 Asp                                                 
    0.000 999%   0.000 Cr                                                  
   80.539  17%   1.000 PCr                                                 
    6.102 132% 7.6E-02 GABA                                                
    3.716 218% 4.6E-02 Glc                                                 
   46.811 115%   0.581 Gln                                                 
   98.874  61%   1.228 Glu                                                 
   20.081  26%   0.249 GPC                                                 
    0.000 999%   0.000 PCh                                                 
    0.000 999%   0.000 GSH                                                 
    0.000 999%   0.000 Ins                                                 
    0.000 999%   0.000 Lac                                                 
   91.644  20%   1.138 NAA                                                 
    6.135 312% 7.6E-02 NAAG                                                
    2.568 100% 3.2E-02 Scyllo                                              
    7.093 188% 8.8E-02 Tau                                                 
    0.000 999%   0.000 -CrCH2                                              
   20.081  26%   0.249 GPC+PCh                                             
   97.779  21%   1.214 NAA+NAAG                                            
   80.539  17%   1.000 Cr+PCr                                              
  145.685  55%   1.809 Glu+Gln                                             
    0.000 999%   0.000 Lip13a                                              
  202.429  27%   2.513 Lip13b                                              
   52.260  80%   0.649 Lip09                                               
   67.532  83%   0.839 MM09                                                
   33.609  89%   0.417 Lip20                                               
   87.226 103%   1.083 MM20                                                
   18.968 127%   0.236 MM12                                                
   41.863 165%   0.520 MM14                                                
   81.632  57%   1.014 MM17                                                
  202.429  27%   2.513 Lip13a+Lip13b                                       
  263.260  36%   3.269 MM14+Lip13a+Lip13b+MM12                             
  119.793  44%   1.487 MM09+Lip09                                          
  120.835  76%   1.500 MM20+Lip20                                          
   6 lines in following misc. output table
  FWHM = 0.046 ppm    S/N =   2                                            
  Data shift =-0.015 ppm                                                   
  Ph:  84 deg     -16.0 deg/ppm                                            
  alphaB,S = 6.6E-01,   2.4E+01                                            
   14 spline knots.   Ns = 5(1)                                            
  ( 5) 2 infls.   ( 7) 1 extrs.                                            
  498 points on ppm-axis = NY
      4.000000     3.992357     3.984714     3.977070     3.969427     3.961784     3.954141     3.946497     3.938854     3.931211
      3.923568     3.915925     3.908281     3.900638     3.892995     3.885352     3.877708     3.870065     3.862422     3.854779
      3.847136     3.839492     3.831849     3.824206     3.816563     3.808919     3.801276     3.793633     3.785990     3.778347
      3.770703     3.763060     3.755417     3.747774     3.740130     3.732487     3.724844     3.717201     3.709558     3.701914
      3.694271     3.686628     3.678985     3.671341     3.663698     3.656055     3.648412     3.640769     3.633125     3.625482
      3.617839     3.610196     3.602552     3.594909     3.587266     3.579623     3.571980     3.564336     3.556693     3.549050
      3.541407     3.533763     3.526120     3.518477     3.510834     3.503191     3.495547     3.487904     3.480261     3.472618
      3.464974     3.457331     3.449688     3.442045     3.434402     3.426758     3.419115     3.411472     3.403829     3.396185
      3.388542     3.380899     3.373256     3.365613     3.357969     3.350326     3.342683     3.335040     3.327396     3.319753
      3.312110     3.304467     3.296824     3.289180     3.281537     3.273894     3.266251     3.258607     3.250964     3.243321
      3.235678     3.228034     3.220391     3.212748     3.205105     3.197462     3.189818     3.182175     3.174532     3.166889
      3.159245     3.151602     3.143959     3.136316     3.128673     3.121029     3.113386     3.105743     3.098100     3.090456
      3.082813     3.075170     3.067527     3.059884     3.052240     3.044597     3.036954     3.029311     3.021667     3.014024
      3.006381     2.998738     2.991095     2.983451     2.975808     2.968165     2.960522     2.952878     2.945235     2.937592
      2.929949     2.922306     2.914662     2.907019     2.899376     2.891733     2.884089     2.876446     2.868803     2.861160
      2.853517     2.845873     2.838230     2.830587     2.822944     2.815300     2.807657     2.800014     2.792371     2.784728
      2.777084     2.769441     2.761798     2.754155     2.746511     2.738868     2.731225     2.723582     2.715939     2.708295
      2.700652     2.693009     2.685366     2.677722     2.670079     2.662436     2.654793     2.647150     2.639506     2.631863
      2.624220     2.616577     2.608933     2.601290     2.593647     2.586004     2.578361     2.570717     2.563074     2.555431
      2.547788     2.540144     2.532501     2.524858     2.517215     2.509572     2.501928     2.494285     2.486642     2.478999
      2.471355     2.463712     2.456069     2.448426     2.440783     2.433139     2.425496     2.417853     2.410210     2.402566
      2.394923     2.387280     2.379637     2.371994     2.364350     2.356707     2.349064     2.341421     2.333777     2.326134
      2.318491     2.310848     2.303205     2.295561     2.287918     2.280275     2.272632     2.264988     2.257345     2.249702
      2.242059     2.234416     2.226772     2.219129     2.211486     2.203843     2.196199     2.188556     2.180913     2.173270
      2.165627     2.157983     2.150340     2.142697     2.135054     2.127410     2.119767     2.112124     2.104481     2.096838
      2.089194     2.081551     2.073908     2.066265     2.058621     2.050978     2.043335     2.035692     2.028049     2.020405
      2.012762     2.005119     1.997476     1.989833     1.982190     1.974546     1.966903     1.959260     1.951617     1.943974
      1.936331     1.928688     1.921045     1.913402     1.905759     1.898115     1.890472     1.882829     1.875186     1.867543
      1.859900     1.852257     1.844614     1.836971     1.829327     1.821684     1.814041     1.806398     1.798755     1.791112
      1.783469     1.775826     1.768183     1.760540     1.752896     1.745253     1.737610     1.729967     1.722324     1.714681
      1.707038     1.699395     1.691752     1.684108     1.676465     1.668822     1.661179     1.653536     1.645893     1.638250
      1.630607     1.622964     1.615321     1.607677     1.600034     1.592391     1.584748     1.577105     1.569462     1.561819
      1.554176     1.546533     1.538890     1.531246     1.523603     1.515960     1.508317     1.500674     1.493031     1.485388
      1.477745     1.470102     1.462458     1.454815     1.447172     1.439529     1.431886     1.424243     1.416600     1.408957
      1.401314     1.393671     1.386027     1.378384     1.370741     1.363098     1.355455     1.347812     1.340169     1.332526
      1.324883     1.317240     1.309596     1.301953     1.294310     1.286667     1.279024     1.271381     1.263738     1.256095
      1.248452     1.240808     1.233165     1.225522     1.217879     1.210236     1.202593     1.194950     1.187307     1.179664
      1.172021     1.164377     1.156734     1.149091     1.141448     1.133805     1.126162     1.118519     1.110876     1.103233
      1.095590     1.087946     1.080303     1.072660     1.065017     1.057374     1.049731     1.042088     1.034445     1.026802
      1.019158     1.011515     1.003872     0.996229     0.988586     0.980943     0.973300     0.965657     0.958014     0.950371
      0.942727     0.935084     0.927441     0.919798     0.912155     0.904512     0.896869     0.889226     0.881583     0.873940
      0.866296     0.858653     0.851010     0.843367     0.835724     0.828081     0.820438     0.812795     0.805152     0.797508
      0.789865     0.782222     0.774579     0.766936     0.759293     0.751650     0.744007     0.736364     0.728721     0.721077
      0.713434     0.705791     0.698148     0.690505     0.682862     0.675219     0.667576     0.659933     0.652290     0.644646
      0.637003     0.629360     0.621717     0.614074     0.606431     0.598788     0.591145     0.583502     0.575858     0.568215
      0.560572     0.552929     0.545286     0.537643     0.530000     0.522357     0.514714     0.507071     0.499427     0.491784
      0.484141     0.476498     0.468855     0.461212     0.453569     0.445925     0.438282     0.430639     0.422996     0.415353
      0.407710     0.400067     0.392424     0.384780     0.377137     0.369494     0.361851     0.354208     0.346565     0.338922
      0.331278     0.323635     0.315992     0.308349     0.300706     0.293063     0.285420     0.277777     0.270133     0.262490
      0.254847     0.247204     0.239561     0.231918     0.224275     0.216631     0.208988     0.201345
 NY phased data points follow
   3.85554E+01  3.77862E+01  3.80085E+01  3.88150E+01  3.73631E+01  3.77528E+01  3.51761E+01  3.87990E+01  3.58345E+01  3.90347E+01
   3.66483E+01  3.73255E+01  3.46694E+01  3.60321E+01  3.52175E+01  3.19962E+01  3.37505E+01  3.41658E+01  3.15322E+01  3.17389E+01
   3.12014E+01  3.28950E+01  3.29237E+01  3.23032E+01  2.98243E+01  2.87853E+01  3.10057E+01  2.86244E+01  2.85981E+01  2.91005E+01
   2.86663E+01  2.75191E+01  2.83049E+01  2.78365E+01  2.90292E+01  2.84901E+01  2.69191E+01  2.78497E+01  2.68888E+01  2.65877E+01
   2.69073E+01  2.84369E+01  2.58708E+01  2.70425E+01  2.77446E+01  2.65825E+01  2.40999E+01  2.51143E+01  2.31736E+01  2.56593E+01
   2.61281E+01  2.35572E+01  2.51251E+01  2.30793E+01  2.20232E+01  2.48917E+01  2.26302E+01  2.33503E+01  2.34616E+01  2.29067E+01
   2.28871E+01  2.46599E+01  2.32511E+01  2.24298E+01  2.17683E+01  2.11215E+01  2.27006E+01  2.33070E+01  1.99570E+01  2.04225E+01
   2.20762E+01  1.98474E+01  2.11629E+01  2.23756E+01  2.03021E+01  1.97337E+01  1.97838E+01  1.92335E+01  2.09275E+01  1.97366E+01
   1.99329E+01  2.08632E+01  1.99384E+01  1.90646E+01  2.07517E+01  2.02055E+01  2.00857E+01  1.99562E+01  1.95420E+01  2.06247E+01
   1.77995E+01  1.78285E+01  1.87605E+01  1.75895E+01  1.61437E+01  2.13587E+01  1.82084E+01  1.93827E+01  1.83258E+01  2.07604E+01
   1.85846E+01  2.07048E+01  1.91488E+01  1.95656E+01  1.90839E+01  1.91614E+01  1.78664E+01  1.86205E+01  1.73488E+01  1.80718E+01
   1.69495E+01  1.85939E+01  1.58470E+01  1.62345E+01  1.72173E+01  1.71648E+01  1.53228E+01  1.55354E+01  1.67877E+01  1.62368E+01
   1.86006E+01  1.62896E+01  1.36311E+01  1.64069E+01  1.48861E+01  1.67537E+01  1.84932E+01  1.70240E+01  1.70461E+01  1.67553E+01
   1.52514E+01  1.60629E+01  1.48456E+01  1.67085E+01  1.62270E+01  1.62219E+01  1.51350E+01  1.73055E+01  1.24280E+01  1.29187E+01
   1.38308E+01  1.47340E+01  1.42121E+01  1.55345E+01  1.45553E+01  1.53159E+01  1.33705E+01  1.37990E+01  1.50892E+01  1.44298E+01
   1.25440E+01  1.39961E+01  1.31682E+01  1.36875E+01  1.35518E+01  1.27721E+01  1.22985E+01  1.12994E+01  1.24354E+01  1.45873E+01
   1.47885E+01  1.47263E+01  1.25121E+01  1.29630E+01  1.11595E+01  9.93216E+00  1.26582E+01  1.23066E+01  1.22010E+01  1.24796E+01
   1.19733E+01  1.25586E+01  1.36055E+01  1.16755E+01  1.17404E+01  1.36492E+01  1.06293E+01  1.04400E+01  1.08607E+01  1.13066E+01
   1.08555E+01  9.95161E+00  1.14788E+01  1.03449E+01  1.04790E+01  1.02777E+01  1.09547E+01  1.18451E+01  1.20984E+01  1.21370E+01
   1.26880E+01  1.05578E+01  1.09708E+01  1.04358E+01  1.00273E+01  1.12188E+01  9.56697E+00  1.02453E+01  9.77047E+00  1.14922E+01
   1.05239E+01  1.15217E+01  1.06087E+01  1.13078E+01  1.11128E+01  1.03758E+01  1.13220E+01  8.75578E+00  1.11152E+01  9.38625E+00
   1.22356E+01  1.16448E+01  1.11634E+01  1.28213E+01  1.02321E+01  1.18020E+01  1.26471E+01  1.06657E+01  1.08283E+01  9.72056E+00
   7.65976E+00  1.06453E+01  9.72681E+00  1.09672E+01  1.09760E+01  1.07400E+01  9.10519E+00  1.18487E+01  1.03920E+01  9.07524E+00
   9.71093E+00  8.92973E+00  1.03009E+01  9.88297E+00  1.06290E+01  7.88444E+00  1.01321E+01  8.28989E+00  1.05825E+01  9.75011E+00
   8.40515E+00  9.65079E+00  9.34943E+00  9.14319E+00  1.09710E+01  7.70271E+00  9.47547E+00  8.52884E+00  9.55749E+00  8.84902E+00
   9.35984E+00  9.58798E+00  9.56399E+00  9.38751E+00  1.04539E+01  9.68630E+00  1.00230E+01  1.18948E+01  1.10665E+01  9.74710E+00
   1.33893E+01  1.52129E+01  1.31641E+01  9.28066E+00  9.09615E+00  8.41931E+00  9.44068E+00  8.04002E+00  7.47384E+00  8.55371E+00
   9.90837E+00  7.79196E+00  8.83008E+00  8.59972E+00  7.88823E+00  6.66625E+00  9.01460E+00  8.31900E+00  7.69440E+00  9.17462E+00
   8.72857E+00  7.02503E+00  6.17107E+00  1.12121E+01  8.01097E+00  7.12506E+00  7.39118E+00  7.15253E+00  7.24733E+00  8.05296E+00
   8.99714E+00  7.21484E+00  7.80186E+00  9.29964E+00  8.34064E+00  8.72679E+00  7.42548E+00  9.35243E+00  5.38592E+00  1.02069E+01
   6.51705E+00  7.74023E+00  7.55897E+00  8.17633E+00  9.24317E+00  7.40409E+00  9.24110E+00  8.08292E+00  9.14762E+00  6.13172E+00
   8.63772E+00  8.06416E+00  9.08189E+00  9.41392E+00  7.49278E+00  7.70864E+00  7.38533E+00  7.76126E+00  8.98859E+00  7.38483E+00
   7.99167E+00  7.32430E+00  6.02443E+00  8.16562E+00  6.98643E+00  8.82147E+00  8.08312E+00  7.38672E+00  6.11636E+00  5.79450E+00
   6.42478E+00  6.04882E+00  5.54704E+00  6.22280E+00  6.84010E+00  6.60219E+00  9.40366E+00  7.34690E+00  6.06930E+00  6.55615E+00
   5.05455E+00  6.37449E+00  7.03952E+00  9.65763E+00  7.17483E+00  7.44028E+00  7.09191E+00  7.75049E+00  7.53797E+00  7.57797E+00
   8.18121E+00  7.72349E+00  8.17377E+00  7.97404E+00  8.24525E+00  6.38412E+00  8.17584E+00  8.85650E+00  6.23188E+00  7.55663E+00
   6.24646E+00  7.52554E+00  7.93164E+00  5.36170E+00  9.48743E+00  7.70853E+00  7.74303E+00  7.36788E+00  6.90164E+00  6.53608E+00
   6.63914E+00  6.35387E+00  4.91471E+00  4.52952E+00  5.60277E+00  4.48974E+00  4.10755E+00  5.82265E+00  6.85760E+00  4.27735E+00
   6.18022E+00  3.95796E+00  5.37666E+00  5.19553E+00  6.08196E+00  6.64499E+00  6.03834E+00  5.20096E+00  3.52284E+00  8.11842E+00
   5.35225E+00  4.42851E+00  6.17224E+00  6.93620E+00  5.78301E+00  5.25275E+00  4.70632E+00  7.77202E+00  6.64089E+00  5.06702E+00
   6.42339E+00  6.50919E+00  6.46712E+00  6.14815E+00  4.79424E+00  6.57600E+00  4.31176E+00  5.80040E+00  7.80804E+00  5.74234E+00
   4.85089E+00  6.86578E+00  6.44786E+00  5.71232E+00  3.64295E+00  4.62951E+00  4.96000E+00  4.78973E+00  4.64914E+00  5.08500E+00
   6.87938E+00  6.77642E+00  4.04608E+00  5.38849E+00  6.11385E+00  2.48103E+00  5.76130E+00  4.23451E+00  4.14834E+00  4.91194E+00
   5.33408E+00  5.66626E+00  5.90447E+00  4.15683E+00  5.22110E+00  4.56925E+00  3.58904E+00  4.98442E+00  4.66601E+00  5.39904E+00
   5.69034E+00  5.43356E+00  4.55390E+00  4.07286E+00  5.21002E+00  4.89933E+00  3.77233E+00  3.82372E+00  3.13965E+00  4.24024E+00
   4.65840E+00  4.80290E+00  4.74697E+00  4.21183E+00  3.48234E+00  4.71617E+00  4.72741E+00  2.99688E+00  3.73867E+00  5.17055E+00
   4.75500E+00  3.73380E+00  4.68882E+00  3.19156E+00  3.62913E+00  5.43188E+00  3.69733E+00  4.74471E+00  4.68145E+00  2.49517E+00
   3.52075E+00  3.40727E+00  4.13204E+00  1.07369E+00  3.95733E+00  3.16338E+00  4.04086E+00  4.22376E+00  2.85217E+00  3.94861E+00
   2.92274E+00  4.24608E+00  4.35874E+00  4.14047E+00  3.42863E+00  2.62795E+00  4.24412E+00  4.95707E+00  2.12481E+00  2.19627E+00
   3.09332E+00  4.38768E+00  4.41546E+00  4.64747E+00  4.33117E+00  3.40483E+00  2.17037E+00  2.24696E+00
 NY points of the fit to the data follow
   3.59259E+01  3.57340E+01  3.55582E+01  3.54221E+01  3.54246E+01  3.55896E+01  3.58124E+01  3.60360E+01  3.62085E+01  3.61974E+01
   3.58455E+01  3.51610E+01  3.43791E+01  3.37294E+01  3.32451E+01  3.28473E+01  3.25241E+01  3.22704E+01  3.20497E+01  3.18702E+01
   3.17360E+01  3.16060E+01  3.14321E+01  3.11924E+01  3.08823E+01  3.04945E+01  3.00545E+01  2.96542E+01  2.93986E+01  2.93172E+01
   2.93428E+01  2.93920E+01  2.93968E+01  2.92814E+01  2.90155E+01  2.86417E+01  2.82481E+01  2.79207E+01  2.76917E+01  2.75350E+01
   2.73994E+01  2.72529E+01  2.70861E+01  2.69028E+01  2.67025E+01  2.64908E+01  2.62840E+01  2.60858E+01  2.58892E+01  2.57009E+01
   2.55231E+01  2.53400E+01  2.51425E+01  2.49402E+01  2.47418E+01  2.45465E+01  2.43523E+01  2.41613E+01  2.39751E+01  2.37947E+01
   2.36191E+01  2.34470E+01  2.32781E+01  2.31112E+01  2.29465E+01  2.27825E+01  2.26175E+01  2.24514E+01  2.22853E+01  2.21208E+01
   2.19621E+01  2.18121E+01  2.16684E+01  2.15277E+01  2.13867E+01  2.12410E+01  2.10869E+01  2.09246E+01  2.07608E+01  2.06050E+01
   2.04638E+01  2.03453E+01  2.02472E+01  2.01555E+01  2.00618E+01  1.99620E+01  1.98454E+01  1.96979E+01  1.95206E+01  1.93365E+01
   1.91677E+01  1.90152E+01  1.88705E+01  1.87362E+01  1.86180E+01  1.85173E+01  1.84444E+01  1.84608E+01  1.86817E+01  1.90321E+01
   1.94090E+01  1.97721E+01  2.00321E+01  2.00002E+01  1.95443E+01  1.88082E+01  1.81155E+01  1.76353E+01  1.73049E+01  1.70472E+01
   1.68799E+01  1.67588E+01  1.66506E+01  1.65486E+01  1.64505E+01  1.63552E+01  1.62628E+01  1.61739E+01  1.60891E+01  1.60115E+01
   1.59527E+01  1.59660E+01  1.62180E+01  1.67069E+01  1.72797E+01  1.78625E+01  1.83638E+01  1.85562E+01  1.82019E+01  1.73626E+01
   1.64336E+01  1.57459E+01  1.53004E+01  1.49698E+01  1.47559E+01  1.46353E+01  1.45421E+01  1.44571E+01  1.43751E+01  1.42955E+01
   1.42175E+01  1.41404E+01  1.40646E+01  1.39923E+01  1.39241E+01  1.38563E+01  1.37846E+01  1.37078E+01  1.36289E+01  1.35517E+01
   1.34780E+01  1.34073E+01  1.33381E+01  1.32707E+01  1.32049E+01  1.31379E+01  1.30634E+01  1.29797E+01  1.28908E+01  1.28007E+01
   1.27184E+01  1.26509E+01  1.26034E+01  1.25737E+01  1.25444E+01  1.24958E+01  1.24226E+01  1.23362E+01  1.22508E+01  1.21738E+01
   1.21025E+01  1.20284E+01  1.19505E+01  1.18766E+01  1.18086E+01  1.17472E+01  1.16931E+01  1.16508E+01  1.16199E+01  1.15849E+01
   1.15341E+01  1.14761E+01  1.14266E+01  1.13914E+01  1.13641E+01  1.13345E+01  1.13019E+01  1.12792E+01  1.12710E+01  1.12646E+01
   1.12419E+01  1.11939E+01  1.11334E+01  1.10723E+01  1.10129E+01  1.09610E+01  1.09244E+01  1.09031E+01  1.08953E+01  1.09076E+01
   1.09463E+01  1.09981E+01  1.10282E+01  1.10109E+01  1.09250E+01  1.07483E+01  1.05059E+01  1.02522E+01  1.00328E+01  9.89672E+00
   9.89965E+00  1.00727E+01  1.03389E+01  1.05913E+01  1.07655E+01  1.08299E+01  1.07298E+01  1.04319E+01  1.00341E+01  9.68728E+00
   9.45313E+00  9.33228E+00  9.35060E+00  9.52701E+00  9.78705E+00  1.00115E+01  1.01246E+01  1.01400E+01  1.01021E+01  1.00282E+01
   9.93140E+00  9.83362E+00  9.75847E+00  9.71173E+00  9.68325E+00  9.66213E+00  9.66247E+00  9.68662E+00  9.70364E+00  9.69332E+00
   9.65006E+00  9.57732E+00  9.49097E+00  9.41753E+00  9.37729E+00  9.35851E+00  9.33728E+00  9.31176E+00  9.29958E+00  9.30066E+00
   9.31565E+00  9.37053E+00  9.45778E+00  9.54064E+00  9.62493E+00  9.86152E+00  1.03804E+01  1.10154E+01  1.16718E+01  1.23252E+01
   1.27851E+01  1.27101E+01  1.19732E+01  1.09229E+01  1.00424E+01  9.47484E+00  9.08267E+00  8.80791E+00  8.67340E+00  8.59097E+00
   8.53040E+00  8.49099E+00  8.46745E+00  8.45219E+00  8.43541E+00  8.40776E+00  8.36767E+00  8.32015E+00  8.27001E+00  8.22000E+00
   8.17376E+00  8.13483E+00  8.10348E+00  8.07759E+00  8.05514E+00  8.03512E+00  8.01690E+00  7.99980E+00  7.98387E+00  7.96990E+00
   7.95853E+00  7.94962E+00  7.94292E+00  7.93834E+00  7.93537E+00  7.93361E+00  7.93304E+00  7.93338E+00  7.93397E+00  7.93429E+00
   7.93388E+00  7.93203E+00  7.92792E+00  7.92076E+00  7.91000E+00  7.89532E+00  7.87659E+00  7.85391E+00  7.82750E+00  7.79771E+00
   7.76506E+00  7.73018E+00  7.69386E+00  7.65702E+00  7.62073E+00  7.58622E+00  7.55495E+00  7.52875E+00  7.51021E+00  7.50349E+00
   7.51681E+00  7.57074E+00  7.68961E+00  7.80164E+00  7.83672E+00  7.77933E+00  7.59871E+00  7.24633E+00  6.73650E+00  6.21023E+00
   5.89964E+00  5.88393E+00  6.05252E+00  6.33751E+00  6.74898E+00  7.20369E+00  7.53641E+00  7.63496E+00  7.54629E+00  7.40999E+00
   7.30021E+00  7.20671E+00  7.14228E+00  7.12113E+00  7.12967E+00  7.16153E+00  7.21417E+00  7.28566E+00  7.37345E+00  7.47374E+00
   7.58114E+00  7.68876E+00  7.78852E+00  7.87188E+00  7.93065E+00  7.95803E+00  7.94947E+00  7.90328E+00  7.82087E+00  7.70653E+00
   7.56680E+00  7.40960E+00  7.24321E+00  7.07545E+00  6.91288E+00  6.76044E+00  6.62132E+00  6.49703E+00  6.38777E+00  6.29277E+00
   6.21068E+00  6.13983E+00  6.07855E+00  6.02527E+00  5.97866E+00  5.93764E+00  5.90136E+00  5.86921E+00  5.84074E+00  5.81565E+00
   5.79379E+00  5.77508E+00  5.75951E+00  5.74713E+00  5.73800E+00  5.73222E+00  5.72988E+00  5.73105E+00  5.73575E+00  5.74396E+00
   5.75557E+00  5.77039E+00  5.78810E+00  5.80828E+00  5.83039E+00  5.85372E+00  5.87747E+00  5.90076E+00  5.92261E+00  5.94200E+00
   5.95792E+00  5.96938E+00  5.97549E+00  5.97552E+00  5.96886E+00  5.95514E+00  5.93417E+00  5.90600E+00  5.87092E+00  5.82941E+00
   5.78214E+00  5.72988E+00  5.67355E+00  5.61409E+00  5.55248E+00  5.48967E+00  5.42653E+00  5.36386E+00  5.30232E+00  5.24248E+00
   5.18478E+00  5.12954E+00  5.07696E+00  5.02712E+00  4.98005E+00  4.93568E+00  4.89391E+00  4.85459E+00  4.81753E+00  4.78255E+00
   4.74945E+00  4.71804E+00  4.68814E+00  4.65957E+00  4.63217E+00  4.60579E+00  4.58030E+00  4.55560E+00  4.53158E+00  4.50814E+00
   4.48522E+00  4.46273E+00  4.44063E+00  4.41887E+00  4.39739E+00  4.37617E+00  4.35515E+00  4.33431E+00  4.31363E+00  4.29309E+00
   4.27266E+00  4.25232E+00  4.23206E+00  4.21186E+00  4.19171E+00  4.17162E+00  4.15156E+00  4.13153E+00  4.11152E+00  4.09154E+00
   4.07158E+00  4.05164E+00  4.03171E+00  4.01178E+00  3.99187E+00  3.97196E+00  3.95207E+00  3.93218E+00  3.91229E+00  3.89240E+00
   3.87252E+00  3.85264E+00  3.83277E+00  3.81290E+00  3.79303E+00  3.77316E+00  3.75330E+00  3.73345E+00  3.71361E+00  3.69377E+00
   3.67393E+00  3.65411E+00  3.63429E+00  3.61449E+00  3.59470E+00  3.57493E+00  3.55516E+00  3.53541E+00  3.51569E+00  3.49598E+00
   3.47629E+00  3.45662E+00  3.43697E+00  3.41735E+00  3.39776E+00  3.37820E+00  3.35866E+00  3.33915E+00
 NY background values follow
     3.583E+01    3.561E+01    3.539E+01    3.517E+01    3.495E+01    3.473E+01    3.451E+01    3.429E+01    3.407E+01    3.385E+01
     3.363E+01    3.341E+01    3.319E+01    3.297E+01    3.275E+01    3.253E+01    3.231E+01    3.209E+01    3.188E+01    3.166E+01
     3.144E+01    3.123E+01    3.101E+01    3.080E+01    3.058E+01    3.037E+01    3.016E+01    2.994E+01    2.973E+01    2.952E+01
     2.931E+01    2.910E+01    2.890E+01    2.869E+01    2.848E+01    2.828E+01    2.807E+01    2.787E+01    2.767E+01    2.747E+01
     2.727E+01    2.707E+01    2.687E+01    2.668E+01    2.648E+01    2.629E+01    2.610E+01    2.591E+01    2.572E+01    2.553E+01
     2.535E+01    2.516E+01    2.498E+01    2.480E+01    2.462E+01    2.444E+01    2.426E+01    2.408E+01    2.391E+01    2.374E+01
     2.356E+01    2.339E+01    2.322E+01    2.306E+01    2.289E+01    2.272E+01    2.256E+01    2.240E+01    2.224E+01    2.208E+01
     2.192E+01    2.177E+01    2.161E+01    2.146E+01    2.130E+01    2.115E+01    2.100E+01    2.086E+01    2.071E+01    2.057E+01
     2.042E+01    2.028E+01    2.014E+01    2.000E+01    1.986E+01    1.973E+01    1.959E+01    1.946E+01    1.933E+01    1.919E+01
     1.907E+01    1.894E+01    1.881E+01    1.869E+01    1.856E+01    1.844E+01    1.832E+01    1.820E+01    1.808E+01    1.796E+01
     1.785E+01    1.774E+01    1.762E+01    1.751E+01    1.740E+01    1.729E+01    1.718E+01    1.708E+01    1.697E+01    1.687E+01
     1.676E+01    1.666E+01    1.656E+01    1.646E+01    1.636E+01    1.626E+01    1.617E+01    1.607E+01    1.598E+01    1.588E+01
     1.579E+01    1.570E+01    1.561E+01    1.552E+01    1.543E+01    1.534E+01    1.525E+01    1.517E+01    1.508E+01    1.500E+01
     1.492E+01    1.483E+01    1.475E+01    1.467E+01    1.459E+01    1.451E+01    1.443E+01    1.436E+01    1.428E+01    1.420E+01
     1.413E+01    1.405E+01    1.398E+01    1.390E+01    1.383E+01    1.376E+01    1.369E+01    1.362E+01    1.355E+01    1.348E+01
     1.341E+01    1.334E+01    1.328E+01    1.321E+01    1.314E+01    1.308E+01    1.301E+01    1.295E+01    1.289E+01    1.282E+01
     1.276E+01    1.270E+01    1.264E+01    1.258E+01    1.252E+01    1.246E+01    1.240E+01    1.234E+01    1.229E+01    1.223E+01
     1.217E+01    1.212E+01    1.206E+01    1.201E+01    1.195E+01    1.190E+01    1.185E+01    1.179E+01    1.174E+01    1.169E+01
     1.164E+01    1.159E+01    1.154E+01    1.149E+01    1.144E+01    1.139E+01    1.134E+01    1.130E+01    1.125E+01    1.120E+01
     1.115E+01    1.111E+01    1.106E+01    1.102E+01    1.097E+01    1.093E+01    1.088E+01    1.084E+01    1.080E+01    1.075E+01
     1.071E+01    1.067E+01    1.063E+01    1.058E+01    1.054E+01    1.050E+01    1.046E+01    1.042E+01    1.038E+01    1.034E+01
     1.030E+01    1.026E+01    1.022E+01    1.018E+01    1.014E+01    1.010E+01    1.006E+01    1.003E+01    9.988E+00    9.950E+00
     9.913E+00    9.875E+00    9.838E+00    9.801E+00    9.764E+00    9.727E+00    9.690E+00    9.653E+00    9.617E+00    9.581E+00
     9.544E+00    9.508E+00    9.472E+00    9.437E+00    9.401E+00    9.366E+00    9.330E+00    9.295E+00    9.260E+00    9.225E+00
     9.190E+00    9.156E+00    9.121E+00    9.087E+00    9.053E+00    9.019E+00    8.985E+00    8.951E+00    8.918E+00    8.884E+00
     8.851E+00    8.818E+00    8.785E+00    8.753E+00    8.720E+00    8.688E+00    8.656E+00    8.624E+00    8.592E+00    8.560E+00
     8.529E+00    8.498E+00    8.467E+00    8.436E+00    8.405E+00    8.374E+00    8.344E+00    8.314E+00    8.284E+00    8.254E+00
     8.225E+00    8.195E+00    8.166E+00    8.137E+00    8.108E+00    8.080E+00    8.051E+00    8.023E+00    7.995E+00    7.967E+00
     7.939E+00    7.912E+00    7.884E+00    7.857E+00    7.830E+00    7.802E+00    7.776E+00    7.749E+00    7.722E+00    7.695E+00
     7.669E+00    7.643E+00    7.616E+00    7.590E+00    7.564E+00    7.538E+00    7.512E+00    7.486E+00    7.461E+00    7.435E+00
     7.409E+00    7.384E+00    7.358E+00    7.333E+00    7.307E+00    7.282E+00    7.256E+00    7.231E+00    7.206E+00    7.180E+00
     7.155E+00    7.130E+00    7.104E+00    7.079E+00    7.054E+00    7.028E+00    7.003E+00    6.978E+00    6.952E+00    6.927E+00
     6.901E+00    6.876E+00    6.850E+00    6.825E+00    6.799E+00    6.774E+00    6.748E+00    6.723E+00    6.698E+00    6.672E+00
     6.647E+00    6.621E+00    6.596E+00    6.571E+00    6.546E+00    6.520E+00    6.495E+00    6.470E+00    6.445E+00    6.420E+00
     6.395E+00    6.370E+00    6.345E+00    6.320E+00    6.296E+00    6.271E+00    6.247E+00    6.222E+00    6.198E+00    6.174E+00
     6.150E+00    6.126E+00    6.102E+00    6.078E+00    6.054E+00    6.031E+00    6.007E+00    5.984E+00    5.961E+00    5.938E+00
     5.915E+00    5.892E+00    5.869E+00    5.847E+00    5.824E+00    5.802E+00    5.780E+00    5.758E+00    5.736E+00    5.715E+00
     5.693E+00    5.672E+00    5.650E+00    5.629E+00    5.608E+00    5.587E+00    5.567E+00    5.546E+00    5.525E+00    5.505E+00
     5.485E+00    5.464E+00    5.444E+00    5.424E+00    5.404E+00    5.385E+00    5.365E+00    5.345E+00    5.326E+00    5.306E+00
     5.287E+00    5.268E+00    5.249E+00    5.230E+00    5.211E+00    5.192E+00    5.173E+00    5.154E+00    5.135E+00    5.117E+00
     5.098E+00    5.080E+00    5.062E+00    5.043E+00    5.025E+00    5.007E+00    4.989E+00    4.971E+00    4.953E+00    4.935E+00
     4.917E+00    4.899E+00    4.881E+00    4.863E+00    4.845E+00    4.828E+00    4.810E+00    4.792E+00    4.775E+00    4.757E+00
     4.740E+00    4.722E+00    4.705E+00    4.687E+00    4.670E+00    4.652E+00    4.635E+00    4.617E+00    4.600E+00    4.582E+00
     4.565E+00    4.547E+00    4.530E+00    4.512E+00    4.495E+00    4.477E+00    4.460E+00    4.442E+00    4.424E+00    4.407E+00
     4.389E+00    4.371E+00    4.354E+00    4.336E+00    4.318E+00    4.300E+00    4.282E+00    4.265E+00    4.247E+00    4.228E+00
     4.210E+00    4.192E+00    4.174E+00    4.156E+00    4.137E+00    4.119E+00    4.100E+00    4.082E+00    4.063E+00    4.045E+00
     4.026E+00    4.007E+00    3.988E+00    3.970E+00    3.951E+00    3.932E+00    3.913E+00    3.894E+00    3.875E+00    3.856E+00
     3.837E+00    3.818E+00    3.799E+00    3.779E+00    3.760E+00    3.741E+00    3.722E+00    3.702E+00    3.683E+00    3.664E+00
     3.645E+00    3.625E+00    3.606E+00    3.587E+00    3.567E+00    3.548E+00    3.529E+00    3.509E+00    3.490E+00    3.471E+00
     3.452E+00    3.432E+00    3.413E+00    3.394E+00    3.374E+00    3.355E+00    3.336E+00    3.317E+00
 Ala      Conc. = 6.45E+01
