 LCModel (Version 6.3-1L) Copyright: S.W. Provencher.          Ref.: Magn. Reson. Med. 30:672-679 (1993).                
 Slice#3 Row#2 Col#5  PD_05_press_1_raw_act
 36 lines in following concentration table = NCONC+1
    Conc.  %SD /Cr+PCr  Metabolite                                         
  182.751  49%   0.630 Ala                                                 
   24.720 232% 8.5E-02 Asp                                                 
  105.293 134%   0.363 Cr                                                  
  184.564  78%   0.637 PCr                                                 
   27.732 128% 9.6E-02 GABA                                                
   15.549 226% 5.4E-02 Glc                                                 
  497.926  44%   1.718 Gln                                                 
  518.357  48%   1.788 Glu                                                 
   83.826  13%   0.289 GPC                                                 
    0.000 999%   0.000 PCh                                                 
   95.868  48%   0.331 GSH                                                 
  409.532  31%   1.413 Ins                                                 
    0.000 999%   0.000 Lac                                                 
  387.613   9%   1.337 NAA                                                 
    0.000 999%   0.000 NAAG                                                
   27.602  35% 9.5E-02 Scyllo                                              
   41.813 131%   0.144 Tau                                                 
   25.613 203% 8.8E-02 -CrCH2                                              
   83.826  13%   0.289 GPC+PCh                                             
  387.613   9%   1.337 NAA+NAAG                                            
  289.857  10%   1.000 Cr+PCr                                              
 1.02E+03  40%   3.506 Glu+Gln                                             
    0.000 999%   0.000 Lip13a                                              
    0.000 999%   0.000 Lip13b                                              
 1.94E-03 999% 6.7E-06 Lip09                                               
  174.867  26%   0.603 MM09                                                
    0.000 999%   0.000 Lip20                                               
  223.430  44%   0.771 MM20                                                
    0.000 999%   0.000 MM12                                                
  294.857  24%   1.017 MM14                                                
  194.803  32%   0.672 MM17                                                
    0.000 999%   0.000 Lip13a+Lip13b                                       
  294.857  24%   1.017 MM14+Lip13a+Lip13b+MM12                             
  174.869  26%   0.603 MM09+Lip09                                          
  223.430  44%   0.771 MM20+Lip20                                          
   6 lines in following misc. output table
  FWHM = 0.084 ppm    S/N =   3                                            
  Data shift =-0.008 ppm                                                   
  Ph: -18 deg     -16.3 deg/ppm                                            
  alphaB,S = 8.5E+01,   1.9E+02                                            
   14 spline knots.   Ns = 9(1)                                            
   2 inflections.     1 extrema                                            
  498 points on ppm-axis = NY
      4.000000     3.992357     3.984714     3.977070     3.969427     3.961784     3.954141     3.946497     3.938854     3.931211
      3.923568     3.915925     3.908281     3.900638     3.892995     3.885352     3.877708     3.870065     3.862422     3.854779
      3.847136     3.839492     3.831849     3.824206     3.816563     3.808919     3.801276     3.793633     3.785990     3.778347
      3.770703     3.763060     3.755417     3.747774     3.740130     3.732487     3.724844     3.717201     3.709558     3.701914
      3.694271     3.686628     3.678985     3.671341     3.663698     3.656055     3.648412     3.640769     3.633125     3.625482
      3.617839     3.610196     3.602552     3.594909     3.587266     3.579623     3.571980     3.564336     3.556693     3.549050
      3.541407     3.533763     3.526120     3.518477     3.510834     3.503191     3.495547     3.487904     3.480261     3.472618
      3.464974     3.457331     3.449688     3.442045     3.434402     3.426758     3.419115     3.411472     3.403829     3.396185
      3.388542     3.380899     3.373256     3.365613     3.357969     3.350326     3.342683     3.335040     3.327396     3.319753
      3.312110     3.304467     3.296824     3.289180     3.281537     3.273894     3.266251     3.258607     3.250964     3.243321
      3.235678     3.228034     3.220391     3.212748     3.205105     3.197462     3.189818     3.182175     3.174532     3.166889
      3.159245     3.151602     3.143959     3.136316     3.128673     3.121029     3.113386     3.105743     3.098100     3.090456
      3.082813     3.075170     3.067527     3.059884     3.052240     3.044597     3.036954     3.029311     3.021667     3.014024
      3.006381     2.998738     2.991095     2.983451     2.975808     2.968165     2.960522     2.952878     2.945235     2.937592
      2.929949     2.922306     2.914662     2.907019     2.899376     2.891733     2.884089     2.876446     2.868803     2.861160
      2.853517     2.845873     2.838230     2.830587     2.822944     2.815300     2.807657     2.800014     2.792371     2.784728
      2.777084     2.769441     2.761798     2.754155     2.746511     2.738868     2.731225     2.723582     2.715939     2.708295
      2.700652     2.693009     2.685366     2.677722     2.670079     2.662436     2.654793     2.647150     2.639506     2.631863
      2.624220     2.616577     2.608933     2.601290     2.593647     2.586004     2.578361     2.570717     2.563074     2.555431
      2.547788     2.540144     2.532501     2.524858     2.517215     2.509572     2.501928     2.494285     2.486642     2.478999
      2.471355     2.463712     2.456069     2.448426     2.440783     2.433139     2.425496     2.417853     2.410210     2.402566
      2.394923     2.387280     2.379637     2.371994     2.364350     2.356707     2.349064     2.341421     2.333777     2.326134
      2.318491     2.310848     2.303205     2.295561     2.287918     2.280275     2.272632     2.264988     2.257345     2.249702
      2.242059     2.234416     2.226772     2.219129     2.211486     2.203843     2.196199     2.188556     2.180913     2.173270
      2.165627     2.157983     2.150340     2.142697     2.135054     2.127410     2.119767     2.112124     2.104481     2.096838
      2.089194     2.081551     2.073908     2.066265     2.058621     2.050978     2.043335     2.035692     2.028049     2.020405
      2.012762     2.005119     1.997476     1.989833     1.982190     1.974546     1.966903     1.959260     1.951617     1.943974
      1.936331     1.928688     1.921045     1.913402     1.905759     1.898115     1.890472     1.882829     1.875186     1.867543
      1.859900     1.852257     1.844614     1.836971     1.829327     1.821684     1.814041     1.806398     1.798755     1.791112
      1.783469     1.775826     1.768183     1.760540     1.752896     1.745253     1.737610     1.729967     1.722324     1.714681
      1.707038     1.699395     1.691752     1.684108     1.676465     1.668822     1.661179     1.653536     1.645893     1.638250
      1.630607     1.622964     1.615321     1.607677     1.600034     1.592391     1.584748     1.577105     1.569462     1.561819
      1.554176     1.546533     1.538890     1.531246     1.523603     1.515960     1.508317     1.500674     1.493031     1.485388
      1.477745     1.470102     1.462458     1.454815     1.447172     1.439529     1.431886     1.424243     1.416600     1.408957
      1.401314     1.393671     1.386027     1.378384     1.370741     1.363098     1.355455     1.347812     1.340169     1.332526
      1.324883     1.317240     1.309596     1.301953     1.294310     1.286667     1.279024     1.271381     1.263738     1.256095
      1.248452     1.240808     1.233165     1.225522     1.217879     1.210236     1.202593     1.194950     1.187307     1.179664
      1.172021     1.164377     1.156734     1.149091     1.141448     1.133805     1.126162     1.118519     1.110876     1.103233
      1.095590     1.087946     1.080303     1.072660     1.065017     1.057374     1.049731     1.042088     1.034445     1.026802
      1.019158     1.011515     1.003872     0.996229     0.988586     0.980943     0.973300     0.965657     0.958014     0.950371
      0.942727     0.935084     0.927441     0.919798     0.912155     0.904512     0.896869     0.889226     0.881583     0.873940
      0.866296     0.858653     0.851010     0.843367     0.835724     0.828081     0.820438     0.812795     0.805152     0.797508
      0.789865     0.782222     0.774579     0.766936     0.759293     0.751650     0.744007     0.736364     0.728721     0.721077
      0.713434     0.705791     0.698148     0.690505     0.682862     0.675219     0.667576     0.659933     0.652290     0.644646
      0.637003     0.629360     0.621717     0.614074     0.606431     0.598788     0.591145     0.583502     0.575858     0.568215
      0.560572     0.552929     0.545286     0.537643     0.530000     0.522357     0.514714     0.507071     0.499427     0.491784
      0.484141     0.476498     0.468855     0.461212     0.453569     0.445925     0.438282     0.430639     0.422996     0.415353
      0.407710     0.400067     0.392424     0.384780     0.377137     0.369494     0.361851     0.354208     0.346565     0.338922
      0.331278     0.323635     0.315992     0.308349     0.300706     0.293063     0.285420     0.277777     0.270133     0.262490
      0.254847     0.247204     0.239561     0.231918     0.224275     0.216631     0.208988     0.201345
 NY phased data points follow
   1.11214E+00  3.88244E+00  1.97613E+00  2.81406E+00  3.33163E+00  3.10261E+00  2.46764E+00  1.04039E+00  2.90008E+00  4.38813E+00
   3.39990E+00  8.46914E-01  3.03929E+00  4.43086E+00  5.91114E+00  4.34320E+00  4.21280E+00  1.55749E+00  2.22845E+00 -6.06476E-02
   1.77491E+00  3.11365E+00 -1.37307E-02 -3.67929E-01  2.31014E-01  1.12936E+00  1.84982E+00  8.94653E-01  3.70584E+00  2.38173E+00
   1.04258E+00  1.60318E+00  2.04338E+00  3.20609E+00  7.68316E-01  1.18153E+00  5.06829E-01  3.05782E+00  2.93392E-02  2.07461E+00
   5.52728E-01  1.98184E+00  8.48079E-01  1.92761E+00  2.09020E+00  2.03378E-01  4.07251E+00  3.59056E+00  2.07432E+00  3.50138E+00
   9.24599E-01  2.47797E+00  1.28125E+00  1.09634E+00  2.47922E+00  1.28282E+00 -1.64364E+00 -4.74679E-01 -5.87698E-01  3.02667E+00
   2.56993E+00  6.81484E-02  1.20710E+00  4.04668E-01  9.77753E-02  1.13211E+00  6.64989E-01 -9.44242E-01  3.05952E-01  7.79893E-01
  -9.17527E-03 -7.58436E-01  1.07861E-01 -3.94587E-01 -3.79098E-01  9.86659E-01 -6.83739E-01 -9.61388E-01 -7.13961E-01 -9.69722E-02
  -4.85965E-01  1.46963E+00 -2.48363E+00  2.12129E+00  8.37075E-01  1.46596E+00  2.22578E+00  3.42641E+00  3.05232E+00 -4.06282E-01
  -7.71804E-01  2.92916E+00  7.46053E-01  2.15691E+00 -2.56480E-02  7.86564E-02 -4.01628E-01  1.64839E+00  1.60269E+00  1.21436E+00
   4.31923E+00  4.72144E+00  3.61072E+00  4.39660E+00  5.87633E+00  5.28790E+00  3.89204E+00  4.36474E+00  2.99765E+00  2.04122E+00
   2.18972E+00  1.34538E+00  1.84636E+00 -5.19045E-01  1.15716E+00 -9.01693E-01  9.07263E-03  1.01626E+00  2.13315E+00  7.76212E-01
   1.24612E+00  8.59281E-01  4.35321E+00  2.62030E+00  2.93271E+00  3.52902E+00  5.42825E+00  7.82897E+00  7.59903E+00  5.58799E+00
   7.98644E+00  5.00626E+00  2.29659E+00  4.54065E+00  2.69096E+00  7.98015E-01  1.19226E+00  3.16909E-01  6.67804E-01 -1.10463E+00
   4.36066E-01 -3.47607E-01 -5.86298E-01  8.32633E-01  1.30526E+00  6.24761E-01  5.18368E-01 -2.11143E+00  1.30411E-01 -5.86338E-01
  -9.87672E-01  9.76971E-01  2.07718E+00 -1.98644E+00 -5.22951E-01 -1.15077E+00 -1.67784E+00 -8.50777E-01 -9.43354E-01 -1.96880E+00
  -3.41958E-01 -8.46819E-01 -1.07881E+00  1.26589E+00 -1.85062E+00  2.76460E-02 -4.94949E-02  1.42806E+00 -9.16576E-01  5.50863E-01
  -2.23128E+00 -2.45638E+00 -2.49083E+00  1.67867E-01 -1.28523E+00 -2.79412E+00 -2.23748E+00 -9.65383E-01 -3.28335E+00 -2.87920E+00
  -2.09427E+00 -4.72568E-01 -3.82302E+00 -3.75663E+00 -2.46995E+00 -4.09792E+00 -8.10064E-01 -8.05566E-01 -2.64950E+00 -2.23269E+00
  -2.15987E+00  7.96198E-01  1.14776E+00 -2.51176E-01 -1.13700E+00  7.73354E-01 -9.78055E-01 -1.23875E+00 -2.78811E-01 -4.52514E-01
  -1.06833E+00 -1.99060E+00 -6.50819E-01 -1.21912E+00 -1.51300E+00  1.45510E-01  6.49397E-01 -7.40967E-01 -5.70492E-01 -3.64081E+00
   1.53858E+00 -9.61877E-01 -1.93500E+00 -6.48999E-01 -2.10803E+00  2.07425E-02 -4.16264E-01  1.08640E+00  1.14524E+00 -2.53363E-01
  -5.88296E-01 -6.76792E-02  4.06178E-01 -2.93430E-01 -3.80157E+00 -2.47619E+00  3.00461E-01  2.79568E+00  8.64205E-01 -6.77711E-01
   1.23277E+00 -3.89724E-01 -1.82392E-01 -1.87768E+00 -2.39112E+00 -1.18773E+00  2.18779E+00  1.79246E+00 -5.23101E-01  1.44663E+00
   6.72374E-01 -1.19712E+00  1.79970E-01  7.53417E-02 -1.00071E+00 -2.64609E+00 -1.06922E+00 -5.11916E-01  1.43813E+00  4.38987E-01
   7.73671E-01 -1.41258E+00  1.76908E+00  2.26193E+00  2.36270E+00  3.06407E+00  4.17561E+00  7.38478E+00  8.65670E+00  7.86626E+00
   1.02249E+01  8.53064E+00  8.99100E+00  9.84930E+00  8.83912E+00  6.63152E+00  6.13773E+00  2.67161E+00  3.62069E+00  2.50175E+00
   4.71259E+00  2.35360E+00  1.85304E+00  2.53169E+00  2.51313E+00  1.32580E+00  1.54395E+00  9.30769E-01  7.74544E-01  9.12186E-01
   1.33459E+00  6.37392E-01  1.77103E+00  2.03695E+00 -1.28169E+00 -2.24906E-01  3.03121E+00  9.68612E-01  1.40346E-01  2.35521E+00
   7.42750E-01  1.60682E+00 -7.92266E-01 -1.42572E+00  9.48826E-01  9.68949E-01  7.91171E-01  4.92584E-01  1.17841E+00  1.29309E+00
  -8.03166E-01  1.41358E+00  2.73116E+00  1.24390E+00  1.13526E+00  2.22991E+00  4.01337E+00 -8.19218E-01  1.81480E-01  1.47627E+00
   1.81492E+00  3.28897E+00  2.30319E+00  1.71728E+00  2.98232E+00  8.45202E-01  2.52257E+00  1.47114E+00  1.29179E+00  2.76045E+00
   5.12968E+00  6.40486E+00  2.04961E+00  1.95079E+00  2.14093E+00  2.73452E+00  4.23756E+00  2.35426E+00  2.79690E+00  2.49525E-01
   1.94131E+00  2.85645E-01 -9.17623E-01 -1.47981E-01  6.47519E-01  1.25335E+00  1.92008E+00  2.27254E-02  1.88480E+00  7.80467E-01
   3.55388E+00  3.80013E-01  1.71544E+00  2.21784E+00  1.23921E-01 -3.70221E-01 -2.98959E+00 -1.29433E+00 -2.66593E+00 -6.84426E-01
  -4.00086E+00 -4.99673E+00 -5.31078E+00 -4.51895E+00 -5.03544E+00 -6.70920E+00 -5.42139E+00 -7.41073E+00 -2.84137E+00 -6.28920E+00
  -6.08348E+00 -5.97644E+00 -3.01223E+00 -5.40134E+00 -4.85083E+00 -2.13484E+00 -1.62367E+00 -1.40844E+00 -1.87077E-01  4.46594E-01
  -1.09466E+00 -4.70562E-01 -1.38256E+00 -1.30168E+00  3.83274E-01  5.66758E-02 -1.93539E-01  1.06254E+00  2.94280E-02 -1.67672E+00
  -7.17599E-01 -9.89420E-01  1.78508E+00  3.83183E+00 -1.20973E+00 -1.24967E+00 -1.47022E+00  2.79366E-01 -4.57437E-01  1.03528E+00
  -5.98356E-01  4.20375E+00  4.02551E-01  2.83970E+00  2.40807E+00  1.32624E+00  1.20105E+00  6.48417E-01  3.07068E+00 -1.23894E+00
  -1.38379E-01  2.89832E+00  2.25985E+00  3.07932E+00  2.51759E+00 -1.81828E+00 -1.16234E+00  1.85669E+00  1.09206E-01  3.09897E+00
   1.20750E+00  1.42800E+00  5.24195E-01  1.76764E+00  1.24224E+00 -4.60776E-02  2.23183E-03  5.12953E-01 -1.29538E+00 -1.15251E-01
  -1.99583E-01 -4.05791E-01 -1.56653E+00  1.82767E+00 -5.54110E-01  2.59272E+00 -6.80461E-02  4.46445E-01  1.80373E+00  1.44000E+00
  -1.57253E+00  3.75149E+00  5.70130E-01  5.39871E-01 -6.70688E-01 -1.10358E+00  3.46046E+00  8.19736E-01  2.58593E+00  1.84063E+00
  -1.69234E+00 -1.45973E+00 -8.93376E-01 -6.41305E-01 -5.00216E-01  4.87964E-01 -1.18486E+00  2.03533E-01 -3.15079E-01 -1.40169E+00
   2.15681E+00  9.87478E-01  6.88042E-01 -1.36901E+00 -2.08962E+00  4.71987E-01  2.59748E-01 -2.15521E-01  8.59965E-01  6.72747E-01
  -1.50275E+00  1.47361E+00 -8.71413E-02 -2.28852E+00 -3.16529E-02  1.78211E+00 -4.37867E-01  1.08995E+00  9.74374E-01  1.69782E-01
   7.89092E-01 -6.73648E-01  8.45195E-01 -4.82122E-01  6.52252E-01 -2.15475E+00 -8.08523E-01 -3.65087E-01 -6.04771E-02  1.00681E+00
   2.39099E+00 -6.96307E-01  2.63921E+00 -4.78579E-01  1.98525E+00  6.15233E-01  2.41627E+00 -4.57192E-01 -5.35743E-01  3.30568E-01
   2.81885E-01 -1.72583E+00 -1.17857E+00 -1.16809E+00  7.52518E-01 -1.28254E-01 -1.71607E+00  1.40989E+00
 NY points of the fit to the data follow
   7.97956E-01  7.85205E-01  8.66426E-01  1.06815E+00  1.38956E+00  1.79256E+00  2.24916E+00  2.74108E+00  3.22559E+00  3.64857E+00
   3.96315E+00  4.13070E+00  4.12722E+00  3.95324E+00  3.63555E+00  3.21819E+00  2.75720E+00  2.28950E+00  1.83373E+00  1.42463E+00
   1.11649E+00  9.08810E-01  8.03386E-01  8.00328E-01  8.68325E-01  9.85492E-01  1.13422E+00  1.30044E+00  1.47682E+00  1.65830E+00
   1.85713E+00  2.07263E+00  2.26727E+00  2.39545E+00  2.42514E+00  2.34468E+00  2.16271E+00  1.88355E+00  1.54503E+00  1.22753E+00
   1.01009E+00  9.39036E-01  9.95173E-01  1.17584E+00  1.45603E+00  1.76840E+00  2.04416E+00  2.23485E+00  2.31546E+00  2.27400E+00
   2.13193E+00  1.91551E+00  1.64110E+00  1.34968E+00  1.07601E+00  8.34086E-01  6.33809E-01  4.98814E-01  4.58101E-01  5.05935E-01
   5.90231E-01  6.60320E-01  6.91827E-01  6.86696E-01  6.50954E-01  5.94377E-01  5.34717E-01  4.89030E-01  4.63367E-01  4.57661E-01
   4.78947E-01  5.26951E-01  5.86456E-01  6.43113E-01  6.78326E-01  6.82812E-01  6.59525E-01  6.33203E-01  6.20491E-01  6.11505E-01
   6.00192E-01  5.86906E-01  5.77209E-01  5.80961E-01  5.88341E-01  5.85276E-01  5.65015E-01  5.23299E-01  4.53270E-01  3.51426E-01
   2.26298E-01  9.39070E-02 -2.18350E-02 -7.30208E-02  4.75451E-02  3.52472E-01  7.93313E-01  1.35004E+00  1.97772E+00  2.62505E+00
   3.26639E+00  3.87151E+00  4.39707E+00  4.79143E+00  4.99972E+00  4.97452E+00  4.69226E+00  4.17616E+00  3.49466E+00  2.72894E+00
   1.94530E+00  1.18644E+00  5.07879E-01  6.87397E-03 -2.19894E-01 -2.85620E-01 -2.98125E-01 -2.26677E-01  4.15103E-02  5.08758E-01
   1.11014E+00  1.80607E+00  2.57352E+00  3.39398E+00  4.23929E+00  5.05600E+00  5.76733E+00  6.29274E+00  6.55921E+00  6.50828E+00
   6.12027E+00  5.43338E+00  4.54129E+00  3.55189E+00  2.54324E+00  1.57483E+00  7.22050E-01  1.07093E-01 -1.75445E-01 -2.68647E-01
  -2.97389E-01 -2.92890E-01 -2.69748E-01 -2.38569E-01 -2.05749E-01 -1.81756E-01 -1.82966E-01 -2.11405E-01 -2.61573E-01 -3.26421E-01
  -3.93277E-01 -4.53297E-01 -5.07003E-01 -5.55412E-01 -6.01619E-01 -6.44264E-01 -6.79089E-01 -7.06788E-01 -7.32606E-01 -7.58295E-01
  -7.82885E-01 -8.05811E-01 -8.26029E-01 -8.42488E-01 -8.55048E-01 -8.65858E-01 -8.79827E-01 -9.03449E-01 -9.40889E-01 -9.85961E-01
  -1.03311E+00 -1.08261E+00 -1.14164E+00 -1.20814E+00 -1.26904E+00 -1.31462E+00 -1.34108E+00 -1.35636E+00 -1.36923E+00 -1.37709E+00
  -1.37192E+00 -1.34956E+00 -1.30819E+00 -1.24641E+00 -1.16592E+00 -1.07538E+00 -9.82861E-01 -9.00503E-01 -8.34210E-01 -7.79656E-01
  -7.39588E-01 -7.20537E-01 -7.22655E-01 -7.30774E-01 -7.26067E-01 -6.95867E-01 -6.23581E-01 -5.00071E-01 -3.33970E-01 -1.30178E-01
   8.78509E-02  2.55525E-01  3.46776E-01  3.64114E-01  2.87834E-01  1.06796E-01 -1.52578E-01 -4.40318E-01 -7.28183E-01 -9.79556E-01
  -1.14178E+00 -1.17041E+00 -1.04494E+00 -7.93767E-01 -4.74573E-01 -1.38169E-01  1.66648E-01  3.75979E-01  4.42113E-01  3.56954E-01
   1.26784E-01 -2.12710E-01 -5.39972E-01 -7.53982E-01 -8.25462E-01 -7.35791E-01 -4.91115E-01 -1.53613E-01  1.71059E-01  4.40496E-01
   6.40340E-01  7.60293E-01  7.97438E-01  7.51965E-01  6.53685E-01  5.71078E-01  5.29241E-01  5.14563E-01  5.20017E-01  5.34731E-01
   5.35784E-01  4.94032E-01  3.94566E-01  2.54989E-01  1.14496E-01  1.63588E-03 -7.43001E-02 -1.12221E-01 -7.81767E-02  4.44154E-02
   2.59874E-01  6.70837E-01  1.39918E+00  2.33287E+00  3.34216E+00  4.39722E+00  5.47050E+00  6.52824E+00  7.52953E+00  8.41102E+00
   9.08497E+00  9.46466E+00  9.48274E+00  9.09247E+00  8.30106E+00  7.19116E+00  5.89912E+00  4.54926E+00  3.22587E+00  2.00240E+00
   9.98301E-01  3.93752E-01  1.97682E-01  1.42973E-01  1.30789E-01  1.40216E-01  1.52759E-01  1.61507E-01  1.66081E-01  1.63411E-01
   1.52636E-01  1.35227E-01  1.14255E-01  9.46222E-02  8.40234E-02  8.66615E-02  1.01552E-01  1.27386E-01  1.62776E-01  2.05417E-01
   2.53217E-01  3.04360E-01  3.58185E-01  4.15125E-01  4.75053E-01  5.37577E-01  6.02533E-01  6.69460E-01  7.37085E-01  8.03864E-01
   8.68731E-01  9.30661E-01  9.88373E-01  1.04104E+00  1.08838E+00  1.13026E+00  1.16717E+00  1.20012E+00  1.23056E+00  1.26038E+00
   1.29176E+00  1.32714E+00  1.36919E+00  1.42078E+00  1.48512E+00  1.56603E+00  1.66932E+00  1.80716E+00  1.99411E+00  2.19768E+00
   2.37975E+00  2.52488E+00  2.62261E+00  2.66081E+00  2.62139E+00  2.48569E+00  2.27776E+00  2.02949E+00  1.74771E+00  1.44369E+00
   1.14294E+00  8.84746E-01  7.11122E-01  6.45664E-01  6.86928E-01  8.18855E-01  1.02142E+00  1.27029E+00  1.51635E+00  1.66089E+00
   1.67157E+00  1.57601E+00  1.40125E+00  1.16579E+00  8.85623E-01  5.93538E-01  3.59447E-01  2.00493E-01  8.35114E-02 -7.25874E-03
  -7.90310E-02 -1.36092E-01 -1.81392E-01 -2.17153E-01 -2.45131E-01 -2.66765E-01 -2.83232E-01 -2.95510E-01 -3.04388E-01 -3.10512E-01
  -3.14396E-01 -3.16454E-01 -3.17007E-01 -3.16304E-01 -3.14523E-01 -3.11791E-01 -3.08191E-01 -3.03775E-01 -2.98561E-01 -2.92543E-01
  -2.85681E-01 -2.77918E-01 -2.69166E-01 -2.59325E-01 -2.48261E-01 -2.35814E-01 -2.21789E-01 -2.05963E-01 -1.88079E-01 -1.67852E-01
  -1.44959E-01 -1.19056E-01 -8.97704E-02 -5.67320E-02 -1.95753E-02  2.20286E-02  6.83577E-02  1.19599E-01  1.75822E-01  2.36930E-01
   3.02637E-01  3.72430E-01  4.45554E-01  5.20989E-01  5.97463E-01  6.73460E-01  7.47264E-01  8.17015E-01  8.80785E-01  9.36660E-01
   9.82838E-01  1.01772E+00  1.04001E+00  1.04879E+00  1.04357E+00  1.02434E+00  9.91558E-01  9.46133E-01  8.89381E-01  8.22945E-01
   7.48713E-01  6.68710E-01  5.85005E-01  4.99603E-01  4.14379E-01  3.30996E-01  2.50867E-01  1.75113E-01  1.04568E-01  3.97783E-02
  -1.89637E-02 -7.15982E-02 -1.18249E-01 -1.59193E-01 -1.94809E-01 -2.25549E-01 -2.51892E-01 -2.74334E-01 -2.93353E-01 -3.09407E-01
  -3.22912E-01 -3.34245E-01 -3.43733E-01 -3.51666E-01 -3.58289E-01 -3.63815E-01 -3.68417E-01 -3.72244E-01 -3.75415E-01 -3.78034E-01
  -3.80183E-01 -3.81936E-01 -3.83347E-01 -3.84467E-01 -3.85331E-01 -3.85977E-01 -3.86430E-01 -3.86719E-01 -3.86860E-01 -3.86871E-01
  -3.86765E-01 -3.86558E-01 -3.86259E-01 -3.85879E-01 -3.85423E-01 -3.84900E-01 -3.84313E-01 -3.83671E-01 -3.82977E-01 -3.82237E-01
  -3.81450E-01 -3.80624E-01 -3.79757E-01 -3.78857E-01 -3.77922E-01 -3.76957E-01 -3.75959E-01 -3.74932E-01 -3.73876E-01 -3.72795E-01
  -3.71687E-01 -3.70554E-01 -3.69394E-01 -3.68209E-01 -3.66999E-01 -3.65765E-01 -3.64504E-01 -3.63217E-01 -3.61902E-01 -3.60560E-01
  -3.59189E-01 -3.57791E-01 -3.56360E-01 -3.54898E-01 -3.53399E-01 -3.51866E-01 -3.50293E-01 -3.48680E-01 -3.47020E-01 -3.45312E-01
  -3.43549E-01 -3.41730E-01 -3.39847E-01 -3.37894E-01 -3.35862E-01 -3.33743E-01 -3.31527E-01 -3.29203E-01
 NY background values follow
    -7.008E-01   -6.999E-01   -6.990E-01   -6.982E-01   -6.973E-01   -6.964E-01   -6.956E-01   -6.947E-01   -6.938E-01   -6.930E-01
    -6.921E-01   -6.912E-01   -6.904E-01   -6.895E-01   -6.886E-01   -6.878E-01   -6.869E-01   -6.860E-01   -6.851E-01   -6.843E-01
    -6.834E-01   -6.825E-01   -6.817E-01   -6.808E-01   -6.799E-01   -6.790E-01   -6.782E-01   -6.773E-01   -6.764E-01   -6.755E-01
    -6.747E-01   -6.738E-01   -6.729E-01   -6.720E-01   -6.712E-01   -6.703E-01   -6.694E-01   -6.685E-01   -6.677E-01   -6.668E-01
    -6.659E-01   -6.650E-01   -6.641E-01   -6.633E-01   -6.624E-01   -6.615E-01   -6.606E-01   -6.597E-01   -6.589E-01   -6.580E-01
    -6.571E-01   -6.562E-01   -6.553E-01   -6.544E-01   -6.536E-01   -6.527E-01   -6.518E-01   -6.509E-01   -6.500E-01   -6.491E-01
    -6.482E-01   -6.474E-01   -6.465E-01   -6.456E-01   -6.447E-01   -6.438E-01   -6.429E-01   -6.420E-01   -6.412E-01   -6.403E-01
    -6.394E-01   -6.385E-01   -6.376E-01   -6.367E-01   -6.358E-01   -6.349E-01   -6.340E-01   -6.331E-01   -6.323E-01   -6.314E-01
    -6.305E-01   -6.296E-01   -6.287E-01   -6.278E-01   -6.269E-01   -6.260E-01   -6.251E-01   -6.242E-01   -6.233E-01   -6.224E-01
    -6.215E-01   -6.206E-01   -6.197E-01   -6.188E-01   -6.179E-01   -6.171E-01   -6.162E-01   -6.153E-01   -6.144E-01   -6.135E-01
    -6.126E-01   -6.117E-01   -6.108E-01   -6.099E-01   -6.090E-01   -6.081E-01   -6.072E-01   -6.063E-01   -6.054E-01   -6.045E-01
    -6.036E-01   -6.027E-01   -6.018E-01   -6.009E-01   -6.000E-01   -5.991E-01   -5.982E-01   -5.973E-01   -5.964E-01   -5.954E-01
    -5.945E-01   -5.936E-01   -5.927E-01   -5.918E-01   -5.909E-01   -5.900E-01   -5.891E-01   -5.882E-01   -5.873E-01   -5.864E-01
    -5.855E-01   -5.846E-01   -5.837E-01   -5.828E-01   -5.819E-01   -5.810E-01   -5.801E-01   -5.791E-01   -5.782E-01   -5.773E-01
    -5.764E-01   -5.755E-01   -5.746E-01   -5.737E-01   -5.728E-01   -5.719E-01   -5.710E-01   -5.701E-01   -5.691E-01   -5.682E-01
    -5.673E-01   -5.664E-01   -5.655E-01   -5.646E-01   -5.637E-01   -5.628E-01   -5.619E-01   -5.609E-01   -5.600E-01   -5.591E-01
    -5.582E-01   -5.573E-01   -5.564E-01   -5.555E-01   -5.545E-01   -5.536E-01   -5.527E-01   -5.518E-01   -5.509E-01   -5.500E-01
    -5.491E-01   -5.481E-01   -5.472E-01   -5.463E-01   -5.454E-01   -5.445E-01   -5.436E-01   -5.426E-01   -5.417E-01   -5.408E-01
    -5.399E-01   -5.390E-01   -5.381E-01   -5.371E-01   -5.362E-01   -5.353E-01   -5.344E-01   -5.335E-01   -5.325E-01   -5.316E-01
    -5.307E-01   -5.298E-01   -5.289E-01   -5.279E-01   -5.270E-01   -5.261E-01   -5.252E-01   -5.243E-01   -5.233E-01   -5.224E-01
    -5.215E-01   -5.206E-01   -5.197E-01   -5.187E-01   -5.178E-01   -5.169E-01   -5.160E-01   -5.150E-01   -5.141E-01   -5.132E-01
    -5.123E-01   -5.114E-01   -5.104E-01   -5.095E-01   -5.086E-01   -5.077E-01   -5.067E-01   -5.058E-01   -5.049E-01   -5.040E-01
    -5.030E-01   -5.021E-01   -5.012E-01   -5.003E-01   -4.993E-01   -4.984E-01   -4.975E-01   -4.966E-01   -4.956E-01   -4.947E-01
    -4.938E-01   -4.929E-01   -4.919E-01   -4.910E-01   -4.901E-01   -4.891E-01   -4.882E-01   -4.873E-01   -4.864E-01   -4.854E-01
    -4.845E-01   -4.836E-01   -4.826E-01   -4.817E-01   -4.808E-01   -4.799E-01   -4.789E-01   -4.780E-01   -4.771E-01   -4.761E-01
    -4.752E-01   -4.743E-01   -4.734E-01   -4.724E-01   -4.715E-01   -4.706E-01   -4.696E-01   -4.687E-01   -4.678E-01   -4.669E-01
    -4.659E-01   -4.650E-01   -4.641E-01   -4.631E-01   -4.622E-01   -4.613E-01   -4.603E-01   -4.594E-01   -4.585E-01   -4.575E-01
    -4.566E-01   -4.557E-01   -4.547E-01   -4.538E-01   -4.529E-01   -4.520E-01   -4.510E-01   -4.501E-01   -4.492E-01   -4.482E-01
    -4.473E-01   -4.464E-01   -4.454E-01   -4.445E-01   -4.436E-01   -4.426E-01   -4.417E-01   -4.408E-01   -4.398E-01   -4.389E-01
    -4.380E-01   -4.370E-01   -4.361E-01   -4.352E-01   -4.342E-01   -4.333E-01   -4.324E-01   -4.314E-01   -4.305E-01   -4.296E-01
    -4.286E-01   -4.277E-01   -4.268E-01   -4.258E-01   -4.249E-01   -4.240E-01   -4.230E-01   -4.221E-01   -4.212E-01   -4.202E-01
    -4.193E-01   -4.183E-01   -4.174E-01   -4.165E-01   -4.155E-01   -4.146E-01   -4.137E-01   -4.127E-01   -4.118E-01   -4.109E-01
    -4.099E-01   -4.090E-01   -4.081E-01   -4.071E-01   -4.062E-01   -4.053E-01   -4.043E-01   -4.034E-01   -4.024E-01   -4.015E-01
    -4.006E-01   -3.996E-01   -3.987E-01   -3.978E-01   -3.968E-01   -3.959E-01   -3.950E-01   -3.940E-01   -3.931E-01   -3.921E-01
    -3.912E-01   -3.903E-01   -3.893E-01   -3.884E-01   -3.875E-01   -3.865E-01   -3.856E-01   -3.847E-01   -3.837E-01   -3.828E-01
    -3.818E-01   -3.809E-01   -3.800E-01   -3.790E-01   -3.781E-01   -3.772E-01   -3.762E-01   -3.753E-01   -3.744E-01   -3.734E-01
    -3.725E-01   -3.715E-01   -3.706E-01   -3.697E-01   -3.687E-01   -3.678E-01   -3.669E-01   -3.659E-01   -3.650E-01   -3.641E-01
    -3.631E-01   -3.622E-01   -3.612E-01   -3.603E-01   -3.594E-01   -3.584E-01   -3.575E-01   -3.566E-01   -3.556E-01   -3.547E-01
    -3.538E-01   -3.528E-01   -3.519E-01   -3.509E-01   -3.500E-01   -3.491E-01   -3.481E-01   -3.472E-01   -3.463E-01   -3.453E-01
    -3.444E-01   -3.435E-01   -3.425E-01   -3.416E-01   -3.406E-01   -3.397E-01   -3.388E-01   -3.378E-01   -3.369E-01   -3.360E-01
    -3.350E-01   -3.341E-01   -3.332E-01   -3.322E-01   -3.313E-01   -3.303E-01   -3.294E-01   -3.285E-01   -3.275E-01   -3.266E-01
    -3.257E-01   -3.247E-01   -3.238E-01   -3.229E-01   -3.219E-01   -3.210E-01   -3.201E-01   -3.191E-01   -3.182E-01   -3.172E-01
    -3.163E-01   -3.154E-01   -3.144E-01   -3.135E-01   -3.126E-01   -3.116E-01   -3.107E-01   -3.098E-01   -3.088E-01   -3.079E-01
    -3.070E-01   -3.060E-01   -3.051E-01   -3.042E-01   -3.032E-01   -3.023E-01   -3.014E-01   -3.004E-01   -2.995E-01   -2.986E-01
    -2.976E-01   -2.967E-01   -2.958E-01   -2.948E-01   -2.939E-01   -2.930E-01   -2.920E-01   -2.911E-01   -2.902E-01   -2.892E-01
    -2.883E-01   -2.874E-01   -2.864E-01   -2.855E-01   -2.846E-01   -2.836E-01   -2.827E-01   -2.818E-01   -2.808E-01   -2.799E-01
    -2.790E-01   -2.780E-01   -2.771E-01   -2.762E-01   -2.752E-01   -2.743E-01   -2.734E-01   -2.725E-01   -2.715E-01   -2.706E-01
    -2.697E-01   -2.687E-01   -2.678E-01   -2.669E-01   -2.659E-01   -2.650E-01   -2.641E-01   -2.632E-01   -2.622E-01   -2.613E-01
    -2.604E-01   -2.594E-01   -2.585E-01   -2.576E-01   -2.567E-01   -2.557E-01   -2.548E-01   -2.539E-01   -2.529E-01   -2.520E-01
    -2.511E-01   -2.502E-01   -2.492E-01   -2.483E-01   -2.474E-01   -2.464E-01   -2.455E-01   -2.446E-01
 Ala      Conc. = 1.83E+02
