 LCModel (Version 6.3-1L) Copyright: S.W. Provencher.          Ref.: Magn. Reson. Med. 30:672-679 (1993).                
 Slice#3 Row#12 Col#11  PD_05_press_1_raw_act
 36 lines in following concentration table = NCONC+1
    Conc.  %SD /Cr+PCr  Metabolite                                         
  231.229  31%   1.096 Ala                                                 
    8.738 475% 4.1E-02 Asp                                                 
    0.000 999%   0.000 Cr                                                  
  211.037  10%   1.000 PCr                                                 
    9.245 281% 4.4E-02 GABA                                                
   19.263 133% 9.1E-02 Glc                                                 
  648.399  28%   3.072 Gln                                                 
  699.481  29%   3.314 Glu                                                 
   49.465  16%   0.234 GPC                                                 
    0.000 999%   0.000 PCh                                                 
   15.684 220% 7.4E-02 GSH                                                 
   70.028 156%   0.332 Ins                                                 
  645.321  12%   3.058 Lac                                                 
  266.557   8%   1.263 NAA                                                 
    0.000 999%   0.000 NAAG                                                
   19.872  37% 9.4E-02 Scyllo                                              
   48.942  84%   0.232 Tau                                                 
   81.153  48%   0.385 -CrCH2                                              
   49.465  16%   0.234 GPC+PCh                                             
  266.557   8%   1.263 NAA+NAAG                                            
  211.037  10%   1.000 Cr+PCr                                              
 1.35E+03  26%   6.387 Glu+Gln                                             
    0.000 999%   0.000 Lip13a                                              
  299.195  10%   1.418 Lip13b                                              
    0.000 999%   0.000 Lip09                                               
    0.000 999%   0.000 MM09                                                
   27.680  82%   0.131 Lip20                                               
    0.000 999%   0.000 MM20                                                
 2.43E-03 999% 1.2E-05 MM12                                                
    1.725 271% 8.2E-03 MM14                                                
    0.697 447% 3.3E-03 MM17                                                
  299.195  10%   1.418 Lip13a+Lip13b                                       
  300.922  10%   1.426 MM14+Lip13a+Lip13b+MM12                             
    0.000 999%   0.000 MM09+Lip09                                          
   27.680  82%   0.131 MM20+Lip20                                          
   6 lines in following misc. output table
  FWHM = 0.092 ppm    S/N =   3                                            
  Data shift = 0.038 ppm                                                   
  Ph:-136 deg     -82.9 deg/ppm                                            
  alphaB,S = 4.7E-01,   1.0E+02                                            
   14 spline knots.   Ns = 9(1)                                            
  (17) 5 infls.   (17) 1 extrs.                                            
  498 points on ppm-axis = NY
      4.000000     3.992357     3.984714     3.977070     3.969427     3.961784     3.954141     3.946497     3.938854     3.931211
      3.923568     3.915925     3.908281     3.900638     3.892995     3.885352     3.877708     3.870065     3.862422     3.854779
      3.847136     3.839492     3.831849     3.824206     3.816563     3.808919     3.801276     3.793633     3.785990     3.778347
      3.770703     3.763060     3.755417     3.747774     3.740130     3.732487     3.724844     3.717201     3.709558     3.701914
      3.694271     3.686628     3.678985     3.671341     3.663698     3.656055     3.648412     3.640769     3.633125     3.625482
      3.617839     3.610196     3.602552     3.594909     3.587266     3.579623     3.571980     3.564336     3.556693     3.549050
      3.541407     3.533763     3.526120     3.518477     3.510834     3.503191     3.495547     3.487904     3.480261     3.472618
      3.464974     3.457331     3.449688     3.442045     3.434402     3.426758     3.419115     3.411472     3.403829     3.396185
      3.388542     3.380899     3.373256     3.365613     3.357969     3.350326     3.342683     3.335040     3.327396     3.319753
      3.312110     3.304467     3.296824     3.289180     3.281537     3.273894     3.266251     3.258607     3.250964     3.243321
      3.235678     3.228034     3.220391     3.212748     3.205105     3.197462     3.189818     3.182175     3.174532     3.166889
      3.159245     3.151602     3.143959     3.136316     3.128673     3.121029     3.113386     3.105743     3.098100     3.090456
      3.082813     3.075170     3.067527     3.059884     3.052240     3.044597     3.036954     3.029311     3.021667     3.014024
      3.006381     2.998738     2.991095     2.983451     2.975808     2.968165     2.960522     2.952878     2.945235     2.937592
      2.929949     2.922306     2.914662     2.907019     2.899376     2.891733     2.884089     2.876446     2.868803     2.861160
      2.853517     2.845873     2.838230     2.830587     2.822944     2.815300     2.807657     2.800014     2.792371     2.784728
      2.777084     2.769441     2.761798     2.754155     2.746511     2.738868     2.731225     2.723582     2.715939     2.708295
      2.700652     2.693009     2.685366     2.677722     2.670079     2.662436     2.654793     2.647150     2.639506     2.631863
      2.624220     2.616577     2.608933     2.601290     2.593647     2.586004     2.578361     2.570717     2.563074     2.555431
      2.547788     2.540144     2.532501     2.524858     2.517215     2.509572     2.501928     2.494285     2.486642     2.478999
      2.471355     2.463712     2.456069     2.448426     2.440783     2.433139     2.425496     2.417853     2.410210     2.402566
      2.394923     2.387280     2.379637     2.371994     2.364350     2.356707     2.349064     2.341421     2.333777     2.326134
      2.318491     2.310848     2.303205     2.295561     2.287918     2.280275     2.272632     2.264988     2.257345     2.249702
      2.242059     2.234416     2.226772     2.219129     2.211486     2.203843     2.196199     2.188556     2.180913     2.173270
      2.165627     2.157983     2.150340     2.142697     2.135054     2.127410     2.119767     2.112124     2.104481     2.096838
      2.089194     2.081551     2.073908     2.066265     2.058621     2.050978     2.043335     2.035692     2.028049     2.020405
      2.012762     2.005119     1.997476     1.989833     1.982190     1.974546     1.966903     1.959260     1.951617     1.943974
      1.936331     1.928688     1.921045     1.913402     1.905759     1.898115     1.890472     1.882829     1.875186     1.867543
      1.859900     1.852257     1.844614     1.836971     1.829327     1.821684     1.814041     1.806398     1.798755     1.791112
      1.783469     1.775826     1.768183     1.760540     1.752896     1.745253     1.737610     1.729967     1.722324     1.714681
      1.707038     1.699395     1.691752     1.684108     1.676465     1.668822     1.661179     1.653536     1.645893     1.638250
      1.630607     1.622964     1.615321     1.607677     1.600034     1.592391     1.584748     1.577105     1.569462     1.561819
      1.554176     1.546533     1.538890     1.531246     1.523603     1.515960     1.508317     1.500674     1.493031     1.485388
      1.477745     1.470102     1.462458     1.454815     1.447172     1.439529     1.431886     1.424243     1.416600     1.408957
      1.401314     1.393671     1.386027     1.378384     1.370741     1.363098     1.355455     1.347812     1.340169     1.332526
      1.324883     1.317240     1.309596     1.301953     1.294310     1.286667     1.279024     1.271381     1.263738     1.256095
      1.248452     1.240808     1.233165     1.225522     1.217879     1.210236     1.202593     1.194950     1.187307     1.179664
      1.172021     1.164377     1.156734     1.149091     1.141448     1.133805     1.126162     1.118519     1.110876     1.103233
      1.095590     1.087946     1.080303     1.072660     1.065017     1.057374     1.049731     1.042088     1.034445     1.026802
      1.019158     1.011515     1.003872     0.996229     0.988586     0.980943     0.973300     0.965657     0.958014     0.950371
      0.942727     0.935084     0.927441     0.919798     0.912155     0.904512     0.896869     0.889226     0.881583     0.873940
      0.866296     0.858653     0.851010     0.843367     0.835724     0.828081     0.820438     0.812795     0.805152     0.797508
      0.789865     0.782222     0.774579     0.766936     0.759293     0.751650     0.744007     0.736364     0.728721     0.721077
      0.713434     0.705791     0.698148     0.690505     0.682862     0.675219     0.667576     0.659933     0.652290     0.644646
      0.637003     0.629360     0.621717     0.614074     0.606431     0.598788     0.591145     0.583502     0.575858     0.568215
      0.560572     0.552929     0.545286     0.537643     0.530000     0.522357     0.514714     0.507071     0.499427     0.491784
      0.484141     0.476498     0.468855     0.461212     0.453569     0.445925     0.438282     0.430639     0.422996     0.415353
      0.407710     0.400067     0.392424     0.384780     0.377137     0.369494     0.361851     0.354208     0.346565     0.338922
      0.331278     0.323635     0.315992     0.308349     0.300706     0.293063     0.285420     0.277777     0.270133     0.262490
      0.254847     0.247204     0.239561     0.231918     0.224275     0.216631     0.208988     0.201345
 NY phased data points follow
   2.46695E+00  3.17908E+00  3.63186E+00  5.49087E+00  3.89138E+00  3.66163E+00  5.24421E+00  4.31523E+00  4.79731E+00  3.46251E+00
   4.54857E+00  5.00107E+00  2.52216E+00  2.83789E+00  3.18866E+00  2.94524E+00  2.42897E+00  3.18731E+00  2.77540E+00  2.66680E+00
   2.03008E+00  3.04594E+00  3.88060E+00  4.11316E+00  3.36813E+00  3.93605E+00  4.14672E+00  2.93226E+00  3.43840E+00  4.70661E+00
   2.43915E+00  2.88231E+00  2.81192E+00  3.35912E+00  3.58322E+00  4.01898E+00  4.40761E+00  4.60907E+00  3.20642E+00  3.58694E+00
   5.07385E+00  3.91366E+00  5.00352E+00  3.38273E+00  3.45988E+00  5.65471E+00  4.21811E+00  5.24181E+00  4.39301E+00  3.71567E+00
   3.54262E+00  4.56887E+00  2.98315E+00  3.71583E+00  3.51618E+00  2.43671E+00  3.24877E+00  3.46836E+00  3.94327E+00  3.06957E+00
   3.80143E+00  2.92132E+00  2.14524E+00  2.47510E+00  2.68938E+00  3.47739E+00  2.84444E+00  3.15445E+00  5.38014E+00  3.98909E+00
   2.63854E+00  4.97579E+00  3.44867E+00  3.14245E+00  4.58646E+00  4.38294E+00  4.31376E+00  4.12950E+00  4.30361E+00  4.57762E+00
   3.31858E+00  3.96253E+00  5.66777E+00  4.74409E+00  4.59323E+00  4.99209E+00  5.45585E+00  4.76419E+00  4.75165E+00  5.25959E+00
   5.28854E+00  4.51813E+00  5.85464E+00  5.74312E+00  6.08250E+00  7.42345E+00  6.46795E+00  6.60421E+00  6.99270E+00  5.94741E+00
   8.02986E+00  8.56448E+00  7.62347E+00  6.22050E+00  6.83247E+00  7.14410E+00  6.10764E+00  6.13413E+00  4.17281E+00  4.88028E+00
   4.16215E+00  3.57746E+00  5.85224E+00  3.95759E+00  6.86874E+00  8.06191E+00  5.58059E+00  4.05454E+00  4.53137E+00  4.90242E+00
   6.43018E+00  6.59980E+00  8.57751E+00  8.66693E+00  9.09396E+00  1.02204E+01  8.72459E+00  8.68865E+00  9.19551E+00  9.17381E+00
   7.13971E+00  7.50226E+00  6.45936E+00  5.87072E+00  4.64774E+00  4.86641E+00  5.85624E+00  4.58007E+00  4.54352E+00  5.20210E+00
   4.99792E+00  4.05878E+00  6.51160E+00  5.29174E+00  4.49814E+00  4.92247E+00  6.12634E+00  5.70518E+00  6.78194E+00  4.28817E+00
   5.65605E+00  5.16225E+00  5.22363E+00  5.93816E+00  5.11070E+00  4.51390E+00  4.64671E+00  6.31224E+00  4.99703E+00  6.98375E+00
   5.30715E+00  5.54868E+00  4.99472E+00  5.94334E+00  3.80034E+00  4.77531E+00  3.69725E+00  5.91595E+00  5.50820E+00  4.58698E+00
   4.81686E+00  5.72540E+00  4.51247E+00  4.92515E+00  4.28492E+00  4.51043E+00  3.09676E+00  4.37985E+00  3.16583E+00  5.28167E+00
   4.48658E+00  4.59795E+00  4.05233E+00  4.95979E+00  4.89392E+00  4.38652E+00  5.47353E+00  5.50997E+00  5.59940E+00  5.52035E+00
   4.08877E+00  4.67798E+00  5.95496E+00  6.86139E+00  6.24223E+00  5.45585E+00  4.01461E+00  5.43281E+00  5.72802E+00  5.03614E+00
   5.82631E+00  6.62962E+00  5.76799E+00  7.20656E+00  7.51021E+00  5.83609E+00  5.63926E+00  7.42207E+00  6.68127E+00  5.91840E+00
   8.10763E+00  7.41683E+00  6.87861E+00  7.93337E+00  7.59497E+00  6.89122E+00  8.90644E+00  6.89589E+00  6.40168E+00  8.06831E+00
   7.58152E+00  8.69192E+00  8.44979E+00  5.26628E+00  7.49043E+00  6.32163E+00  6.95248E+00  8.21700E+00  7.94293E+00  7.27983E+00
   8.12963E+00  8.05036E+00  7.02315E+00  7.76662E+00  7.31307E+00  8.39163E+00  7.90684E+00  7.26655E+00  7.89661E+00  6.22217E+00
   9.12097E+00  6.87873E+00  7.93208E+00  6.90866E+00  5.54558E+00  6.72743E+00  6.79281E+00  7.09695E+00  6.27842E+00  5.88318E+00
   6.42267E+00  8.27594E+00  8.00486E+00  8.18950E+00  8.39322E+00  7.41041E+00  7.99121E+00  1.07622E+01  1.18281E+01  1.29198E+01
   1.44303E+01  1.37257E+01  1.56354E+01  1.56856E+01  1.55403E+01  1.57114E+01  1.47741E+01  1.30061E+01  1.20260E+01  1.22507E+01
   1.20539E+01  9.73183E+00  1.13259E+01  1.04870E+01  1.04214E+01  8.82922E+00  1.05569E+01  9.91177E+00  1.01400E+01  1.17168E+01
   1.03209E+01  9.13011E+00  9.90155E+00  9.61314E+00  1.01958E+01  1.00435E+01  7.46656E+00  8.84787E+00  8.77511E+00  8.80363E+00
   1.02185E+01  8.82606E+00  9.47848E+00  9.42118E+00  8.78820E+00  9.67840E+00  1.00606E+01  1.04090E+01  9.92776E+00  9.23298E+00
   1.02789E+01  1.11055E+01  1.11936E+01  1.03801E+01  9.81368E+00  1.15343E+01  1.00203E+01  1.04183E+01  1.11881E+01  1.11437E+01
   1.01337E+01  1.09051E+01  1.11159E+01  1.05542E+01  1.01027E+01  1.14518E+01  1.10317E+01  1.15328E+01  1.14279E+01  1.22096E+01
   1.23714E+01  1.00204E+01  1.18904E+01  1.06687E+01  1.14534E+01  1.13111E+01  1.01591E+01  9.70972E+00  9.34834E+00  9.58230E+00
   1.06352E+01  1.18080E+01  1.06037E+01  1.09422E+01  1.16377E+01  1.14756E+01  1.15688E+01  1.22465E+01  1.36507E+01  1.10859E+01
   1.27472E+01  1.29950E+01  1.28195E+01  1.44354E+01  1.41578E+01  1.38860E+01  1.44731E+01  1.24106E+01  1.18780E+01  1.15890E+01
   1.19079E+01  1.14451E+01  1.13300E+01  1.15689E+01  1.22363E+01  1.23413E+01  1.11408E+01  1.18808E+01  1.14584E+01  1.14273E+01
   9.81813E+00  1.10702E+01  9.43619E+00  1.06170E+01  1.05265E+01  8.98911E+00  8.75977E+00  9.29376E+00  8.76830E+00  7.98315E+00
   8.56735E+00  7.53469E+00  8.90489E+00  8.62959E+00  7.91542E+00  8.16311E+00  7.52904E+00  6.16368E+00  6.36781E+00  6.43217E+00
   6.50929E+00  7.25848E+00  8.51553E+00  7.00019E+00  5.53526E+00  5.45590E+00  5.00868E+00  6.53781E+00  7.09804E+00  5.77955E+00
   6.08979E+00  5.08603E+00  4.95267E+00  4.82144E+00  3.89988E+00  5.27858E+00  4.33497E+00  3.78611E+00  5.64257E+00  6.19272E+00
   5.56671E+00  4.07051E+00  5.20935E+00  4.25804E+00  3.26891E+00  4.19973E+00  4.33252E+00  2.70010E+00  5.94707E+00  3.70633E+00
   4.34916E+00  4.38950E+00  2.75743E+00  4.55435E+00  5.45760E+00  4.27023E+00  3.67532E+00  4.00570E+00  5.19016E+00  4.03561E+00
   4.43283E+00  2.69751E+00  3.43135E+00  3.36715E+00  4.49132E+00  2.76755E+00  4.13057E+00  4.11355E+00  3.09631E+00  3.51974E+00
   2.38498E+00  2.90044E+00  5.29141E-01  2.45216E+00  1.79419E+00  2.93163E+00  2.93243E+00  2.74853E+00  4.49130E+00  3.30397E+00
   2.75222E+00  3.12917E+00  2.26247E+00  3.62444E+00  2.13526E+00  3.09736E+00  3.96595E+00  3.32139E+00  3.03149E+00  1.89027E+00
   2.20522E+00  2.35532E+00  3.98266E+00  3.12354E+00  2.69702E+00  4.52404E+00  1.92412E+00  1.63524E+00  2.33065E+00  4.28347E+00
   1.90709E+00  2.16114E+00  3.15931E+00  3.07062E+00  2.02812E+00  2.68329E+00  2.84941E+00  2.53122E+00  2.18990E+00  1.78775E+00
   2.39476E+00  1.11555E+00  2.07378E+00  2.05991E+00  1.47309E+00  1.02075E+00  3.52306E-01  3.20052E+00  1.18727E+00  2.36390E+00
   1.59675E+00  1.72068E+00  1.05350E+00  2.41138E+00  2.92413E-01 -9.94601E-01  1.07423E+00  1.17753E+00  1.64235E+00  1.75891E+00
   2.24533E+00  2.25469E+00  1.04668E+00  7.26193E-01  9.51060E-01  6.73009E-01  1.54048E+00  1.64689E-01
 NY points of the fit to the data follow
   2.82347E+00  2.82896E+00  3.05021E+00  3.40234E+00  3.72914E+00  3.98921E+00  4.21499E+00  4.37369E+00  4.41056E+00  4.36238E+00
   4.27854E+00  4.10639E+00  3.85661E+00  3.64996E+00  3.55696E+00  3.51855E+00  3.40577E+00  3.18149E+00  3.06798E+00  3.19829E+00
   3.33602E+00  3.37927E+00  3.33845E+00  3.29432E+00  3.27757E+00  3.21414E+00  3.16482E+00  3.22381E+00  3.38943E+00  3.56964E+00
   3.77119E+00  4.00927E+00  4.18497E+00  4.20935E+00  4.11387E+00  4.01664E+00  3.98576E+00  3.98324E+00  3.99020E+00  4.00435E+00
   4.01138E+00  3.93017E+00  3.73136E+00  3.58064E+00  3.59547E+00  3.70523E+00  3.87013E+00  4.04784E+00  4.16944E+00  4.15309E+00
   4.04060E+00  3.92557E+00  3.82965E+00  3.75265E+00  3.68966E+00  3.64639E+00  3.61902E+00  3.58826E+00  3.55951E+00  3.55126E+00
   3.56744E+00  3.58897E+00  3.60871E+00  3.62934E+00  3.64899E+00  3.66413E+00  3.68519E+00  3.71887E+00  3.75128E+00  3.77618E+00
   3.80356E+00  3.83712E+00  3.87301E+00  3.91087E+00  3.94549E+00  3.96916E+00  3.98682E+00  4.03171E+00  4.10156E+00  4.15451E+00
   4.21434E+00  4.30323E+00  4.41271E+00  4.52365E+00  4.61615E+00  4.67467E+00  4.70326E+00  4.71671E+00  4.71991E+00  4.71217E+00
   4.68547E+00  4.65007E+00  4.72498E+00  4.93592E+00  5.12163E+00  5.30313E+00  5.57495E+00  5.97360E+00  6.42320E+00  6.83022E+00
   7.15380E+00  7.34089E+00  7.38875E+00  7.35272E+00  7.24431E+00  7.01434E+00  6.67396E+00  6.32071E+00  6.02511E+00  5.75327E+00
   5.39863E+00  4.94130E+00  4.60838E+00  4.52843E+00  4.53376E+00  4.59436E+00  4.84295E+00  5.22614E+00  5.54991E+00  5.92841E+00
   6.48018E+00  7.14537E+00  7.78810E+00  8.35153E+00  8.79839E+00  9.05482E+00  9.11797E+00  9.05774E+00  8.87964E+00  8.51979E+00
   8.01317E+00  7.50704E+00  7.09292E+00  6.69430E+00  6.14392E+00  5.46109E+00  4.99959E+00  4.87812E+00  4.85318E+00  4.85220E+00
   4.86223E+00  4.87789E+00  4.89533E+00  4.91240E+00  4.93164E+00  4.95388E+00  4.97534E+00  4.99569E+00  5.01396E+00  5.02758E+00
   5.03836E+00  5.04897E+00  5.06013E+00  5.06597E+00  5.07055E+00  5.07867E+00  5.08744E+00  5.09695E+00  5.10066E+00  5.09992E+00
   5.10417E+00  5.11595E+00  5.13161E+00  5.14645E+00  5.15855E+00  5.16672E+00  5.17186E+00  5.17372E+00  5.16635E+00  5.14926E+00
   5.13629E+00  5.13100E+00  5.13020E+00  5.11751E+00  5.09929E+00  5.08615E+00  5.08132E+00  5.09519E+00  5.11996E+00  5.14345E+00
   5.17517E+00  5.22446E+00  5.28143E+00  5.33623E+00  5.38912E+00  5.44031E+00  5.50425E+00  5.56735E+00  5.59284E+00  5.59055E+00
   5.57410E+00  5.54817E+00  5.53946E+00  5.56684E+00  5.61716E+00  5.69241E+00  5.86628E+00  6.14745E+00  6.45515E+00  6.75467E+00
   7.02623E+00  7.14841E+00  7.15945E+00  7.15942E+00  7.04544E+00  6.74123E+00  6.36784E+00  6.11169E+00  5.91120E+00  5.79341E+00
   5.85728E+00  6.07777E+00  6.34976E+00  6.62069E+00  6.90929E+00  7.16942E+00  7.30864E+00  7.26954E+00  7.16829E+00  7.15587E+00
   7.17459E+00  7.02746E+00  6.82534E+00  6.76541E+00  6.77222E+00  6.77226E+00  6.84467E+00  7.08594E+00  7.38547E+00  7.65768E+00
   7.89578E+00  8.14133E+00  8.40515E+00  8.54613E+00  8.43769E+00  8.31383E+00  8.31168E+00  8.31694E+00  8.25938E+00  8.19012E+00
   8.14258E+00  8.06330E+00  7.92455E+00  7.75419E+00  7.60480E+00  7.52243E+00  7.51771E+00  7.51619E+00  7.51476E+00  7.54529E+00
   7.61358E+00  7.79065E+00  8.30508E+00  9.07800E+00  9.68149E+00  1.03041E+01  1.11301E+01  1.20571E+01  1.29341E+01  1.37322E+01
   1.43842E+01  1.47500E+01  1.48390E+01  1.47553E+01  1.45204E+01  1.40621E+01  1.34252E+01  1.28048E+01  1.23205E+01  1.18534E+01
   1.11695E+01  1.02844E+01  9.65575E+00  9.48304E+00  9.45058E+00  9.47092E+00  9.50458E+00  9.52560E+00  9.54423E+00  9.55982E+00
   9.57655E+00  9.59662E+00  9.61083E+00  9.60740E+00  9.59649E+00  9.59243E+00  9.59503E+00  9.60032E+00  9.60826E+00  9.62014E+00
   9.63593E+00  9.65160E+00  9.66383E+00  9.67464E+00  9.68480E+00  9.69413E+00  9.70319E+00  9.71294E+00  9.72369E+00  9.73435E+00
   9.74483E+00  9.75591E+00  9.76750E+00  9.77911E+00  9.79114E+00  9.80352E+00  9.81643E+00  9.83000E+00  9.84470E+00  9.86098E+00
   9.87959E+00  9.90130E+00  9.92735E+00  9.95967E+00  1.00018E+01  1.00597E+01  1.01464E+01  1.02928E+01  1.04696E+01  1.05620E+01
   1.06355E+01  1.07389E+01  1.08097E+01  1.07625E+01  1.05739E+01  1.02895E+01  1.00122E+01  9.69741E+00  9.35042E+00  9.05403E+00
   8.86076E+00  8.79327E+00  8.88899E+00  9.15604E+00  9.50256E+00  9.82436E+00  1.01859E+01  1.08343E+01  1.17876E+01  1.24590E+01
   1.28824E+01  1.33696E+01  1.38998E+01  1.41794E+01  1.39755E+01  1.34451E+01  1.30364E+01  1.25675E+01  1.20005E+01  1.15442E+01
   1.12607E+01  1.10923E+01  1.11054E+01  1.13640E+01  1.16490E+01  1.16378E+01  1.13645E+01  1.12923E+01  1.16429E+01  1.18394E+01
   1.17051E+01  1.14907E+01  1.13493E+01  1.11312E+01  1.05283E+01  9.63006E+00  8.97950E+00  8.57892E+00  8.29748E+00  8.08109E+00
   7.90473E+00  7.75466E+00  7.62276E+00  7.50376E+00  7.39428E+00  7.29199E+00  7.19542E+00  7.10342E+00  7.01517E+00  6.92989E+00
   6.84711E+00  6.76636E+00  6.68745E+00  6.61010E+00  6.53415E+00  6.45930E+00  6.38548E+00  6.31252E+00  6.24046E+00  6.16916E+00
   6.09859E+00  6.02860E+00  5.95922E+00  5.89039E+00  5.82217E+00  5.75448E+00  5.68732E+00  5.62061E+00  5.55442E+00  5.48871E+00
   5.42355E+00  5.35888E+00  5.29473E+00  5.23102E+00  5.16787E+00  5.10523E+00  5.04319E+00  4.98166E+00  4.92069E+00  4.86021E+00
   4.80029E+00  4.74088E+00  4.68200E+00  4.62358E+00  4.56564E+00  4.50813E+00  4.45113E+00  4.39456E+00  4.33846E+00  4.28274E+00
   4.22745E+00  4.17256E+00  4.11811E+00  4.06404E+00  4.01038E+00  3.95706E+00  3.90413E+00  3.85155E+00  3.79937E+00  3.74752E+00
   3.69602E+00  3.64483E+00  3.59399E+00  3.54346E+00  3.49329E+00  3.44339E+00  3.39382E+00  3.34451E+00  3.29552E+00  3.24681E+00
   3.19841E+00  3.15025E+00  3.10237E+00  3.05472E+00  3.00737E+00  2.96026E+00  2.91341E+00  2.86676E+00  2.82037E+00  2.77417E+00
   2.72824E+00  2.68251E+00  2.63700E+00  2.59166E+00  2.54653E+00  2.50159E+00  2.45686E+00  2.41229E+00  2.36792E+00  2.32367E+00
   2.27962E+00  2.23571E+00  2.19199E+00  2.14838E+00  2.10493E+00  2.06159E+00  2.01840E+00  1.97533E+00  1.93240E+00  1.88955E+00
   1.84682E+00  1.80418E+00  1.76166E+00  1.71921E+00  1.67687E+00  1.63458E+00  1.59238E+00  1.55023E+00  1.50818E+00  1.46616E+00
   1.42422E+00  1.38229E+00  1.34042E+00  1.29858E+00  1.25680E+00  1.21502E+00  1.17327E+00  1.13152E+00  1.08980E+00  1.04807E+00
   1.00637E+00  9.64646E-01  9.22930E-01  8.81178E-01  8.39441E-01  7.97670E-01  7.55904E-01  7.14088E-01
 NY background values follow
     1.689E+00    1.712E+00    1.736E+00    1.759E+00    1.783E+00    1.807E+00    1.830E+00    1.854E+00    1.878E+00    1.901E+00
     1.925E+00    1.949E+00    1.973E+00    1.996E+00    2.020E+00    2.044E+00    2.068E+00    2.092E+00    2.116E+00    2.140E+00
     2.164E+00    2.188E+00    2.212E+00    2.236E+00    2.260E+00    2.284E+00    2.308E+00    2.332E+00    2.356E+00    2.380E+00
     2.404E+00    2.429E+00    2.453E+00    2.477E+00    2.501E+00    2.526E+00    2.550E+00    2.574E+00    2.599E+00    2.623E+00
     2.648E+00    2.672E+00    2.697E+00    2.721E+00    2.746E+00    2.770E+00    2.795E+00    2.819E+00    2.844E+00    2.869E+00
     2.894E+00    2.918E+00    2.943E+00    2.968E+00    2.992E+00    3.017E+00    3.042E+00    3.067E+00    3.091E+00    3.116E+00
     3.141E+00    3.165E+00    3.190E+00    3.214E+00    3.239E+00    3.263E+00    3.288E+00    3.312E+00    3.337E+00    3.361E+00
     3.385E+00    3.410E+00    3.434E+00    3.458E+00    3.482E+00    3.506E+00    3.530E+00    3.553E+00    3.577E+00    3.601E+00
     3.624E+00    3.648E+00    3.671E+00    3.694E+00    3.718E+00    3.741E+00    3.764E+00    3.786E+00    3.809E+00    3.832E+00
     3.854E+00    3.876E+00    3.899E+00    3.921E+00    3.943E+00    3.965E+00    3.986E+00    4.008E+00    4.029E+00    4.051E+00
     4.072E+00    4.093E+00    4.114E+00    4.135E+00    4.156E+00    4.177E+00    4.198E+00    4.219E+00    4.239E+00    4.260E+00
     4.280E+00    4.301E+00    4.321E+00    4.341E+00    4.362E+00    4.382E+00    4.402E+00    4.422E+00    4.442E+00    4.462E+00
     4.482E+00    4.502E+00    4.522E+00    4.542E+00    4.561E+00    4.581E+00    4.601E+00    4.621E+00    4.640E+00    4.660E+00
     4.680E+00    4.700E+00    4.720E+00    4.739E+00    4.759E+00    4.779E+00    4.799E+00    4.818E+00    4.838E+00    4.858E+00
     4.878E+00    4.898E+00    4.918E+00    4.938E+00    4.958E+00    4.978E+00    4.998E+00    5.019E+00    5.039E+00    5.060E+00
     5.080E+00    5.101E+00    5.122E+00    5.143E+00    5.164E+00    5.185E+00    5.206E+00    5.228E+00    5.249E+00    5.271E+00
     5.293E+00    5.315E+00    5.337E+00    5.360E+00    5.382E+00    5.405E+00    5.428E+00    5.451E+00    5.474E+00    5.498E+00
     5.522E+00    5.546E+00    5.570E+00    5.595E+00    5.619E+00    5.644E+00    5.670E+00    5.695E+00    5.721E+00    5.747E+00
     5.773E+00    5.800E+00    5.827E+00    5.854E+00    5.881E+00    5.909E+00    5.937E+00    5.965E+00    5.994E+00    6.023E+00
     6.052E+00    6.081E+00    6.111E+00    6.140E+00    6.171E+00    6.201E+00    6.231E+00    6.262E+00    6.293E+00    6.324E+00
     6.356E+00    6.387E+00    6.419E+00    6.451E+00    6.484E+00    6.516E+00    6.549E+00    6.582E+00    6.615E+00    6.648E+00
     6.682E+00    6.715E+00    6.749E+00    6.783E+00    6.817E+00    6.852E+00    6.886E+00    6.921E+00    6.956E+00    6.991E+00
     7.026E+00    7.061E+00    7.096E+00    7.132E+00    7.167E+00    7.203E+00    7.239E+00    7.275E+00    7.311E+00    7.348E+00
     7.384E+00    7.420E+00    7.457E+00    7.493E+00    7.530E+00    7.566E+00    7.603E+00    7.639E+00    7.676E+00    7.712E+00
     7.749E+00    7.785E+00    7.822E+00    7.858E+00    7.894E+00    7.930E+00    7.966E+00    8.002E+00    8.037E+00    8.073E+00
     8.108E+00    8.143E+00    8.178E+00    8.213E+00    8.247E+00    8.281E+00    8.315E+00    8.349E+00    8.382E+00    8.415E+00
     8.448E+00    8.481E+00    8.513E+00    8.544E+00    8.576E+00    8.607E+00    8.638E+00    8.668E+00    8.698E+00    8.727E+00
     8.756E+00    8.785E+00    8.813E+00    8.841E+00    8.868E+00    8.894E+00    8.921E+00    8.946E+00    8.971E+00    8.995E+00
     9.019E+00    9.042E+00    9.065E+00    9.087E+00    9.108E+00    9.128E+00    9.148E+00    9.167E+00    9.185E+00    9.202E+00
     9.219E+00    9.234E+00    9.249E+00    9.263E+00    9.276E+00    9.289E+00    9.300E+00    9.310E+00    9.320E+00    9.328E+00
     9.336E+00    9.342E+00    9.347E+00    9.352E+00    9.355E+00    9.357E+00    9.358E+00    9.358E+00    9.357E+00    9.354E+00
     9.351E+00    9.346E+00    9.340E+00    9.333E+00    9.324E+00    9.314E+00    9.303E+00    9.291E+00    9.277E+00    9.262E+00
     9.245E+00    9.228E+00    9.209E+00    9.189E+00    9.167E+00    9.145E+00    9.121E+00    9.096E+00    9.070E+00    9.043E+00
     9.014E+00    8.985E+00    8.954E+00    8.923E+00    8.890E+00    8.857E+00    8.822E+00    8.786E+00    8.749E+00    8.712E+00
     8.673E+00    8.634E+00    8.593E+00    8.552E+00    8.510E+00    8.467E+00    8.423E+00    8.378E+00    8.332E+00    8.286E+00
     8.238E+00    8.190E+00    8.142E+00    8.092E+00    8.042E+00    7.991E+00    7.940E+00    7.887E+00    7.834E+00    7.781E+00
     7.727E+00    7.672E+00    7.617E+00    7.561E+00    7.504E+00    7.447E+00    7.390E+00    7.332E+00    7.273E+00    7.214E+00
     7.155E+00    7.095E+00    7.035E+00    6.975E+00    6.914E+00    6.853E+00    6.792E+00    6.730E+00    6.669E+00    6.607E+00
     6.545E+00    6.482E+00    6.420E+00    6.357E+00    6.294E+00    6.232E+00    6.169E+00    6.106E+00    6.043E+00    5.980E+00
     5.917E+00    5.855E+00    5.792E+00    5.729E+00    5.667E+00    5.605E+00    5.542E+00    5.480E+00    5.419E+00    5.357E+00
     5.296E+00    5.235E+00    5.174E+00    5.114E+00    5.054E+00    4.994E+00    4.935E+00    4.876E+00    4.818E+00    4.760E+00
     4.702E+00    4.645E+00    4.588E+00    4.532E+00    4.476E+00    4.420E+00    4.365E+00    4.310E+00    4.255E+00    4.201E+00
     4.148E+00    4.094E+00    4.041E+00    3.988E+00    3.936E+00    3.884E+00    3.832E+00    3.781E+00    3.730E+00    3.679E+00
     3.629E+00    3.579E+00    3.529E+00    3.479E+00    3.430E+00    3.381E+00    3.333E+00    3.284E+00    3.236E+00    3.188E+00
     3.141E+00    3.093E+00    3.046E+00    3.000E+00    2.953E+00    2.907E+00    2.860E+00    2.814E+00    2.769E+00    2.723E+00
     2.678E+00    2.633E+00    2.588E+00    2.543E+00    2.499E+00    2.454E+00    2.410E+00    2.366E+00    2.323E+00    2.279E+00
     2.235E+00    2.192E+00    2.149E+00    2.106E+00    2.063E+00    2.020E+00    1.977E+00    1.935E+00    1.892E+00    1.850E+00
     1.807E+00    1.765E+00    1.723E+00    1.681E+00    1.639E+00    1.597E+00    1.556E+00    1.514E+00    1.472E+00    1.430E+00
     1.389E+00    1.347E+00    1.306E+00    1.264E+00    1.223E+00    1.181E+00    1.140E+00    1.099E+00    1.057E+00    1.016E+00
     9.743E-01    9.328E-01    8.913E-01    8.498E-01    8.083E-01    7.667E-01    7.251E-01    6.834E-01
 Ala      Conc. = 2.31E+02
