 LCModel (Version 6.3-1L) Copyright: S.W. Provencher.          Ref.: Magn. Reson. Med. 30:672-679 (1993).                
 Slice#3 Row#12 Col#6  PD_05_press_1_raw_act
 36 lines in following concentration table = NCONC+1
    Conc.  %SD /Cr+PCr  Metabolite                                         
  170.674  68%   0.217 Ala                                                 
    0.000 999%   0.000 Asp                                                 
  736.857  27%   0.936 Cr                                                  
   50.239 393% 6.4E-02 PCr                                                 
   23.567 373% 3.0E-02 GABA                                                
   41.069 199% 5.2E-02 Glc                                                 
 1.12E+03  32%   1.425 Gln                                                 
 1.07E+03  39%   1.365 Glu                                                 
  248.949   6%   0.316 GPC                                                 
    0.000 999%   0.000 PCh                                                 
  396.248  17%   0.503 GSH                                                 
 1.41E+03  16%   1.798 Ins                                                 
    0.000 999%   0.000 Lac                                                 
 1.02E+03   4%   1.295 NAA                                                 
    0.000 999%   0.000 NAAG                                                
  143.200  13%   0.182+Scyllo                                              
  400.313  30%   0.509 Tau                                                 
  363.089  24%   0.461 -CrCH2                                              
  248.949   6%   0.316 GPC+PCh                                             
 1.02E+03   4%   1.295 NAA+NAAG                                            
  787.096   4%   1.000 Cr+PCr                                              
 2.20E+03  34%   2.791 Glu+Gln                                             
  138.657 103%   0.176 Lip13a                                              
    0.000 999%   0.000 Lip13b                                              
   39.538 202% 5.0E-02 Lip09                                               
  336.189  28%   0.427 MM09                                                
   13.684 386% 1.7E-02 Lip20                                               
  337.773  49%   0.429 MM20                                                
  186.172  43%   0.237 MM12                                                
  122.670  87%   0.156 MM14                                                
    0.000 999%   0.000 MM17                                                
  138.657 103%   0.176 Lip13a+Lip13b                                       
  447.500  37%   0.569 MM14+Lip13a+Lip13b+MM12                             
  375.726  20%   0.477 MM09+Lip09                                          
  351.457  46%   0.447 MM20+Lip20                                          
   6 lines in following misc. output table
  FWHM = 0.107 ppm    S/N =   7                                            
  Data shift = 0.015 ppm                                                   
  Ph: -55 deg     -25.0 deg/ppm                                            
  alphaB,S = 6.6E-01,   1.9E+02                                            
   14 spline knots.   Ns = 6(2)                                            
  ( 7) 2 infls.   ( 1) 1 extrs.                                            
  498 points on ppm-axis = NY
      4.000000     3.992357     3.984714     3.977070     3.969427     3.961784     3.954141     3.946497     3.938854     3.931211
      3.923568     3.915925     3.908281     3.900638     3.892995     3.885352     3.877708     3.870065     3.862422     3.854779
      3.847136     3.839492     3.831849     3.824206     3.816563     3.808919     3.801276     3.793633     3.785990     3.778347
      3.770703     3.763060     3.755417     3.747774     3.740130     3.732487     3.724844     3.717201     3.709558     3.701914
      3.694271     3.686628     3.678985     3.671341     3.663698     3.656055     3.648412     3.640769     3.633125     3.625482
      3.617839     3.610196     3.602552     3.594909     3.587266     3.579623     3.571980     3.564336     3.556693     3.549050
      3.541407     3.533763     3.526120     3.518477     3.510834     3.503191     3.495547     3.487904     3.480261     3.472618
      3.464974     3.457331     3.449688     3.442045     3.434402     3.426758     3.419115     3.411472     3.403829     3.396185
      3.388542     3.380899     3.373256     3.365613     3.357969     3.350326     3.342683     3.335040     3.327396     3.319753
      3.312110     3.304467     3.296824     3.289180     3.281537     3.273894     3.266251     3.258607     3.250964     3.243321
      3.235678     3.228034     3.220391     3.212748     3.205105     3.197462     3.189818     3.182175     3.174532     3.166889
      3.159245     3.151602     3.143959     3.136316     3.128673     3.121029     3.113386     3.105743     3.098100     3.090456
      3.082813     3.075170     3.067527     3.059884     3.052240     3.044597     3.036954     3.029311     3.021667     3.014024
      3.006381     2.998738     2.991095     2.983451     2.975808     2.968165     2.960522     2.952878     2.945235     2.937592
      2.929949     2.922306     2.914662     2.907019     2.899376     2.891733     2.884089     2.876446     2.868803     2.861160
      2.853517     2.845873     2.838230     2.830587     2.822944     2.815300     2.807657     2.800014     2.792371     2.784728
      2.777084     2.769441     2.761798     2.754155     2.746511     2.738868     2.731225     2.723582     2.715939     2.708295
      2.700652     2.693009     2.685366     2.677722     2.670079     2.662436     2.654793     2.647150     2.639506     2.631863
      2.624220     2.616577     2.608933     2.601290     2.593647     2.586004     2.578361     2.570717     2.563074     2.555431
      2.547788     2.540144     2.532501     2.524858     2.517215     2.509572     2.501928     2.494285     2.486642     2.478999
      2.471355     2.463712     2.456069     2.448426     2.440783     2.433139     2.425496     2.417853     2.410210     2.402566
      2.394923     2.387280     2.379637     2.371994     2.364350     2.356707     2.349064     2.341421     2.333777     2.326134
      2.318491     2.310848     2.303205     2.295561     2.287918     2.280275     2.272632     2.264988     2.257345     2.249702
      2.242059     2.234416     2.226772     2.219129     2.211486     2.203843     2.196199     2.188556     2.180913     2.173270
      2.165627     2.157983     2.150340     2.142697     2.135054     2.127410     2.119767     2.112124     2.104481     2.096838
      2.089194     2.081551     2.073908     2.066265     2.058621     2.050978     2.043335     2.035692     2.028049     2.020405
      2.012762     2.005119     1.997476     1.989833     1.982190     1.974546     1.966903     1.959260     1.951617     1.943974
      1.936331     1.928688     1.921045     1.913402     1.905759     1.898115     1.890472     1.882829     1.875186     1.867543
      1.859900     1.852257     1.844614     1.836971     1.829327     1.821684     1.814041     1.806398     1.798755     1.791112
      1.783469     1.775826     1.768183     1.760540     1.752896     1.745253     1.737610     1.729967     1.722324     1.714681
      1.707038     1.699395     1.691752     1.684108     1.676465     1.668822     1.661179     1.653536     1.645893     1.638250
      1.630607     1.622964     1.615321     1.607677     1.600034     1.592391     1.584748     1.577105     1.569462     1.561819
      1.554176     1.546533     1.538890     1.531246     1.523603     1.515960     1.508317     1.500674     1.493031     1.485388
      1.477745     1.470102     1.462458     1.454815     1.447172     1.439529     1.431886     1.424243     1.416600     1.408957
      1.401314     1.393671     1.386027     1.378384     1.370741     1.363098     1.355455     1.347812     1.340169     1.332526
      1.324883     1.317240     1.309596     1.301953     1.294310     1.286667     1.279024     1.271381     1.263738     1.256095
      1.248452     1.240808     1.233165     1.225522     1.217879     1.210236     1.202593     1.194950     1.187307     1.179664
      1.172021     1.164377     1.156734     1.149091     1.141448     1.133805     1.126162     1.118519     1.110876     1.103233
      1.095590     1.087946     1.080303     1.072660     1.065017     1.057374     1.049731     1.042088     1.034445     1.026802
      1.019158     1.011515     1.003872     0.996229     0.988586     0.980943     0.973300     0.965657     0.958014     0.950371
      0.942727     0.935084     0.927441     0.919798     0.912155     0.904512     0.896869     0.889226     0.881583     0.873940
      0.866296     0.858653     0.851010     0.843367     0.835724     0.828081     0.820438     0.812795     0.805152     0.797508
      0.789865     0.782222     0.774579     0.766936     0.759293     0.751650     0.744007     0.736364     0.728721     0.721077
      0.713434     0.705791     0.698148     0.690505     0.682862     0.675219     0.667576     0.659933     0.652290     0.644646
      0.637003     0.629360     0.621717     0.614074     0.606431     0.598788     0.591145     0.583502     0.575858     0.568215
      0.560572     0.552929     0.545286     0.537643     0.530000     0.522357     0.514714     0.507071     0.499427     0.491784
      0.484141     0.476498     0.468855     0.461212     0.453569     0.445925     0.438282     0.430639     0.422996     0.415353
      0.407710     0.400067     0.392424     0.384780     0.377137     0.369494     0.361851     0.354208     0.346565     0.338922
      0.331278     0.323635     0.315992     0.308349     0.300706     0.293063     0.285420     0.277777     0.270133     0.262490
      0.254847     0.247204     0.239561     0.231918     0.224275     0.216631     0.208988     0.201345
 NY phased data points follow
  -5.90811E+01 -5.75413E+01 -5.83670E+01 -5.48888E+01 -5.49149E+01 -5.21313E+01 -5.06607E+01 -5.01117E+01 -4.84846E+01 -4.75539E+01
  -4.92349E+01 -4.72457E+01 -4.71636E+01 -4.64663E+01 -4.59463E+01 -4.65745E+01 -4.89017E+01 -4.74362E+01 -4.95291E+01 -4.63433E+01
  -4.67090E+01 -4.55410E+01 -4.62505E+01 -4.29023E+01 -4.47791E+01 -4.47881E+01 -4.13492E+01 -4.21500E+01 -4.09087E+01 -4.05775E+01
  -4.09015E+01 -3.81118E+01 -4.08235E+01 -3.89762E+01 -3.89414E+01 -3.70736E+01 -3.65439E+01 -3.56983E+01 -3.71697E+01 -3.83277E+01
  -3.56633E+01 -3.45636E+01 -3.53909E+01 -3.31351E+01 -3.48865E+01 -3.42063E+01 -3.47566E+01 -3.27269E+01 -3.24055E+01 -3.25092E+01
  -3.29128E+01 -3.33494E+01 -3.35702E+01 -3.09929E+01 -3.36191E+01 -3.23446E+01 -3.26052E+01 -3.04192E+01 -3.33045E+01 -3.17276E+01
  -3.35006E+01 -2.96831E+01 -3.17564E+01 -3.01741E+01 -3.23986E+01 -3.01820E+01 -3.02249E+01 -2.89688E+01 -2.85897E+01 -2.72619E+01
  -2.73809E+01 -2.74108E+01 -2.74375E+01 -2.83891E+01 -2.82336E+01 -2.81007E+01 -2.70777E+01 -2.55619E+01 -2.56022E+01 -2.68449E+01
  -2.43797E+01 -2.46265E+01 -2.40204E+01 -2.22300E+01 -2.35318E+01 -2.20922E+01 -2.31070E+01 -2.15688E+01 -2.06712E+01 -2.07031E+01
  -2.21674E+01 -2.05063E+01 -1.91859E+01 -1.94010E+01 -1.95694E+01 -1.89494E+01 -1.70911E+01 -1.65555E+01 -1.68550E+01 -1.18263E+01
  -1.27036E+01 -1.12103E+01 -1.29168E+01 -1.06941E+01 -1.06237E+01 -1.03209E+01 -1.14598E+01 -1.10734E+01 -9.30497E+00 -1.19812E+01
  -1.30365E+01 -1.53220E+01 -1.57346E+01 -1.73185E+01 -1.63798E+01 -1.62694E+01 -1.54257E+01 -1.43714E+01 -1.36577E+01 -1.10012E+01
  -1.30233E+01 -8.21349E+00 -9.31056E+00 -7.91298E+00 -6.21254E+00 -6.16431E+00 -4.27667E+00 -4.18587E+00 -2.65669E+00 -1.95894E+00
  -4.93287E+00 -5.20274E+00 -7.41604E+00 -7.89174E+00 -6.84408E+00 -1.04888E+01 -1.16205E+01 -1.15344E+01 -1.43528E+01 -1.18066E+01
  -1.36951E+01 -1.53118E+01 -1.27697E+01 -1.56809E+01 -1.19739E+01 -1.51968E+01 -1.45339E+01 -1.56869E+01 -1.31337E+01 -1.36825E+01
  -1.34340E+01 -1.24834E+01 -1.39662E+01 -1.30379E+01 -1.25790E+01 -1.27822E+01 -1.21660E+01 -1.25221E+01 -1.22124E+01 -9.94221E+00
  -1.37940E+01 -1.37003E+01 -1.36450E+01 -1.15052E+01 -1.18724E+01 -1.32340E+01 -1.10901E+01 -1.41315E+01 -1.34883E+01 -1.15643E+01
  -1.16943E+01 -1.18296E+01 -1.20659E+01 -1.47734E+01 -1.39288E+01 -1.13477E+01 -1.25806E+01 -1.23668E+01 -1.27013E+01 -1.39925E+01
  -1.11020E+01 -1.10203E+01 -1.28610E+01 -1.24097E+01 -1.15365E+01 -1.09126E+01 -1.07298E+01 -9.50582E+00 -9.40800E+00 -1.08146E+01
  -8.35785E+00 -8.09376E+00 -6.21193E+00 -6.12357E+00 -8.29154E+00 -4.64427E+00 -5.87981E+00 -7.44607E+00 -5.34179E+00 -5.90476E+00
  -6.12689E+00 -5.87479E+00 -3.57475E+00 -5.12275E+00 -5.53996E+00 -5.95222E+00 -5.14782E+00 -4.51944E+00 -6.00739E+00 -4.49569E+00
  -5.28654E+00 -5.65504E+00 -3.40783E+00 -4.04003E+00 -4.36462E+00 -1.36705E+00 -1.77792E+00 -4.23493E+00 -2.52682E+00 -3.12357E+00
  -3.22926E+00 -4.78896E+00 -1.49265E+00 -3.68002E+00 -3.05716E+00 -2.56037E+00 -3.30992E+00 -2.48626E+00  6.88444E-01 -3.66889E+00
   7.39528E-01 -2.21603E+00 -1.49746E+00 -9.40020E-01  6.59434E-01  9.49373E-02 -2.26601E+00  1.75517E-01 -1.33220E+00 -6.05377E-01
  -2.30187E+00 -1.87580E+00 -2.04391E+00 -2.51790E+00  3.63175E-01 -1.13922E+00  9.68799E-02 -2.61813E-01 -1.23675E-01  1.31265E+00
   1.57911E+00  3.76732E+00  5.23106E+00  3.29426E+00  6.36441E+00  1.04429E+01  1.15940E+01  1.34773E+01  1.75343E+01  1.89667E+01
   2.03973E+01  1.88837E+01  1.74618E+01  1.80216E+01  1.71322E+01  1.52364E+01  1.26402E+01  1.40874E+01  9.77231E+00  8.23279E+00
   5.33589E+00  5.72520E+00  4.13810E+00  5.13339E+00  1.62924E+00  2.38218E+00  9.50907E-01  1.29899E+00 -2.11064E-01  2.70508E+00
   3.62093E-01  1.24501E+00  9.28151E-01  2.67076E+00  3.05852E+00  1.31947E-01  8.79363E-01  2.24322E+00  2.03044E+00  2.66504E+00
   6.18003E-01  5.90006E-01 -8.56250E-02 -7.04550E-02  1.69253E+00 -2.05063E-01 -1.71498E-01  1.65170E+00  5.70774E-01  7.46203E-01
   2.50053E+00  5.48468E-01  1.64633E+00  1.10289E+00  3.98664E+00  1.48957E+00  1.67745E+00  1.50415E+00  5.75480E-01  2.14668E+00
   1.06299E+00  3.18129E+00  3.86911E+00  2.73360E+00  3.80137E+00  3.62921E+00  5.41532E+00  4.10946E+00  3.16129E+00  4.48921E+00
   3.57163E+00  6.10920E+00  4.89239E+00  4.59560E+00  5.89051E+00  4.30028E+00  4.29618E+00  4.10616E+00  2.10283E+00  4.88592E+00
   4.90151E+00  4.09422E+00  4.18176E+00  4.87300E+00  4.73785E+00  5.03503E+00  2.89228E+00  4.88955E+00  3.80671E+00  3.46721E+00
   5.12308E+00  2.88231E+00  4.63004E+00  5.03965E+00  4.99826E+00  4.83408E+00  5.74403E+00  5.88683E+00  7.25941E+00  6.24492E+00
   4.89793E+00  5.44552E+00  7.17439E+00  3.53235E+00  3.32865E+00  5.55651E+00  4.67826E+00  7.00646E+00  6.54197E+00  7.54858E+00
   7.61755E+00  5.86981E+00  7.19039E+00  8.68327E+00  7.55014E+00  5.06945E+00  6.75753E+00  6.24008E+00  7.19268E+00  8.28186E+00
   8.29844E+00  7.03709E+00  5.09486E+00  7.24531E+00  5.27626E+00  9.75317E+00  6.89470E+00  5.39473E+00  7.33258E+00  7.48477E+00
   7.85691E+00  4.71577E+00  7.72267E+00  6.83994E+00  6.05742E+00  6.74341E+00  4.97454E+00  5.80043E+00  6.62006E+00  6.79535E+00
   5.46921E+00  6.62647E+00  7.89866E+00  6.96287E+00  8.12126E+00  8.09043E+00  9.08902E+00  7.19013E+00  8.59967E+00  7.76406E+00
   8.51834E+00  6.98715E+00  8.67811E+00  6.05512E+00  1.00029E+01  8.29778E+00  8.20369E+00  8.02647E+00  7.13222E+00  1.05428E+01
   9.22123E+00  8.75612E+00  1.03938E+01  6.51089E+00  9.10087E+00  8.71605E+00  7.95983E+00  8.09485E+00  7.25212E+00  9.01709E+00
   8.93008E+00  7.09972E+00  9.28136E+00  9.01567E+00  7.89929E+00  7.64950E+00  9.75253E+00  6.10159E+00  8.47207E+00  6.00031E+00
   7.57930E+00  8.26853E+00  6.35876E+00  4.95284E+00  6.06663E+00  8.13179E+00  5.44108E+00  5.26427E+00  6.29522E+00  7.07135E+00
   7.30363E+00  5.04730E+00  4.83137E+00  6.00433E+00  5.36029E+00  5.77928E+00  6.16992E+00  7.65801E+00  6.18118E+00  6.53856E+00
   7.26692E+00  7.18613E+00  4.87456E+00  5.28523E+00  5.76137E+00  6.24416E+00  5.54944E+00  5.44015E+00  6.84195E+00  7.45035E+00
   8.67466E+00  6.28415E+00  6.59960E+00  4.75843E+00  7.53385E+00  5.31952E+00  5.89803E+00  7.90632E+00  6.82623E+00  5.87986E+00
   6.85991E+00  6.82799E+00  7.30029E+00  6.11346E+00  7.59670E+00  7.30574E+00  6.34247E+00  5.11504E+00  6.53106E+00  7.26638E+00
   6.75416E+00  7.52612E+00  6.42424E+00  5.75042E+00  7.19628E+00  6.00076E+00  5.53473E+00  6.37879E+00  6.45495E+00  5.23100E+00
   6.48111E+00  8.53530E+00  7.14560E+00  6.77797E+00  5.02539E+00  7.17393E+00  7.07173E+00  8.00233E+00
 NY points of the fit to the data follow
  -5.54601E+01 -5.50585E+01 -5.47557E+01 -5.42106E+01 -5.36896E+01 -5.28542E+01 -5.22304E+01 -5.11358E+01 -5.04951E+01 -4.92786E+01
  -4.89211E+01 -4.76343E+01 -4.76457E+01 -4.64704E+01 -4.68810E+01 -4.59664E+01 -4.66868E+01 -4.59982E+01 -4.66313E+01 -4.59138E+01
  -4.62616E+01 -4.54242E+01 -4.55848E+01 -4.46648E+01 -4.47217E+01 -4.37345E+01 -4.32261E+01 -4.18610E+01 -4.14071E+01 -4.00418E+01
  -3.98222E+01 -3.86450E+01 -3.87407E+01 -3.78702E+01 -3.80739E+01 -3.73607E+01 -3.75356E+01 -3.70436E+01 -3.70806E+01 -3.66958E+01
  -3.64458E+01 -3.60328E+01 -3.56203E+01 -3.53088E+01 -3.49236E+01 -3.47373E+01 -3.42158E+01 -3.39317E+01 -3.34846E+01 -3.32382E+01
  -3.30244E+01 -3.29194E+01 -3.29447E+01 -3.28797E+01 -3.30260E+01 -3.28355E+01 -3.29427E+01 -3.25941E+01 -3.27330E+01 -3.22286E+01
  -3.24163E+01 -3.17819E+01 -3.18599E+01 -3.08681E+01 -3.09464E+01 -2.99446E+01 -3.01045E+01 -2.91351E+01 -2.93403E+01 -2.84345E+01
  -2.86005E+01 -2.78055E+01 -2.78883E+01 -2.72827E+01 -2.71097E+01 -2.65292E+01 -2.62776E+01 -2.57206E+01 -2.55133E+01 -2.49377E+01
  -2.47833E+01 -2.40888E+01 -2.40825E+01 -2.32207E+01 -2.34851E+01 -2.25208E+01 -2.30626E+01 -2.20412E+01 -2.28024E+01 -2.18420E+01
  -2.25354E+01 -2.10861E+01 -2.15121E+01 -1.98466E+01 -2.00660E+01 -1.82264E+01 -1.81993E+01 -1.60585E+01 -1.58660E+01 -1.36082E+01
  -1.34613E+01 -1.14723E+01 -1.14112E+01 -9.96484E+00 -1.03739E+01 -9.76204E+00 -1.05339E+01 -1.07073E+01 -1.16607E+01 -1.24090E+01
  -1.34071E+01 -1.44381E+01 -1.52572E+01 -1.61524E+01 -1.60963E+01 -1.65206E+01 -1.59514E+01 -1.59045E+01 -1.47368E+01 -1.35876E+01
  -1.19833E+01 -1.04214E+01 -8.81880E+00 -7.12643E+00 -6.04198E+00 -4.53514E+00 -4.32909E+00 -3.23478E+00 -3.95063E+00 -3.38802E+00
  -4.82113E+00 -4.79838E+00 -6.62654E+00 -7.03139E+00 -8.85147E+00 -9.49182E+00 -1.09389E+01 -1.16512E+01 -1.26910E+01 -1.34009E+01
  -1.39932E+01 -1.44916E+01 -1.40765E+01 -1.42533E+01 -1.38178E+01 -1.39457E+01 -1.35885E+01 -1.36727E+01 -1.34088E+01 -1.34488E+01
  -1.32177E+01 -1.32536E+01 -1.31117E+01 -1.31297E+01 -1.30711E+01 -1.30715E+01 -1.30128E+01 -1.29774E+01 -1.28703E+01 -1.28021E+01
  -1.26960E+01 -1.26071E+01 -1.25232E+01 -1.24317E+01 -1.23993E+01 -1.23024E+01 -1.22860E+01 -1.21963E+01 -1.21893E+01 -1.21426E+01
  -1.21273E+01 -1.21187E+01 -1.20556E+01 -1.20705E+01 -1.19605E+01 -1.20114E+01 -1.18366E+01 -1.19216E+01 -1.16439E+01 -1.16768E+01
  -1.12793E+01 -1.12230E+01 -1.08043E+01 -1.06704E+01 -1.02766E+01 -1.00557E+01 -9.76684E+00 -9.44737E+00 -9.25826E+00 -8.80582E+00
  -8.71147E+00 -8.15242E+00 -8.17764E+00 -7.48268E+00 -7.53573E+00 -6.77081E+00 -6.82343E+00 -6.15381E+00 -6.32478E+00 -5.67301E+00
  -5.88737E+00 -5.34286E+00 -5.63530E+00 -5.22482E+00 -5.51120E+00 -5.25503E+00 -5.48405E+00 -5.32199E+00 -5.34635E+00 -5.28669E+00
  -5.10146E+00 -5.16041E+00 -4.66475E+00 -4.87335E+00 -4.21416E+00 -4.57174E+00 -3.83742E+00 -4.26149E+00 -3.53131E+00 -3.94991E+00
  -3.33994E+00 -3.56180E+00 -3.05075E+00 -3.13196E+00 -2.81758E+00 -2.76646E+00 -2.74680E+00 -2.41691E+00 -2.47960E+00 -1.93056E+00
  -2.10573E+00 -1.42484E+00 -1.56566E+00 -9.71063E-01 -1.13203E+00 -6.79303E-01 -8.56405E-01 -7.14345E-01 -9.63977E-01 -1.11528E+00
  -1.16760E+00 -1.47941E+00 -1.31848E+00 -1.69780E+00 -1.32969E+00 -1.68800E+00 -1.16270E+00 -1.25369E+00  1.54075E-01  6.66528E-01
   2.50455E+00  3.48196E+00  5.43255E+00  6.90952E+00  9.13252E+00  1.10167E+01  1.30447E+01  1.50753E+01  1.62602E+01  1.79066E+01
   1.79226E+01  1.89947E+01  1.77818E+01  1.82045E+01  1.60225E+01  1.58345E+01  1.31063E+01  1.25226E+01  9.76908E+00  9.03277E+00
   6.69288E+00  5.96162E+00  4.03991E+00  3.34613E+00  1.90539E+00  1.48112E+00  1.35060E+00  1.32180E+00  1.28926E+00  1.30148E+00
   1.30649E+00  1.30917E+00  1.32516E+00  1.33460E+00  1.35568E+00  1.36607E+00  1.38773E+00  1.39762E+00  1.41829E+00  1.44245E+00
   1.47558E+00  1.51102E+00  1.55175E+00  1.59573E+00  1.64089E+00  1.68971E+00  1.73467E+00  1.78512E+00  1.83322E+00  1.88671E+00
   1.93868E+00  1.99579E+00  2.05270E+00  2.11365E+00  2.17480E+00  2.24003E+00  2.30681E+00  2.37661E+00  2.44962E+00  2.52622E+00
   2.60770E+00  2.69483E+00  2.79047E+00  2.89882E+00  3.03299E+00  3.19443E+00  3.30365E+00  3.48182E+00  3.54516E+00  3.73088E+00
   3.73149E+00  3.90911E+00  3.80282E+00  4.01055E+00  3.82129E+00  4.02986E+00  3.77743E+00  3.97522E+00  3.70562E+00  3.91895E+00
   3.70607E+00  3.95151E+00  3.84811E+00  4.11358E+00  4.12997E+00  4.38895E+00  4.50189E+00  4.72351E+00  4.88195E+00  5.03799E+00
   5.21292E+00  5.31127E+00  5.50197E+00  5.58221E+00  5.69370E+00  5.71866E+00  5.78767E+00  5.78151E+00  5.81898E+00  5.78981E+00
   5.80271E+00  5.84311E+00  5.89505E+00  5.95469E+00  6.01694E+00  6.08156E+00  6.14481E+00  6.20733E+00  6.26580E+00  6.32132E+00
   6.37078E+00  6.41568E+00  6.45314E+00  6.48512E+00  6.50906E+00  6.52740E+00  6.53787E+00  6.54335E+00  6.54184E+00  6.53664E+00
   6.52596E+00  6.51342E+00  6.49728E+00  6.48135E+00  6.46387E+00  6.44874E+00  6.43411E+00  6.42385E+00  6.41588E+00  6.41404E+00
   6.41605E+00  6.42573E+00  6.44060E+00  6.46442E+00  6.49455E+00  6.53473E+00  6.58220E+00  6.64073E+00  6.70732E+00  6.78567E+00
   6.87251E+00  6.97133E+00  7.07849E+00  7.19709E+00  7.32286E+00  7.45837E+00  7.59854E+00  7.74530E+00  7.89280E+00  8.04229E+00
   8.18719E+00  8.32832E+00  8.45870E+00  8.57915E+00  8.68278E+00  8.77086E+00  8.83711E+00  8.88381E+00  8.90575E+00  8.90663E+00
   8.88252E+00  8.83857E+00  8.77208E+00  8.68946E+00  8.58895E+00  8.47778E+00  8.35459E+00  8.22685E+00  8.09309E+00  7.96056E+00
   7.82724E+00  7.69982E+00  7.57544E+00  7.46006E+00  7.34999E+00  7.25051E+00  7.15721E+00  7.07484E+00  6.99840E+00  6.93231E+00
   6.87126E+00  6.81955E+00  6.77168E+00  6.73196E+00  6.69483E+00  6.66469E+00  6.63601E+00  6.61338E+00  6.59127E+00  6.57442E+00
   6.55732E+00  6.54489E+00  6.53166E+00  6.52268E+00  6.51247E+00  6.50619E+00  6.49834E+00  6.49423E+00  6.48832E+00  6.48602E+00
   6.48174E+00  6.48096E+00  6.47806E+00  6.47860E+00  6.47694E+00  6.47864E+00  6.47801E+00  6.48069E+00  6.48094E+00  6.48448E+00
   6.48552E+00  6.48982E+00  6.49154E+00  6.49650E+00  6.49882E+00  6.50438E+00  6.50725E+00  6.51335E+00  6.51669E+00  6.52325E+00
   6.52702E+00  6.53404E+00  6.53820E+00  6.54561E+00  6.55012E+00  6.55788E+00  6.56270E+00  6.57081E+00  6.57593E+00  6.58433E+00
   6.58970E+00  6.59838E+00  6.60400E+00  6.61295E+00  6.61879E+00  6.62797E+00  6.63401E+00  6.64341E+00  6.64966E+00  6.65929E+00
   6.66572E+00  6.67554E+00  6.68215E+00  6.69220E+00  6.69902E+00  6.70929E+00  6.71631E+00  6.72683E+00
 NY background values follow
    -6.046E+01   -6.004E+01   -5.962E+01   -5.921E+01   -5.879E+01   -5.838E+01   -5.796E+01   -5.755E+01   -5.713E+01   -5.671E+01
    -5.630E+01   -5.589E+01   -5.547E+01   -5.506E+01   -5.464E+01   -5.423E+01   -5.382E+01   -5.341E+01   -5.299E+01   -5.258E+01
    -5.217E+01   -5.176E+01   -5.135E+01   -5.095E+01   -5.054E+01   -5.013E+01   -4.973E+01   -4.932E+01   -4.892E+01   -4.852E+01
    -4.812E+01   -4.772E+01   -4.732E+01   -4.692E+01   -4.652E+01   -4.613E+01   -4.574E+01   -4.534E+01   -4.495E+01   -4.456E+01
    -4.418E+01   -4.379E+01   -4.341E+01   -4.302E+01   -4.264E+01   -4.226E+01   -4.189E+01   -4.151E+01   -4.114E+01   -4.077E+01
    -4.040E+01   -4.003E+01   -3.966E+01   -3.930E+01   -3.894E+01   -3.858E+01   -3.822E+01   -3.786E+01   -3.751E+01   -3.716E+01
    -3.681E+01   -3.646E+01   -3.611E+01   -3.577E+01   -3.543E+01   -3.509E+01   -3.475E+01   -3.441E+01   -3.408E+01   -3.375E+01
    -3.342E+01   -3.309E+01   -3.277E+01   -3.245E+01   -3.212E+01   -3.181E+01   -3.149E+01   -3.118E+01   -3.087E+01   -3.056E+01
    -3.025E+01   -2.995E+01   -2.965E+01   -2.935E+01   -2.905E+01   -2.876E+01   -2.847E+01   -2.818E+01   -2.789E+01   -2.760E+01
    -2.732E+01   -2.704E+01   -2.677E+01   -2.649E+01   -2.622E+01   -2.595E+01   -2.568E+01   -2.542E+01   -2.516E+01   -2.490E+01
    -2.464E+01   -2.438E+01   -2.413E+01   -2.388E+01   -2.363E+01   -2.338E+01   -2.314E+01   -2.290E+01   -2.266E+01   -2.242E+01
    -2.218E+01   -2.195E+01   -2.172E+01   -2.149E+01   -2.126E+01   -2.103E+01   -2.081E+01   -2.059E+01   -2.037E+01   -2.015E+01
    -1.993E+01   -1.971E+01   -1.950E+01   -1.929E+01   -1.908E+01   -1.887E+01   -1.867E+01   -1.846E+01   -1.826E+01   -1.806E+01
    -1.786E+01   -1.766E+01   -1.746E+01   -1.726E+01   -1.707E+01   -1.688E+01   -1.669E+01   -1.650E+01   -1.631E+01   -1.612E+01
    -1.594E+01   -1.575E+01   -1.557E+01   -1.539E+01   -1.521E+01   -1.503E+01   -1.485E+01   -1.467E+01   -1.450E+01   -1.432E+01
    -1.415E+01   -1.398E+01   -1.380E+01   -1.363E+01   -1.347E+01   -1.330E+01   -1.313E+01   -1.296E+01   -1.280E+01   -1.264E+01
    -1.247E+01   -1.231E+01   -1.215E+01   -1.199E+01   -1.183E+01   -1.167E+01   -1.152E+01   -1.136E+01   -1.120E+01   -1.105E+01
    -1.089E+01   -1.074E+01   -1.059E+01   -1.044E+01   -1.029E+01   -1.013E+01   -9.985E+00   -9.836E+00   -9.687E+00   -9.540E+00
    -9.392E+00   -9.246E+00   -9.100E+00   -8.954E+00   -8.809E+00   -8.665E+00   -8.522E+00   -8.379E+00   -8.237E+00   -8.096E+00
    -7.955E+00   -7.815E+00   -7.676E+00   -7.538E+00   -7.401E+00   -7.265E+00   -7.129E+00   -6.995E+00   -6.861E+00   -6.729E+00
    -6.597E+00   -6.467E+00   -6.337E+00   -6.209E+00   -6.082E+00   -5.956E+00   -5.831E+00   -5.707E+00   -5.584E+00   -5.463E+00
    -5.343E+00   -5.224E+00   -5.106E+00   -4.990E+00   -4.875E+00   -4.761E+00   -4.649E+00   -4.539E+00   -4.429E+00   -4.321E+00
    -4.215E+00   -4.110E+00   -4.007E+00   -3.905E+00   -3.805E+00   -3.706E+00   -3.609E+00   -3.514E+00   -3.420E+00   -3.328E+00
    -3.237E+00   -3.148E+00   -3.061E+00   -2.974E+00   -2.890E+00   -2.806E+00   -2.724E+00   -2.643E+00   -2.563E+00   -2.485E+00
    -2.408E+00   -2.332E+00   -2.257E+00   -2.183E+00   -2.110E+00   -2.038E+00   -1.967E+00   -1.897E+00   -1.827E+00   -1.759E+00
    -1.692E+00   -1.625E+00   -1.559E+00   -1.494E+00   -1.429E+00   -1.365E+00   -1.301E+00   -1.239E+00   -1.176E+00   -1.114E+00
    -1.053E+00   -9.920E-01   -9.313E-01   -8.711E-01   -8.111E-01   -7.514E-01   -6.919E-01   -6.326E-01   -5.735E-01   -5.145E-01
    -4.556E-01   -3.967E-01   -3.379E-01   -2.791E-01   -2.202E-01   -1.614E-01   -1.027E-01   -4.388E-02    1.488E-02    7.363E-02
     1.324E-01    1.911E-01    2.498E-01    3.084E-01    3.671E-01    4.257E-01    4.844E-01    5.430E-01    6.015E-01    6.601E-01
     7.186E-01    7.771E-01    8.356E-01    8.941E-01    9.525E-01    1.011E+00    1.069E+00    1.128E+00    1.186E+00    1.244E+00
     1.302E+00    1.361E+00    1.419E+00    1.477E+00    1.535E+00    1.593E+00    1.651E+00    1.709E+00    1.767E+00    1.825E+00
     1.883E+00    1.941E+00    1.999E+00    2.057E+00    2.115E+00    2.172E+00    2.230E+00    2.288E+00    2.345E+00    2.403E+00
     2.460E+00    2.518E+00    2.575E+00    2.632E+00    2.689E+00    2.746E+00    2.803E+00    2.859E+00    2.916E+00    2.972E+00
     3.028E+00    3.084E+00    3.139E+00    3.194E+00    3.249E+00    3.304E+00    3.358E+00    3.413E+00    3.466E+00    3.520E+00
     3.573E+00    3.626E+00    3.678E+00    3.730E+00    3.782E+00    3.833E+00    3.884E+00    3.934E+00    3.984E+00    4.033E+00
     4.082E+00    4.131E+00    4.179E+00    4.226E+00    4.273E+00    4.320E+00    4.365E+00    4.411E+00    4.455E+00    4.499E+00
     4.543E+00    4.586E+00    4.628E+00    4.670E+00    4.710E+00    4.751E+00    4.790E+00    4.829E+00    4.868E+00    4.906E+00
     4.943E+00    4.979E+00    5.015E+00    5.051E+00    5.085E+00    5.119E+00    5.153E+00    5.186E+00    5.218E+00    5.249E+00
     5.280E+00    5.311E+00    5.341E+00    5.370E+00    5.399E+00    5.427E+00    5.454E+00    5.481E+00    5.507E+00    5.533E+00
     5.558E+00    5.582E+00    5.606E+00    5.630E+00    5.653E+00    5.675E+00    5.696E+00    5.718E+00    5.738E+00    5.758E+00
     5.778E+00    5.796E+00    5.815E+00    5.832E+00    5.850E+00    5.866E+00    5.882E+00    5.898E+00    5.913E+00    5.927E+00
     5.941E+00    5.955E+00    5.968E+00    5.980E+00    5.993E+00    6.004E+00    6.015E+00    6.026E+00    6.037E+00    6.047E+00
     6.057E+00    6.066E+00    6.075E+00    6.084E+00    6.092E+00    6.101E+00    6.108E+00    6.116E+00    6.124E+00    6.131E+00
     6.138E+00    6.145E+00    6.151E+00    6.158E+00    6.164E+00    6.170E+00    6.176E+00    6.182E+00    6.188E+00    6.194E+00
     6.200E+00    6.205E+00    6.211E+00    6.217E+00    6.222E+00    6.228E+00    6.234E+00    6.240E+00    6.246E+00    6.251E+00
     6.257E+00    6.264E+00    6.270E+00    6.276E+00    6.283E+00    6.290E+00    6.296E+00    6.303E+00    6.310E+00    6.317E+00
     6.325E+00    6.332E+00    6.340E+00    6.347E+00    6.355E+00    6.363E+00    6.371E+00    6.379E+00    6.387E+00    6.395E+00
     6.403E+00    6.411E+00    6.420E+00    6.428E+00    6.437E+00    6.446E+00    6.454E+00    6.463E+00    6.472E+00    6.481E+00
     6.490E+00    6.499E+00    6.508E+00    6.517E+00    6.526E+00    6.535E+00    6.544E+00    6.554E+00    6.563E+00    6.572E+00
     6.581E+00    6.591E+00    6.600E+00    6.609E+00    6.619E+00    6.628E+00    6.638E+00    6.647E+00
 Ala      Conc. = 1.71E+02
