 LCModel (Version 6.3-1L) Copyright: S.W. Provencher.          Ref.: Magn. Reson. Med. 30:672-679 (1993).                
 Slice#3 Row#7 Col#10  PD_05_press_1_raw_act
 36 lines in following concentration table = NCONC+1
    Conc.  %SD /Cr+PCr  Metabolite                                         
  136.678  60%   0.109 Ala                                                 
    0.000 999%   0.000 Asp                                                 
  784.037  20%   0.626 Cr                                                  
  468.114  34%   0.374 PCr                                                 
   83.711 147% 6.7E-02 GABA                                                
    0.000 999%   0.000 Glc                                                 
  404.027  42%   0.323 Gln                                                 
 1.44E+03  15%   1.151 Glu                                                 
  403.779   4%   0.322 GPC                                                 
    0.000 999%   0.000 PCh                                                 
  460.723  12%   0.368 GSH                                                 
  806.953  24%   0.644 Ins                                                 
    0.000 999%   0.000 Lac                                                 
 1.96E+03   6%   1.562 NAA                                                 
    5.611 999% 4.5E-03 NAAG                                                
   43.972  45% 3.5E-02 Scyllo                                              
    0.000 999%   0.000 Tau                                                 
   80.568 101% 6.4E-02 -CrCH2                                              
  403.779   4%   0.322 GPC+PCh                                             
 1.96E+03   3%   1.566 NAA+NAAG                                            
 1.25E+03   4%   1.000 Cr+PCr                                              
 1.85E+03  16%   1.474 Glu+Gln                                             
  327.487  67%   0.262 Lip13a                                              
    0.000 999%   0.000 Lip13b                                              
    0.000 999%   0.000 Lip09                                               
 1.03E+03  15%   0.826 MM09                                                
   51.589 128% 4.1E-02 Lip20                                               
 2.57E+03  12%   2.055 MM20                                                
  359.446  36%   0.287 MM12                                                
 2.47E+03  14%   1.972 MM14                                                
 1.38E+03  19%   1.105 MM17                                                
  327.487  67%   0.262 Lip13a+Lip13b                                       
 3.16E+03  11%   2.520 MM14+Lip13a+Lip13b+MM12                             
 1.03E+03  15%   0.826 MM09+Lip09                                          
 2.62E+03  12%   2.096 MM20+Lip20                                          
   6 lines in following misc. output table
  FWHM = 0.046 ppm    S/N =  14                                            
  Data shift = 0.015 ppm                                                   
  Ph:  -7 deg      -5.3 deg/ppm                                            
  alphaB,S = 8.6E-01,   1.0E+02                                            
   14 spline knots.   Ns = 7(1)                                            
  ( 7) 3 infls.   ( 3) 1 extrs.                                            
  498 points on ppm-axis = NY
      4.000000     3.992357     3.984714     3.977070     3.969427     3.961784     3.954141     3.946497     3.938854     3.931211
      3.923568     3.915925     3.908281     3.900638     3.892995     3.885352     3.877708     3.870065     3.862422     3.854779
      3.847136     3.839492     3.831849     3.824206     3.816563     3.808919     3.801276     3.793633     3.785990     3.778347
      3.770703     3.763060     3.755417     3.747774     3.740130     3.732487     3.724844     3.717201     3.709558     3.701914
      3.694271     3.686628     3.678985     3.671341     3.663698     3.656055     3.648412     3.640769     3.633125     3.625482
      3.617839     3.610196     3.602552     3.594909     3.587266     3.579623     3.571980     3.564336     3.556693     3.549050
      3.541407     3.533763     3.526120     3.518477     3.510834     3.503191     3.495547     3.487904     3.480261     3.472618
      3.464974     3.457331     3.449688     3.442045     3.434402     3.426758     3.419115     3.411472     3.403829     3.396185
      3.388542     3.380899     3.373256     3.365613     3.357969     3.350326     3.342683     3.335040     3.327396     3.319753
      3.312110     3.304467     3.296824     3.289180     3.281537     3.273894     3.266251     3.258607     3.250964     3.243321
      3.235678     3.228034     3.220391     3.212748     3.205105     3.197462     3.189818     3.182175     3.174532     3.166889
      3.159245     3.151602     3.143959     3.136316     3.128673     3.121029     3.113386     3.105743     3.098100     3.090456
      3.082813     3.075170     3.067527     3.059884     3.052240     3.044597     3.036954     3.029311     3.021667     3.014024
      3.006381     2.998738     2.991095     2.983451     2.975808     2.968165     2.960522     2.952878     2.945235     2.937592
      2.929949     2.922306     2.914662     2.907019     2.899376     2.891733     2.884089     2.876446     2.868803     2.861160
      2.853517     2.845873     2.838230     2.830587     2.822944     2.815300     2.807657     2.800014     2.792371     2.784728
      2.777084     2.769441     2.761798     2.754155     2.746511     2.738868     2.731225     2.723582     2.715939     2.708295
      2.700652     2.693009     2.685366     2.677722     2.670079     2.662436     2.654793     2.647150     2.639506     2.631863
      2.624220     2.616577     2.608933     2.601290     2.593647     2.586004     2.578361     2.570717     2.563074     2.555431
      2.547788     2.540144     2.532501     2.524858     2.517215     2.509572     2.501928     2.494285     2.486642     2.478999
      2.471355     2.463712     2.456069     2.448426     2.440783     2.433139     2.425496     2.417853     2.410210     2.402566
      2.394923     2.387280     2.379637     2.371994     2.364350     2.356707     2.349064     2.341421     2.333777     2.326134
      2.318491     2.310848     2.303205     2.295561     2.287918     2.280275     2.272632     2.264988     2.257345     2.249702
      2.242059     2.234416     2.226772     2.219129     2.211486     2.203843     2.196199     2.188556     2.180913     2.173270
      2.165627     2.157983     2.150340     2.142697     2.135054     2.127410     2.119767     2.112124     2.104481     2.096838
      2.089194     2.081551     2.073908     2.066265     2.058621     2.050978     2.043335     2.035692     2.028049     2.020405
      2.012762     2.005119     1.997476     1.989833     1.982190     1.974546     1.966903     1.959260     1.951617     1.943974
      1.936331     1.928688     1.921045     1.913402     1.905759     1.898115     1.890472     1.882829     1.875186     1.867543
      1.859900     1.852257     1.844614     1.836971     1.829327     1.821684     1.814041     1.806398     1.798755     1.791112
      1.783469     1.775826     1.768183     1.760540     1.752896     1.745253     1.737610     1.729967     1.722324     1.714681
      1.707038     1.699395     1.691752     1.684108     1.676465     1.668822     1.661179     1.653536     1.645893     1.638250
      1.630607     1.622964     1.615321     1.607677     1.600034     1.592391     1.584748     1.577105     1.569462     1.561819
      1.554176     1.546533     1.538890     1.531246     1.523603     1.515960     1.508317     1.500674     1.493031     1.485388
      1.477745     1.470102     1.462458     1.454815     1.447172     1.439529     1.431886     1.424243     1.416600     1.408957
      1.401314     1.393671     1.386027     1.378384     1.370741     1.363098     1.355455     1.347812     1.340169     1.332526
      1.324883     1.317240     1.309596     1.301953     1.294310     1.286667     1.279024     1.271381     1.263738     1.256095
      1.248452     1.240808     1.233165     1.225522     1.217879     1.210236     1.202593     1.194950     1.187307     1.179664
      1.172021     1.164377     1.156734     1.149091     1.141448     1.133805     1.126162     1.118519     1.110876     1.103233
      1.095590     1.087946     1.080303     1.072660     1.065017     1.057374     1.049731     1.042088     1.034445     1.026802
      1.019158     1.011515     1.003872     0.996229     0.988586     0.980943     0.973300     0.965657     0.958014     0.950371
      0.942727     0.935084     0.927441     0.919798     0.912155     0.904512     0.896869     0.889226     0.881583     0.873940
      0.866296     0.858653     0.851010     0.843367     0.835724     0.828081     0.820438     0.812795     0.805152     0.797508
      0.789865     0.782222     0.774579     0.766936     0.759293     0.751650     0.744007     0.736364     0.728721     0.721077
      0.713434     0.705791     0.698148     0.690505     0.682862     0.675219     0.667576     0.659933     0.652290     0.644646
      0.637003     0.629360     0.621717     0.614074     0.606431     0.598788     0.591145     0.583502     0.575858     0.568215
      0.560572     0.552929     0.545286     0.537643     0.530000     0.522357     0.514714     0.507071     0.499427     0.491784
      0.484141     0.476498     0.468855     0.461212     0.453569     0.445925     0.438282     0.430639     0.422996     0.415353
      0.407710     0.400067     0.392424     0.384780     0.377137     0.369494     0.361851     0.354208     0.346565     0.338922
      0.331278     0.323635     0.315992     0.308349     0.300706     0.293063     0.285420     0.277777     0.270133     0.262490
      0.254847     0.247204     0.239561     0.231918     0.224275     0.216631     0.208988     0.201345
 NY phased data points follow
   1.88423E+01  2.03219E+01  1.86172E+01  2.13513E+01  2.16396E+01  2.51531E+01  2.88732E+01  3.27677E+01  3.60860E+01  3.76521E+01
   4.13944E+01  4.11385E+01  3.88092E+01  3.60694E+01  3.13590E+01  3.01205E+01  2.38520E+01  2.18251E+01  1.67069E+01  1.80750E+01
   1.72300E+01  1.97621E+01  1.99950E+01  1.82633E+01  2.15736E+01  1.91689E+01  1.98098E+01  2.36881E+01  2.25269E+01  2.10817E+01
   2.54313E+01  2.12930E+01  2.45125E+01  2.30330E+01  2.18695E+01  2.20448E+01  1.75946E+01  1.84962E+01  1.85058E+01  1.91546E+01
   1.73865E+01  2.03670E+01  1.93930E+01  1.93738E+01  2.00780E+01  2.51272E+01  2.36698E+01  2.00274E+01  2.10841E+01  2.13906E+01
   1.96077E+01  1.64978E+01  1.84593E+01  1.42050E+01  1.62211E+01  1.44559E+01  1.37725E+01  1.34254E+01  1.45184E+01  1.46240E+01
   1.07059E+01  8.54004E+00  6.42852E+00  5.69245E+00  5.87138E+00  4.29937E+00  5.49819E+00  7.11945E+00  4.79648E+00  8.67974E+00
   6.67909E+00  9.47443E+00  3.67739E+00  7.08854E+00  7.25930E+00  7.31851E+00  6.61436E+00  6.40460E+00  6.62969E+00  8.44462E+00
   7.19349E+00  8.32003E+00  8.36038E+00  6.73328E+00  9.66488E+00  8.95476E+00  8.81647E+00  7.15577E+00  8.99338E+00  7.88549E+00
   6.80672E+00  8.56476E+00  9.00925E+00  8.97690E+00  9.82325E+00  1.38603E+01  1.56139E+01  1.46869E+01  1.87532E+01  2.55729E+01
   3.08142E+01  3.71997E+01  4.21929E+01  3.89784E+01  3.78687E+01  3.17795E+01  2.69884E+01  2.40127E+01  1.57966E+01  1.32504E+01
   9.78949E+00  7.52149E+00  6.28590E+00  7.33653E+00  9.60029E+00  8.24024E+00  1.09130E+01  8.97942E+00  1.02940E+01  1.07983E+01
   1.23588E+01  1.70270E+01  1.54808E+01  2.44121E+01  3.13251E+01  3.85582E+01  4.71317E+01  4.55118E+01  4.43560E+01  3.99211E+01
   3.00806E+01  2.25981E+01  1.89507E+01  1.37020E+01  9.82989E+00  7.80247E+00  6.29943E+00  4.17536E+00  3.74455E+00  7.52485E+00
   4.59352E+00  8.40312E+00  5.49177E-01  6.50530E+00  5.36462E+00  4.64845E+00  7.65734E+00  3.89653E+00  5.06418E+00  6.61191E+00
   4.50524E+00  5.35945E+00  3.44086E+00  4.80917E+00  6.32807E-01  4.15322E+00  2.69333E+00  3.11794E+00  3.29947E+00 -2.06484E-01
   1.91886E+00  1.31194E+00  1.75295E-02  1.33201E-01  1.85111E+00 -3.22118E-01 -1.44274E+00 -7.93536E-01  7.31059E-01 -3.41668E+00
  -2.22141E+00 -4.64336E+00 -6.71775E+00 -9.61750E+00 -1.28071E+01 -5.62669E+00 -5.55004E+00 -7.53389E+00 -3.13195E+00 -8.95673E+00
  -8.16321E+00 -6.72913E+00 -2.95520E+00 -8.50198E+00 -8.85914E+00 -6.48906E+00 -7.10969E+00 -5.80025E+00 -2.63437E+00 -4.23691E-01
   4.63850E+00  3.43669E+00  2.80084E+00  1.19723E+00  4.42420E+00  2.77591E+00 -4.04014E-02 -4.00903E+00 -4.36185E+00 -3.37639E+00
  -1.61019E+00 -1.91349E+00  2.46131E+00  8.75785E-01  2.43421E+00  1.74905E+00 -1.20939E+00 -2.24730E+00 -2.21696E+00 -6.48706E+00
  -6.17837E-01  2.69236E-01  2.60823E+00  5.34474E+00  7.01385E+00  8.82350E+00  1.12238E+01  5.96633E+00  5.44034E+00 -1.01155E+00
  -3.53275E+00  1.85407E-01 -1.36505E+00 -2.37497E+00  5.45437E-01  2.00485E+00  4.70053E+00  4.96307E+00  3.97236E+00  6.71896E+00
   6.36745E+00  5.14855E+00  3.93411E+00  4.76896E+00  8.69954E+00  4.86115E+00  6.85055E+00  4.58511E+00  3.28048E+00  3.39023E+00
   2.60872E+00  3.73861E+00  2.41920E+00  3.80471E+00  6.28096E+00  6.45508E+00  1.14036E+01  1.32454E+01  1.09853E+01  1.31677E+01
   1.17180E+01  1.35099E+01  1.74242E+01  2.28819E+01  2.53145E+01  2.91794E+01  3.79799E+01  5.25067E+01  6.42775E+01  7.26065E+01
   7.63444E+01  6.66832E+01  5.50271E+01  4.15805E+01  2.52450E+01  2.05164E+01  1.39634E+01  9.54039E+00  6.26499E+00  2.99665E+00
   5.12726E+00  3.12390E+00  2.59631E+00  3.64090E+00  6.07281E+00  4.58282E+00  8.41611E+00  5.06260E+00  7.28297E+00  5.18548E+00
   5.29882E+00  5.64969E+00  4.23342E+00  4.17155E+00  5.65025E+00  2.10950E+00  1.44316E+00  3.65957E+00  4.45295E+00  5.44282E+00
   4.12891E+00  5.00175E+00  4.24891E+00  4.30179E+00  3.50034E+00  6.59817E+00  5.95729E+00  6.77292E+00  5.67386E+00  4.88863E+00
   6.06250E+00  3.16405E+00  7.66227E+00  6.69812E+00  6.77547E+00  6.32745E+00  7.01582E+00  6.72303E+00  1.03723E+01  1.02143E+01
   8.95151E+00  9.71697E+00  9.97790E+00  1.16785E+01  9.36453E+00  9.95167E+00  8.71095E+00  8.18181E+00  1.23100E+01  1.11657E+01
   1.04865E+01  1.25031E+01  1.07631E+01  9.84346E+00  6.24200E+00  1.19698E+01  1.22023E+01  1.40860E+01  1.14438E+01  1.13285E+01
   1.21854E+01  9.61576E+00  1.24216E+01  9.37210E+00  1.09964E+01  1.58757E+01  1.54409E+01  9.69574E+00  1.23495E+01  1.14104E+01
   1.13676E+01  7.80662E+00  1.24818E+01  1.14465E+01  1.00551E+01  8.59457E+00  9.96511E+00  6.95716E+00  6.69465E+00  7.42076E+00
   5.63555E+00  6.25807E+00  7.26687E+00  7.89729E+00  3.99117E+00  4.20087E+00  5.04264E+00  2.58676E+00  2.85926E+00  2.81352E+00
   4.91169E+00  5.33035E+00  3.79597E+00  5.31685E+00  4.45919E+00  3.74124E+00  5.41106E+00  5.62398E+00  6.27720E+00  6.42477E+00
   4.57307E+00  2.78329E+00  1.38710E+00  7.39435E-01  4.10697E+00 -1.74183E+00  7.34824E-01  3.79460E+00 -4.69691E-01 -2.64432E+00
   5.20973E-01  8.87461E-01  1.51409E+00  2.04364E+00  3.35126E+00 -6.38716E-01  1.11428E+00  3.95721E-01  4.28592E+00  3.13392E+00
   5.01805E+00  5.13519E+00  4.56446E+00  3.60493E+00  1.59622E+00  3.50624E+00  4.67698E+00  4.21711E+00  5.27989E+00  3.86081E+00
   3.73181E+00  5.71753E+00  5.08878E+00  5.56954E+00  5.77522E+00  6.65930E+00  4.79126E+00  6.55389E+00  4.27158E+00  4.63212E+00
   4.76740E+00  5.08631E+00  3.98271E+00  7.17757E+00  6.87389E+00  5.12643E+00  3.47543E+00  4.56796E+00  2.79770E+00  2.85271E+00
  -1.33928E+00  3.89050E+00  2.42366E+00 -2.23142E+00  2.55858E+00  1.10969E+00  1.57135E+00  1.45180E+00  3.59517E+00  4.12355E+00
   4.09910E+00  4.41374E+00  2.00400E+00  1.08789E+00  8.40708E-02  2.33863E+00  1.32757E+00  1.88719E+00  2.79068E+00  1.43807E+00
   1.00874E+00  1.02345E-01  1.10692E+00  6.72035E-01  2.25778E+00  2.36296E+00  2.45746E+00 -1.36962E+00  6.39641E-01  8.42580E-01
   1.57509E+00  2.47777E+00 -2.45645E+00  8.80454E-01 -1.73673E-01  4.73825E-01  3.38236E+00  1.49039E+00 -1.81103E+00 -2.75040E+00
  -1.65374E+00  3.81026E+00 -1.79853E-01  4.30120E-01 -2.89671E+00  3.49617E-01  3.87383E-01  1.27419E+00 -1.42159E+00  2.69633E+00
   8.42460E-01 -7.72408E-01  7.62776E-01 -4.27273E-01  1.30900E+00  1.24305E-01  9.19620E-02 -5.66609E-01  5.75149E-01 -4.64345E-01
  -2.87900E+00 -1.91505E+00 -1.88109E+00  1.31405E+00 -7.24368E-01 -2.08975E+00  2.63070E+00  1.75445E+00 -1.50233E+00 -1.32550E-01
   3.48413E+00 -1.62394E+00  1.43588E+00 -1.48044E-01  1.10551E+00  1.49363E+00 -2.23135E+00  8.92359E-01
 NY points of the fit to the data follow
   1.80170E+01  1.81925E+01  1.90356E+01  2.01462E+01  2.22092E+01  2.53001E+01  2.85482E+01  3.20642E+01  3.58832E+01  3.92718E+01
   4.12528E+01  4.11565E+01  3.89946E+01  3.54522E+01  3.13948E+01  2.75396E+01  2.43806E+01  2.20095E+01  2.03208E+01  1.90604E+01
   1.82354E+01  1.76431E+01  1.73271E+01  1.76619E+01  1.79778E+01  1.82015E+01  1.89546E+01  2.05151E+01  2.25836E+01  2.45520E+01
   2.59818E+01  2.64803E+01  2.58272E+01  2.42149E+01  2.20280E+01  1.97416E+01  1.76901E+01  1.59551E+01  1.47963E+01  1.45729E+01
   1.50822E+01  1.58319E+01  1.65737E+01  1.74087E+01  1.83819E+01  1.93044E+01  1.98684E+01  1.98080E+01  1.90534E+01  1.77623E+01
   1.62023E+01  1.47430E+01  1.36937E+01  1.30202E+01  1.26073E+01  1.24264E+01  1.24701E+01  1.26734E+01  1.28868E+01  1.29638E+01
   1.28166E+01  1.24056E+01  1.18012E+01  1.11381E+01  1.06198E+01  1.03462E+01  1.02545E+01  1.02909E+01  1.04273E+01  1.06042E+01
   1.07444E+01  1.07814E+01  1.06842E+01  1.04681E+01  1.01765E+01  9.86141E+00  9.57568E+00  9.34100E+00  9.16610E+00  9.08962E+00
   9.07638E+00  8.98811E+00  8.91626E+00  8.94478E+00  8.98883E+00  8.91212E+00  8.64938E+00  8.23233E+00  7.76597E+00  7.40691E+00
   7.20854E+00  7.18500E+00  7.30990E+00  7.52856E+00  7.94198E+00  9.42770E+00  1.27012E+01  1.58292E+01  1.91316E+01  2.42476E+01
   3.11123E+01  3.78850E+01  4.22736E+01  4.27364E+01  3.92566E+01  3.31222E+01  2.61077E+01  1.98517E+01  1.51222E+01  1.16467E+01
   9.01320E+00  7.26543E+00  6.54314E+00  6.27632E+00  6.15399E+00  6.11022E+00  6.10670E+00  6.17262E+00  6.46831E+00  7.73488E+00
   1.11172E+01  1.49977E+01  1.87799E+01  2.41610E+01  3.16010E+01  3.94435E+01  4.52616E+01  4.70928E+01  4.43785E+01  3.83281E+01
   3.09001E+01  2.38516E+01  1.81693E+01  1.36561E+01  9.81931E+00  6.79184E+00  5.03198E+00  4.34868E+00  4.36799E+00  4.83054E+00
   5.41057E+00  5.84773E+00  6.02609E+00  5.92227E+00  5.58665E+00  5.13713E+00  4.66971E+00  4.21785E+00  3.79416E+00  3.41729E+00
   3.08967E+00  2.81116E+00  2.56948E+00  2.29474E+00  1.98368E+00  1.76529E+00  1.58063E+00  1.36416E+00  1.05700E+00  6.21526E-01
   3.09576E-01  2.86159E-01  4.60190E-01  6.21208E-01  5.87415E-01  2.87121E-01 -2.09187E-01 -7.67811E-01 -1.31674E+00 -1.85194E+00
  -2.22110E+00 -2.51121E+00 -2.88502E+00 -3.32522E+00 -3.68904E+00 -3.75765E+00 -3.58719E+00 -3.38350E+00 -3.32373E+00 -3.44513E+00
  -3.63331E+00 -3.64909E+00 -3.55744E+00 -3.42237E+00 -3.18887E+00 -2.75590E+00 -2.00124E+00 -9.01055E-01  4.30553E-01  1.70549E+00
   2.51782E+00  2.67941E+00  2.44959E+00  1.96381E+00  1.26116E+00  4.90546E-01 -2.83228E-02 -1.27206E-01  2.40122E-01  1.07023E+00
   2.17623E+00  3.29746E+00  4.13010E+00  4.27426E+00  3.85943E+00  2.89390E+00  1.37166E+00 -2.82190E-01 -1.64713E+00 -2.24474E+00
  -2.12910E+00 -1.37580E+00  2.58654E-01  2.56818E+00  4.78825E+00  5.99110E+00  5.78159E+00  4.43319E+00  2.26853E+00 -5.17983E-01
  -3.15323E+00 -4.79936E+00 -5.06046E+00 -3.96912E+00 -1.99257E+00  3.63942E-01  2.59417E+00  4.15661E+00  4.85235E+00  4.93848E+00
   4.91628E+00  4.95009E+00  5.03427E+00  5.34307E+00  5.97129E+00  6.69373E+00  7.12935E+00  7.22555E+00  7.03176E+00  6.54613E+00
   5.81864E+00  5.23182E+00  5.15973E+00  5.66757E+00  6.59691E+00  7.71163E+00  8.83604E+00  9.73036E+00  1.02461E+01  1.04873E+01
   1.07318E+01  1.12955E+01  1.37806E+01  2.03215E+01  2.63843E+01  3.20763E+01  4.07870E+01  5.27492E+01  6.46730E+01  7.23646E+01
   7.30280E+01  6.65623E+01  5.52491E+01  4.22748E+01  3.06939E+01  2.19848E+01  1.55463E+01  1.04969E+01  6.90316E+00  5.30625E+00
   4.61777E+00  4.22410E+00  4.03351E+00  3.98761E+00  3.98436E+00  3.94403E+00  3.83859E+00  3.65230E+00  3.40749E+00  3.14700E+00
   2.90522E+00  2.70342E+00  2.56658E+00  2.51055E+00  2.52571E+00  2.59364E+00  2.70124E+00  2.83838E+00  3.00151E+00  3.18929E+00
   3.39970E+00  3.63477E+00  3.89452E+00  4.17710E+00  4.48188E+00  4.80736E+00  5.14896E+00  5.49962E+00  5.85235E+00  6.20137E+00
   6.54075E+00  6.86451E+00  7.16708E+00  7.44273E+00  7.68761E+00  7.89995E+00  8.07985E+00  8.22882E+00  8.34986E+00  8.44737E+00
   8.52720E+00  8.59631E+00  8.66250E+00  8.73366E+00  8.81771E+00  8.92276E+00  9.05727E+00  9.23002E+00  9.45195E+00  9.74330E+00
   1.01360E+01  1.05350E+01  1.08703E+01  1.12401E+01  1.16304E+01  1.19047E+01  1.19379E+01  1.16927E+01  1.13183E+01  1.10090E+01
   1.07600E+01  1.06434E+01  1.07739E+01  1.11506E+01  1.16645E+01  1.21738E+01  1.25432E+01  1.26604E+01  1.24869E+01  1.20871E+01
   1.15663E+01  1.10055E+01  1.04276E+01  9.83411E+00  9.25486E+00  8.72504E+00  8.23316E+00  7.77165E+00  7.33953E+00  6.93739E+00
   6.56596E+00  6.22516E+00  5.91414E+00  5.63123E+00  5.37441E+00  5.14123E+00  4.92897E+00  4.73450E+00  4.55458E+00  4.38610E+00
   4.22642E+00  4.07324E+00  3.92463E+00  3.77888E+00  3.63474E+00  3.49153E+00  3.34922E+00  3.20814E+00  3.06891E+00  2.93227E+00
   2.79934E+00  2.67149E+00  2.55041E+00  2.43773E+00  2.33500E+00  2.24364E+00  2.16518E+00  2.10117E+00  2.05316E+00  2.02240E+00
   2.00997E+00  2.01680E+00  2.04393E+00  2.09229E+00  2.16271E+00  2.25564E+00  2.37136E+00  2.50987E+00  2.67114E+00  2.85470E+00
   3.05964E+00  3.28434E+00  3.52667E+00  3.78394E+00  4.05298E+00  4.32986E+00  4.60997E+00  4.88800E+00  5.15832E+00  5.41506E+00
   5.65237E+00  5.86436E+00  6.04541E+00  6.19039E+00  6.29511E+00  6.35642E+00  6.37237E+00  6.34205E+00  6.26582E+00  6.14524E+00
   5.98328E+00  5.78389E+00  5.55191E+00  5.29260E+00  5.01166E+00  4.71495E+00  4.40845E+00  4.09776E+00  3.78803E+00  3.48366E+00
   3.18845E+00  2.90556E+00  2.63753E+00  2.38613E+00  2.15241E+00  1.93674E+00  1.73915E+00  1.55931E+00  1.39666E+00  1.25026E+00
   1.11901E+00  1.00164E+00  8.97020E-01  8.04036E-01  7.21648E-01  6.48705E-01  5.84143E-01  5.26963E-01  4.76426E-01  4.31844E-01
   3.92603E-01  3.58000E-01  3.27459E-01  3.00487E-01  2.76799E-01  2.56073E-01  2.38001E-01  2.22182E-01  2.08355E-01  1.96318E-01
   1.86013E-01  1.77269E-01  1.69910E-01  1.63687E-01  1.58517E-01  1.54343E-01  1.51186E-01  1.48917E-01  1.47414E-01  1.46518E-01
   1.46240E-01  1.46585E-01  1.47583E-01  1.49106E-01  1.51068E-01  1.53379E-01  1.56109E-01  1.59273E-01  1.62880E-01  1.66796E-01
   1.70971E-01  1.75375E-01  1.80110E-01  1.85176E-01  1.90555E-01  1.96117E-01  2.01852E-01  2.07773E-01  2.13981E-01  2.20446E-01
   2.27129E-01  2.33920E-01  2.40856E-01  2.47978E-01  2.55372E-01  2.62977E-01  2.70743E-01  2.78597E-01  2.86618E-01  2.94852E-01
   3.03358E-01  3.12049E-01  3.20889E-01  3.29851E-01  3.39047E-01  3.48518E-01  3.58295E-01  3.68286E-01
 NY background values follow
     1.571E+01    1.560E+01    1.550E+01    1.539E+01    1.528E+01    1.517E+01    1.506E+01    1.495E+01    1.485E+01    1.474E+01
     1.463E+01    1.452E+01    1.441E+01    1.430E+01    1.419E+01    1.409E+01    1.398E+01    1.387E+01    1.376E+01    1.365E+01
     1.354E+01    1.344E+01    1.333E+01    1.322E+01    1.311E+01    1.300E+01    1.290E+01    1.279E+01    1.268E+01    1.257E+01
     1.246E+01    1.236E+01    1.225E+01    1.214E+01    1.203E+01    1.193E+01    1.182E+01    1.171E+01    1.160E+01    1.150E+01
     1.139E+01    1.128E+01    1.118E+01    1.107E+01    1.096E+01    1.086E+01    1.075E+01    1.064E+01    1.054E+01    1.043E+01
     1.033E+01    1.022E+01    1.011E+01    1.001E+01    9.905E+00    9.800E+00    9.695E+00    9.591E+00    9.486E+00    9.382E+00
     9.278E+00    9.175E+00    9.071E+00    8.968E+00    8.865E+00    8.763E+00    8.660E+00    8.558E+00    8.456E+00    8.355E+00
     8.253E+00    8.152E+00    8.052E+00    7.951E+00    7.851E+00    7.751E+00    7.652E+00    7.553E+00    7.454E+00    7.355E+00
     7.257E+00    7.159E+00    7.062E+00    6.965E+00    6.868E+00    6.772E+00    6.676E+00    6.580E+00    6.485E+00    6.390E+00
     6.296E+00    6.202E+00    6.109E+00    6.015E+00    5.923E+00    5.830E+00    5.739E+00    5.647E+00    5.556E+00    5.466E+00
     5.375E+00    5.286E+00    5.196E+00    5.107E+00    5.019E+00    4.931E+00    4.843E+00    4.756E+00    4.669E+00    4.583E+00
     4.497E+00    4.411E+00    4.326E+00    4.241E+00    4.157E+00    4.073E+00    3.990E+00    3.907E+00    3.824E+00    3.742E+00
     3.660E+00    3.579E+00    3.498E+00    3.417E+00    3.337E+00    3.257E+00    3.178E+00    3.099E+00    3.021E+00    2.943E+00
     2.865E+00    2.788E+00    2.712E+00    2.635E+00    2.559E+00    2.484E+00    2.409E+00    2.334E+00    2.260E+00    2.186E+00
     2.113E+00    2.040E+00    1.968E+00    1.896E+00    1.825E+00    1.754E+00    1.684E+00    1.614E+00    1.545E+00    1.476E+00
     1.408E+00    1.341E+00    1.274E+00    1.208E+00    1.142E+00    1.077E+00    1.013E+00    9.489E-01    8.858E-01    8.234E-01
     7.616E-01    7.006E-01    6.403E-01    5.806E-01    5.217E-01    4.636E-01    4.061E-01    3.495E-01    2.936E-01    2.385E-01
     1.841E-01    1.306E-01    7.790E-02    2.602E-02   -2.504E-02   -7.524E-02   -1.246E-01   -1.731E-01   -2.207E-01   -2.674E-01
    -3.132E-01   -3.581E-01   -4.021E-01   -4.452E-01   -4.873E-01   -5.286E-01   -5.690E-01   -6.086E-01   -6.472E-01   -6.851E-01
    -7.220E-01   -7.582E-01   -7.935E-01   -8.280E-01   -8.616E-01   -8.945E-01   -9.266E-01   -9.579E-01   -9.884E-01   -1.018E+00
    -1.047E+00   -1.076E+00   -1.103E+00   -1.130E+00   -1.156E+00   -1.181E+00   -1.206E+00   -1.230E+00   -1.253E+00   -1.276E+00
    -1.298E+00   -1.319E+00   -1.340E+00   -1.360E+00   -1.379E+00   -1.398E+00   -1.416E+00   -1.434E+00   -1.451E+00   -1.467E+00
    -1.483E+00   -1.498E+00   -1.513E+00   -1.527E+00   -1.541E+00   -1.554E+00   -1.566E+00   -1.578E+00   -1.590E+00   -1.601E+00
    -1.612E+00   -1.622E+00   -1.631E+00   -1.640E+00   -1.649E+00   -1.657E+00   -1.665E+00   -1.672E+00   -1.679E+00   -1.686E+00
    -1.692E+00   -1.698E+00   -1.703E+00   -1.708E+00   -1.712E+00   -1.716E+00   -1.720E+00   -1.724E+00   -1.727E+00   -1.729E+00
    -1.732E+00   -1.734E+00   -1.735E+00   -1.737E+00   -1.738E+00   -1.739E+00   -1.739E+00   -1.739E+00   -1.739E+00   -1.739E+00
    -1.738E+00   -1.737E+00   -1.736E+00   -1.735E+00   -1.733E+00   -1.731E+00   -1.729E+00   -1.727E+00   -1.724E+00   -1.722E+00
    -1.719E+00   -1.716E+00   -1.713E+00   -1.709E+00   -1.706E+00   -1.702E+00   -1.698E+00   -1.694E+00   -1.690E+00   -1.685E+00
    -1.681E+00   -1.676E+00   -1.671E+00   -1.666E+00   -1.661E+00   -1.656E+00   -1.651E+00   -1.645E+00   -1.640E+00   -1.634E+00
    -1.628E+00   -1.622E+00   -1.616E+00   -1.610E+00   -1.604E+00   -1.598E+00   -1.591E+00   -1.585E+00   -1.578E+00   -1.572E+00
    -1.565E+00   -1.558E+00   -1.551E+00   -1.544E+00   -1.537E+00   -1.530E+00   -1.523E+00   -1.516E+00   -1.509E+00   -1.502E+00
    -1.495E+00   -1.487E+00   -1.480E+00   -1.473E+00   -1.465E+00   -1.458E+00   -1.451E+00   -1.443E+00   -1.436E+00   -1.428E+00
    -1.421E+00   -1.413E+00   -1.406E+00   -1.398E+00   -1.391E+00   -1.383E+00   -1.376E+00   -1.368E+00   -1.361E+00   -1.353E+00
    -1.345E+00   -1.338E+00   -1.330E+00   -1.322E+00   -1.315E+00   -1.307E+00   -1.299E+00   -1.291E+00   -1.283E+00   -1.275E+00
    -1.267E+00   -1.260E+00   -1.252E+00   -1.244E+00   -1.235E+00   -1.227E+00   -1.219E+00   -1.211E+00   -1.203E+00   -1.195E+00
    -1.186E+00   -1.178E+00   -1.169E+00   -1.161E+00   -1.153E+00   -1.144E+00   -1.135E+00   -1.127E+00   -1.118E+00   -1.109E+00
    -1.101E+00   -1.092E+00   -1.083E+00   -1.074E+00   -1.065E+00   -1.056E+00   -1.047E+00   -1.038E+00   -1.029E+00   -1.019E+00
    -1.010E+00   -1.001E+00   -9.911E-01   -9.816E-01   -9.720E-01   -9.624E-01   -9.528E-01   -9.430E-01   -9.333E-01   -9.234E-01
    -9.135E-01   -9.035E-01   -8.935E-01   -8.834E-01   -8.733E-01   -8.630E-01   -8.528E-01   -8.424E-01   -8.320E-01   -8.216E-01
    -8.110E-01   -8.004E-01   -7.898E-01   -7.790E-01   -7.683E-01   -7.574E-01   -7.465E-01   -7.355E-01   -7.244E-01   -7.133E-01
    -7.021E-01   -6.909E-01   -6.796E-01   -6.682E-01   -6.567E-01   -6.452E-01   -6.336E-01   -6.219E-01   -6.102E-01   -5.984E-01
    -5.865E-01   -5.746E-01   -5.626E-01   -5.505E-01   -5.384E-01   -5.263E-01   -5.141E-01   -5.019E-01   -4.896E-01   -4.773E-01
    -4.650E-01   -4.526E-01   -4.402E-01   -4.278E-01   -4.154E-01   -4.030E-01   -3.905E-01   -3.780E-01   -3.655E-01   -3.531E-01
    -3.406E-01   -3.281E-01   -3.156E-01   -3.031E-01   -2.907E-01   -2.782E-01   -2.658E-01   -2.534E-01   -2.410E-01   -2.286E-01
    -2.163E-01   -2.040E-01   -1.917E-01   -1.795E-01   -1.673E-01   -1.551E-01   -1.430E-01   -1.310E-01   -1.190E-01   -1.070E-01
    -9.515E-02   -8.333E-02   -7.158E-02   -5.989E-02   -4.827E-02   -3.671E-02   -2.522E-02   -1.378E-02   -2.400E-03    8.924E-03
     2.019E-02    3.141E-02    4.258E-02    5.370E-02    6.478E-02    7.582E-02    8.681E-02    9.776E-02    1.087E-01    1.196E-01
     1.304E-01    1.412E-01    1.520E-01    1.628E-01    1.735E-01    1.842E-01    1.949E-01    2.056E-01    2.162E-01    2.269E-01
     2.375E-01    2.481E-01    2.587E-01    2.693E-01    2.799E-01    2.905E-01    3.011E-01    3.117E-01    3.223E-01    3.329E-01
     3.435E-01    3.542E-01    3.648E-01    3.754E-01    3.861E-01    3.968E-01    4.075E-01    4.182E-01
 Ala      Conc. = 1.37E+02
