 LCModel (Version 6.3-1L) Copyright: S.W. Provencher.          Ref.: Magn. Reson. Med. 30:672-679 (1993).                
 Slice#3 Row#7 Col#8  PD_05_press_1_raw_act
 36 lines in following concentration table = NCONC+1
    Conc.  %SD /Cr+PCr  Metabolite                                         
  173.633  69%   0.116 Ala                                                 
   93.691 226% 6.3E-02 Asp                                                 
  954.611  19%   0.639 Cr                                                  
  539.400  34%   0.361 PCr                                                 
    0.000 999%   0.000 GABA                                                
    0.000 999%   0.000 Glc                                                 
 1.25E+03  21%   0.839 Gln                                                 
 1.45E+03  19%   0.970 Glu                                                 
  440.733   6%   0.295 GPC                                                 
    0.000 999%   0.000 PCh                                                 
  425.315  18%   0.285 GSH                                                 
  764.733  35%   0.512 Ins                                                 
  132.116 101% 8.8E-02 Lac                                                 
 1.98E+03   6%   1.323 NAA                                                 
    0.000 999%   0.000 NAAG                                                
    4.560 586% 3.1E-03 Scyllo                                              
    0.000 999%   0.000 Tau                                                 
    0.000 999%   0.000 -CrCH2                                              
  440.733   6%   0.295 GPC+PCh                                             
 1.98E+03   4%   1.323 NAA+NAAG                                            
 1.49E+03   4%   1.000 Cr+PCr                                              
 2.70E+03  16%   1.809 Glu+Gln                                             
    0.000 999%   0.000 Lip13a                                              
  173.868  69%   0.116 Lip13b                                              
   39.850 104% 2.7E-02 Lip09                                               
 1.07E+03  17%   0.715 MM09                                                
   27.055  95% 1.8E-02 Lip20                                               
 2.50E+03  14%   1.675 MM20                                                
  230.440  52%   0.154 MM12                                                
 1.62E+03  19%   1.086 MM14                                                
  944.546  24%   0.632 MM17                                                
  173.868  69%   0.116 Lip13a+Lip13b                                       
 2.03E+03  17%   1.356 MM14+Lip13a+Lip13b+MM12                             
 1.11E+03  16%   0.742 MM09+Lip09                                          
 2.53E+03  14%   1.693 MM20+Lip20                                          
   6 lines in following misc. output table
  FWHM = 0.046 ppm    S/N =   9                                            
  Data shift = 0.000 ppm                                                   
  Ph: -22 deg      -3.8 deg/ppm                                            
  alphaB,S = 1.1E+00,   2.6E+01                                            
   14 spline knots.   Ns = 7(1)                                            
  (14) 4 infls.   ( 8) 4 extrs.                                            
  498 points on ppm-axis = NY
      4.000000     3.992357     3.984714     3.977070     3.969427     3.961784     3.954141     3.946497     3.938854     3.931211
      3.923568     3.915925     3.908281     3.900638     3.892995     3.885352     3.877708     3.870065     3.862422     3.854779
      3.847136     3.839492     3.831849     3.824206     3.816563     3.808919     3.801276     3.793633     3.785990     3.778347
      3.770703     3.763060     3.755417     3.747774     3.740130     3.732487     3.724844     3.717201     3.709558     3.701914
      3.694271     3.686628     3.678985     3.671341     3.663698     3.656055     3.648412     3.640769     3.633125     3.625482
      3.617839     3.610196     3.602552     3.594909     3.587266     3.579623     3.571980     3.564336     3.556693     3.549050
      3.541407     3.533763     3.526120     3.518477     3.510834     3.503191     3.495547     3.487904     3.480261     3.472618
      3.464974     3.457331     3.449688     3.442045     3.434402     3.426758     3.419115     3.411472     3.403829     3.396185
      3.388542     3.380899     3.373256     3.365613     3.357969     3.350326     3.342683     3.335040     3.327396     3.319753
      3.312110     3.304467     3.296824     3.289180     3.281537     3.273894     3.266251     3.258607     3.250964     3.243321
      3.235678     3.228034     3.220391     3.212748     3.205105     3.197462     3.189818     3.182175     3.174532     3.166889
      3.159245     3.151602     3.143959     3.136316     3.128673     3.121029     3.113386     3.105743     3.098100     3.090456
      3.082813     3.075170     3.067527     3.059884     3.052240     3.044597     3.036954     3.029311     3.021667     3.014024
      3.006381     2.998738     2.991095     2.983451     2.975808     2.968165     2.960522     2.952878     2.945235     2.937592
      2.929949     2.922306     2.914662     2.907019     2.899376     2.891733     2.884089     2.876446     2.868803     2.861160
      2.853517     2.845873     2.838230     2.830587     2.822944     2.815300     2.807657     2.800014     2.792371     2.784728
      2.777084     2.769441     2.761798     2.754155     2.746511     2.738868     2.731225     2.723582     2.715939     2.708295
      2.700652     2.693009     2.685366     2.677722     2.670079     2.662436     2.654793     2.647150     2.639506     2.631863
      2.624220     2.616577     2.608933     2.601290     2.593647     2.586004     2.578361     2.570717     2.563074     2.555431
      2.547788     2.540144     2.532501     2.524858     2.517215     2.509572     2.501928     2.494285     2.486642     2.478999
      2.471355     2.463712     2.456069     2.448426     2.440783     2.433139     2.425496     2.417853     2.410210     2.402566
      2.394923     2.387280     2.379637     2.371994     2.364350     2.356707     2.349064     2.341421     2.333777     2.326134
      2.318491     2.310848     2.303205     2.295561     2.287918     2.280275     2.272632     2.264988     2.257345     2.249702
      2.242059     2.234416     2.226772     2.219129     2.211486     2.203843     2.196199     2.188556     2.180913     2.173270
      2.165627     2.157983     2.150340     2.142697     2.135054     2.127410     2.119767     2.112124     2.104481     2.096838
      2.089194     2.081551     2.073908     2.066265     2.058621     2.050978     2.043335     2.035692     2.028049     2.020405
      2.012762     2.005119     1.997476     1.989833     1.982190     1.974546     1.966903     1.959260     1.951617     1.943974
      1.936331     1.928688     1.921045     1.913402     1.905759     1.898115     1.890472     1.882829     1.875186     1.867543
      1.859900     1.852257     1.844614     1.836971     1.829327     1.821684     1.814041     1.806398     1.798755     1.791112
      1.783469     1.775826     1.768183     1.760540     1.752896     1.745253     1.737610     1.729967     1.722324     1.714681
      1.707038     1.699395     1.691752     1.684108     1.676465     1.668822     1.661179     1.653536     1.645893     1.638250
      1.630607     1.622964     1.615321     1.607677     1.600034     1.592391     1.584748     1.577105     1.569462     1.561819
      1.554176     1.546533     1.538890     1.531246     1.523603     1.515960     1.508317     1.500674     1.493031     1.485388
      1.477745     1.470102     1.462458     1.454815     1.447172     1.439529     1.431886     1.424243     1.416600     1.408957
      1.401314     1.393671     1.386027     1.378384     1.370741     1.363098     1.355455     1.347812     1.340169     1.332526
      1.324883     1.317240     1.309596     1.301953     1.294310     1.286667     1.279024     1.271381     1.263738     1.256095
      1.248452     1.240808     1.233165     1.225522     1.217879     1.210236     1.202593     1.194950     1.187307     1.179664
      1.172021     1.164377     1.156734     1.149091     1.141448     1.133805     1.126162     1.118519     1.110876     1.103233
      1.095590     1.087946     1.080303     1.072660     1.065017     1.057374     1.049731     1.042088     1.034445     1.026802
      1.019158     1.011515     1.003872     0.996229     0.988586     0.980943     0.973300     0.965657     0.958014     0.950371
      0.942727     0.935084     0.927441     0.919798     0.912155     0.904512     0.896869     0.889226     0.881583     0.873940
      0.866296     0.858653     0.851010     0.843367     0.835724     0.828081     0.820438     0.812795     0.805152     0.797508
      0.789865     0.782222     0.774579     0.766936     0.759293     0.751650     0.744007     0.736364     0.728721     0.721077
      0.713434     0.705791     0.698148     0.690505     0.682862     0.675219     0.667576     0.659933     0.652290     0.644646
      0.637003     0.629360     0.621717     0.614074     0.606431     0.598788     0.591145     0.583502     0.575858     0.568215
      0.560572     0.552929     0.545286     0.537643     0.530000     0.522357     0.514714     0.507071     0.499427     0.491784
      0.484141     0.476498     0.468855     0.461212     0.453569     0.445925     0.438282     0.430639     0.422996     0.415353
      0.407710     0.400067     0.392424     0.384780     0.377137     0.369494     0.361851     0.354208     0.346565     0.338922
      0.331278     0.323635     0.315992     0.308349     0.300706     0.293063     0.285420     0.277777     0.270133     0.262490
      0.254847     0.247204     0.239561     0.231918     0.224275     0.216631     0.208988     0.201345
 NY phased data points follow
   2.33656E+01  2.06657E+01  2.07235E+01  2.09316E+01  2.20644E+01  2.15443E+01  2.52056E+01  3.79100E+01  4.22552E+01  4.33042E+01
   5.37122E+01  5.33070E+01  5.18176E+01  4.75068E+01  4.90070E+01  4.90454E+01  3.92357E+01  4.02518E+01  3.66324E+01  2.95565E+01
   3.41692E+01  2.27333E+01  2.47294E+01  2.02849E+01  1.77011E+01  2.09150E+01  1.89074E+01  1.86945E+01  2.31394E+01  2.64258E+01
   2.71998E+01  2.75713E+01  2.81854E+01  2.70723E+01  2.48505E+01  2.26324E+01  2.24976E+01  2.39652E+01  2.22719E+01  2.31514E+01
   1.78094E+01  1.81575E+01  1.53199E+01  1.53362E+01  1.93333E+01  2.38445E+01  2.69199E+01  2.58151E+01  1.93828E+01  2.74822E+01
   2.32163E+01  1.50796E+01  1.94821E+01  1.67561E+01  1.62635E+01  2.22359E+01  1.67184E+01  1.70543E+01  2.23234E+01  1.49221E+01
   1.69991E+01  1.53167E+01  1.32998E+01  1.59631E+01  9.48235E+00  1.16842E+01  3.51578E+00  1.50763E+00  1.08990E+01  4.88020E+00
   6.44074E+00  4.13892E+00  7.39098E+00  7.62547E+00  5.77061E+00  1.01318E+01  1.14855E+01  5.62922E+00  3.26064E+00  7.85534E+00
   2.69202E+00  4.36012E+00  3.20608E+00  1.78816E+00  8.97150E+00  7.58535E+00  5.74786E+00  9.08268E+00  7.75213E+00  1.02465E+01
   4.23326E+00  5.90552E+00  1.11133E+01  9.45763E+00  6.60585E+00  6.16642E+00  8.20291E+00  4.55517E+00  1.92559E-01  8.50889E+00
   1.95028E+01  3.61351E+01  3.55100E+01  4.34669E+01  4.49378E+01  4.49158E+01  3.88829E+01  3.47114E+01  2.30567E+01  2.52967E+01
   2.26155E+01  2.24339E+01  2.02975E+01  1.66186E+01  1.16826E+01  1.32364E+01  1.14210E+01  5.81680E+00  1.32019E+01  5.88451E+00
   3.37651E+00 -7.87915E-01  3.24587E+00  7.61993E+00  1.97512E+01  3.23209E+01  4.21255E+01  4.62216E+01  5.27228E+01  5.40706E+01
   3.96347E+01  3.30145E+01  3.05867E+01  2.98374E+01  2.20792E+01  1.75206E+01  1.26164E+01  1.77919E+01  1.26868E+01  1.59973E+01
   7.33597E+00  7.34396E+00 -1.54157E+00  4.76719E+00  2.05010E+00  1.63372E+00  3.91355E+00  2.00129E+00  6.65145E+00  2.88473E+00
   8.49289E+00  2.67407E+00 -4.08954E+00  5.20630E+00  3.11039E+00  4.65559E+00  5.97783E+00  2.24857E+00 -2.83360E+00 -4.83823E-02
  -9.06943E-01 -1.81018E+00  4.52365E-01 -3.25479E+00 -2.55875E+00 -3.39892E+00  1.17316E+00  2.81255E+00  3.30603E-01 -1.68382E+00
  -9.97224E-01 -3.90692E+00 -9.48316E+00 -3.11486E+00 -3.94487E+00 -9.70662E+00 -3.83464E+00 -4.16664E+00 -2.52162E+00 -4.70804E+00
  -4.55461E+00 -1.02175E+01 -9.42230E+00 -9.89817E+00 -1.27411E+01 -2.72432E+00 -6.49999E+00 -2.67939E+00 -2.50448E+00  8.71591E-01
  -7.76303E-01  1.15148E+00  1.55539E+00  6.00753E+00  6.78469E+00  2.52641E+00  4.26284E-01  2.89160E+00 -1.39780E-01  1.67207E+00
   7.62203E-01  3.12153E+00  6.81108E+00  5.21236E+00  5.75883E+00  5.52404E+00  2.20285E+00  2.24533E+00  1.26419E+00 -8.27863E+00
  -1.31484E+01 -5.04529E+00 -2.09623E+00  6.75274E+00  8.67759E+00  1.51414E+01  1.24564E+01  1.10783E+01  7.79278E+00  4.74586E+00
   1.68272E+00  6.69271E+00 -1.24496E+00  3.84503E+00  7.61895E+00  6.72221E+00  9.16326E+00  1.19269E+01  4.19976E+00  6.42633E+00
   4.50812E+00  5.69197E+00  8.15179E+00  1.01410E+01  5.31040E+00  6.43160E+00  8.69389E+00  7.97257E+00  6.95474E+00  2.41203E+00
   8.85527E+00 -1.00253E+00  5.53855E+00  3.94636E+00  5.67668E+00  8.44299E+00  5.38226E+00  8.52292E+00  1.04927E+01  1.03969E+01
   1.15454E+01  8.14004E+00  1.02404E+01  5.94509E+00  4.96369E+00  9.36894E+00  1.65976E+01  2.33433E+01  4.75601E+01  6.16580E+01
   7.39368E+01  7.15332E+01  6.32405E+01  5.28962E+01  4.36025E+01  3.45284E+01  2.88631E+01  2.67865E+01  2.52969E+01  2.31298E+01
   2.02372E+01  1.20436E+01  1.36580E+01  1.54908E+00 -1.36865E+00  2.27907E+00  1.97135E-01  2.03141E+00  4.23752E-01  3.86376E+00
   7.82454E-01  1.18283E-01  3.16175E+00  5.51125E+00  1.07998E+00  1.46416E+00 -5.78571E-01  4.77789E+00  3.69196E+00 -1.32871E+00
   2.32803E+00  4.12190E+00 -1.69661E-01 -9.43408E-01  1.96085E+00 -2.24579E+00  7.61069E+00  2.36833E+00  2.33682E+00  1.70685E+00
   1.41024E+00  5.74218E+00  6.47842E-01  8.37600E-01  8.89085E+00  4.79883E+00  6.41888E+00  5.67293E+00  3.30508E+00  4.31563E+00
   3.76828E+00  9.76024E+00  7.60852E+00  6.04204E+00  6.45392E+00  7.64202E+00  5.29060E+00  7.12265E+00  1.12755E+01  1.02490E+01
   1.21786E+01  7.04721E+00  9.54112E+00  6.59702E+00  8.44354E+00  8.99137E+00  7.74107E+00  8.34927E+00  4.37233E+00  5.11130E+00
   9.66811E+00  5.70677E+00  5.80801E+00  3.91240E+00  6.91885E+00  7.56116E+00  4.31480E+00  1.17908E+01  9.10169E+00  3.38197E+00
   6.72528E+00  7.41362E+00  3.10815E+00  8.09816E+00  9.50762E+00  8.66714E+00  4.78360E+00  6.03739E+00  2.67191E+00  3.33961E+00
   3.53976E+00  3.30505E-01  1.88544E+00  5.08705E+00  5.67109E+00  6.26429E+00  3.96836E+00 -8.05893E-01  3.11906E+00  5.96555E+00
   2.34299E+00  4.48866E+00 -5.26980E-01 -1.10199E+00 -9.97680E-02 -4.63717E+00 -1.40042E-01 -4.42246E-01 -1.37509E+00  3.24102E+00
  -4.93885E+00 -4.65003E+00  2.42189E+00 -1.74500E+00 -1.76001E+00 -4.52179E+00 -6.71027E+00 -5.67943E+00  2.02434E+00 -2.97456E+00
  -2.89333E+00 -1.32240E+00  6.15445E-01 -8.48712E-01  2.03188E+00 -3.91304E+00 -1.47344E+00  2.11231E+00  6.42296E-01 -1.33382E+00
   9.90627E-02 -2.74962E+00  4.74756E-01  3.65434E+00  6.99318E+00 -4.19317E+00  7.26205E+00  6.02068E+00  6.44491E+00  1.57745E+00
   4.90618E+00 -2.00030E+00  3.45691E+00  4.55709E+00  4.68843E-02  2.51590E+00  6.35224E+00  8.13851E+00  8.26396E+00  5.57207E+00
   4.21153E+00  6.05763E+00  7.56142E+00  4.29142E+00  4.44288E+00  3.75529E+00  4.32206E+00  2.29064E+00 -2.88754E+00 -2.04700E+00
   1.48980E-01 -2.22599E+00 -6.63939E-01  4.25498E+00  2.12499E+00 -2.66562E-01 -2.43348E-01  4.97148E+00  3.06955E+00 -7.22037E-01
   2.61316E+00  2.63898E+00  3.59425E+00 -3.65037E+00 -4.05193E+00  3.74396E+00 -7.04251E-01  5.24872E-01 -1.03555E+00 -8.05658E-01
  -3.30726E+00  2.64391E+00  2.57558E+00 -5.31387E+00 -2.05743E+00 -4.76586E+00 -3.20572E-01 -1.34872E+00 -3.18216E+00 -1.31194E+00
   2.75273E+00 -3.88365E+00 -5.33935E-01 -4.92822E+00  3.20965E+00 -1.32816E+00 -3.13046E-01  1.87423E+00 -4.80572E+00  1.74091E+00
  -5.36164E-01  4.50497E+00 -2.09353E+00 -2.11969E-02 -1.06533E+00 -9.12871E+00 -2.09606E-01 -2.78778E-01 -2.12364E+00 -3.13235E+00
   1.69092E-01 -4.37750E+00  1.01622E-01  4.78420E-01 -2.30224E+00  6.90752E-01 -3.21382E-01 -1.29239E+00 -4.98403E-01  5.19813E+00
   1.21887E+00  8.36633E-01 -1.41688E+00 -7.02892E-01 -1.56172E+00 -5.09371E+00 -3.83294E+00  7.17101E-01  2.73358E-01  4.90925E+00
   1.16158E+00  4.70840E-01 -1.52305E+00  2.40778E-02  7.13196E-01 -2.00676E-01  3.79172E+00 -3.88064E-01
 NY points of the fit to the data follow
   2.15969E+01  2.08865E+01  2.01532E+01  1.97444E+01  2.05391E+01  2.21658E+01  2.47692E+01  2.97191E+01  3.59534E+01  4.22347E+01
   4.72169E+01  4.96111E+01  4.94347E+01  4.71688E+01  4.37055E+01  3.99894E+01  3.69513E+01  3.40061E+01  3.09397E+01  3.00497E+01
   2.81095E+01  2.43539E+01  2.24540E+01  2.07407E+01  1.94160E+01  1.86560E+01  1.87877E+01  2.04835E+01  2.32519E+01  2.65521E+01
   2.92252E+01  3.04243E+01  2.98013E+01  2.71497E+01  2.39997E+01  2.15966E+01  2.05754E+01  1.99547E+01  1.85210E+01  1.85110E+01
   1.82911E+01  1.73435E+01  1.70814E+01  1.76556E+01  1.91227E+01  2.07025E+01  2.20634E+01  2.26397E+01  2.19933E+01  2.05234E+01
   1.91471E+01  1.79894E+01  1.69409E+01  1.63114E+01  1.62032E+01  1.56712E+01  1.47406E+01  1.44817E+01  1.48719E+01  1.50494E+01
   1.48290E+01  1.43454E+01  1.36950E+01  1.30260E+01  1.24311E+01  1.20155E+01  1.19652E+01  1.20373E+01  1.20210E+01  1.20319E+01
   1.19554E+01  1.19068E+01  1.18358E+01  1.17065E+01  1.15449E+01  1.13194E+01  1.10713E+01  1.08495E+01  1.06545E+01  1.05025E+01
   1.02636E+01  1.00592E+01  9.86203E+00  9.52853E+00  9.00121E+00  8.33538E+00  7.65115E+00  7.06636E+00  6.70562E+00  6.61299E+00
   6.76717E+00  7.11737E+00  7.48581E+00  7.70267E+00  7.67680E+00  7.53590E+00  6.88358E+00  4.73327E+00  4.61887E+00  9.68762E+00
   1.87649E+01  3.00609E+01  4.02639E+01  4.67573E+01  4.84528E+01  4.53053E+01  3.90615E+01  3.21107E+01  2.69045E+01  2.42760E+01
   2.36578E+01  2.27748E+01  1.60409E+01  9.62125E+00  7.89795E+00  7.37813E+00  7.10854E+00  6.91745E+00  6.75383E+00  6.52001E+00
   5.56839E+00  4.03356E+00  5.12985E+00  1.16424E+01  2.24005E+01  3.49388E+01  4.59247E+01  5.27468E+01  5.45973E+01  5.15055E+01
   4.50484E+01  3.77554E+01  3.17786E+01  2.80519E+01  2.59577E+01  2.24094E+01  1.49835E+01  8.39352E+00  6.76194E+00  6.84147E+00
   7.04479E+00  6.79485E+00  6.21599E+00  5.90561E+00  5.72372E+00  5.58626E+00  5.56245E+00  5.37107E+00  5.03954E+00  4.53560E+00
   3.94195E+00  3.55008E+00  3.26720E+00  3.08402E+00  3.01074E+00  3.02090E+00  2.86477E+00  2.43596E+00  1.80029E+00  1.13583E+00
   7.84394E-01  7.52647E-01  9.84689E-01  1.33540E+00  1.52936E+00  1.47059E+00  1.12282E+00  5.83821E-01  3.13175E-02 -2.20425E-01
  -1.02164E-01 -3.34404E-01 -9.19844E-01 -1.74803E+00 -2.50652E+00 -2.66820E+00 -2.65663E+00 -2.62861E+00 -2.56757E+00 -2.54875E+00
  -2.57141E+00 -2.72152E+00 -3.12823E+00 -3.54516E+00 -3.63049E+00 -3.12505E+00 -2.39051E+00 -1.40311E+00 -1.50972E-01  1.20600E+00
   2.35105E+00  2.49857E+00  1.71490E+00  5.48402E-01 -6.54453E-01 -1.39573E+00 -1.33094E+00 -9.37736E-01 -1.30599E-01  1.27063E+00
   3.15677E+00  5.25431E+00  7.14942E+00  8.45951E+00  8.31488E+00  6.30715E+00  3.12634E+00 -5.24725E-01 -3.71811E+00 -5.89538E+00
  -6.35935E+00 -4.40365E+00 -9.33823E-01  2.63410E+00  5.47833E+00  7.31993E+00  7.76573E+00  6.27866E+00  4.44386E+00  1.90141E+00
  -1.18060E+00 -2.66813E+00 -2.27212E+00 -9.91843E-01  1.75037E-01  1.58095E+00  3.25423E+00  4.05970E+00  4.09662E+00  4.04733E+00
   4.41258E+00  5.11918E+00  5.43346E+00  5.20560E+00  5.41910E+00  6.00001E+00  7.03592E+00  7.95590E+00  8.25599E+00  8.17590E+00
   7.67418E+00  6.62298E+00  5.47708E+00  4.90673E+00  5.42392E+00  5.93840E+00  6.05260E+00  6.27292E+00  6.50683E+00  6.60531E+00
   6.80914E+00  8.23547E+00  9.37781E+00  8.57899E+00  5.44615E+00  7.08469E+00  1.59294E+01  3.00558E+01  4.69320E+01  6.12905E+01
   6.97918E+01  7.08440E+01  6.48069E+01  5.45081E+01  4.38634E+01  3.63853E+01  3.27417E+01  3.18254E+01  2.84874E+01  1.62650E+01
   8.20582E+00  5.94364E+00  4.94624E+00  4.35932E+00  4.15255E+00  3.85956E+00  3.50775E+00  3.14206E+00  2.78500E+00  2.47290E+00
   2.26955E+00  2.09336E+00  1.87068E+00  1.65340E+00  1.48681E+00  1.35301E+00  1.23737E+00  1.14132E+00  1.08303E+00  1.08791E+00
   1.11285E+00  1.15805E+00  1.23258E+00  1.33822E+00  1.47541E+00  1.64355E+00  1.84552E+00  2.08258E+00  2.34520E+00  2.63292E+00
   2.94626E+00  3.27594E+00  3.61572E+00  3.95995E+00  4.30078E+00  4.63062E+00  4.94292E+00  5.23222E+00  5.49412E+00  5.72512E+00
   5.92326E+00  6.08668E+00  6.21654E+00  6.31854E+00  6.39654E+00  6.45666E+00  6.50583E+00  6.55132E+00  6.59891E+00  6.64553E+00
   6.69612E+00  6.97482E+00  7.52993E+00  8.09869E+00  8.50622E+00  8.58777E+00  8.30379E+00  7.73990E+00  6.87012E+00  5.86331E+00
   5.18177E+00  5.02037E+00  5.35864E+00  6.00271E+00  6.60802E+00  6.84915E+00  7.07332E+00  7.34406E+00  7.27614E+00  6.98628E+00
   6.66413E+00  6.60327E+00  6.93398E+00  7.04340E+00  6.63922E+00  6.14227E+00  5.49813E+00  4.70405E+00  3.71165E+00  2.77485E+00
   2.21203E+00  2.12564E+00  2.46948E+00  3.01356E+00  3.47419E+00  3.56444E+00  3.55100E+00  3.55056E+00  3.28892E+00  2.88940E+00
   2.49526E+00  2.21019E+00  2.03776E+00  1.58046E+00  1.03031E+00  6.56244E-01  3.89088E-01  1.89700E-01  3.87141E-02 -7.69694E-02
  -1.67013E-01 -2.38348E-01 -2.95542E-01 -3.41254E-01 -3.76784E-01 -4.02545E-01 -4.18346E-01 -4.23496E-01 -4.16882E-01 -3.97120E-01
  -3.62723E-01 -3.12187E-01 -2.43963E-01 -1.56384E-01 -4.76814E-02  8.38929E-02  2.39910E-01  4.21684E-01  6.30253E-01  8.66329E-01
   1.13015E+00  1.42124E+00  1.73825E+00  2.07884E+00  2.43971E+00  2.81651E+00  3.20386E+00  3.59526E+00  3.98322E+00  4.35958E+00
   4.71574E+00  5.04306E+00  5.33308E+00  5.57790E+00  5.77057E+00  5.90548E+00  5.97870E+00  5.98815E+00  5.93361E+00  5.81676E+00
   5.64109E+00  5.41180E+00  5.13548E+00  4.81975E+00  4.47282E+00  4.10317E+00  3.71918E+00  3.32887E+00  2.93964E+00  2.55794E+00
   2.18916E+00  1.83760E+00  1.50649E+00  1.19810E+00  9.13761E-01  6.53911E-01  4.18284E-01  2.06076E-01  1.61347E-02 -1.52931E-01
  -3.02708E-01 -4.34913E-01 -5.51290E-01 -6.53491E-01 -7.43036E-01 -8.21325E-01 -8.89673E-01 -9.49295E-01 -1.00127E+00 -1.04650E+00
  -1.08577E+00 -1.11976E+00 -1.14909E+00 -1.17435E+00 -1.19601E+00 -1.21444E+00 -1.22995E+00 -1.24286E+00 -1.25345E+00 -1.26198E+00
  -1.26866E+00 -1.27361E+00 -1.27698E+00 -1.27891E+00 -1.27955E+00 -1.27903E+00 -1.27743E+00 -1.27480E+00 -1.27121E+00 -1.26677E+00
  -1.26155E+00 -1.25562E+00 -1.24898E+00 -1.24166E+00 -1.23372E+00 -1.22523E+00 -1.21625E+00 -1.20679E+00 -1.19685E+00 -1.18645E+00
  -1.17564E+00 -1.16447E+00 -1.15295E+00 -1.14108E+00 -1.12887E+00 -1.11633E+00 -1.10351E+00 -1.09044E+00 -1.07713E+00 -1.06356E+00
  -1.04974E+00 -1.03569E+00 -1.02145E+00 -1.00703E+00 -9.92427E-01 -9.77626E-01 -9.62639E-01 -9.47497E-01 -9.32226E-01 -9.16822E-01
  -9.01268E-01 -8.85560E-01 -8.69721E-01 -8.53775E-01 -8.37731E-01 -8.21575E-01 -8.05290E-01 -7.88883E-01
 NY background values follow
     1.854E+01    1.841E+01    1.828E+01    1.815E+01    1.802E+01    1.789E+01    1.776E+01    1.763E+01    1.750E+01    1.737E+01
     1.724E+01    1.711E+01    1.697E+01    1.684E+01    1.671E+01    1.658E+01    1.645E+01    1.632E+01    1.619E+01    1.606E+01
     1.593E+01    1.580E+01    1.567E+01    1.554E+01    1.541E+01    1.528E+01    1.515E+01    1.502E+01    1.489E+01    1.476E+01
     1.463E+01    1.450E+01    1.437E+01    1.424E+01    1.412E+01    1.399E+01    1.386E+01    1.373E+01    1.360E+01    1.347E+01
     1.335E+01    1.322E+01    1.309E+01    1.297E+01    1.284E+01    1.271E+01    1.259E+01    1.246E+01    1.234E+01    1.221E+01
     1.209E+01    1.196E+01    1.184E+01    1.171E+01    1.159E+01    1.147E+01    1.135E+01    1.122E+01    1.110E+01    1.098E+01
     1.086E+01    1.074E+01    1.062E+01    1.050E+01    1.038E+01    1.026E+01    1.014E+01    1.002E+01    9.902E+00    9.785E+00
     9.668E+00    9.551E+00    9.435E+00    9.320E+00    9.205E+00    9.090E+00    8.976E+00    8.863E+00    8.750E+00    8.638E+00
     8.526E+00    8.415E+00    8.304E+00    8.194E+00    8.085E+00    7.976E+00    7.868E+00    7.760E+00    7.653E+00    7.547E+00
     7.441E+00    7.336E+00    7.232E+00    7.128E+00    7.025E+00    6.922E+00    6.821E+00    6.720E+00    6.619E+00    6.520E+00
     6.421E+00    6.322E+00    6.224E+00    6.127E+00    6.031E+00    5.935E+00    5.840E+00    5.746E+00    5.652E+00    5.559E+00
     5.467E+00    5.375E+00    5.285E+00    5.194E+00    5.105E+00    5.016E+00    4.928E+00    4.840E+00    4.753E+00    4.667E+00
     4.582E+00    4.497E+00    4.413E+00    4.330E+00    4.247E+00    4.165E+00    4.084E+00    4.004E+00    3.924E+00    3.845E+00
     3.766E+00    3.689E+00    3.612E+00    3.535E+00    3.460E+00    3.385E+00    3.311E+00    3.237E+00    3.165E+00    3.092E+00
     3.021E+00    2.951E+00    2.881E+00    2.811E+00    2.743E+00    2.675E+00    2.608E+00    2.542E+00    2.476E+00    2.411E+00
     2.347E+00    2.283E+00    2.220E+00    2.158E+00    2.096E+00    2.035E+00    1.975E+00    1.915E+00    1.856E+00    1.798E+00
     1.740E+00    1.683E+00    1.627E+00    1.572E+00    1.517E+00    1.462E+00    1.409E+00    1.356E+00    1.303E+00    1.252E+00
     1.201E+00    1.150E+00    1.101E+00    1.052E+00    1.003E+00    9.552E-01    9.081E-01    8.615E-01    8.156E-01    7.703E-01
     7.257E-01    6.816E-01    6.382E-01    5.954E-01    5.532E-01    5.116E-01    4.706E-01    4.301E-01    3.902E-01    3.509E-01
     3.121E-01    2.738E-01    2.361E-01    1.989E-01    1.621E-01    1.259E-01    9.014E-02    5.485E-02    2.003E-02   -1.434E-02
    -4.827E-02   -8.177E-02   -1.148E-01   -1.475E-01   -1.798E-01   -2.116E-01   -2.431E-01   -2.743E-01   -3.050E-01   -3.354E-01
    -3.655E-01   -3.952E-01   -4.246E-01   -4.537E-01   -4.825E-01   -5.110E-01   -5.392E-01   -5.672E-01   -5.949E-01   -6.223E-01
    -6.495E-01   -6.765E-01   -7.032E-01   -7.298E-01   -7.561E-01   -7.822E-01   -8.082E-01   -8.340E-01   -8.596E-01   -8.850E-01
    -9.103E-01   -9.354E-01   -9.603E-01   -9.851E-01   -1.010E+00   -1.034E+00   -1.058E+00   -1.082E+00   -1.106E+00   -1.130E+00
    -1.154E+00   -1.177E+00   -1.200E+00   -1.224E+00   -1.246E+00   -1.269E+00   -1.292E+00   -1.314E+00   -1.337E+00   -1.359E+00
    -1.381E+00   -1.402E+00   -1.424E+00   -1.446E+00   -1.467E+00   -1.488E+00   -1.509E+00   -1.530E+00   -1.551E+00   -1.571E+00
    -1.592E+00   -1.612E+00   -1.632E+00   -1.652E+00   -1.671E+00   -1.691E+00   -1.711E+00   -1.730E+00   -1.749E+00   -1.768E+00
    -1.787E+00   -1.806E+00   -1.824E+00   -1.843E+00   -1.861E+00   -1.879E+00   -1.897E+00   -1.915E+00   -1.932E+00   -1.950E+00
    -1.967E+00   -1.984E+00   -2.002E+00   -2.018E+00   -2.035E+00   -2.052E+00   -2.068E+00   -2.085E+00   -2.101E+00   -2.117E+00
    -2.133E+00   -2.148E+00   -2.164E+00   -2.179E+00   -2.195E+00   -2.210E+00   -2.225E+00   -2.240E+00   -2.254E+00   -2.269E+00
    -2.283E+00   -2.298E+00   -2.312E+00   -2.326E+00   -2.340E+00   -2.353E+00   -2.367E+00   -2.380E+00   -2.393E+00   -2.406E+00
    -2.419E+00   -2.432E+00   -2.445E+00   -2.457E+00   -2.470E+00   -2.482E+00   -2.494E+00   -2.506E+00   -2.517E+00   -2.529E+00
    -2.541E+00   -2.552E+00   -2.563E+00   -2.574E+00   -2.585E+00   -2.595E+00   -2.606E+00   -2.616E+00   -2.626E+00   -2.636E+00
    -2.646E+00   -2.655E+00   -2.665E+00   -2.674E+00   -2.683E+00   -2.692E+00   -2.700E+00   -2.709E+00   -2.717E+00   -2.725E+00
    -2.732E+00   -2.740E+00   -2.747E+00   -2.754E+00   -2.761E+00   -2.768E+00   -2.774E+00   -2.780E+00   -2.786E+00   -2.792E+00
    -2.797E+00   -2.802E+00   -2.807E+00   -2.812E+00   -2.816E+00   -2.820E+00   -2.824E+00   -2.828E+00   -2.831E+00   -2.834E+00
    -2.837E+00   -2.839E+00   -2.842E+00   -2.844E+00   -2.845E+00   -2.847E+00   -2.848E+00   -2.848E+00   -2.849E+00   -2.849E+00
    -2.849E+00   -2.849E+00   -2.848E+00   -2.847E+00   -2.846E+00   -2.845E+00   -2.843E+00   -2.841E+00   -2.839E+00   -2.836E+00
    -2.833E+00   -2.830E+00   -2.827E+00   -2.823E+00   -2.819E+00   -2.815E+00   -2.811E+00   -2.806E+00   -2.801E+00   -2.795E+00
    -2.790E+00   -2.784E+00   -2.778E+00   -2.771E+00   -2.765E+00   -2.758E+00   -2.750E+00   -2.743E+00   -2.735E+00   -2.727E+00
    -2.719E+00   -2.710E+00   -2.701E+00   -2.692E+00   -2.683E+00   -2.673E+00   -2.663E+00   -2.653E+00   -2.642E+00   -2.631E+00
    -2.620E+00   -2.609E+00   -2.597E+00   -2.586E+00   -2.574E+00   -2.561E+00   -2.549E+00   -2.536E+00   -2.523E+00   -2.510E+00
    -2.496E+00   -2.483E+00   -2.469E+00   -2.455E+00   -2.440E+00   -2.426E+00   -2.411E+00   -2.396E+00   -2.381E+00   -2.366E+00
    -2.351E+00   -2.335E+00   -2.319E+00   -2.303E+00   -2.287E+00   -2.271E+00   -2.254E+00   -2.238E+00   -2.221E+00   -2.204E+00
    -2.187E+00   -2.170E+00   -2.153E+00   -2.135E+00   -2.118E+00   -2.100E+00   -2.083E+00   -2.065E+00   -2.047E+00   -2.029E+00
    -2.010E+00   -1.992E+00   -1.974E+00   -1.955E+00   -1.937E+00   -1.918E+00   -1.900E+00   -1.881E+00   -1.862E+00   -1.843E+00
    -1.824E+00   -1.805E+00   -1.786E+00   -1.767E+00   -1.747E+00   -1.728E+00   -1.709E+00   -1.689E+00   -1.670E+00   -1.650E+00
    -1.631E+00   -1.611E+00   -1.591E+00   -1.572E+00   -1.552E+00   -1.532E+00   -1.512E+00   -1.492E+00   -1.472E+00   -1.452E+00
    -1.432E+00   -1.412E+00   -1.392E+00   -1.372E+00   -1.352E+00   -1.332E+00   -1.312E+00   -1.292E+00   -1.272E+00   -1.252E+00
    -1.231E+00   -1.211E+00   -1.191E+00   -1.171E+00   -1.151E+00   -1.131E+00   -1.111E+00   -1.090E+00
 Ala      Conc. = 1.74E+02
