 LCModel (Version 6.3-1L) Copyright: S.W. Provencher.          Ref.: Magn. Reson. Med. 30:672-679 (1993).                
 Slice#2 Row#14 Col#5  PD_05_press_1_raw_act
 36 lines in following concentration table = NCONC+1
    Conc.  %SD /Cr+PCr  Metabolite                                         
   85.237  36%   3.583 Ala                                                 
    1.708 119% 7.2E-02 Asp                                                 
    0.000 999%   0.000 Cr                                                  
   23.790  53%   1.000 PCr                                                 
    0.925 132% 3.9E-02 GABA                                                
    0.974 126% 4.1E-02 Glc                                                 
   67.133  86%   2.822 Gln                                                 
    0.000 999%   0.000 Glu                                                 
    2.796 175%   0.118 GPC                                                 
    0.000 999%   0.000 PCh                                                 
    0.000 999%   0.000 GSH                                                 
    7.172 866%   0.301 Ins                                                 
   34.968  90%   1.470 Lac                                                 
    0.000 999%   0.000 NAA                                                 
    0.000 999%   0.000 NAAG                                                
    0.286 143% 1.2E-02 Scyllo                                              
    1.517 134% 6.4E-02 Tau                                                 
    0.484 921% 2.0E-02 -CrCH2                                              
    2.796 175%   0.118 GPC+PCh                                             
    0.000 999%   0.000 NAA+NAAG                                            
   23.790  53%   1.000 Cr+PCr                                              
   67.133  86%   2.822 Glu+Gln                                             
  185.893  73%   7.814 Lip13a                                              
   34.393 134%   1.446 Lip13b                                              
   58.248  48%   2.448 Lip09                                               
   64.844  59%   2.726 MM09                                                
   32.758  49%   1.377 Lip20                                               
   89.985  64%   3.782 MM20                                                
   19.420  63%   0.816 MM12                                                
   70.852  48%   2.978 MM14                                                
   32.191  58%   1.353 MM17                                                
  220.287  47%   9.260 Lip13a+Lip13b                                       
  310.559  32%  13.054 MM14+Lip13a+Lip13b+MM12                             
  123.091  32%   5.174 MM09+Lip09                                          
  122.742  45%   5.159 MM20+Lip20                                          
   6 lines in following misc. output table
  FWHM = 0.061 ppm    S/N =   1                                            
  Data shift = 0.138 ppm                                                   
  Ph: 106 deg     -35.5 deg/ppm                                            
  alphaB,S = 9.0E-01,   2.6E+01                                            
   14 spline knots.   Ns = 5(1)                                            
  (11) 4 infls.   ( 9) 1 extrs.                                            
  498 points on ppm-axis = NY
      4.000000     3.992357     3.984714     3.977070     3.969427     3.961784     3.954141     3.946497     3.938854     3.931211
      3.923568     3.915925     3.908281     3.900638     3.892995     3.885352     3.877708     3.870065     3.862422     3.854779
      3.847136     3.839492     3.831849     3.824206     3.816563     3.808919     3.801276     3.793633     3.785990     3.778347
      3.770703     3.763060     3.755417     3.747774     3.740130     3.732487     3.724844     3.717201     3.709558     3.701914
      3.694271     3.686628     3.678985     3.671341     3.663698     3.656055     3.648412     3.640769     3.633125     3.625482
      3.617839     3.610196     3.602552     3.594909     3.587266     3.579623     3.571980     3.564336     3.556693     3.549050
      3.541407     3.533763     3.526120     3.518477     3.510834     3.503191     3.495547     3.487904     3.480261     3.472618
      3.464974     3.457331     3.449688     3.442045     3.434402     3.426758     3.419115     3.411472     3.403829     3.396185
      3.388542     3.380899     3.373256     3.365613     3.357969     3.350326     3.342683     3.335040     3.327396     3.319753
      3.312110     3.304467     3.296824     3.289180     3.281537     3.273894     3.266251     3.258607     3.250964     3.243321
      3.235678     3.228034     3.220391     3.212748     3.205105     3.197462     3.189818     3.182175     3.174532     3.166889
      3.159245     3.151602     3.143959     3.136316     3.128673     3.121029     3.113386     3.105743     3.098100     3.090456
      3.082813     3.075170     3.067527     3.059884     3.052240     3.044597     3.036954     3.029311     3.021667     3.014024
      3.006381     2.998738     2.991095     2.983451     2.975808     2.968165     2.960522     2.952878     2.945235     2.937592
      2.929949     2.922306     2.914662     2.907019     2.899376     2.891733     2.884089     2.876446     2.868803     2.861160
      2.853517     2.845873     2.838230     2.830587     2.822944     2.815300     2.807657     2.800014     2.792371     2.784728
      2.777084     2.769441     2.761798     2.754155     2.746511     2.738868     2.731225     2.723582     2.715939     2.708295
      2.700652     2.693009     2.685366     2.677722     2.670079     2.662436     2.654793     2.647150     2.639506     2.631863
      2.624220     2.616577     2.608933     2.601290     2.593647     2.586004     2.578361     2.570717     2.563074     2.555431
      2.547788     2.540144     2.532501     2.524858     2.517215     2.509572     2.501928     2.494285     2.486642     2.478999
      2.471355     2.463712     2.456069     2.448426     2.440783     2.433139     2.425496     2.417853     2.410210     2.402566
      2.394923     2.387280     2.379637     2.371994     2.364350     2.356707     2.349064     2.341421     2.333777     2.326134
      2.318491     2.310848     2.303205     2.295561     2.287918     2.280275     2.272632     2.264988     2.257345     2.249702
      2.242059     2.234416     2.226772     2.219129     2.211486     2.203843     2.196199     2.188556     2.180913     2.173270
      2.165627     2.157983     2.150340     2.142697     2.135054     2.127410     2.119767     2.112124     2.104481     2.096838
      2.089194     2.081551     2.073908     2.066265     2.058621     2.050978     2.043335     2.035692     2.028049     2.020405
      2.012762     2.005119     1.997476     1.989833     1.982190     1.974546     1.966903     1.959260     1.951617     1.943974
      1.936331     1.928688     1.921045     1.913402     1.905759     1.898115     1.890472     1.882829     1.875186     1.867543
      1.859900     1.852257     1.844614     1.836971     1.829327     1.821684     1.814041     1.806398     1.798755     1.791112
      1.783469     1.775826     1.768183     1.760540     1.752896     1.745253     1.737610     1.729967     1.722324     1.714681
      1.707038     1.699395     1.691752     1.684108     1.676465     1.668822     1.661179     1.653536     1.645893     1.638250
      1.630607     1.622964     1.615321     1.607677     1.600034     1.592391     1.584748     1.577105     1.569462     1.561819
      1.554176     1.546533     1.538890     1.531246     1.523603     1.515960     1.508317     1.500674     1.493031     1.485388
      1.477745     1.470102     1.462458     1.454815     1.447172     1.439529     1.431886     1.424243     1.416600     1.408957
      1.401314     1.393671     1.386027     1.378384     1.370741     1.363098     1.355455     1.347812     1.340169     1.332526
      1.324883     1.317240     1.309596     1.301953     1.294310     1.286667     1.279024     1.271381     1.263738     1.256095
      1.248452     1.240808     1.233165     1.225522     1.217879     1.210236     1.202593     1.194950     1.187307     1.179664
      1.172021     1.164377     1.156734     1.149091     1.141448     1.133805     1.126162     1.118519     1.110876     1.103233
      1.095590     1.087946     1.080303     1.072660     1.065017     1.057374     1.049731     1.042088     1.034445     1.026802
      1.019158     1.011515     1.003872     0.996229     0.988586     0.980943     0.973300     0.965657     0.958014     0.950371
      0.942727     0.935084     0.927441     0.919798     0.912155     0.904512     0.896869     0.889226     0.881583     0.873940
      0.866296     0.858653     0.851010     0.843367     0.835724     0.828081     0.820438     0.812795     0.805152     0.797508
      0.789865     0.782222     0.774579     0.766936     0.759293     0.751650     0.744007     0.736364     0.728721     0.721077
      0.713434     0.705791     0.698148     0.690505     0.682862     0.675219     0.667576     0.659933     0.652290     0.644646
      0.637003     0.629360     0.621717     0.614074     0.606431     0.598788     0.591145     0.583502     0.575858     0.568215
      0.560572     0.552929     0.545286     0.537643     0.530000     0.522357     0.514714     0.507071     0.499427     0.491784
      0.484141     0.476498     0.468855     0.461212     0.453569     0.445925     0.438282     0.430639     0.422996     0.415353
      0.407710     0.400067     0.392424     0.384780     0.377137     0.369494     0.361851     0.354208     0.346565     0.338922
      0.331278     0.323635     0.315992     0.308349     0.300706     0.293063     0.285420     0.277777     0.270133     0.262490
      0.254847     0.247204     0.239561     0.231918     0.224275     0.216631     0.208988     0.201345
 NY phased data points follow
   4.96967E+01  5.03175E+01  4.99108E+01  4.80049E+01  4.79887E+01  4.72027E+01  4.70976E+01  4.54672E+01  4.59874E+01  4.58112E+01
   4.51169E+01  4.59049E+01  4.47630E+01  4.34305E+01  4.43042E+01  4.28896E+01  4.42994E+01  4.18738E+01  4.33218E+01  4.19510E+01
   4.08754E+01  4.14433E+01  4.31145E+01  4.10225E+01  4.21975E+01  4.02855E+01  4.06873E+01  3.98501E+01  3.90717E+01  3.94169E+01
   3.93551E+01  3.88241E+01  3.86428E+01  3.77501E+01  3.83680E+01  3.83583E+01  3.78294E+01  3.69713E+01  3.80476E+01  3.79516E+01
   3.71262E+01  3.55779E+01  3.56042E+01  3.61887E+01  3.50889E+01  3.49358E+01  3.41874E+01  3.56773E+01  3.51164E+01  3.52187E+01
   3.43568E+01  3.26443E+01  3.22393E+01  3.45115E+01  3.03903E+01  3.32365E+01  3.30358E+01  3.29220E+01  3.34009E+01  3.20039E+01
   3.29903E+01  3.32409E+01  3.26917E+01  3.08635E+01  3.09677E+01  3.05010E+01  3.15359E+01  3.08067E+01  3.02421E+01  3.04371E+01
   3.11385E+01  2.97005E+01  3.18666E+01  2.90097E+01  2.96742E+01  2.81456E+01  2.92229E+01  2.88036E+01  2.82227E+01  2.84307E+01
   2.91866E+01  2.73331E+01  2.84945E+01  2.71629E+01  2.52635E+01  2.69433E+01  2.67116E+01  2.57714E+01  2.74926E+01  2.58449E+01
   2.69608E+01  2.70385E+01  2.67481E+01  2.67567E+01  2.47801E+01  2.68663E+01  2.67622E+01  2.42611E+01  2.55089E+01  2.61021E+01
   2.48750E+01  2.51410E+01  2.41285E+01  2.38160E+01  2.46737E+01  2.51265E+01  2.40486E+01  2.26237E+01  2.27859E+01  2.31084E+01
   2.17808E+01  2.17657E+01  2.31087E+01  2.36348E+01  2.32751E+01  2.30900E+01  2.35974E+01  2.08474E+01  2.11248E+01  2.19479E+01
   2.22405E+01  2.27946E+01  2.23241E+01  2.29281E+01  2.16976E+01  2.19996E+01  2.09768E+01  2.18527E+01  2.14969E+01  2.09565E+01
   2.13209E+01  2.12115E+01  2.15246E+01  2.22517E+01  2.12185E+01  2.00290E+01  2.05378E+01  2.01296E+01  2.06115E+01  1.93112E+01
   1.99756E+01  1.84330E+01  1.99070E+01  1.99467E+01  1.80553E+01  1.98135E+01  1.79458E+01  1.91087E+01  1.88418E+01  1.81687E+01
   1.82820E+01  1.71287E+01  1.83490E+01  1.76563E+01  1.76523E+01  1.82599E+01  1.63394E+01  1.74077E+01  1.84035E+01  1.83595E+01
   1.85452E+01  1.82970E+01  1.90468E+01  1.78605E+01  1.66781E+01  1.82503E+01  1.70422E+01  1.95551E+01  1.75501E+01  1.63812E+01
   1.68868E+01  1.68414E+01  1.69611E+01  1.78185E+01  1.78132E+01  1.69060E+01  1.56848E+01  1.51760E+01  1.70063E+01  1.71381E+01
   1.57632E+01  1.66457E+01  1.53194E+01  1.70204E+01  1.68630E+01  1.77805E+01  1.72817E+01  1.54019E+01  1.50129E+01  1.29572E+01
   1.48193E+01  1.46969E+01  1.57472E+01  1.45939E+01  1.67723E+01  1.53925E+01  1.47807E+01  1.57095E+01  1.40717E+01  1.63397E+01
   1.59636E+01  1.50644E+01  1.58465E+01  1.47577E+01  1.54107E+01  1.48537E+01  1.52353E+01  1.38434E+01  1.54295E+01  1.43696E+01
   1.42364E+01  1.45915E+01  1.71878E+01  1.43653E+01  1.36717E+01  1.38271E+01  1.50178E+01  1.31189E+01  1.39138E+01  1.41679E+01
   1.44979E+01  1.52523E+01  1.36911E+01  1.41440E+01  1.25598E+01  1.48855E+01  1.43671E+01  1.41799E+01  1.25840E+01  1.40212E+01
   1.39381E+01  1.42880E+01  1.35279E+01  1.27723E+01  1.20731E+01  1.17598E+01  1.18416E+01  1.39579E+01  1.31665E+01  1.42438E+01
   1.09794E+01  1.18695E+01  1.23055E+01  1.14747E+01  1.18289E+01  1.26917E+01  1.20224E+01  1.26347E+01  1.16679E+01  1.19908E+01
   1.24554E+01  1.29068E+01  1.31589E+01  1.14486E+01  1.14742E+01  1.08057E+01  1.21851E+01  1.12234E+01  1.27823E+01  1.11653E+01
   1.07497E+01  1.15769E+01  1.17083E+01  1.30335E+01  1.08370E+01  1.19554E+01  1.13405E+01  1.19899E+01  1.06988E+01  1.27941E+01
   1.07086E+01  1.02071E+01  1.31962E+01  1.07722E+01  1.09696E+01  1.12244E+01  1.08899E+01  1.08422E+01  1.08771E+01  1.08812E+01
   1.01692E+01  9.84276E+00  1.08376E+01  1.04697E+01  1.06680E+01  9.89971E+00  9.73997E+00  9.84108E+00  9.76958E+00  1.02025E+01
   1.06754E+01  1.01956E+01  1.12173E+01  9.42115E+00  1.01970E+01  9.71636E+00  1.17045E+01  9.96918E+00  9.66325E+00  9.69446E+00
   1.07095E+01  1.06613E+01  1.13243E+01  8.96559E+00  1.03754E+01  1.05237E+01  9.84939E+00  1.18413E+01  1.10940E+01  1.27998E+01
   1.26595E+01  1.10931E+01  1.01455E+01  1.15630E+01  1.17042E+01  1.09016E+01  1.00286E+01  1.28893E+01  1.15719E+01  9.98419E+00
   9.10207E+00  1.01778E+01  8.54411E+00  8.38245E+00  9.93148E+00  9.05567E+00  9.30536E+00  8.29350E+00  9.02698E+00  7.86332E+00
   8.53673E+00  8.36749E+00  9.44466E+00  8.70193E+00  9.24705E+00  9.23088E+00  9.97228E+00  9.34929E+00  8.68202E+00  8.29483E+00
   8.76613E+00  9.23455E+00  8.04179E+00  7.72302E+00  6.28630E+00  7.19263E+00  7.44406E+00  8.42382E+00  7.39895E+00  8.23341E+00
   6.49691E+00  7.60271E+00  7.38141E+00  8.33539E+00  7.92782E+00  7.96077E+00  6.64069E+00  7.18492E+00  6.44890E+00  7.05405E+00
   6.71005E+00  5.28510E+00  6.35592E+00  6.05090E+00  4.85568E+00  4.29443E+00  6.48750E+00  5.78912E+00  6.00169E+00  5.22534E+00
   6.33316E+00  6.63743E+00  4.58122E+00  5.67807E+00  6.00931E+00  5.50745E+00  5.62289E+00  4.56990E+00  4.29112E+00  3.39811E+00
   3.88261E+00  4.79608E+00  5.15948E+00  6.09852E+00  4.93887E+00  6.41314E+00  4.20112E+00  4.48034E+00  4.70362E+00  4.66819E+00
   5.91271E+00  5.26825E+00  4.16117E+00  3.61376E+00  5.72980E+00  6.05831E+00  6.55872E+00  4.95799E+00  4.11093E+00  4.49997E+00
   5.22755E+00  4.16321E+00  4.83336E+00  4.27039E+00  4.15412E+00  3.58485E+00  3.37687E+00  2.15506E+00  2.48269E+00  3.13989E+00
   3.99982E+00  4.54335E+00  2.47112E+00  4.28768E+00  2.68501E+00  3.50131E+00  3.99213E+00  2.29777E+00  2.70199E+00  3.13515E+00
   3.48446E+00  2.65093E+00  2.02010E+00  2.89226E+00  1.56311E+00  4.11536E+00  2.15208E+00  4.24501E+00  1.82171E+00  1.41061E+00
   1.11718E+00  3.02812E+00  3.78603E+00  3.60849E+00  5.87864E-01  2.88332E+00  2.50151E+00  2.10147E+00  3.04248E+00  4.14767E+00
   1.68929E+00  3.72160E+00  3.01906E+00  1.09376E+00  1.67266E+00  1.44081E+00  2.29781E+00  2.81614E+00  8.66593E-01  1.47369E+00
   2.26779E+00  2.93914E+00  3.66530E+00  1.80605E+00  2.56736E+00  3.49861E-01  3.30416E+00  1.57936E+00  1.84073E+00  2.61424E+00
   1.29537E+00  1.40845E+00  1.87860E+00  2.26076E+00  2.78221E+00  3.42321E+00  7.27381E-01  1.33685E-01  1.93830E+00  7.36583E-01
   1.16903E+00  2.08675E+00  1.67644E+00  9.73737E-01  1.71124E+00  1.19345E+00 -2.84104E-01  6.48142E-01  7.19297E-02  1.47801E+00
   2.92873E-01  9.44882E-01  7.49639E-02  2.89631E+00 -8.41837E-01 -3.08948E-01  2.03950E+00 -3.24721E-01 -8.13359E-03 -5.10288E-01
   7.74911E-01 -1.29682E+00  5.32415E-01 -9.39279E-01  8.19950E-01  2.13418E+00 -5.14669E-01  7.26985E-01
 NY points of the fit to the data follow
   4.73670E+01  4.71206E+01  4.68849E+01  4.66800E+01  4.65350E+01  4.63931E+01  4.62066E+01  4.59725E+01  4.57038E+01  4.54063E+01
   4.50765E+01  4.47148E+01  4.43332E+01  4.39489E+01  4.35870E+01  4.32672E+01  4.30060E+01  4.27765E+01  4.25637E+01  4.23743E+01
   4.21945E+01  4.19510E+01  4.16358E+01  4.12862E+01  4.09269E+01  4.05654E+01  4.02263E+01  3.99425E+01  3.97292E+01  3.95668E+01
   3.94160E+01  3.92607E+01  3.90895E+01  3.88785E+01  3.86357E+01  3.83551E+01  3.80432E+01  3.77268E+01  3.74290E+01  3.71590E+01
   3.69123E+01  3.66816E+01  3.64616E+01  3.62475E+01  3.60281E+01  3.58029E+01  3.55776E+01  3.53445E+01  3.51028E+01  3.48586E+01
   3.46150E+01  3.43736E+01  3.41355E+01  3.39022E+01  3.36759E+01  3.34565E+01  3.32405E+01  3.30252E+01  3.28087E+01  3.25911E+01
   3.23730E+01  3.21551E+01  3.19384E+01  3.17233E+01  3.15107E+01  3.13002E+01  3.10928E+01  3.08895E+01  3.06890E+01  3.04896E+01
   3.02913E+01  3.00939E+01  2.98964E+01  2.96984E+01  2.95005E+01  2.93031E+01  2.91073E+01  2.89134E+01  2.87217E+01  2.85327E+01
   2.83467E+01  2.81642E+01  2.79830E+01  2.78011E+01  2.76187E+01  2.74375E+01  2.72585E+01  2.70820E+01  2.69077E+01  2.67361E+01
   2.65678E+01  2.64031E+01  2.62417E+01  2.60837E+01  2.59285E+01  2.57760E+01  2.56298E+01  2.55034E+01  2.54090E+01  2.53114E+01
   2.51879E+01  2.50406E+01  2.48783E+01  2.47044E+01  2.45166E+01  2.43173E+01  2.41173E+01  2.39263E+01  2.37475E+01  2.35868E+01
   2.34504E+01  2.33224E+01  2.31958E+01  2.30705E+01  2.29470E+01  2.28259E+01  2.27078E+01  2.25942E+01  2.24867E+01  2.23893E+01
   2.23134E+01  2.22986E+01  2.23628E+01  2.23975E+01  2.23493E+01  2.22299E+01  2.20645E+01  2.18594E+01  2.16102E+01  2.13278E+01
   2.10448E+01  2.07882E+01  2.05655E+01  2.03954E+01  2.02882E+01  2.01953E+01  2.01001E+01  2.00026E+01  1.99039E+01  1.98048E+01
   1.97059E+01  1.96072E+01  1.95086E+01  1.94101E+01  1.93118E+01  1.92140E+01  1.91169E+01  1.90205E+01  1.89247E+01  1.88295E+01
   1.87352E+01  1.86418E+01  1.85494E+01  1.84579E+01  1.83670E+01  1.82764E+01  1.81867E+01  1.80980E+01  1.80103E+01  1.79234E+01
   1.78372E+01  1.77521E+01  1.76684E+01  1.75857E+01  1.75037E+01  1.74221E+01  1.73408E+01  1.72601E+01  1.71800E+01  1.71005E+01
   1.70215E+01  1.69429E+01  1.68648E+01  1.67871E+01  1.67103E+01  1.66344E+01  1.65593E+01  1.64851E+01  1.64118E+01  1.63400E+01
   1.62693E+01  1.61990E+01  1.61292E+01  1.60593E+01  1.59888E+01  1.59176E+01  1.58457E+01  1.57723E+01  1.56933E+01  1.56079E+01
   1.55205E+01  1.54294E+01  1.53439E+01  1.52715E+01  1.52158E+01  1.51827E+01  1.51802E+01  1.51971E+01  1.52096E+01  1.52063E+01
   1.51833E+01  1.51256E+01  1.50239E+01  1.48720E+01  1.46707E+01  1.44552E+01  1.43045E+01  1.42325E+01  1.42176E+01  1.42394E+01
   1.42861E+01  1.43515E+01  1.44187E+01  1.44587E+01  1.44603E+01  1.44268E+01  1.43557E+01  1.42592E+01  1.41725E+01  1.40979E+01
   1.40280E+01  1.39614E+01  1.38978E+01  1.38358E+01  1.37743E+01  1.37126E+01  1.36495E+01  1.35850E+01  1.35213E+01  1.34541E+01
   1.33692E+01  1.32766E+01  1.32144E+01  1.31908E+01  1.31956E+01  1.32189E+01  1.32472E+01  1.32423E+01  1.31965E+01  1.31188E+01
   1.30163E+01  1.28972E+01  1.27690E+01  1.26499E+01  1.25671E+01  1.25321E+01  1.25377E+01  1.25673E+01  1.26019E+01  1.26137E+01
   1.25971E+01  1.25522E+01  1.24812E+01  1.23893E+01  1.22878E+01  1.21878E+01  1.20943E+01  1.20130E+01  1.19445E+01  1.18845E+01
   1.18299E+01  1.17776E+01  1.17245E+01  1.16680E+01  1.16095E+01  1.15487E+01  1.14868E+01  1.14260E+01  1.13670E+01  1.13096E+01
   1.12540E+01  1.12005E+01  1.11488E+01  1.10985E+01  1.10493E+01  1.10014E+01  1.09546E+01  1.09087E+01  1.08639E+01  1.08204E+01
   1.07781E+01  1.07373E+01  1.06978E+01  1.06595E+01  1.06226E+01  1.05866E+01  1.05515E+01  1.05171E+01  1.04835E+01  1.04504E+01
   1.04180E+01  1.03862E+01  1.03551E+01  1.03247E+01  1.02948E+01  1.02654E+01  1.02363E+01  1.02074E+01  1.01785E+01  1.01493E+01
   1.01199E+01  1.00899E+01  1.00592E+01  1.00279E+01  9.99573E+00  9.96280E+00  9.92917E+00  9.89498E+00  9.86042E+00  9.82579E+00
   9.79147E+00  9.75790E+00  9.72562E+00  9.69527E+00  9.66757E+00  9.64344E+00  9.62405E+00  9.61108E+00  9.60699E+00  9.61598E+00
   9.64590E+00  9.70805E+00  9.73915E+00  9.56485E+00  9.22995E+00  8.85391E+00  8.50058E+00  8.17756E+00  7.89512E+00  7.74557E+00
   7.90374E+00  8.27561E+00  8.68063E+00  9.05290E+00  9.36563E+00  9.53740E+00  9.56473E+00  9.45963E+00  9.26145E+00  9.02828E+00
   8.79366E+00  8.60027E+00  8.50181E+00  8.38441E+00  8.21398E+00  8.03159E+00  7.86361E+00  7.71238E+00  7.58086E+00  7.51373E+00
   7.56346E+00  7.66704E+00  7.75682E+00  7.81284E+00  7.82843E+00  7.76520E+00  7.62109E+00  7.41254E+00  7.16764E+00  6.91499E+00
   6.67053E+00  6.45861E+00  6.30338E+00  6.18115E+00  6.07777E+00  5.98856E+00  5.91031E+00  5.84037E+00  5.77661E+00  5.71748E+00
   5.66196E+00  5.60949E+00  5.55976E+00  5.51268E+00  5.46820E+00  5.42635E+00  5.38711E+00  5.35049E+00  5.31642E+00  5.28483E+00
   5.25558E+00  5.22856E+00  5.20359E+00  5.18047E+00  5.15896E+00  5.13876E+00  5.11952E+00  5.10082E+00  5.08218E+00  5.06306E+00
   5.04282E+00  5.02077E+00  4.99619E+00  4.96831E+00  4.93637E+00  4.89965E+00  4.85747E+00  4.80928E+00  4.75463E+00  4.69327E+00
   4.62513E+00  4.55036E+00  4.46930E+00  4.38253E+00  4.29080E+00  4.19503E+00  4.09627E+00  3.99564E+00  3.89430E+00  3.79338E+00
   3.69396E+00  3.59701E+00  3.50336E+00  3.41369E+00  3.32850E+00  3.24812E+00  3.17273E+00  3.10234E+00  3.03684E+00  2.97598E+00
   2.91947E+00  2.86693E+00  2.81796E+00  2.77215E+00  2.72907E+00  2.68833E+00  2.64954E+00  2.61239E+00  2.57656E+00  2.54179E+00
   2.50785E+00  2.47457E+00  2.44177E+00  2.40934E+00  2.37717E+00  2.34519E+00  2.31332E+00  2.28153E+00  2.24977E+00  2.21804E+00
   2.18630E+00  2.15454E+00  2.12277E+00  2.09097E+00  2.05915E+00  2.02731E+00  1.99545E+00  1.96357E+00  1.93169E+00  1.89980E+00
   1.86791E+00  1.83603E+00  1.80416E+00  1.77231E+00  1.74048E+00  1.70869E+00  1.67695E+00  1.64525E+00  1.61362E+00  1.58205E+00
   1.55055E+00  1.51913E+00  1.48781E+00  1.45657E+00  1.42543E+00  1.39440E+00  1.36348E+00  1.33268E+00  1.30201E+00  1.27146E+00
   1.24104E+00  1.21076E+00  1.18063E+00  1.15065E+00  1.12082E+00  1.09114E+00  1.06163E+00  1.03229E+00  1.00312E+00  9.74128E-01
   9.45315E-01  9.16685E-01  8.88245E-01  8.59997E-01  8.31947E-01  8.04098E-01  7.76453E-01  7.49018E-01  7.21796E-01  6.94793E-01
   6.68011E-01  6.41456E-01  6.15131E-01  5.89043E-01  5.63195E-01  5.37593E-01  5.12244E-01  4.87152E-01
 NY background values follow
     4.724E+01    4.697E+01    4.670E+01    4.643E+01    4.616E+01    4.590E+01    4.563E+01    4.536E+01    4.509E+01    4.483E+01
     4.456E+01    4.429E+01    4.403E+01    4.376E+01    4.350E+01    4.323E+01    4.297E+01    4.271E+01    4.244E+01    4.218E+01
     4.192E+01    4.166E+01    4.140E+01    4.114E+01    4.088E+01    4.062E+01    4.036E+01    4.011E+01    3.985E+01    3.960E+01
     3.934E+01    3.909E+01    3.884E+01    3.859E+01    3.834E+01    3.809E+01    3.784E+01    3.759E+01    3.734E+01    3.710E+01
     3.686E+01    3.661E+01    3.637E+01    3.613E+01    3.589E+01    3.566E+01    3.542E+01    3.518E+01    3.495E+01    3.472E+01
     3.449E+01    3.426E+01    3.403E+01    3.380E+01    3.358E+01    3.335E+01    3.313E+01    3.291E+01    3.269E+01    3.247E+01
     3.225E+01    3.204E+01    3.182E+01    3.161E+01    3.140E+01    3.119E+01    3.098E+01    3.077E+01    3.057E+01    3.036E+01
     3.016E+01    2.996E+01    2.976E+01    2.956E+01    2.936E+01    2.917E+01    2.897E+01    2.878E+01    2.859E+01    2.840E+01
     2.821E+01    2.802E+01    2.784E+01    2.766E+01    2.747E+01    2.729E+01    2.711E+01    2.694E+01    2.676E+01    2.659E+01
     2.641E+01    2.624E+01    2.607E+01    2.591E+01    2.574E+01    2.557E+01    2.541E+01    2.525E+01    2.509E+01    2.493E+01
     2.477E+01    2.462E+01    2.446E+01    2.431E+01    2.416E+01    2.401E+01    2.386E+01    2.371E+01    2.357E+01    2.342E+01
     2.328E+01    2.314E+01    2.300E+01    2.286E+01    2.272E+01    2.259E+01    2.245E+01    2.232E+01    2.219E+01    2.205E+01
     2.193E+01    2.180E+01    2.167E+01    2.154E+01    2.142E+01    2.130E+01    2.118E+01    2.105E+01    2.094E+01    2.082E+01
     2.070E+01    2.059E+01    2.047E+01    2.036E+01    2.025E+01    2.013E+01    2.002E+01    1.992E+01    1.981E+01    1.970E+01
     1.960E+01    1.949E+01    1.939E+01    1.929E+01    1.919E+01    1.909E+01    1.899E+01    1.889E+01    1.879E+01    1.870E+01
     1.860E+01    1.851E+01    1.842E+01    1.832E+01    1.823E+01    1.814E+01    1.805E+01    1.796E+01    1.787E+01    1.779E+01
     1.770E+01    1.761E+01    1.753E+01    1.745E+01    1.736E+01    1.728E+01    1.720E+01    1.712E+01    1.704E+01    1.696E+01
     1.688E+01    1.680E+01    1.672E+01    1.664E+01    1.656E+01    1.649E+01    1.641E+01    1.634E+01    1.626E+01    1.619E+01
     1.611E+01    1.604E+01    1.597E+01    1.590E+01    1.582E+01    1.575E+01    1.568E+01    1.561E+01    1.554E+01    1.547E+01
     1.540E+01    1.533E+01    1.527E+01    1.520E+01    1.513E+01    1.506E+01    1.500E+01    1.493E+01    1.487E+01    1.480E+01
     1.473E+01    1.467E+01    1.461E+01    1.454E+01    1.448E+01    1.442E+01    1.435E+01    1.429E+01    1.423E+01    1.417E+01
     1.411E+01    1.405E+01    1.399E+01    1.393E+01    1.387E+01    1.381E+01    1.375E+01    1.369E+01    1.363E+01    1.357E+01
     1.351E+01    1.346E+01    1.340E+01    1.334E+01    1.329E+01    1.323E+01    1.317E+01    1.312E+01    1.306E+01    1.301E+01
     1.295E+01    1.290E+01    1.284E+01    1.279E+01    1.274E+01    1.268E+01    1.263E+01    1.258E+01    1.252E+01    1.247E+01
     1.242E+01    1.237E+01    1.232E+01    1.226E+01    1.221E+01    1.216E+01    1.211E+01    1.206E+01    1.201E+01    1.196E+01
     1.191E+01    1.186E+01    1.181E+01    1.176E+01    1.171E+01    1.166E+01    1.161E+01    1.156E+01    1.152E+01    1.147E+01
     1.142E+01    1.137E+01    1.132E+01    1.127E+01    1.123E+01    1.118E+01    1.113E+01    1.108E+01    1.104E+01    1.099E+01
     1.094E+01    1.089E+01    1.085E+01    1.080E+01    1.075E+01    1.071E+01    1.066E+01    1.061E+01    1.057E+01    1.052E+01
     1.047E+01    1.043E+01    1.038E+01    1.034E+01    1.029E+01    1.024E+01    1.020E+01    1.015E+01    1.010E+01    1.006E+01
     1.001E+01    9.962E+00    9.915E+00    9.868E+00    9.821E+00    9.774E+00    9.727E+00    9.679E+00    9.631E+00    9.584E+00
     9.536E+00    9.488E+00    9.439E+00    9.391E+00    9.342E+00    9.293E+00    9.244E+00    9.195E+00    9.146E+00    9.096E+00
     9.046E+00    8.996E+00    8.946E+00    8.895E+00    8.844E+00    8.793E+00    8.742E+00    8.690E+00    8.638E+00    8.586E+00
     8.533E+00    8.481E+00    8.428E+00    8.375E+00    8.321E+00    8.268E+00    8.214E+00    8.160E+00    8.106E+00    8.052E+00
     7.998E+00    7.944E+00    7.889E+00    7.835E+00    7.780E+00    7.725E+00    7.670E+00    7.615E+00    7.560E+00    7.505E+00
     7.450E+00    7.395E+00    7.340E+00    7.285E+00    7.230E+00    7.175E+00    7.120E+00    7.065E+00    7.010E+00    6.955E+00
     6.900E+00    6.845E+00    6.791E+00    6.736E+00    6.681E+00    6.627E+00    6.573E+00    6.519E+00    6.465E+00    6.411E+00
     6.357E+00    6.303E+00    6.250E+00    6.197E+00    6.143E+00    6.090E+00    6.038E+00    5.985E+00    5.933E+00    5.880E+00
     5.828E+00    5.776E+00    5.725E+00    5.673E+00    5.622E+00    5.571E+00    5.520E+00    5.469E+00    5.418E+00    5.368E+00
     5.317E+00    5.267E+00    5.217E+00    5.167E+00    5.118E+00    5.068E+00    5.019E+00    4.970E+00    4.921E+00    4.873E+00
     4.824E+00    4.776E+00    4.728E+00    4.680E+00    4.632E+00    4.585E+00    4.537E+00    4.490E+00    4.443E+00    4.397E+00
     4.350E+00    4.304E+00    4.258E+00    4.212E+00    4.166E+00    4.120E+00    4.075E+00    4.030E+00    3.985E+00    3.940E+00
     3.895E+00    3.851E+00    3.807E+00    3.763E+00    3.719E+00    3.675E+00    3.632E+00    3.589E+00    3.546E+00    3.503E+00
     3.460E+00    3.418E+00    3.375E+00    3.333E+00    3.291E+00    3.249E+00    3.208E+00    3.166E+00    3.125E+00    3.084E+00
     3.043E+00    3.002E+00    2.962E+00    2.921E+00    2.881E+00    2.841E+00    2.801E+00    2.762E+00    2.722E+00    2.683E+00
     2.643E+00    2.604E+00    2.566E+00    2.527E+00    2.488E+00    2.450E+00    2.412E+00    2.374E+00    2.336E+00    2.298E+00
     2.261E+00    2.223E+00    2.186E+00    2.149E+00    2.112E+00    2.075E+00    2.039E+00    2.002E+00    1.966E+00    1.930E+00
     1.894E+00    1.859E+00    1.823E+00    1.788E+00    1.753E+00    1.718E+00    1.683E+00    1.649E+00    1.614E+00    1.580E+00
     1.546E+00    1.513E+00    1.479E+00    1.446E+00    1.413E+00    1.380E+00    1.347E+00    1.315E+00    1.283E+00    1.251E+00
     1.219E+00    1.188E+00    1.156E+00    1.125E+00    1.094E+00    1.064E+00    1.034E+00    1.003E+00    9.736E-01    9.440E-01
     9.147E-01    8.855E-01    8.567E-01    8.281E-01    7.997E-01    7.716E-01    7.437E-01    7.161E-01
 Ala      Conc. = 8.52E+01
