 LCModel (Version 6.3-1L) Copyright: S.W. Provencher.          Ref.: Magn. Reson. Med. 30:672-679 (1993).                
 Slice#3 Row#13 Col#11  PD_05_press_1_raw_act
 36 lines in following concentration table = NCONC+1
    Conc.  %SD /Cr+PCr  Metabolite                                         
  780.199  23%  13.018 Ala                                                 
   10.947 216%   0.183 Asp                                                 
   59.930  38%   1.000 Cr                                                  
    0.000 999%   0.000 PCr                                                 
    6.860 210%   0.114 GABA                                                
   15.958  90%   0.266 Glc                                                 
   47.842 503%   0.798 Gln                                                 
   19.895 999%   0.332 Glu                                                 
   58.817  16%   0.981 GPC                                                 
    0.000 999%   0.000 PCh                                                 
  147.244  34%   2.457 GSH                                                 
  638.414  17%  10.653 Ins                                                 
  734.521  20%  12.256 Lac                                                 
    0.000 999%   0.000 NAA                                                 
   54.212  59%   0.905 NAAG                                                
   10.202  44%   0.170 Scyllo                                              
   39.708  58%   0.663 Tau                                                 
    0.000 999%   0.000 -CrCH2                                              
   58.817  16%   0.981 GPC+PCh                                             
   54.212  59%   0.905 NAA+NAAG                                            
   59.930  38%   1.000 Cr+PCr                                              
   67.737 630%   1.130 Glu+Gln                                             
    0.000 999%   0.000 Lip13a                                              
    0.000 999%   0.000 Lip13b                                              
   83.057  60%   1.386 Lip09                                               
  183.639  29%   3.064 MM09                                                
    0.000 999%   0.000 Lip20                                               
  171.548  51%   2.862 MM20                                                
   61.402  33%   1.025 MM12                                                
  215.388  26%   3.594 MM14                                                
   92.750  43%   1.548 MM17                                                
    0.000 999%   0.000 Lip13a+Lip13b                                       
  276.789  24%   4.619 MM14+Lip13a+Lip13b+MM12                             
  266.696  17%   4.450 MM09+Lip09                                          
  171.548  51%   2.862 MM20+Lip20                                          
   6 lines in following misc. output table
  FWHM = 0.183 ppm    S/N =   2                                            
  Data shift = 0.115 ppm                                                   
  Ph:  59 deg     -43.4 deg/ppm                                            
  alphaB,S = 9.5E-01,   3.4E+02                                            
   13 spline knots.   Ns = 9(2)                                            
  (12) 4 infls.   ( 7) 1 extrs.                                            
  498 points on ppm-axis = NY
      4.000000     3.992357     3.984714     3.977070     3.969427     3.961784     3.954141     3.946497     3.938854     3.931211
      3.923568     3.915925     3.908281     3.900638     3.892995     3.885352     3.877708     3.870065     3.862422     3.854779
      3.847136     3.839492     3.831849     3.824206     3.816563     3.808919     3.801276     3.793633     3.785990     3.778347
      3.770703     3.763060     3.755417     3.747774     3.740130     3.732487     3.724844     3.717201     3.709558     3.701914
      3.694271     3.686628     3.678985     3.671341     3.663698     3.656055     3.648412     3.640769     3.633125     3.625482
      3.617839     3.610196     3.602552     3.594909     3.587266     3.579623     3.571980     3.564336     3.556693     3.549050
      3.541407     3.533763     3.526120     3.518477     3.510834     3.503191     3.495547     3.487904     3.480261     3.472618
      3.464974     3.457331     3.449688     3.442045     3.434402     3.426758     3.419115     3.411472     3.403829     3.396185
      3.388542     3.380899     3.373256     3.365613     3.357969     3.350326     3.342683     3.335040     3.327396     3.319753
      3.312110     3.304467     3.296824     3.289180     3.281537     3.273894     3.266251     3.258607     3.250964     3.243321
      3.235678     3.228034     3.220391     3.212748     3.205105     3.197462     3.189818     3.182175     3.174532     3.166889
      3.159245     3.151602     3.143959     3.136316     3.128673     3.121029     3.113386     3.105743     3.098100     3.090456
      3.082813     3.075170     3.067527     3.059884     3.052240     3.044597     3.036954     3.029311     3.021667     3.014024
      3.006381     2.998738     2.991095     2.983451     2.975808     2.968165     2.960522     2.952878     2.945235     2.937592
      2.929949     2.922306     2.914662     2.907019     2.899376     2.891733     2.884089     2.876446     2.868803     2.861160
      2.853517     2.845873     2.838230     2.830587     2.822944     2.815300     2.807657     2.800014     2.792371     2.784728
      2.777084     2.769441     2.761798     2.754155     2.746511     2.738868     2.731225     2.723582     2.715939     2.708295
      2.700652     2.693009     2.685366     2.677722     2.670079     2.662436     2.654793     2.647150     2.639506     2.631863
      2.624220     2.616577     2.608933     2.601290     2.593647     2.586004     2.578361     2.570717     2.563074     2.555431
      2.547788     2.540144     2.532501     2.524858     2.517215     2.509572     2.501928     2.494285     2.486642     2.478999
      2.471355     2.463712     2.456069     2.448426     2.440783     2.433139     2.425496     2.417853     2.410210     2.402566
      2.394923     2.387280     2.379637     2.371994     2.364350     2.356707     2.349064     2.341421     2.333777     2.326134
      2.318491     2.310848     2.303205     2.295561     2.287918     2.280275     2.272632     2.264988     2.257345     2.249702
      2.242059     2.234416     2.226772     2.219129     2.211486     2.203843     2.196199     2.188556     2.180913     2.173270
      2.165627     2.157983     2.150340     2.142697     2.135054     2.127410     2.119767     2.112124     2.104481     2.096838
      2.089194     2.081551     2.073908     2.066265     2.058621     2.050978     2.043335     2.035692     2.028049     2.020405
      2.012762     2.005119     1.997476     1.989833     1.982190     1.974546     1.966903     1.959260     1.951617     1.943974
      1.936331     1.928688     1.921045     1.913402     1.905759     1.898115     1.890472     1.882829     1.875186     1.867543
      1.859900     1.852257     1.844614     1.836971     1.829327     1.821684     1.814041     1.806398     1.798755     1.791112
      1.783469     1.775826     1.768183     1.760540     1.752896     1.745253     1.737610     1.729967     1.722324     1.714681
      1.707038     1.699395     1.691752     1.684108     1.676465     1.668822     1.661179     1.653536     1.645893     1.638250
      1.630607     1.622964     1.615321     1.607677     1.600034     1.592391     1.584748     1.577105     1.569462     1.561819
      1.554176     1.546533     1.538890     1.531246     1.523603     1.515960     1.508317     1.500674     1.493031     1.485388
      1.477745     1.470102     1.462458     1.454815     1.447172     1.439529     1.431886     1.424243     1.416600     1.408957
      1.401314     1.393671     1.386027     1.378384     1.370741     1.363098     1.355455     1.347812     1.340169     1.332526
      1.324883     1.317240     1.309596     1.301953     1.294310     1.286667     1.279024     1.271381     1.263738     1.256095
      1.248452     1.240808     1.233165     1.225522     1.217879     1.210236     1.202593     1.194950     1.187307     1.179664
      1.172021     1.164377     1.156734     1.149091     1.141448     1.133805     1.126162     1.118519     1.110876     1.103233
      1.095590     1.087946     1.080303     1.072660     1.065017     1.057374     1.049731     1.042088     1.034445     1.026802
      1.019158     1.011515     1.003872     0.996229     0.988586     0.980943     0.973300     0.965657     0.958014     0.950371
      0.942727     0.935084     0.927441     0.919798     0.912155     0.904512     0.896869     0.889226     0.881583     0.873940
      0.866296     0.858653     0.851010     0.843367     0.835724     0.828081     0.820438     0.812795     0.805152     0.797508
      0.789865     0.782222     0.774579     0.766936     0.759293     0.751650     0.744007     0.736364     0.728721     0.721077
      0.713434     0.705791     0.698148     0.690505     0.682862     0.675219     0.667576     0.659933     0.652290     0.644646
      0.637003     0.629360     0.621717     0.614074     0.606431     0.598788     0.591145     0.583502     0.575858     0.568215
      0.560572     0.552929     0.545286     0.537643     0.530000     0.522357     0.514714     0.507071     0.499427     0.491784
      0.484141     0.476498     0.468855     0.461212     0.453569     0.445925     0.438282     0.430639     0.422996     0.415353
      0.407710     0.400067     0.392424     0.384780     0.377137     0.369494     0.361851     0.354208     0.346565     0.338922
      0.331278     0.323635     0.315992     0.308349     0.300706     0.293063     0.285420     0.277777     0.270133     0.262490
      0.254847     0.247204     0.239561     0.231918     0.224275     0.216631     0.208988     0.201345
 NY phased data points follow
  -3.33798E+00 -2.09429E+00 -1.25742E+00 -1.77159E+00 -1.62505E+00 -2.40259E+00 -1.15368E+00 -2.08949E+00 -8.42142E-01 -1.68270E+00
  -2.06859E+00 -2.01675E+00 -1.76910E+00 -1.65957E+00 -2.49237E+00 -2.50372E+00 -2.43867E+00 -1.99000E+00 -2.73111E+00 -3.09628E+00
  -2.09744E+00 -1.81538E+00 -1.05830E+00 -1.86699E+00 -1.42123E+00 -2.78746E+00 -1.79289E+00 -2.52605E+00 -1.22848E+00 -2.05259E+00
  -2.47970E+00 -2.15260E+00 -2.39811E+00 -2.25392E+00 -1.46580E+00 -2.21579E+00 -2.59510E+00 -1.76036E+00 -2.58935E+00 -1.84037E+00
  -2.76454E+00 -2.84566E+00 -1.74839E+00 -2.63298E+00 -2.41441E+00 -1.16025E+00 -2.31439E+00 -2.72138E+00 -1.89301E+00 -8.66639E-01
  -1.64407E+00 -2.01078E+00 -1.71887E+00 -8.37320E-01 -2.15372E+00 -2.54832E+00 -1.92779E+00 -2.47540E+00 -3.23176E+00 -1.47760E+00
  -2.83521E+00 -2.77414E+00 -2.27206E+00 -3.67111E+00 -3.87232E+00 -2.61012E+00 -2.68074E+00 -2.55673E+00 -3.07673E+00 -3.08254E+00
  -1.55930E+00 -2.41910E+00 -2.42214E+00 -2.57804E+00 -8.37640E-01 -2.22481E+00 -2.44463E+00 -2.24382E+00 -2.37419E+00 -2.68790E+00
  -1.45935E+00 -2.59369E+00 -3.11689E+00 -2.07218E+00 -2.14214E+00 -2.87406E+00 -9.73417E-01 -3.14117E+00 -2.33022E+00 -3.91702E+00
  -4.50885E+00 -4.03638E+00 -2.99576E+00 -2.36111E+00 -2.86799E+00 -2.49160E+00 -2.77982E+00 -2.27683E+00 -1.14237E+00 -2.54792E+00
  -2.24260E+00 -1.58215E+00 -2.38228E+00 -2.54042E+00 -4.76289E+00 -2.44383E+00 -1.87069E+00 -1.68544E+00 -2.44966E+00 -2.62545E+00
  -2.49401E+00 -2.64689E+00 -2.95459E+00 -3.85083E+00 -4.35136E+00 -3.73446E+00 -1.32907E+00 -2.90780E+00 -3.63493E+00 -2.39118E+00
  -3.23825E+00 -2.25877E+00 -2.22496E+00 -3.43342E+00 -2.31233E+00 -3.21866E+00 -2.52325E+00 -1.68600E+00 -4.34286E+00 -2.43048E+00
  -3.42060E+00 -3.53851E+00 -4.06919E+00 -2.67289E+00 -3.53363E+00 -4.52353E+00 -3.40701E+00 -2.98545E+00 -2.81905E+00 -3.57298E+00
  -4.37152E+00 -3.91460E+00 -4.53286E+00 -3.70289E+00 -3.31190E+00 -3.01345E+00 -4.48066E+00 -4.92953E+00 -3.48048E+00 -4.22283E+00
  -2.82050E+00 -3.10580E+00 -4.39058E+00 -3.34247E+00 -2.98325E+00 -4.38590E+00 -4.78473E+00 -5.19446E+00 -4.37873E+00 -2.80284E+00
  -4.57442E+00 -4.96556E+00 -4.03680E+00 -3.48022E+00 -3.05387E+00 -3.51892E+00 -4.97421E+00 -4.13189E+00 -4.93762E+00 -4.18120E+00
  -3.79731E+00 -3.48683E+00 -3.99437E+00 -4.89553E+00 -4.30509E+00 -4.79972E+00 -4.93534E+00 -3.91468E+00 -5.18303E+00 -3.66370E+00
  -4.90516E+00 -4.85958E+00 -5.25664E+00 -4.53406E+00 -3.54165E+00 -4.09659E+00 -4.32530E+00 -4.97319E+00 -3.68211E+00 -3.96704E+00
  -4.14923E+00 -4.60074E+00 -3.48232E+00 -5.18054E+00 -2.52133E+00 -3.47349E+00 -4.78805E+00 -3.09662E+00 -3.53429E+00 -4.72216E+00
  -5.02969E+00 -4.01003E+00 -3.72052E+00 -3.05553E+00 -3.23155E+00 -3.63941E+00 -3.63942E+00 -2.39098E+00 -3.92588E+00 -3.38662E+00
  -4.56834E+00 -3.08104E+00 -3.84888E+00 -3.63848E+00 -3.00630E+00 -4.10453E+00 -3.83754E+00 -3.67455E+00 -2.68840E+00 -3.16458E+00
  -3.35017E+00 -2.75359E+00 -5.02992E+00 -3.43142E+00 -4.19227E+00 -3.62225E+00 -2.44652E+00 -3.04229E+00 -1.92971E+00 -3.25493E+00
  -2.61167E+00 -3.67559E+00 -2.73403E+00 -2.02334E+00 -4.50236E+00 -2.27024E+00 -3.37617E+00 -2.96249E+00 -2.76240E+00 -4.02058E+00
  -3.85274E+00 -3.58591E+00 -2.73826E+00 -3.06089E+00 -1.40867E+00 -2.86077E+00 -2.59637E+00 -2.99034E+00 -3.32683E+00 -1.71481E+00
  -1.79170E-01 -7.74452E-01 -3.90406E-01 -1.07641E+00 -1.76648E+00 -1.07146E+00 -4.62428E-01 -1.92077E-01 -2.28737E-02 -5.28089E-01
  -2.62875E-02 -1.72427E+00 -7.59478E-01 -6.90174E-01  3.25188E-01 -2.58701E+00 -1.41013E+00 -1.94886E+00 -1.26369E+00 -2.29720E-01
  -2.30156E+00 -2.10127E+00 -6.23173E-01 -1.62968E+00 -6.71762E-01 -5.86250E-01 -1.34930E+00 -1.32898E+00 -1.97759E+00 -1.97139E+00
  -1.75952E+00 -1.31555E+00 -1.94486E+00 -3.00731E-01 -2.04796E+00 -1.67868E+00 -7.20278E-01  8.80444E-02 -1.07188E+00 -4.07693E-01
   1.15869E-01  1.82022E-01 -6.70775E-01 -2.47886E-01 -7.10383E-01  5.57079E-01 -2.56404E-01 -3.33205E-01  9.60768E-01  1.01869E+00
   6.17262E-01  8.25531E-01  1.52243E+00  1.61180E+00  1.33590E+00  2.61652E-01  7.53213E-01  2.36411E+00  1.16103E+00  3.40031E+00
   1.98000E+00  3.03883E+00  3.25900E+00  3.36716E+00  4.25185E+00  3.20338E+00  3.30814E+00  3.02301E+00  2.32753E+00  2.42547E+00
   4.74742E+00  5.40657E+00  4.19775E+00  5.86759E+00  4.84322E+00  4.60901E+00  4.18896E+00  4.59171E+00  3.58106E+00  2.62817E+00
   4.20151E+00  1.75961E+00  3.60044E+00  3.96472E+00  5.57484E+00  4.13169E+00  3.34872E+00  2.88197E+00  3.88230E+00  3.30798E+00
   1.79140E+00  3.56749E+00  3.79823E+00  3.52167E+00  4.24078E+00  4.38321E+00  4.17443E+00  4.14346E+00  3.35183E+00  2.78029E+00
   2.29718E+00  2.95024E+00  3.59961E+00  4.45370E+00  3.28227E+00  2.48568E+00  2.92584E+00  2.78906E+00  2.37896E+00  2.79072E+00
   1.65773E+00  2.83268E+00  3.00100E+00  2.99490E+00  3.20995E+00  4.51213E+00  2.31626E+00  2.36776E+00  4.45576E+00  4.23588E+00
   4.43556E+00  4.35183E+00  4.37242E+00  2.84435E+00  2.50766E+00  3.54683E+00  3.51006E+00  3.57442E+00  3.41117E+00  2.99264E+00
   3.17439E+00  3.47815E+00  2.59561E+00  2.66880E+00  2.78200E+00  2.31745E+00  2.69694E+00  3.01029E+00  2.83590E+00  4.52120E+00
   3.23898E+00  2.25963E+00  3.47047E+00  1.20061E+00  2.91322E+00  2.31502E+00  2.36486E+00  3.21596E+00  3.94504E+00  1.67293E+00
   2.83234E+00  2.07772E+00  3.89318E+00  3.85307E+00  3.27303E+00  1.76599E+00  4.05581E+00  2.93734E+00  2.54227E+00  8.33919E-01
   2.53196E+00  1.51279E+00  1.65314E+00  2.65720E+00  1.62772E+00  2.37363E+00  2.26768E+00  2.11020E+00  1.31230E+00  1.80904E+00
   1.07926E+00  1.11876E+00  2.36209E+00  2.63954E+00  1.00129E+00  2.65681E+00  1.70036E+00  1.27001E+00  2.79529E+00  1.18331E+00
   2.25752E+00  7.85433E-01  2.41547E+00  1.06694E+00  2.83242E+00  1.20879E+00  2.11407E+00  9.30801E-01  1.36017E+00  3.21395E-01
   2.57261E+00  3.11501E+00  2.26930E+00  1.44984E+00  1.73954E+00  9.96166E-01  1.71722E+00  3.59662E+00  4.37575E+00  2.15461E+00
   1.49359E+00  2.38245E+00  1.97912E+00  3.43440E-01  2.33768E+00  1.77865E+00  1.42075E+00  3.00144E+00  2.36559E+00  2.56619E+00
   2.58229E+00  1.71454E+00  2.24463E+00  1.64817E+00  7.82089E-01  1.24536E+00  2.85224E+00  1.01877E+00  8.72984E-01  1.90746E+00
   1.10892E+00  1.69827E+00  9.88624E-01  1.33613E+00 -2.73787E-01  1.72738E+00  1.80778E+00  2.01977E+00  6.00622E-01  1.70287E+00
   2.21255E+00  1.22524E+00  9.23582E-01  1.29049E+00  2.10454E+00  1.70699E+00  5.35683E-01  2.74671E+00  2.07931E+00  9.28660E-01
   1.35087E+00 -1.86530E-01  7.99038E-01  1.95193E+00  9.40960E-01  6.38376E-01  4.24307E-01  1.10591E+00
 NY points of the fit to the data follow
  -1.27243E+00 -1.46286E+00 -1.22365E+00 -1.39232E+00 -1.20273E+00 -1.34877E+00 -1.18861E+00 -1.33857E+00 -1.20212E+00 -1.38504E+00
  -1.29147E+00 -1.54979E+00 -1.48090E+00 -1.78762E+00 -1.70877E+00 -2.05495E+00 -1.91848E+00 -2.27727E+00 -2.07634E+00 -2.41596E+00
  -2.14991E+00 -2.48351E+00 -2.15581E+00 -2.50831E+00 -2.15377E+00 -2.53496E+00 -2.18578E+00 -2.59302E+00 -2.27423E+00 -2.68805E+00
  -2.37131E+00 -2.72758E+00 -2.38226E+00 -2.66440E+00 -2.28923E+00 -2.52125E+00 -2.16072E+00 -2.36623E+00 -2.06944E+00 -2.26724E+00
  -2.05296E+00 -2.24650E+00 -2.07391E+00 -2.21555E+00 -2.04427E+00 -2.11090E+00 -1.94120E+00 -1.96055E+00 -1.81235E+00 -1.86843E+00
  -1.79146E+00 -1.89389E+00 -1.84029E+00 -1.94726E+00 -1.91312E+00 -2.01948E+00 -1.95289E+00 -2.02921E+00 -1.94945E+00 -2.00915E+00
  -1.93449E+00 -1.99107E+00 -1.94787E+00 -2.04092E+00 -2.03604E+00 -2.14867E+00 -2.16003E+00 -2.27538E+00 -2.27106E+00 -2.35247E+00
  -2.29781E+00 -2.32893E+00 -2.27111E+00 -2.31010E+00 -2.28439E+00 -2.34664E+00 -2.35786E+00 -2.43981E+00 -2.48071E+00 -2.56319E+00
  -2.63090E+00 -2.71342E+00 -2.80593E+00 -2.89705E+00 -3.02654E+00 -3.06682E+00 -3.23158E+00 -3.21461E+00 -3.40678E+00 -3.31938E+00
  -3.52301E+00 -3.37067E+00 -3.58262E+00 -3.38590E+00 -3.61288E+00 -3.36404E+00 -3.60660E+00 -3.28940E+00 -3.53074E+00 -3.14157E+00
  -3.37454E+00 -2.94519E+00 -3.17656E+00 -2.75985E+00 -2.99858E+00 -2.62798E+00 -2.87483E+00 -2.56292E+00 -2.80343E+00 -2.51923E+00
  -2.75187E+00 -2.51728E+00 -2.73840E+00 -2.56760E+00 -2.77042E+00 -2.66848E+00 -2.84153E+00 -2.80514E+00 -2.95226E+00 -2.96473E+00
  -3.09368E+00 -3.13998E+00 -3.24531E+00 -3.29149E+00 -3.34415E+00 -3.31290E+00 -3.31800E+00 -3.28216E+00 -3.26008E+00 -3.24006E+00
  -3.20442E+00 -3.20859E+00 -3.17047E+00 -3.19755E+00 -3.15795E+00 -3.20866E+00 -3.16462E+00 -3.24161E+00 -3.19177E+00 -3.29420E+00
  -3.24273E+00 -3.36919E+00 -3.32808E+00 -3.47346E+00 -3.44750E+00 -3.60054E+00 -3.58590E+00 -3.72784E+00 -3.71409E+00 -3.81675E+00
  -3.79945E+00 -3.88485E+00 -3.87512E+00 -3.94340E+00 -3.94037E+00 -3.98738E+00 -3.98781E+00 -4.02935E+00 -4.04773E+00 -4.08724E+00
  -4.12099E+00 -4.15417E+00 -4.18829E+00 -4.21171E+00 -4.23759E+00 -4.25587E+00 -4.27532E+00 -4.29297E+00 -4.30760E+00 -4.32683E+00
  -4.33835E+00 -4.35857E+00 -4.36409E+00 -4.38023E+00 -4.37450E+00 -4.38502E+00 -4.36971E+00 -4.37789E+00 -4.35563E+00 -4.37000E+00
  -4.35238E+00 -4.36966E+00 -4.35631E+00 -4.36898E+00 -4.35406E+00 -4.35236E+00 -4.33140E+00 -4.31225E+00 -4.28802E+00 -4.25810E+00
  -4.24000E+00 -4.20845E+00 -4.20740E+00 -4.17214E+00 -4.18156E+00 -4.13402E+00 -4.14510E+00 -4.08144E+00 -4.08807E+00 -4.01243E+00
  -4.01741E+00 -3.93957E+00 -3.94865E+00 -3.87675E+00 -3.89208E+00 -3.82616E+00 -3.83849E+00 -3.77582E+00 -3.77814E+00 -3.71465E+00
  -3.70125E+00 -3.63545E+00 -3.60368E+00 -3.54277E+00 -3.50394E+00 -3.45581E+00 -3.42101E+00 -3.38554E+00 -3.35527E+00 -3.32205E+00
  -3.28917E+00 -3.24586E+00 -3.20414E+00 -3.15738E+00 -3.11504E+00 -3.07756E+00 -3.04284E+00 -3.01257E+00 -2.98006E+00 -2.95045E+00
  -2.91365E+00 -2.87881E+00 -2.83471E+00 -2.79517E+00 -2.74260E+00 -2.70700E+00 -2.65218E+00 -2.61729E+00 -2.53623E+00 -2.49775E+00
  -2.38570E+00 -2.34253E+00 -2.19814E+00 -2.15557E+00 -1.98950E+00 -1.95884E+00 -1.78360E+00 -1.76827E+00 -1.58782E+00 -1.58640E+00
  -1.39735E+00 -1.41110E+00 -1.21747E+00 -1.25551E+00 -1.07056E+00 -1.12731E+00 -9.60087E-01 -1.02967E+00 -8.85396E-01 -9.59557E-01
  -8.38408E-01 -9.24171E-01 -8.27128E-01 -9.20069E-01 -8.48747E-01 -9.45086E-01 -8.97181E-01 -9.82481E-01 -9.51013E-01 -1.02075E+00
  -1.00372E+00 -1.05433E+00 -1.04704E+00 -1.07565E+00 -1.07267E+00 -1.07581E+00 -1.06506E+00 -1.03821E+00 -1.00125E+00 -9.65263E-01
  -9.22707E-01 -8.81823E-01 -8.33653E-01 -7.87641E-01 -7.33459E-01 -6.81942E-01 -6.21135E-01 -5.63394E-01 -4.95315E-01 -4.30186E-01
  -3.54277E-01 -2.80831E-01 -1.96333E-01 -1.13300E-01 -1.90679E-02  7.44382E-02  1.79132E-01  2.83811E-01  3.99276E-01  5.15374E-01
   6.42232E-01  7.70868E-01  9.10371E-01  1.05354E+00  1.20897E+00  1.37240E+00  1.55332E+00  1.75443E+00  1.99862E+00  2.30008E+00
   2.51404E+00  2.79602E+00  2.93317E+00  3.13377E+00  3.16519E+00  3.23221E+00  3.15833E+00  3.21190E+00  3.20373E+00  3.28355E+00
   3.38082E+00  3.46984E+00  3.63802E+00  3.63877E+00  3.81502E+00  3.65088E+00  3.82848E+00  3.54519E+00  3.83639E+00  3.60590E+00
   4.00052E+00  3.77330E+00  4.24552E+00  3.94060E+00  4.37776E+00  3.86783E+00  4.22858E+00  3.69062E+00  4.04030E+00  3.60539E+00
   3.95999E+00  3.71720E+00  4.03744E+00  3.90174E+00  4.09654E+00  3.96722E+00  4.00390E+00  3.91175E+00  3.81770E+00  3.87044E+00
   3.55461E+00  3.67792E+00  3.24243E+00  3.45658E+00  2.90167E+00  3.14152E+00  2.54248E+00  2.89036E+00  2.41576E+00  2.75382E+00
   2.38214E+00  2.74231E+00  2.47852E+00  2.83067E+00  2.65337E+00  2.94846E+00  2.84106E+00  3.05849E+00  2.99000E+00  3.11510E+00
   2.94006E+00  2.87535E+00  2.69849E+00  2.54118E+00  2.41127E+00  2.25671E+00  2.22452E+00  2.23852E+00  2.27325E+00  2.32086E+00
   2.37770E+00  2.44155E+00  2.51081E+00  2.58414E+00  2.66022E+00  2.73772E+00  2.81521E+00  2.89119E+00  2.96405E+00  3.03219E+00
   3.09396E+00  3.14776E+00  3.19209E+00  3.22561E+00  3.24722E+00  3.25609E+00  3.25173E+00  3.23399E+00  3.20309E+00  3.15964E+00
   3.10457E+00  3.03915E+00  2.96488E+00  2.88346E+00  2.79670E+00  2.70644E+00  2.61454E+00  2.52274E+00  2.43263E+00  2.34562E+00
   2.26291E+00  2.18545E+00  2.11397E+00  2.04897E+00  1.99071E+00  1.93928E+00  1.89459E+00  1.85643E+00  1.82445E+00  1.79824E+00
   1.77733E+00  1.76120E+00  1.74936E+00  1.74127E+00  1.73644E+00  1.73440E+00  1.73470E+00  1.73694E+00  1.74075E+00  1.74580E+00
   1.75181E+00  1.75853E+00  1.76572E+00  1.77321E+00  1.78083E+00  1.78846E+00  1.79598E+00  1.80329E+00  1.81032E+00  1.81700E+00
   1.82328E+00  1.82913E+00  1.83450E+00  1.83937E+00  1.84372E+00  1.84752E+00  1.85078E+00  1.85347E+00  1.85559E+00  1.85713E+00
   1.85810E+00  1.85848E+00  1.85827E+00  1.85749E+00  1.85611E+00  1.85416E+00  1.85162E+00  1.84849E+00  1.84480E+00  1.84052E+00
   1.83568E+00  1.83026E+00  1.82427E+00  1.81772E+00  1.81061E+00  1.80295E+00  1.79473E+00  1.78595E+00  1.77664E+00  1.76678E+00
   1.75639E+00  1.74547E+00  1.73402E+00  1.72205E+00  1.70957E+00  1.69657E+00  1.68308E+00  1.66908E+00  1.65460E+00  1.63964E+00
   1.62421E+00  1.60832E+00  1.59197E+00  1.57518E+00  1.55797E+00  1.54034E+00  1.52232E+00  1.50392E+00  1.48517E+00  1.46607E+00
   1.44668E+00  1.42700E+00  1.40710E+00  1.38700E+00  1.36676E+00  1.34645E+00  1.32615E+00  1.30597E+00
 NY background values follow
    -5.291E-02   -1.134E-01   -1.736E-01   -2.334E-01   -2.929E-01   -3.520E-01   -4.107E-01   -4.691E-01   -5.271E-01   -5.847E-01
    -6.419E-01   -6.988E-01   -7.553E-01   -8.114E-01   -8.672E-01   -9.225E-01   -9.775E-01   -1.032E+00   -1.086E+00   -1.140E+00
    -1.194E+00   -1.247E+00   -1.299E+00   -1.351E+00   -1.403E+00   -1.455E+00   -1.506E+00   -1.556E+00   -1.607E+00   -1.657E+00
    -1.706E+00   -1.755E+00   -1.804E+00   -1.852E+00   -1.900E+00   -1.947E+00   -1.994E+00   -2.041E+00   -2.087E+00   -2.133E+00
    -2.178E+00   -2.223E+00   -2.267E+00   -2.311E+00   -2.355E+00   -2.398E+00   -2.441E+00   -2.484E+00   -2.526E+00   -2.567E+00
    -2.608E+00   -2.649E+00   -2.689E+00   -2.729E+00   -2.768E+00   -2.807E+00   -2.846E+00   -2.884E+00   -2.922E+00   -2.959E+00
    -2.996E+00   -3.032E+00   -3.068E+00   -3.104E+00   -3.139E+00   -3.174E+00   -3.208E+00   -3.242E+00   -3.275E+00   -3.308E+00
    -3.340E+00   -3.373E+00   -3.404E+00   -3.435E+00   -3.466E+00   -3.496E+00   -3.526E+00   -3.556E+00   -3.585E+00   -3.613E+00
    -3.641E+00   -3.669E+00   -3.696E+00   -3.723E+00   -3.750E+00   -3.776E+00   -3.801E+00   -3.826E+00   -3.851E+00   -3.875E+00
    -3.899E+00   -3.922E+00   -3.945E+00   -3.967E+00   -3.989E+00   -4.011E+00   -4.032E+00   -4.053E+00   -4.073E+00   -4.093E+00
    -4.113E+00   -4.132E+00   -4.150E+00   -4.168E+00   -4.186E+00   -4.203E+00   -4.220E+00   -4.237E+00   -4.253E+00   -4.268E+00
    -4.283E+00   -4.298E+00   -4.312E+00   -4.326E+00   -4.340E+00   -4.353E+00   -4.365E+00   -4.377E+00   -4.389E+00   -4.400E+00
    -4.411E+00   -4.422E+00   -4.432E+00   -4.441E+00   -4.451E+00   -4.459E+00   -4.468E+00   -4.476E+00   -4.483E+00   -4.490E+00
    -4.497E+00   -4.503E+00   -4.509E+00   -4.514E+00   -4.519E+00   -4.524E+00   -4.528E+00   -4.531E+00   -4.535E+00   -4.537E+00
    -4.540E+00   -4.542E+00   -4.544E+00   -4.545E+00   -4.545E+00   -4.546E+00   -4.546E+00   -4.545E+00   -4.544E+00   -4.543E+00
    -4.541E+00   -4.539E+00   -4.537E+00   -4.534E+00   -4.531E+00   -4.527E+00   -4.523E+00   -4.518E+00   -4.513E+00   -4.508E+00
    -4.502E+00   -4.496E+00   -4.489E+00   -4.483E+00   -4.475E+00   -4.467E+00   -4.459E+00   -4.451E+00   -4.442E+00   -4.433E+00
    -4.423E+00   -4.413E+00   -4.402E+00   -4.391E+00   -4.380E+00   -4.369E+00   -4.357E+00   -4.344E+00   -4.331E+00   -4.318E+00
    -4.305E+00   -4.291E+00   -4.277E+00   -4.262E+00   -4.247E+00   -4.232E+00   -4.216E+00   -4.200E+00   -4.183E+00   -4.166E+00
    -4.149E+00   -4.132E+00   -4.114E+00   -4.095E+00   -4.077E+00   -4.058E+00   -4.039E+00   -4.019E+00   -3.999E+00   -3.979E+00
    -3.958E+00   -3.937E+00   -3.915E+00   -3.894E+00   -3.872E+00   -3.849E+00   -3.826E+00   -3.803E+00   -3.780E+00   -3.756E+00
    -3.732E+00   -3.708E+00   -3.683E+00   -3.658E+00   -3.633E+00   -3.607E+00   -3.581E+00   -3.555E+00   -3.528E+00   -3.501E+00
    -3.474E+00   -3.447E+00   -3.419E+00   -3.391E+00   -3.362E+00   -3.334E+00   -3.305E+00   -3.275E+00   -3.246E+00   -3.216E+00
    -3.186E+00   -3.155E+00   -3.125E+00   -3.094E+00   -3.063E+00   -3.031E+00   -2.999E+00   -2.967E+00   -2.935E+00   -2.902E+00
    -2.869E+00   -2.836E+00   -2.803E+00   -2.769E+00   -2.735E+00   -2.701E+00   -2.667E+00   -2.632E+00   -2.598E+00   -2.562E+00
    -2.527E+00   -2.492E+00   -2.456E+00   -2.420E+00   -2.384E+00   -2.347E+00   -2.311E+00   -2.274E+00   -2.237E+00   -2.200E+00
    -2.162E+00   -2.125E+00   -2.087E+00   -2.049E+00   -2.011E+00   -1.972E+00   -1.934E+00   -1.895E+00   -1.857E+00   -1.818E+00
    -1.779E+00   -1.740E+00   -1.700E+00   -1.661E+00   -1.621E+00   -1.581E+00   -1.542E+00   -1.502E+00   -1.462E+00   -1.422E+00
    -1.381E+00   -1.341E+00   -1.301E+00   -1.260E+00   -1.220E+00   -1.179E+00   -1.138E+00   -1.098E+00   -1.057E+00   -1.016E+00
    -9.752E-01   -9.343E-01   -8.934E-01   -8.524E-01   -8.114E-01   -7.703E-01   -7.293E-01   -6.882E-01   -6.471E-01   -6.061E-01
    -5.650E-01   -5.240E-01   -4.829E-01   -4.419E-01   -4.009E-01   -3.600E-01   -3.191E-01   -2.782E-01   -2.374E-01   -1.966E-01
    -1.559E-01   -1.153E-01   -7.469E-02   -3.418E-02    6.236E-03    4.657E-02    8.682E-02    1.270E-01    1.670E-01    2.069E-01
     2.468E-01    2.865E-01    3.261E-01    3.655E-01    4.049E-01    4.440E-01    4.831E-01    5.220E-01    5.607E-01    5.993E-01
     6.377E-01    6.760E-01    7.140E-01    7.519E-01    7.896E-01    8.272E-01    8.645E-01    9.016E-01    9.385E-01    9.752E-01
     1.012E+00    1.048E+00    1.084E+00    1.120E+00    1.155E+00    1.191E+00    1.226E+00    1.261E+00    1.295E+00    1.330E+00
     1.364E+00    1.398E+00    1.431E+00    1.464E+00    1.497E+00    1.530E+00    1.563E+00    1.595E+00    1.627E+00    1.658E+00
     1.689E+00    1.720E+00    1.751E+00    1.781E+00    1.811E+00    1.841E+00    1.870E+00    1.899E+00    1.928E+00    1.956E+00
     1.984E+00    2.012E+00    2.039E+00    2.066E+00    2.093E+00    2.119E+00    2.145E+00    2.171E+00    2.196E+00    2.221E+00
     2.245E+00    2.270E+00    2.293E+00    2.317E+00    2.340E+00    2.362E+00    2.384E+00    2.406E+00    2.428E+00    2.449E+00
     2.469E+00    2.489E+00    2.509E+00    2.529E+00    2.548E+00    2.566E+00    2.584E+00    2.602E+00    2.619E+00    2.636E+00
     2.653E+00    2.669E+00    2.684E+00    2.699E+00    2.714E+00    2.728E+00    2.742E+00    2.756E+00    2.769E+00    2.781E+00
     2.793E+00    2.805E+00    2.816E+00    2.826E+00    2.837E+00    2.847E+00    2.856E+00    2.865E+00    2.873E+00    2.881E+00
     2.888E+00    2.895E+00    2.902E+00    2.908E+00    2.914E+00    2.919E+00    2.923E+00    2.928E+00    2.931E+00    2.934E+00
     2.937E+00    2.939E+00    2.941E+00    2.942E+00    2.943E+00    2.943E+00    2.943E+00    2.943E+00    2.941E+00    2.940E+00
     2.938E+00    2.935E+00    2.932E+00    2.928E+00    2.924E+00    2.919E+00    2.914E+00    2.908E+00    2.902E+00    2.896E+00
     2.889E+00    2.881E+00    2.873E+00    2.864E+00    2.855E+00    2.845E+00    2.835E+00    2.824E+00    2.813E+00    2.801E+00
     2.789E+00    2.776E+00    2.763E+00    2.749E+00    2.735E+00    2.720E+00    2.705E+00    2.689E+00    2.672E+00    2.655E+00
     2.638E+00    2.620E+00    2.602E+00    2.583E+00    2.563E+00    2.543E+00    2.523E+00    2.502E+00    2.480E+00    2.458E+00
     2.435E+00    2.412E+00    2.389E+00    2.364E+00    2.340E+00    2.315E+00    2.289E+00    2.263E+00    2.236E+00    2.208E+00
     2.181E+00    2.152E+00    2.124E+00    2.094E+00    2.064E+00    2.034E+00    2.003E+00    1.972E+00
 Ala      Conc. = 7.80E+02
