 LCModel (Version 6.3-1L) Copyright: S.W. Provencher.          Ref.: Magn. Reson. Med. 30:672-679 (1993).                
 Slice#2 Row#11 Col#14  PD_05_press_1_raw_act
 36 lines in following concentration table = NCONC+1
    Conc.  %SD /Cr+PCr  Metabolite                                         
   13.034 107%   0.730 Ala                                                 
    3.998  97%   0.224 Asp                                                 
   17.858  41%   1.000 Cr                                                  
    0.000 999%   0.000 PCr                                                 
    2.363  99%   0.132 GABA                                                
    2.156 109%   0.121 Glc                                                 
    0.000 999%   0.000 Gln                                                 
   40.245  73%   2.254 Glu                                                 
    6.783  43%   0.380 GPC                                                 
    0.000 999%   0.000 PCh                                                 
    0.000 999%   0.000 GSH                                                 
   51.200  62%   2.867 Ins                                                 
    0.000 999%   0.000 Lac                                                 
   44.045  22%   2.466 NAA                                                 
    0.000 999%   0.000 NAAG                                                
    0.820  94% 4.6E-02 Scyllo                                              
    4.168  93%   0.233 Tau                                                 
 2.77E-02 999% 1.5E-03 -CrCH2                                              
    6.783  43%   0.380 GPC+PCh                                             
   44.045  22%   2.466 NAA+NAAG                                            
   17.858  41%   1.000 Cr+PCr                                              
   40.245  73%   2.254 Glu+Gln                                             
 1.92E+03  18% 107.366 Lip13a                                              
   87.032 112%   4.873 Lip13b                                              
  736.285  14%  41.229 Lip09                                               
  531.630  18%  29.769 MM09                                                
  269.031  26%  15.065 Lip20                                               
    0.000 999%   0.000 MM20                                                
   28.628 478%   1.603 MM12                                                
  313.897  42%  17.577 MM14                                                
  357.495  25%  20.018 MM17                                                
 2.00E+03  16% 112.240 Lip13a+Lip13b                                       
 2.35E+03   9% 131.420 MM14+Lip13a+Lip13b+MM12                             
 1.27E+03   7%  70.998 MM09+Lip09                                          
  269.031  26%  15.065 MM20+Lip20                                          
   6 lines in following misc. output table
  FWHM = 0.038 ppm    S/N =   5                                            
  Data shift = 0.031 ppm                                                   
  Ph:  53 deg      10.9 deg/ppm                                            
  alphaB,S = 8.5E+01,   2.3E+01                                            
   14 spline knots.   Ns = 5(1)                                            
   2 inflections.     1 extrema                                            
  498 points on ppm-axis = NY
      4.000000     3.992357     3.984714     3.977070     3.969427     3.961784     3.954141     3.946497     3.938854     3.931211
      3.923568     3.915925     3.908281     3.900638     3.892995     3.885352     3.877708     3.870065     3.862422     3.854779
      3.847136     3.839492     3.831849     3.824206     3.816563     3.808919     3.801276     3.793633     3.785990     3.778347
      3.770703     3.763060     3.755417     3.747774     3.740130     3.732487     3.724844     3.717201     3.709558     3.701914
      3.694271     3.686628     3.678985     3.671341     3.663698     3.656055     3.648412     3.640769     3.633125     3.625482
      3.617839     3.610196     3.602552     3.594909     3.587266     3.579623     3.571980     3.564336     3.556693     3.549050
      3.541407     3.533763     3.526120     3.518477     3.510834     3.503191     3.495547     3.487904     3.480261     3.472618
      3.464974     3.457331     3.449688     3.442045     3.434402     3.426758     3.419115     3.411472     3.403829     3.396185
      3.388542     3.380899     3.373256     3.365613     3.357969     3.350326     3.342683     3.335040     3.327396     3.319753
      3.312110     3.304467     3.296824     3.289180     3.281537     3.273894     3.266251     3.258607     3.250964     3.243321
      3.235678     3.228034     3.220391     3.212748     3.205105     3.197462     3.189818     3.182175     3.174532     3.166889
      3.159245     3.151602     3.143959     3.136316     3.128673     3.121029     3.113386     3.105743     3.098100     3.090456
      3.082813     3.075170     3.067527     3.059884     3.052240     3.044597     3.036954     3.029311     3.021667     3.014024
      3.006381     2.998738     2.991095     2.983451     2.975808     2.968165     2.960522     2.952878     2.945235     2.937592
      2.929949     2.922306     2.914662     2.907019     2.899376     2.891733     2.884089     2.876446     2.868803     2.861160
      2.853517     2.845873     2.838230     2.830587     2.822944     2.815300     2.807657     2.800014     2.792371     2.784728
      2.777084     2.769441     2.761798     2.754155     2.746511     2.738868     2.731225     2.723582     2.715939     2.708295
      2.700652     2.693009     2.685366     2.677722     2.670079     2.662436     2.654793     2.647150     2.639506     2.631863
      2.624220     2.616577     2.608933     2.601290     2.593647     2.586004     2.578361     2.570717     2.563074     2.555431
      2.547788     2.540144     2.532501     2.524858     2.517215     2.509572     2.501928     2.494285     2.486642     2.478999
      2.471355     2.463712     2.456069     2.448426     2.440783     2.433139     2.425496     2.417853     2.410210     2.402566
      2.394923     2.387280     2.379637     2.371994     2.364350     2.356707     2.349064     2.341421     2.333777     2.326134
      2.318491     2.310848     2.303205     2.295561     2.287918     2.280275     2.272632     2.264988     2.257345     2.249702
      2.242059     2.234416     2.226772     2.219129     2.211486     2.203843     2.196199     2.188556     2.180913     2.173270
      2.165627     2.157983     2.150340     2.142697     2.135054     2.127410     2.119767     2.112124     2.104481     2.096838
      2.089194     2.081551     2.073908     2.066265     2.058621     2.050978     2.043335     2.035692     2.028049     2.020405
      2.012762     2.005119     1.997476     1.989833     1.982190     1.974546     1.966903     1.959260     1.951617     1.943974
      1.936331     1.928688     1.921045     1.913402     1.905759     1.898115     1.890472     1.882829     1.875186     1.867543
      1.859900     1.852257     1.844614     1.836971     1.829327     1.821684     1.814041     1.806398     1.798755     1.791112
      1.783469     1.775826     1.768183     1.760540     1.752896     1.745253     1.737610     1.729967     1.722324     1.714681
      1.707038     1.699395     1.691752     1.684108     1.676465     1.668822     1.661179     1.653536     1.645893     1.638250
      1.630607     1.622964     1.615321     1.607677     1.600034     1.592391     1.584748     1.577105     1.569462     1.561819
      1.554176     1.546533     1.538890     1.531246     1.523603     1.515960     1.508317     1.500674     1.493031     1.485388
      1.477745     1.470102     1.462458     1.454815     1.447172     1.439529     1.431886     1.424243     1.416600     1.408957
      1.401314     1.393671     1.386027     1.378384     1.370741     1.363098     1.355455     1.347812     1.340169     1.332526
      1.324883     1.317240     1.309596     1.301953     1.294310     1.286667     1.279024     1.271381     1.263738     1.256095
      1.248452     1.240808     1.233165     1.225522     1.217879     1.210236     1.202593     1.194950     1.187307     1.179664
      1.172021     1.164377     1.156734     1.149091     1.141448     1.133805     1.126162     1.118519     1.110876     1.103233
      1.095590     1.087946     1.080303     1.072660     1.065017     1.057374     1.049731     1.042088     1.034445     1.026802
      1.019158     1.011515     1.003872     0.996229     0.988586     0.980943     0.973300     0.965657     0.958014     0.950371
      0.942727     0.935084     0.927441     0.919798     0.912155     0.904512     0.896869     0.889226     0.881583     0.873940
      0.866296     0.858653     0.851010     0.843367     0.835724     0.828081     0.820438     0.812795     0.805152     0.797508
      0.789865     0.782222     0.774579     0.766936     0.759293     0.751650     0.744007     0.736364     0.728721     0.721077
      0.713434     0.705791     0.698148     0.690505     0.682862     0.675219     0.667576     0.659933     0.652290     0.644646
      0.637003     0.629360     0.621717     0.614074     0.606431     0.598788     0.591145     0.583502     0.575858     0.568215
      0.560572     0.552929     0.545286     0.537643     0.530000     0.522357     0.514714     0.507071     0.499427     0.491784
      0.484141     0.476498     0.468855     0.461212     0.453569     0.445925     0.438282     0.430639     0.422996     0.415353
      0.407710     0.400067     0.392424     0.384780     0.377137     0.369494     0.361851     0.354208     0.346565     0.338922
      0.331278     0.323635     0.315992     0.308349     0.300706     0.293063     0.285420     0.277777     0.270133     0.262490
      0.254847     0.247204     0.239561     0.231918     0.224275     0.216631     0.208988     0.201345
 NY phased data points follow
   9.48078E-01  7.41687E-01  1.49820E+00  1.61049E+00  1.60636E-01  5.00632E-01  1.16049E+00  5.40419E-01  1.22044E+00  1.93062E+00
   2.61148E+00  1.83847E+00  2.03487E+00  9.28185E-01  5.04271E-01  3.58597E-01  1.47698E+00  2.23475E+00  1.55168E+00  1.27130E+00
   1.12573E+00  2.62751E-02  5.68147E-01  1.03632E+00  1.50930E-01  8.44663E-01  3.84041E-01 -1.06982E-01  2.88245E-01  5.32512E-01
   1.15255E+00  6.84811E-01  2.84975E-01  1.09982E+00  1.32137E+00  1.56271E+00  6.84470E-01  1.64802E+00  9.90293E-01 -1.23715E-01
  -6.50229E-02  6.38250E-01  8.26340E-01  4.56259E-01  3.05070E-01  1.80035E+00  5.49687E-01  1.90241E+00  1.67505E+00 -6.47832E-02
   6.40079E-01  3.44012E-01  3.42048E-01  3.95993E-01  3.48490E-01  1.04572E-01  1.43444E+00  1.74024E+00  8.40332E-01  1.56494E+00
  -1.44791E-02  6.54259E-01  5.65664E-01 -4.28864E-01  1.61982E+00  9.31727E-01  6.84399E-01  1.00704E+00  1.52332E+00  6.82593E-01
   1.43450E+00  2.09593E+00  1.14833E+00  1.29269E+00  1.33382E-01  1.29800E+00 -6.92661E-02 -1.22802E-01  8.81179E-01  6.14204E-01
  -4.53906E-02  1.02180E+00  8.44236E-01  6.37438E-01  6.06353E-01  2.72043E-01  1.07554E+00  8.33656E-01  5.27395E-01  9.84204E-01
   4.49168E-01  2.68477E+00  5.25047E-01  6.69789E-01  6.21865E-01 -4.94674E-01  1.15760E+00  2.51508E-01  1.03227E+00  2.49186E+00
   1.87369E+00  2.61475E-01  1.31038E+00  1.98707E+00  7.80461E-01  5.21576E-01 -4.95137E-02  1.82113E-01  6.64609E-01 -7.82942E-02
   3.81708E-01  9.34140E-01  3.29413E-01  1.66308E-02  1.03811E+00 -6.47534E-01  3.88699E-01  6.26900E-01  5.81898E-01 -5.35299E-01
  -3.00189E-01  5.98786E-01  1.07202E+00  9.57439E-01  3.06149E-01  1.09982E+00  8.19467E-01  2.38712E+00  1.93499E+00 -4.37765E-01
   7.06305E-01  4.38761E-01  1.05450E+00  2.06241E+00  1.01230E+00  1.50182E-01  7.73459E-01  1.03851E+00  1.84076E+00  6.02222E-01
   2.70113E-01  1.19512E+00  4.47293E-01  1.10215E+00  1.07432E+00 -2.56133E-01  4.48181E-01  1.34237E+00  9.60541E-01  1.18704E+00
   5.20416E-01  1.33701E+00  1.20545E+00  4.30424E-01  6.15557E-01  5.42944E-01  5.24489E-01  1.17539E+00  1.99842E-01  1.32846E+00
   1.44593E+00  3.78501E-01  5.81613E-01  1.58329E+00  1.20068E+00  8.92120E-01  2.25381E+00  1.43020E+00  8.12792E-01  1.57310E+00
   8.58388E-01  6.30556E-01 -5.10329E-01  7.54076E-01  2.69252E-01  2.87530E-01  6.28563E-01  9.70610E-02  9.91708E-01  5.76023E-01
   5.46854E-01  1.39893E+00  9.01764E-01  8.36493E-01  2.16889E-01  2.09078E+00 -3.56517E-01  5.22697E-01  6.07666E-01  7.54894E-01
   1.40815E+00  1.60811E+00  1.34500E+00  3.93352E-01  5.39624E-01  1.39625E+00  9.93500E-01  1.62333E+00  7.52533E-01  8.82027E-01
   1.11049E-02  1.09166E+00  1.49894E+00  1.58743E+00  1.87265E+00  1.05016E+00  6.31359E-01  7.48149E-01  2.26886E-01  2.67514E+00
   1.86040E+00  1.38469E+00  4.75327E-01  1.14607E+00  7.87562E-01  2.83594E+00 -2.64143E-01  1.27794E+00  1.05547E+00  2.25326E+00
   5.32023E-01 -2.74838E-01  4.47057E-01  1.63225E+00  4.76306E-01  1.97875E+00  1.59952E+00  8.18527E-01  1.37812E+00  7.85950E-01
   1.16932E+00  9.86017E-01  4.27940E-01  7.03026E-01  1.34529E+00  1.75446E+00  7.21634E-01  9.46261E-01  2.66618E-01  1.13204E+00
   1.31597E+00  3.52365E-01 -5.58677E-02  1.47529E+00  1.06579E+00  1.93713E+00  2.15671E+00  5.81357E-02  1.23214E+00  1.31907E+00
   1.04384E+00  1.44034E+00  1.62724E+00  1.38738E+00  1.22859E+00  1.77320E+00  1.61721E+00  3.04371E+00  2.53762E+00  2.66553E+00
   3.30565E+00  3.81177E+00  3.49980E+00  2.17129E+00  8.11146E-01  5.58490E-01  1.18767E+00  1.71378E+00  9.47085E-03  1.66128E+00
   1.51588E+00  2.04388E+00  1.52461E+00  1.68012E+00  2.03477E+00  1.93994E+00  2.52642E+00  1.17112E+00  2.15630E+00  1.24048E+00
   1.87351E+00  1.90879E+00  1.68400E+00  2.16563E+00  1.54213E+00  9.36004E-01  1.23486E+00  2.06511E+00  2.03670E+00  9.62200E-01
   1.18414E+00  1.89617E+00  1.84087E+00  2.80361E+00  3.29178E+00  2.34992E+00  1.85891E+00  2.30238E+00  3.66898E+00  1.71944E+00
   2.10381E+00  2.92711E+00  3.09539E+00  2.13834E+00  3.09258E+00  2.56821E+00  1.77994E+00  3.31437E+00  3.50475E+00  4.04649E+00
   2.53989E+00  3.27009E+00  3.99562E+00  2.85957E+00  1.82888E+00  2.93928E+00  4.01194E+00  4.05588E+00  3.59587E+00  4.26194E+00
   3.88375E+00  3.89492E+00  4.96914E+00  3.68260E+00  4.34748E+00  3.69351E+00  3.69795E+00  3.57976E+00  3.93690E+00  3.32098E+00
   4.64036E+00  4.75809E+00  4.69950E+00  4.13022E+00  5.18566E+00  5.73860E+00  4.13925E+00  5.66911E+00  4.20514E+00  5.72649E+00
   6.82006E+00  4.45600E+00  5.27341E+00  4.77533E+00  5.46098E+00  7.65085E+00  5.87500E+00  6.90470E+00  6.42976E+00  7.29718E+00
   7.11958E+00  6.92908E+00  6.35357E+00  7.61716E+00  7.08005E+00  7.57504E+00  7.05249E+00  7.03638E+00  7.56350E+00  7.16857E+00
   5.77847E+00  7.35479E+00  5.94253E+00  6.58494E+00  5.95475E+00  6.19622E+00  5.07650E+00  4.45824E+00  4.61871E+00  4.46797E+00
   4.70800E+00  3.30335E+00  3.34703E+00  4.99796E+00  4.51828E+00  4.49832E+00  4.47677E+00  4.74421E+00  5.50317E+00  4.77568E+00
   5.42108E+00  5.30668E+00  5.70647E+00  4.61334E+00  5.61797E+00  4.64519E+00  5.75591E+00  5.52101E+00  4.82558E+00  5.40632E+00
   5.98329E+00  6.04340E+00  5.70429E+00  6.08549E+00  5.56991E+00  6.40426E+00  5.46494E+00  7.29564E+00  6.79110E+00  6.32713E+00
   6.45856E+00  5.60136E+00  4.84443E+00  3.91184E+00  5.35104E+00  5.32848E+00  4.54547E+00  4.28852E+00  4.73677E+00  3.41691E+00
   3.48804E+00  5.11493E+00  4.03800E+00  4.38913E+00  3.56906E+00  3.34250E+00  3.60345E+00  4.13003E+00  3.16148E+00  3.66041E+00
   3.92097E+00  2.02791E+00  3.45940E+00  2.70622E+00  2.05301E+00  1.67251E+00  1.82847E+00  2.41718E+00  2.16617E+00  2.04553E+00
   9.84404E-01  1.34149E+00  1.52010E+00  1.66457E+00  2.47595E+00  1.62511E+00  1.53211E+00  1.34712E+00  2.57865E+00  1.31255E+00
   1.01808E+00  8.40371E-01  1.03850E+00  1.07769E+00  7.44897E-01  2.83485E-01 -8.36257E-01 -9.23705E-01 -3.82555E-01  4.19551E-01
   6.66113E-01 -1.62854E-02  6.38533E-01 -4.92219E-01 -5.01123E-02  5.21343E-01 -2.76034E-01  1.78352E-01 -4.45774E-02 -6.66026E-01
  -1.27859E+00 -7.26478E-01  1.76349E-01 -5.01406E-01  1.90636E-01 -1.57722E+00 -1.72071E+00 -1.51312E-01 -2.60750E-01 -2.69683E-01
  -1.31777E+00 -7.96520E-01 -1.28186E+00 -3.45720E-01 -6.60621E-01 -7.20236E-01 -1.49157E-01 -1.18932E+00 -1.73379E+00 -1.27464E+00
  -7.42091E-01 -1.35217E+00 -8.33238E-01 -1.24907E+00 -5.58831E-01 -1.36101E+00 -7.62443E-01 -2.42281E+00 -1.07942E+00 -2.34535E+00
  -1.59630E+00 -1.21903E+00 -1.32518E+00 -4.39849E-01 -4.47581E-01 -5.97586E-01  3.67443E-01 -2.72566E+00
 NY points of the fit to the data follow
   8.99584E-01  8.99202E-01  9.10686E-01  9.24557E-01  9.40536E-01  9.65440E-01  1.02480E+00  1.12325E+00  1.23380E+00  1.33367E+00
   1.40329E+00  1.40997E+00  1.32191E+00  1.15231E+00  9.70664E-01  8.49936E-01  8.12671E-01  8.25283E-01  8.41005E-01  8.53650E-01
   8.75666E-01  9.02709E-01  9.22187E-01  9.19384E-01  8.91219E-01  8.42476E-01  7.81668E-01  7.28037E-01  7.11239E-01  7.51630E-01
   8.40752E-01  9.46812E-01  1.03573E+00  1.08044E+00  1.06335E+00  9.92785E-01  8.97757E-01  8.15790E-01  7.69922E-01  7.59019E-01
   7.73593E-01  8.14340E-01  8.92240E-01  1.00490E+00  1.12657E+00  1.23066E+00  1.29698E+00  1.29635E+00  1.20161E+00  1.02199E+00
   8.20721E-01  6.79317E-01  6.36119E-01  6.67825E-01  7.28446E-01  7.90166E-01  8.47938E-01  9.01158E-01  9.42831E-01  9.63330E-01
   9.52048E-01  9.04595E-01  8.33360E-01  7.64018E-01  7.24759E-01  7.25499E-01  7.56060E-01  8.01566E-01  8.44251E-01  8.71884E-01
   8.84969E-01  8.88666E-01  8.84022E-01  8.68744E-01  8.44339E-01  8.17525E-01  7.93647E-01  7.75592E-01  7.61960E-01  7.52107E-01
   7.49716E-01  7.54776E-01  7.56663E-01  7.44117E-01  7.14958E-01  6.74378E-01  6.30085E-01  5.93283E-01  5.78614E-01  5.97127E-01
   6.44891E-01  7.04219E-01  7.51631E-01  7.73866E-01  7.76286E-01  7.69854E-01  7.67384E-01  8.03589E-01  9.20372E-01  1.09128E+00
   1.27343E+00  1.42996E+00  1.50780E+00  1.44160E+00  1.21957E+00  9.26900E-01  6.92128E-01  5.90003E-01  5.97438E-01  6.32615E-01
   6.45919E-01  6.51521E-01  6.56354E-01  6.60420E-01  6.63605E-01  6.65692E-01  6.67997E-01  6.71956E-01  6.78454E-01  6.89022E-01
   7.07684E-01  7.49608E-01  8.55343E-01  1.02238E+00  1.20723E+00  1.37358E+00  1.48508E+00  1.48724E+00  1.34123E+00  1.08577E+00
   8.31898E-01  6.79799E-01  6.49103E-01  6.81653E-01  7.09335E-01  7.24787E-01  7.40336E-01  7.55910E-01  7.70429E-01  7.84122E-01
   7.97391E-01  8.10774E-01  8.24557E-01  8.38919E-01  8.54010E-01  8.68450E-01  8.80011E-01  8.87905E-01  8.93601E-01  8.99570E-01
   9.06862E-01  9.14729E-01  9.21716E-01  9.26734E-01  9.29576E-01  9.29403E-01  9.23007E-01  9.09552E-01  8.92076E-01  8.74510E-01
   8.62370E-01  8.59032E-01  8.64902E-01  8.76354E-01  8.83728E-01  8.75996E-01  8.49562E-01  8.12795E-01  7.79432E-01  7.56038E-01
   7.39861E-01  7.22992E-01  7.00423E-01  6.78321E-01  6.61953E-01  6.52034E-01  6.47373E-01  6.47924E-01  6.52059E-01  6.52520E-01
   6.43778E-01  6.29095E-01  6.17194E-01  6.15739E-01  6.23421E-01  6.30823E-01  6.35980E-01  6.45405E-01  6.64881E-01  6.89290E-01
   7.06581E-01  7.11315E-01  7.09661E-01  7.10308E-01  7.16622E-01  7.24120E-01  7.25943E-01  7.18869E-01  7.05650E-01  6.97626E-01
   7.04267E-01  7.27350E-01  7.58918E-01  7.86844E-01  7.99471E-01  7.88126E-01  7.55378E-01  7.14246E-01  6.80057E-01  6.67988E-01
   6.89745E-01  7.55894E-01  8.55428E-01  9.63168E-01  1.05459E+00  1.10109E+00  1.07315E+00  9.59629E-01  7.93382E-01  6.46684E-01
   5.77525E-01  5.95364E-01  6.84931E-01  8.26440E-01  9.95967E-01  1.14657E+00  1.23245E+00  1.24592E+00  1.21752E+00  1.18519E+00
   1.16634E+00  1.16102E+00  1.16902E+00  1.18905E+00  1.21275E+00  1.23010E+00  1.23561E+00  1.23112E+00  1.22009E+00  1.20989E+00
   1.20960E+00  1.22572E+00  1.25890E+00  1.30670E+00  1.36040E+00  1.40426E+00  1.42552E+00  1.42583E+00  1.41763E+00  1.41395E+00
   1.42490E+00  1.45463E+00  1.50442E+00  1.56866E+00  1.65091E+00  1.81898E+00  2.14541E+00  2.56038E+00  2.97283E+00  3.30634E+00
   3.44228E+00  3.23823E+00  2.68309E+00  1.98511E+00  1.43531E+00  1.18844E+00  1.17879E+00  1.22212E+00  1.22246E+00  1.21368E+00
   1.20936E+00  1.21110E+00  1.22078E+00  1.23659E+00  1.25285E+00  1.26527E+00  1.27269E+00  1.27792E+00  1.28543E+00  1.29880E+00
   1.31934E+00  1.34754E+00  1.38361E+00  1.42669E+00  1.47545E+00  1.52903E+00  1.58696E+00  1.64922E+00  1.71602E+00  1.78742E+00
   1.86350E+00  1.94404E+00  2.02843E+00  2.11594E+00  2.20584E+00  2.29730E+00  2.38921E+00  2.48033E+00  2.56950E+00  2.65553E+00
   2.73727E+00  2.81374E+00  2.88411E+00  2.94770E+00  3.00404E+00  3.05297E+00  3.09465E+00  3.12957E+00  3.15853E+00  3.18253E+00
   3.20276E+00  3.22061E+00  3.23761E+00  3.25538E+00  3.27556E+00  3.29973E+00  3.32943E+00  3.36609E+00  3.41114E+00  3.46615E+00
   3.53333E+00  3.61721E+00  3.72146E+00  3.82909E+00  3.92128E+00  3.99019E+00  4.03059E+00  4.03887E+00  4.02702E+00  4.03053E+00
   4.09945E+00  4.25204E+00  4.46011E+00  4.68467E+00  4.90482E+00  5.11104E+00  5.27699E+00  5.38184E+00  5.43865E+00  5.48490E+00
   5.55330E+00  5.65001E+00  5.75870E+00  5.87103E+00  5.98948E+00  6.11623E+00  6.25289E+00  6.40025E+00  6.55765E+00  6.72224E+00
   6.88849E+00  7.04807E+00  7.19025E+00  7.30304E+00  7.37473E+00  7.39579E+00  7.36049E+00  7.26809E+00  7.12303E+00  6.93425E+00
   6.71377E+00  6.47477E+00  6.22977E+00  5.98927E+00  5.76087E+00  5.54923E+00  5.35644E+00  5.18278E+00  5.02753E+00  4.88968E+00
   4.76843E+00  4.66341E+00  4.57481E+00  4.50329E+00  4.44978E+00  4.41540E+00  4.40121E+00  4.40807E+00  4.43651E+00  4.48663E+00
   4.55797E+00  4.64950E+00  4.75949E+00  4.88554E+00  5.02457E+00  5.17287E+00  5.32619E+00  5.47986E+00  5.62897E+00  5.76853E+00
   5.89374E+00  6.00017E+00  6.08401E+00  6.14225E+00  6.17283E+00  6.17473E+00  6.14806E+00  6.09394E+00  6.01451E+00  5.91269E+00
   5.79203E+00  5.65646E+00  5.51008E+00  5.35688E+00  5.20058E+00  5.04439E+00  4.89095E+00  4.74218E+00  4.59930E+00  4.46285E+00
   4.33274E+00  4.20832E+00  4.08857E+00  3.97216E+00  3.85762E+00  3.74345E+00  3.62825E+00  3.51076E+00  3.38999E+00  3.26522E+00
   3.13604E+00  3.00234E+00  2.86432E+00  2.72239E+00  2.57723E+00  2.42965E+00  2.28059E+00  2.13105E+00  1.98205E+00  1.83460E+00
   1.68965E+00  1.54806E+00  1.41059E+00  1.27787E+00  1.15042E+00  1.02863E+00  9.12775E-01  8.03014E-01  6.99408E-01  6.01925E-01
   5.10459E-01  4.24846E-01  3.44873E-01  2.70292E-01  2.00829E-01  1.36191E-01  7.60816E-02  2.02036E-02 -3.17347E-02 -8.00172E-02
  -1.24918E-01 -1.66696E-01 -2.05596E-01 -2.41844E-01 -2.75652E-01 -3.07216E-01 -3.36717E-01 -3.64325E-01 -3.90191E-01 -4.14455E-01
  -4.37243E-01 -4.58673E-01 -4.78853E-01 -4.97880E-01 -5.15844E-01 -5.32824E-01 -5.48895E-01 -5.64124E-01 -5.78575E-01 -5.92305E-01
  -6.05365E-01 -6.17800E-01 -6.29654E-01 -6.40970E-01 -6.51784E-01 -6.62130E-01 -6.72038E-01 -6.81535E-01 -6.90650E-01 -6.99407E-01
  -7.07830E-01 -7.15937E-01 -7.23748E-01 -7.31281E-01 -7.38552E-01 -7.45579E-01 -7.52374E-01 -7.58951E-01 -7.65321E-01 -7.71495E-01
  -7.77485E-01 -7.83302E-01 -7.88955E-01 -7.94449E-01 -7.99793E-01 -8.04996E-01 -8.10064E-01 -8.15004E-01
 NY background values follow
     5.893E-01    5.865E-01    5.838E-01    5.810E-01    5.783E-01    5.755E-01    5.728E-01    5.700E-01    5.673E-01    5.645E-01
     5.617E-01    5.590E-01    5.562E-01    5.535E-01    5.507E-01    5.480E-01    5.452E-01    5.425E-01    5.397E-01    5.370E-01
     5.342E-01    5.315E-01    5.287E-01    5.260E-01    5.232E-01    5.205E-01    5.177E-01    5.150E-01    5.122E-01    5.095E-01
     5.067E-01    5.040E-01    5.012E-01    4.984E-01    4.957E-01    4.929E-01    4.902E-01    4.874E-01    4.847E-01    4.819E-01
     4.792E-01    4.764E-01    4.737E-01    4.709E-01    4.682E-01    4.654E-01    4.627E-01    4.599E-01    4.572E-01    4.544E-01
     4.516E-01    4.489E-01    4.461E-01    4.434E-01    4.406E-01    4.379E-01    4.351E-01    4.324E-01    4.296E-01    4.269E-01
     4.241E-01    4.214E-01    4.186E-01    4.159E-01    4.131E-01    4.103E-01    4.076E-01    4.048E-01    4.021E-01    3.993E-01
     3.966E-01    3.938E-01    3.911E-01    3.883E-01    3.856E-01    3.828E-01    3.801E-01    3.773E-01    3.745E-01    3.718E-01
     3.690E-01    3.663E-01    3.635E-01    3.608E-01    3.580E-01    3.553E-01    3.525E-01    3.498E-01    3.470E-01    3.442E-01
     3.415E-01    3.387E-01    3.360E-01    3.332E-01    3.305E-01    3.277E-01    3.250E-01    3.222E-01    3.195E-01    3.167E-01
     3.139E-01    3.112E-01    3.084E-01    3.057E-01    3.029E-01    3.002E-01    2.974E-01    2.947E-01    2.919E-01    2.891E-01
     2.864E-01    2.836E-01    2.809E-01    2.781E-01    2.754E-01    2.726E-01    2.699E-01    2.671E-01    2.644E-01    2.616E-01
     2.588E-01    2.561E-01    2.533E-01    2.506E-01    2.478E-01    2.451E-01    2.423E-01    2.396E-01    2.368E-01    2.340E-01
     2.313E-01    2.285E-01    2.258E-01    2.230E-01    2.203E-01    2.175E-01    2.147E-01    2.120E-01    2.092E-01    2.065E-01
     2.037E-01    2.010E-01    1.982E-01    1.955E-01    1.927E-01    1.899E-01    1.872E-01    1.844E-01    1.817E-01    1.789E-01
     1.762E-01    1.734E-01    1.706E-01    1.679E-01    1.651E-01    1.624E-01    1.596E-01    1.569E-01    1.541E-01    1.514E-01
     1.486E-01    1.458E-01    1.431E-01    1.403E-01    1.376E-01    1.348E-01    1.321E-01    1.293E-01    1.265E-01    1.238E-01
     1.210E-01    1.183E-01    1.155E-01    1.128E-01    1.100E-01    1.072E-01    1.045E-01    1.017E-01    9.896E-02    9.621E-02
     9.345E-02    9.069E-02    8.793E-02    8.518E-02    8.242E-02    7.966E-02    7.690E-02    7.414E-02    7.139E-02    6.863E-02
     6.587E-02    6.311E-02    6.035E-02    5.760E-02    5.484E-02    5.208E-02    4.932E-02    4.656E-02    4.380E-02    4.105E-02
     3.829E-02    3.553E-02    3.277E-02    3.001E-02    2.725E-02    2.449E-02    2.174E-02    1.898E-02    1.622E-02    1.346E-02
     1.070E-02    7.942E-03    5.183E-03    2.424E-03   -3.346E-04   -3.094E-03   -5.853E-03   -8.612E-03   -1.137E-02   -1.413E-02
    -1.689E-02   -1.965E-02   -2.241E-02   -2.517E-02   -2.793E-02   -3.069E-02   -3.345E-02   -3.621E-02   -3.896E-02   -4.172E-02
    -4.448E-02   -4.724E-02   -5.000E-02   -5.276E-02   -5.552E-02   -5.828E-02   -6.104E-02   -6.380E-02   -6.656E-02   -6.932E-02
    -7.208E-02   -7.484E-02   -7.760E-02   -8.036E-02   -8.312E-02   -8.588E-02   -8.864E-02   -9.140E-02   -9.416E-02   -9.692E-02
    -9.968E-02   -1.024E-01   -1.052E-01   -1.080E-01   -1.107E-01   -1.135E-01   -1.162E-01   -1.190E-01   -1.218E-01   -1.245E-01
    -1.273E-01   -1.301E-01   -1.328E-01   -1.356E-01   -1.383E-01   -1.411E-01   -1.439E-01   -1.466E-01   -1.494E-01   -1.521E-01
    -1.549E-01   -1.577E-01   -1.604E-01   -1.632E-01   -1.659E-01   -1.687E-01   -1.715E-01   -1.742E-01   -1.770E-01   -1.798E-01
    -1.825E-01   -1.853E-01   -1.880E-01   -1.908E-01   -1.936E-01   -1.963E-01   -1.991E-01   -2.018E-01   -2.046E-01   -2.074E-01
    -2.101E-01   -2.129E-01   -2.157E-01   -2.184E-01   -2.212E-01   -2.239E-01   -2.267E-01   -2.295E-01   -2.322E-01   -2.350E-01
    -2.378E-01   -2.405E-01   -2.433E-01   -2.460E-01   -2.488E-01   -2.516E-01   -2.543E-01   -2.571E-01   -2.599E-01   -2.626E-01
    -2.654E-01   -2.681E-01   -2.709E-01   -2.737E-01   -2.764E-01   -2.792E-01   -2.820E-01   -2.847E-01   -2.875E-01   -2.902E-01
    -2.930E-01   -2.958E-01   -2.985E-01   -3.013E-01   -3.041E-01   -3.068E-01   -3.096E-01   -3.124E-01   -3.151E-01   -3.179E-01
    -3.206E-01   -3.234E-01   -3.262E-01   -3.289E-01   -3.317E-01   -3.345E-01   -3.372E-01   -3.400E-01   -3.428E-01   -3.455E-01
    -3.483E-01   -3.510E-01   -3.538E-01   -3.566E-01   -3.593E-01   -3.621E-01   -3.649E-01   -3.676E-01   -3.704E-01   -3.732E-01
    -3.759E-01   -3.787E-01   -3.814E-01   -3.842E-01   -3.870E-01   -3.897E-01   -3.925E-01   -3.953E-01   -3.980E-01   -4.008E-01
    -4.036E-01   -4.063E-01   -4.091E-01   -4.119E-01   -4.146E-01   -4.174E-01   -4.202E-01   -4.229E-01   -4.257E-01   -4.284E-01
    -4.312E-01   -4.340E-01   -4.367E-01   -4.395E-01   -4.423E-01   -4.450E-01   -4.478E-01   -4.506E-01   -4.533E-01   -4.561E-01
    -4.589E-01   -4.616E-01   -4.644E-01   -4.672E-01   -4.699E-01   -4.727E-01   -4.755E-01   -4.782E-01   -4.810E-01   -4.838E-01
    -4.865E-01   -4.893E-01   -4.920E-01   -4.948E-01   -4.976E-01   -5.003E-01   -5.031E-01   -5.059E-01   -5.086E-01   -5.114E-01
    -5.142E-01   -5.169E-01   -5.197E-01   -5.225E-01   -5.252E-01   -5.280E-01   -5.308E-01   -5.335E-01   -5.363E-01   -5.391E-01
    -5.418E-01   -5.446E-01   -5.474E-01   -5.501E-01   -5.529E-01   -5.557E-01   -5.584E-01   -5.612E-01   -5.640E-01   -5.667E-01
    -5.695E-01   -5.723E-01   -5.750E-01   -5.778E-01   -5.806E-01   -5.833E-01   -5.861E-01   -5.889E-01   -5.916E-01   -5.944E-01
    -5.972E-01   -5.999E-01   -6.027E-01   -6.055E-01   -6.082E-01   -6.110E-01   -6.138E-01   -6.165E-01   -6.193E-01   -6.221E-01
    -6.248E-01   -6.276E-01   -6.304E-01   -6.331E-01   -6.359E-01   -6.387E-01   -6.414E-01   -6.442E-01   -6.470E-01   -6.497E-01
    -6.525E-01   -6.553E-01   -6.581E-01   -6.608E-01   -6.636E-01   -6.664E-01   -6.691E-01   -6.719E-01   -6.747E-01   -6.774E-01
    -6.802E-01   -6.830E-01   -6.857E-01   -6.885E-01   -6.913E-01   -6.940E-01   -6.968E-01   -6.996E-01   -7.023E-01   -7.051E-01
    -7.079E-01   -7.106E-01   -7.134E-01   -7.162E-01   -7.190E-01   -7.217E-01   -7.245E-01   -7.273E-01   -7.300E-01   -7.328E-01
    -7.356E-01   -7.383E-01   -7.411E-01   -7.439E-01   -7.466E-01   -7.494E-01   -7.522E-01   -7.549E-01   -7.577E-01   -7.605E-01
    -7.632E-01   -7.660E-01   -7.688E-01   -7.716E-01   -7.743E-01   -7.771E-01   -7.799E-01   -7.826E-01
 Ala      Conc. = 1.30E+01
