 LCModel (Version 6.3-1L) Copyright: S.W. Provencher.          Ref.: Magn. Reson. Med. 30:672-679 (1993).                
 Slice#1 Row#10 Col#11  PD_05_press_1_raw_act
 36 lines in following concentration table = NCONC+1
    Conc.  %SD /Cr+PCr  Metabolite                                         
   92.047  84%   0.167 Ala                                                 
    0.000 999%   0.000 Asp                                                 
   90.875 173%   0.165 Cr                                                  
  460.173  35%   0.835 PCr                                                 
   24.749 358% 4.5E-02 GABA                                                
   44.527 195% 8.1E-02 Glc                                                 
  458.532  36%   0.832 Gln                                                 
  985.025  20%   1.788 Glu                                                 
  182.475   8%   0.331 GPC                                                 
    0.000 999%   0.000 PCh                                                 
  142.555  34%   0.259 GSH                                                 
  711.451  22%   1.291 Ins                                                 
   11.837 791% 2.1E-02 Lac                                                 
 1.42E+03   9%   2.582 NAA                                                 
  406.483  31%   0.738 NAAG                                                
   80.993  21%   0.147 Scyllo                                              
  210.323  55%   0.382 Tau                                                 
  312.536  21%   0.567 -CrCH2                                              
  182.475   8%   0.331 GPC+PCh                                             
 1.83E+03   3%   3.320 NAA+NAAG                                            
  551.049   7%   1.000 Cr+PCr                                              
 1.44E+03  20%   2.620 Glu+Gln                                             
  536.142  86%   0.973 Lip13a                                              
   96.265 200%   0.175 Lip13b                                              
  137.999 111%   0.250 Lip09                                               
  865.474  20%   1.571 MM09                                                
  106.852  95%   0.194 Lip20                                               
 1.49E+03  16%   2.701 MM20                                                
  248.477  51%   0.451 MM12                                                
  756.187  30%   1.372 MM14                                                
  452.906  26%   0.822 MM17                                                
  632.407  54%   1.148 Lip13a+Lip13b                                       
 1.64E+03  12%   2.971 MM14+Lip13a+Lip13b+MM12                             
 1.00E+03  10%   1.821 MM09+Lip09                                          
 1.60E+03  14%   2.895 MM20+Lip20                                          
   6 lines in following misc. output table
  FWHM = 0.061 ppm    S/N =  12                                            
  Data shift = 0.000 ppm                                                   
  Ph: -23 deg      -8.7 deg/ppm                                            
  alphaB,S = 8.5E+01,   1.4E+02                                            
   14 spline knots.   Ns = 8(1)                                            
   2 inflections.     1 extrema                                            
  498 points on ppm-axis = NY
      4.000000     3.992357     3.984714     3.977070     3.969427     3.961784     3.954141     3.946497     3.938854     3.931211
      3.923568     3.915925     3.908281     3.900638     3.892995     3.885352     3.877708     3.870065     3.862422     3.854779
      3.847136     3.839492     3.831849     3.824206     3.816563     3.808919     3.801276     3.793633     3.785990     3.778347
      3.770703     3.763060     3.755417     3.747774     3.740130     3.732487     3.724844     3.717201     3.709558     3.701914
      3.694271     3.686628     3.678985     3.671341     3.663698     3.656055     3.648412     3.640769     3.633125     3.625482
      3.617839     3.610196     3.602552     3.594909     3.587266     3.579623     3.571980     3.564336     3.556693     3.549050
      3.541407     3.533763     3.526120     3.518477     3.510834     3.503191     3.495547     3.487904     3.480261     3.472618
      3.464974     3.457331     3.449688     3.442045     3.434402     3.426758     3.419115     3.411472     3.403829     3.396185
      3.388542     3.380899     3.373256     3.365613     3.357969     3.350326     3.342683     3.335040     3.327396     3.319753
      3.312110     3.304467     3.296824     3.289180     3.281537     3.273894     3.266251     3.258607     3.250964     3.243321
      3.235678     3.228034     3.220391     3.212748     3.205105     3.197462     3.189818     3.182175     3.174532     3.166889
      3.159245     3.151602     3.143959     3.136316     3.128673     3.121029     3.113386     3.105743     3.098100     3.090456
      3.082813     3.075170     3.067527     3.059884     3.052240     3.044597     3.036954     3.029311     3.021667     3.014024
      3.006381     2.998738     2.991095     2.983451     2.975808     2.968165     2.960522     2.952878     2.945235     2.937592
      2.929949     2.922306     2.914662     2.907019     2.899376     2.891733     2.884089     2.876446     2.868803     2.861160
      2.853517     2.845873     2.838230     2.830587     2.822944     2.815300     2.807657     2.800014     2.792371     2.784728
      2.777084     2.769441     2.761798     2.754155     2.746511     2.738868     2.731225     2.723582     2.715939     2.708295
      2.700652     2.693009     2.685366     2.677722     2.670079     2.662436     2.654793     2.647150     2.639506     2.631863
      2.624220     2.616577     2.608933     2.601290     2.593647     2.586004     2.578361     2.570717     2.563074     2.555431
      2.547788     2.540144     2.532501     2.524858     2.517215     2.509572     2.501928     2.494285     2.486642     2.478999
      2.471355     2.463712     2.456069     2.448426     2.440783     2.433139     2.425496     2.417853     2.410210     2.402566
      2.394923     2.387280     2.379637     2.371994     2.364350     2.356707     2.349064     2.341421     2.333777     2.326134
      2.318491     2.310848     2.303205     2.295561     2.287918     2.280275     2.272632     2.264988     2.257345     2.249702
      2.242059     2.234416     2.226772     2.219129     2.211486     2.203843     2.196199     2.188556     2.180913     2.173270
      2.165627     2.157983     2.150340     2.142697     2.135054     2.127410     2.119767     2.112124     2.104481     2.096838
      2.089194     2.081551     2.073908     2.066265     2.058621     2.050978     2.043335     2.035692     2.028049     2.020405
      2.012762     2.005119     1.997476     1.989833     1.982190     1.974546     1.966903     1.959260     1.951617     1.943974
      1.936331     1.928688     1.921045     1.913402     1.905759     1.898115     1.890472     1.882829     1.875186     1.867543
      1.859900     1.852257     1.844614     1.836971     1.829327     1.821684     1.814041     1.806398     1.798755     1.791112
      1.783469     1.775826     1.768183     1.760540     1.752896     1.745253     1.737610     1.729967     1.722324     1.714681
      1.707038     1.699395     1.691752     1.684108     1.676465     1.668822     1.661179     1.653536     1.645893     1.638250
      1.630607     1.622964     1.615321     1.607677     1.600034     1.592391     1.584748     1.577105     1.569462     1.561819
      1.554176     1.546533     1.538890     1.531246     1.523603     1.515960     1.508317     1.500674     1.493031     1.485388
      1.477745     1.470102     1.462458     1.454815     1.447172     1.439529     1.431886     1.424243     1.416600     1.408957
      1.401314     1.393671     1.386027     1.378384     1.370741     1.363098     1.355455     1.347812     1.340169     1.332526
      1.324883     1.317240     1.309596     1.301953     1.294310     1.286667     1.279024     1.271381     1.263738     1.256095
      1.248452     1.240808     1.233165     1.225522     1.217879     1.210236     1.202593     1.194950     1.187307     1.179664
      1.172021     1.164377     1.156734     1.149091     1.141448     1.133805     1.126162     1.118519     1.110876     1.103233
      1.095590     1.087946     1.080303     1.072660     1.065017     1.057374     1.049731     1.042088     1.034445     1.026802
      1.019158     1.011515     1.003872     0.996229     0.988586     0.980943     0.973300     0.965657     0.958014     0.950371
      0.942727     0.935084     0.927441     0.919798     0.912155     0.904512     0.896869     0.889226     0.881583     0.873940
      0.866296     0.858653     0.851010     0.843367     0.835724     0.828081     0.820438     0.812795     0.805152     0.797508
      0.789865     0.782222     0.774579     0.766936     0.759293     0.751650     0.744007     0.736364     0.728721     0.721077
      0.713434     0.705791     0.698148     0.690505     0.682862     0.675219     0.667576     0.659933     0.652290     0.644646
      0.637003     0.629360     0.621717     0.614074     0.606431     0.598788     0.591145     0.583502     0.575858     0.568215
      0.560572     0.552929     0.545286     0.537643     0.530000     0.522357     0.514714     0.507071     0.499427     0.491784
      0.484141     0.476498     0.468855     0.461212     0.453569     0.445925     0.438282     0.430639     0.422996     0.415353
      0.407710     0.400067     0.392424     0.384780     0.377137     0.369494     0.361851     0.354208     0.346565     0.338922
      0.331278     0.323635     0.315992     0.308349     0.300706     0.293063     0.285420     0.277777     0.270133     0.262490
      0.254847     0.247204     0.239561     0.231918     0.224275     0.216631     0.208988     0.201345
 NY phased data points follow
   1.00404E+00  9.19585E-01  2.68015E-01  6.45794E-01  3.35084E+00  2.59680E+00  1.33164E+00 -7.22244E-02  3.20107E+00  2.43192E+00
   2.64167E+00  5.42695E+00  4.56701E+00  8.98869E-01  4.85834E+00  4.30073E+00  1.95919E+00 -8.74510E-01  2.09077E+00  4.95991E-01
   1.62871E-01 -9.42839E-02  1.92629E+00 -4.11783E-01  1.76715E+00  2.12329E+00  1.09568E+00  1.60954E+00  4.99090E-01  4.00875E-01
   2.76092E+00  1.70169E+00 -1.38837E-01 -6.21549E-01  4.79645E+00  2.53402E+00  1.53254E+00  1.49130E+00  2.67305E+00  1.68682E+00
   1.64935E+00  1.49993E+00 -7.11270E-01  6.30724E+00  3.85025E+00  4.17622E+00  4.41930E+00  3.98960E+00  1.95706E+00  3.30539E+00
   3.74048E+00  5.40504E+00  4.03548E+00  1.92382E+00  2.56439E+00  7.19359E-01  2.46250E+00  2.55644E-01  1.46324E+00  7.23909E-01
   1.63801E+00  2.43693E+00  1.86394E+00  1.37135E+00  2.11330E-01 -4.28259E-01 -6.74954E-01 -5.84861E-01  1.77292E+00 -2.08147E-01
   1.90503E+00 -5.03127E-01  2.70120E+00  3.49400E-01 -1.26639E+00  3.49268E+00 -7.32814E-01  3.57394E+00 -3.34018E-01  5.93458E-01
  -4.41990E-01  9.87541E-01  4.09429E+00  4.02182E+00  2.55718E+00  1.37206E+00  3.21630E+00  1.20740E+00  2.21148E+00  3.50318E+00
   3.12460E+00  4.16190E+00  1.96365E+00  2.09833E+00  9.89036E-01  4.36622E+00  4.15140E+00  6.96036E+00  7.39058E+00  7.41890E+00
   5.66348E+00  8.52726E+00  9.31553E+00  9.45474E+00  1.56728E+01  1.72054E+01  1.39185E+01  1.11972E+01  8.17493E+00  3.42379E+00
   5.48301E+00 -4.20359E-01  1.32868E+00  2.80498E-01 -1.72815E+00  2.17393E+00  2.01221E+00  4.54304E+00  2.34844E+00  4.70524E+00
   4.11028E+00  5.36380E+00  6.36156E+00  5.31574E+00  7.44744E+00  9.32924E+00  1.16837E+01  1.32235E+01  1.68917E+01  1.84171E+01
   1.96824E+01  1.29776E+01  8.36337E+00  5.97775E+00  2.79296E+00  1.96376E+00 -1.50893E+00 -1.24709E-02  3.08503E+00  1.94730E+00
   2.67692E+00 -1.26669E+00  2.13872E+00  2.68569E+00  4.19095E+00 -3.99541E-01  8.98610E-01  2.17391E-01 -1.29585E-01  1.37318E-01
   7.54183E-02  2.85584E+00  1.82614E+00  1.36352E+00  6.06403E-01  2.24198E+00  2.87347E+00  1.64315E+00  8.75463E-01  1.23456E+00
   4.04139E-01  2.64899E+00 -1.10311E+00 -1.72969E+00 -1.60086E+00 -2.87481E-01 -3.98275E+00 -3.11385E+00 -5.86060E+00 -4.40347E+00
  -5.27583E+00 -6.58637E+00 -6.42171E+00 -9.54006E+00 -7.74031E+00 -8.11038E+00 -1.06448E+01 -7.75744E+00 -8.82970E+00 -7.65032E+00
  -3.75155E+00 -5.79319E+00 -4.29228E+00 -7.28636E+00 -3.89360E+00 -2.17009E+00 -2.14235E+00 -1.41922E+00 -3.10551E+00 -3.38216E+00
  -4.76895E+00 -2.05943E+00 -2.37772E+00  9.67118E-03 -3.74674E+00 -3.18565E+00 -3.74283E+00 -6.69578E+00 -7.91616E+00 -6.61669E+00
  -4.91512E+00 -4.53984E+00 -2.84315E+00 -5.51857E-01  2.69599E+00  2.00313E+00  2.02096E+00  4.22678E+00  2.61635E+00 -1.42778E+00
   1.80622E+00  6.93619E-01  1.00324E-01  1.68552E+00  4.67514E+00  8.72887E+00  8.21268E+00  8.38220E+00  5.00371E+00  4.42024E+00
   1.51354E+00  1.46641E+00 -6.81976E-02 -1.40916E+00 -8.35511E-01 -2.25071E+00  2.93066E+00  3.73524E+00  3.88997E+00  4.50358E+00
   5.98918E+00  4.42586E+00  3.73487E+00  6.38698E+00  4.82562E+00  5.10389E+00  6.40493E+00  5.12785E+00  6.91095E+00  2.97583E+00
   3.23411E+00  4.30828E+00  3.01348E+00  2.55092E+00  2.08903E+00  1.41925E+00  2.54078E+00  4.91255E+00  6.89728E+00  1.09760E+01
   9.69114E+00  1.31372E+01  1.45796E+01  1.74614E+01  2.15622E+01  2.80186E+01  3.45548E+01  4.43493E+01  4.93074E+01  5.08713E+01
   5.31954E+01  5.31181E+01  5.00372E+01  4.58352E+01  3.70597E+01  2.43115E+01  1.28000E+01  3.86839E+00  3.53355E+00  3.66933E+00
   1.70664E+00  2.94502E+00  4.17661E+00  4.74760E+00  4.68153E+00  2.93123E+00  3.54932E+00  2.53295E+00  5.63738E-01  2.35763E+00
   2.19766E+00  2.61499E+00  6.86893E-02  1.89833E+00  5.19282E-01  1.98647E+00  2.35075E+00  3.35381E+00  3.76431E+00  3.08586E+00
   2.90495E+00  3.88254E+00  3.43600E+00  3.58005E+00  2.75409E+00  3.89699E+00  1.97928E+00  6.41568E+00  2.17082E+00  3.50842E+00
   1.83727E+00  2.32977E+00  2.25492E+00  4.47216E+00  1.44987E+00  3.29196E+00  2.96837E+00  2.57180E+00  3.07405E+00  2.49155E+00
   4.98546E+00  5.04339E+00  4.01881E+00  7.83892E+00  2.66103E+00  9.10123E-01  3.45846E-01  2.58807E+00  1.90367E+00  8.76955E-01
   1.26556E+00  4.08859E+00  6.93160E-01  1.78215E+00  3.95291E+00  2.89536E+00  4.97794E+00  2.88679E+00  3.43079E+00 -8.44669E-02
   4.60652E+00  3.25724E+00  2.36618E+00  2.76815E+00  4.47494E+00  5.75271E+00  6.10253E+00  7.12661E+00  4.79886E+00  7.47006E+00
   4.63479E+00  6.06345E+00  6.50227E+00  6.02807E+00  6.98694E+00  6.80425E+00  6.59748E+00  7.91644E+00  9.11680E+00  5.98849E+00
   8.36748E+00  5.47337E+00  8.17410E+00  4.25425E+00  6.74672E+00  5.17937E+00  7.81589E+00  6.10135E+00  5.28437E+00  7.14122E+00
   5.09086E+00  4.06440E+00  4.93756E+00  2.46611E+00  3.14029E+00  3.87246E+00  2.30574E+00  3.19378E+00  3.44645E+00  3.60932E+00
   2.47572E+00  3.28122E+00  6.69571E+00  2.85989E+00  3.12410E+00  3.10014E+00  3.38453E+00  4.46695E+00  2.83594E+00  2.05105E+00
   3.76055E+00  2.03411E+00  2.12999E+00  3.35589E+00  4.25831E+00  2.67637E+00  5.38506E-01  5.07323E+00  2.12786E+00  2.71423E+00
   4.56359E+00  5.61328E+00  3.55307E+00  5.46915E+00  3.27375E+00  6.30043E+00  5.65021E+00  6.99826E+00  9.53887E+00  7.71276E+00
   6.83590E+00  6.94799E+00  5.35709E+00  8.85697E+00  8.54957E+00  7.71117E+00  6.48950E+00  7.97408E+00  9.69731E+00  9.66406E+00
   6.69956E+00  5.23461E+00  7.83387E+00  6.92652E+00  4.87479E+00  2.75885E+00  3.03953E+00  3.66245E+00  1.73712E+00  2.93411E+00
   4.91240E+00  5.69407E+00  1.65095E+00  9.27504E-02  1.31858E+00  3.36886E+00  6.84751E-01  1.26760E+00  2.90573E+00  1.48775E+00
  -8.14437E-01  7.57541E-01  1.11249E+00  2.17900E+00  1.05171E+00 -4.37162E-01  5.23368E+00  2.18197E-01  1.86326E+00  1.70632E+00
   8.13384E-01  1.28794E+00  1.01332E+00  2.50617E+00  1.04869E+00  5.17259E-01 -9.04624E-01  9.15135E-01  1.23105E+00 -8.38684E-01
   1.11057E+00  4.35610E-01 -6.26027E-01  1.63549E+00 -5.50004E-01  3.83364E-01  1.81737E-01  4.57131E-01  1.72761E+00  7.33003E-01
   2.99121E-01 -2.91358E-02  1.16535E+00  6.58628E-01 -6.77733E-01 -6.66941E-01  5.04786E-02  4.59271E+00  1.57835E+00 -1.70275E+00
   1.90430E-01  2.30309E+00 -4.43070E-01  2.25779E-01  7.31451E-01  2.50928E+00 -1.86834E-01  4.28335E-02  3.39152E+00  3.10247E-01
  -1.58435E+00 -2.85908E-01  1.68841E+00  2.24565E+00  2.66604E+00 -1.01743E+00  5.78526E-01  1.65097E+00 -1.44330E+00 -3.61703E-01
   2.75229E+00  6.52010E-01  1.19863E+00 -1.85357E+00 -3.20878E-02 -9.07755E-01  1.93051E-01  1.42324E+00
 NY points of the fit to the data follow
   3.65331E-01  4.30869E-02 -5.01005E-02  5.54268E-02  3.71345E-01  8.53231E-01  1.43272E+00  2.07697E+00  2.75365E+00  3.42671E+00
   4.01972E+00  4.42737E+00  4.53108E+00  4.25258E+00  3.61156E+00  2.75700E+00  1.90770E+00  1.27317E+00  9.12203E-01  7.57602E-01
   6.60388E-01  5.87421E-01  5.91524E-01  6.38153E-01  7.40554E-01  9.16295E-01  1.14157E+00  1.38101E+00  1.60745E+00  1.88746E+00
   2.31237E+00  2.90626E+00  3.59918E+00  4.18341E+00  4.40246E+00  4.09192E+00  3.26007E+00  2.10216E+00  9.64485E-01  1.82257E-01
  -5.39093E-02  2.52852E-01  9.22035E-01  1.73833E+00  2.53131E+00  3.20056E+00  3.73843E+00  4.17511E+00  4.50574E+00  4.62319E+00
   4.35185E+00  3.62394E+00  2.54760E+00  1.37915E+00  4.54957E-01 -8.32785E-03 -1.61342E-02  2.49858E-01  5.95520E-01  9.30442E-01
   1.21843E+00  1.43962E+00  1.54069E+00  1.47412E+00  1.25784E+00  9.40870E-01  6.18230E-01  4.35354E-01  4.75910E-01  6.86021E-01
   9.63275E-01  1.22455E+00  1.41840E+00  1.53945E+00  1.60267E+00  1.61114E+00  1.55197E+00  1.41433E+00  1.24878E+00  1.15021E+00
   1.08429E+00  1.07378E+00  1.20414E+00  1.52180E+00  1.98087E+00  2.46007E+00  2.86456E+00  3.13543E+00  3.18400E+00  2.90898E+00
   2.29083E+00  1.45133E+00  5.99163E-01 -6.22021E-03 -1.12026E-01  5.65315E-01  1.72489E+00  2.98512E+00  4.39059E+00  6.01874E+00
   7.82253E+00  9.68123E+00  1.15308E+01  1.32911E+01  1.46383E+01  1.50068E+01  1.39169E+01  1.13436E+01  7.87188E+00  4.48022E+00
   2.03308E+00  8.01711E-01  4.15727E-01  2.72516E-01  1.50661E-01  6.61991E-02  2.35846E-02  3.80370E-02  2.20398E-01  9.39471E-01
   2.09633E+00  3.41904E+00  4.92975E+00  6.68868E+00  8.66461E+00  1.07740E+01  1.29434E+01  1.50187E+01  1.65996E+01  1.70592E+01
   1.58893E+01  1.30931E+01  9.32109E+00  5.63175E+00  2.93530E+00  1.50591E+00  9.55818E-01  6.54433E-01  3.93505E-01  2.51939E-01
   2.67819E-01  4.18113E-01  6.20540E-01  7.72898E-01  8.10036E-01  7.27835E-01  5.54888E-01  3.42665E-01  1.52227E-01  7.98858E-03
  -9.26538E-02 -1.62954E-01 -2.46312E-01 -3.81512E-01 -5.36470E-01 -6.83831E-01 -7.95748E-01 -8.52973E-01 -8.99698E-01 -9.58914E-01
  -1.06032E+00 -1.23705E+00 -1.47979E+00 -1.70683E+00 -1.81989E+00 -1.80859E+00 -1.77548E+00 -1.87679E+00 -2.22050E+00 -2.71820E+00
  -3.18961E+00 -3.50979E+00 -3.66693E+00 -3.73482E+00 -3.77548E+00 -3.85003E+00 -3.94784E+00 -4.02530E+00 -4.02294E+00 -3.90889E+00
  -3.66832E+00 -3.39803E+00 -3.19425E+00 -3.03862E+00 -2.81865E+00 -2.43971E+00 -1.91459E+00 -1.32877E+00 -7.44302E-01 -1.69839E-01
   3.71675E-01  8.64350E-01  1.21438E+00  1.32074E+00  1.16167E+00  8.59483E-01  5.84106E-01  4.61611E-01  5.34647E-01  7.95927E-01
   1.20946E+00  1.69671E+00  2.10472E+00  2.38927E+00  2.45883E+00  2.15013E+00  1.45567E+00  4.77078E-01 -5.47556E-01 -1.47556E+00
  -2.17048E+00 -2.39280E+00 -1.98005E+00 -9.71224E-01  3.89930E-01  1.78963E+00  2.95675E+00  3.61012E+00  3.47057E+00  2.50902E+00
   9.75379E-01 -7.35955E-01 -2.14232E+00 -2.84898E+00 -2.67278E+00 -1.64509E+00 -4.18596E-02  1.75816E+00  3.32711E+00  4.34902E+00
   4.71778E+00  4.57702E+00  4.23476E+00  3.96069E+00  3.84649E+00  3.85817E+00  4.02019E+00  4.28978E+00  4.56303E+00  4.74269E+00
   4.80651E+00  4.76091E+00  4.60256E+00  4.36677E+00  4.18050E+00  4.22071E+00  4.59035E+00  5.32519E+00  6.56329E+00  8.05070E+00
   9.51187E+00  1.13438E+01  1.48023E+01  1.94343E+01  2.44802E+01  2.99813E+01  3.59325E+01  4.18362E+01  4.69224E+01  5.07536E+01
   5.31277E+01  5.35201E+01  5.10287E+01  4.50241E+01  3.58325E+01  2.50568E+01  1.51279E+01  8.24483E+00  4.99695E+00  4.12201E+00
   3.78691E+00  3.47131E+00  3.25034E+00  3.10436E+00  3.00984E+00  2.95078E+00  2.89881E+00  2.80626E+00  2.65649E+00  2.46569E+00
   2.27239E+00  2.11861E+00  2.03017E+00  2.00518E+00  2.02696E+00  2.07469E+00  2.13229E+00  2.19134E+00  2.24690E+00  2.30179E+00
   2.36631E+00  2.45044E+00  2.55947E+00  2.69119E+00  2.83524E+00  2.97847E+00  3.10560E+00  3.20666E+00  3.27966E+00  3.32927E+00
   3.36332E+00  3.38825E+00  3.40500E+00  3.41274E+00  3.40864E+00  3.38762E+00  3.34515E+00  3.28074E+00  3.19888E+00  3.10705E+00
   3.01135E+00  2.91682E+00  2.82826E+00  2.75004E+00  2.68629E+00  2.64123E+00  2.61920E+00  2.62598E+00  2.67199E+00  2.77058E+00
   2.89216E+00  3.01270E+00  3.13869E+00  3.26882E+00  3.39045E+00  3.48749E+00  3.54770E+00  3.58598E+00  3.59928E+00  3.55266E+00
   3.45874E+00  3.38470E+00  3.41827E+00  3.62268E+00  4.00733E+00  4.52822E+00  5.10418E+00  5.64400E+00  6.08163E+00  6.36742E+00
   6.47524E+00  6.43754E+00  6.33701E+00  6.25576E+00  6.23061E+00  6.24262E+00  6.26526E+00  6.29745E+00  6.33556E+00  6.37106E+00
   6.39917E+00  6.41985E+00  6.43466E+00  6.44263E+00  6.43733E+00  6.40711E+00  6.33740E+00  6.21591E+00  6.03883E+00  5.81036E+00
   5.54083E+00  5.24800E+00  4.95282E+00  4.67249E+00  4.41521E+00  4.18030E+00  3.96547E+00  3.76955E+00  3.59092E+00  3.42808E+00
   3.27976E+00  3.14516E+00  3.02393E+00  2.91621E+00  2.82253E+00  2.74383E+00  2.68111E+00  2.63555E+00  2.60833E+00  2.60079E+00
   2.61432E+00  2.65043E+00  2.71051E+00  2.79596E+00  2.90802E+00  3.04792E+00  3.21657E+00  3.41459E+00  3.64199E+00  3.89814E+00
   4.18161E+00  4.49014E+00  4.82039E+00  5.16793E+00  5.52709E+00  5.89118E+00  6.25252E+00  6.60276E+00  6.93300E+00  7.23416E+00
   7.49735E+00  7.71437E+00  7.87802E+00  7.98266E+00  8.02422E+00  8.00064E+00  7.91186E+00  7.75995E+00  7.54894E+00  7.28466E+00
   6.97423E+00  6.62588E+00  6.24841E+00  5.85093E+00  5.44234E+00  5.03104E+00  4.62454E+00  4.22932E+00  3.85073E+00  3.49296E+00
   3.15900E+00  2.85071E+00  2.56891E+00  2.31360E+00  2.08409E+00  1.87924E+00  1.69748E+00  1.53699E+00  1.39579E+00  1.27192E+00
   1.16348E+00  1.06870E+00  9.85902E-01  9.13546E-01  8.50211E-01  7.94723E-01  7.46027E-01  7.03260E-01  6.65589E-01  6.32333E-01
   6.02865E-01  5.76739E-01  5.53537E-01  5.32937E-01  5.14577E-01  4.98190E-01  4.83520E-01  4.70428E-01  4.58740E-01  4.48335E-01
   4.39023E-01  4.30703E-01  4.23265E-01  4.16683E-01  4.10866E-01  4.05757E-01  4.01239E-01  3.97283E-01  3.93837E-01  3.90914E-01
   3.88445E-01  3.86395E-01  3.84683E-01  3.83320E-01  3.82285E-01  3.81599E-01  3.81198E-01  3.81063E-01  3.81138E-01  3.81457E-01
   3.82005E-01  3.82799E-01  3.83775E-01  3.84930E-01  3.86231E-01  3.87726E-01  3.89397E-01  3.91255E-01  3.93234E-01  3.95346E-01
   3.97574E-01  3.99970E-01  4.02508E-01  4.05191E-01  4.07965E-01  4.10860E-01  4.13870E-01  4.17045E-01  4.20349E-01  4.23785E-01
   4.27313E-01  4.30979E-01  4.34785E-01  4.38774E-01  4.42907E-01  4.47198E-01  4.51628E-01  4.56264E-01
 NY background values follow
    -1.600E+00   -1.596E+00   -1.592E+00   -1.587E+00   -1.583E+00   -1.579E+00   -1.574E+00   -1.570E+00   -1.566E+00   -1.561E+00
    -1.557E+00   -1.553E+00   -1.549E+00   -1.544E+00   -1.540E+00   -1.536E+00   -1.531E+00   -1.527E+00   -1.523E+00   -1.518E+00
    -1.514E+00   -1.510E+00   -1.505E+00   -1.501E+00   -1.497E+00   -1.492E+00   -1.488E+00   -1.484E+00   -1.479E+00   -1.475E+00
    -1.471E+00   -1.466E+00   -1.462E+00   -1.458E+00   -1.453E+00   -1.449E+00   -1.445E+00   -1.440E+00   -1.436E+00   -1.432E+00
    -1.427E+00   -1.423E+00   -1.419E+00   -1.414E+00   -1.410E+00   -1.406E+00   -1.401E+00   -1.397E+00   -1.393E+00   -1.388E+00
    -1.384E+00   -1.380E+00   -1.375E+00   -1.371E+00   -1.367E+00   -1.362E+00   -1.358E+00   -1.354E+00   -1.349E+00   -1.345E+00
    -1.340E+00   -1.336E+00   -1.332E+00   -1.327E+00   -1.323E+00   -1.319E+00   -1.314E+00   -1.310E+00   -1.306E+00   -1.301E+00
    -1.297E+00   -1.293E+00   -1.288E+00   -1.284E+00   -1.280E+00   -1.275E+00   -1.271E+00   -1.266E+00   -1.262E+00   -1.258E+00
    -1.253E+00   -1.249E+00   -1.245E+00   -1.240E+00   -1.236E+00   -1.232E+00   -1.227E+00   -1.223E+00   -1.218E+00   -1.214E+00
    -1.210E+00   -1.205E+00   -1.201E+00   -1.197E+00   -1.192E+00   -1.188E+00   -1.183E+00   -1.179E+00   -1.175E+00   -1.170E+00
    -1.166E+00   -1.162E+00   -1.157E+00   -1.153E+00   -1.148E+00   -1.144E+00   -1.140E+00   -1.135E+00   -1.131E+00   -1.127E+00
    -1.122E+00   -1.118E+00   -1.113E+00   -1.109E+00   -1.105E+00   -1.100E+00   -1.096E+00   -1.092E+00   -1.087E+00   -1.083E+00
    -1.078E+00   -1.074E+00   -1.070E+00   -1.065E+00   -1.061E+00   -1.056E+00   -1.052E+00   -1.048E+00   -1.043E+00   -1.039E+00
    -1.035E+00   -1.030E+00   -1.026E+00   -1.021E+00   -1.017E+00   -1.013E+00   -1.008E+00   -1.004E+00   -9.994E-01   -9.950E-01
    -9.906E-01   -9.862E-01   -9.818E-01   -9.774E-01   -9.731E-01   -9.687E-01   -9.643E-01   -9.599E-01   -9.555E-01   -9.511E-01
    -9.467E-01   -9.423E-01   -9.379E-01   -9.335E-01   -9.291E-01   -9.247E-01   -9.203E-01   -9.159E-01   -9.115E-01   -9.071E-01
    -9.027E-01   -8.983E-01   -8.939E-01   -8.895E-01   -8.851E-01   -8.807E-01   -8.763E-01   -8.719E-01   -8.675E-01   -8.631E-01
    -8.587E-01   -8.543E-01   -8.499E-01   -8.454E-01   -8.410E-01   -8.366E-01   -8.322E-01   -8.278E-01   -8.234E-01   -8.190E-01
    -8.146E-01   -8.102E-01   -8.058E-01   -8.014E-01   -7.970E-01   -7.926E-01   -7.881E-01   -7.837E-01   -7.793E-01   -7.749E-01
    -7.705E-01   -7.661E-01   -7.617E-01   -7.573E-01   -7.528E-01   -7.484E-01   -7.440E-01   -7.396E-01   -7.352E-01   -7.308E-01
    -7.264E-01   -7.220E-01   -7.175E-01   -7.131E-01   -7.087E-01   -7.043E-01   -6.999E-01   -6.955E-01   -6.910E-01   -6.866E-01
    -6.822E-01   -6.778E-01   -6.734E-01   -6.690E-01   -6.645E-01   -6.601E-01   -6.557E-01   -6.513E-01   -6.469E-01   -6.424E-01
    -6.380E-01   -6.336E-01   -6.292E-01   -6.248E-01   -6.203E-01   -6.159E-01   -6.115E-01   -6.071E-01   -6.027E-01   -5.982E-01
    -5.938E-01   -5.894E-01   -5.850E-01   -5.806E-01   -5.761E-01   -5.717E-01   -5.673E-01   -5.629E-01   -5.584E-01   -5.540E-01
    -5.496E-01   -5.452E-01   -5.408E-01   -5.363E-01   -5.319E-01   -5.275E-01   -5.231E-01   -5.186E-01   -5.142E-01   -5.098E-01
    -5.054E-01   -5.009E-01   -4.965E-01   -4.921E-01   -4.877E-01   -4.832E-01   -4.788E-01   -4.744E-01   -4.700E-01   -4.655E-01
    -4.611E-01   -4.567E-01   -4.523E-01   -4.478E-01   -4.434E-01   -4.390E-01   -4.346E-01   -4.301E-01   -4.257E-01   -4.213E-01
    -4.168E-01   -4.124E-01   -4.080E-01   -4.036E-01   -3.991E-01   -3.947E-01   -3.903E-01   -3.859E-01   -3.814E-01   -3.770E-01
    -3.726E-01   -3.682E-01   -3.637E-01   -3.593E-01   -3.549E-01   -3.504E-01   -3.460E-01   -3.416E-01   -3.372E-01   -3.327E-01
    -3.283E-01   -3.239E-01   -3.195E-01   -3.150E-01   -3.106E-01   -3.062E-01   -3.017E-01   -2.973E-01   -2.929E-01   -2.885E-01
    -2.840E-01   -2.796E-01   -2.752E-01   -2.708E-01   -2.663E-01   -2.619E-01   -2.575E-01   -2.530E-01   -2.486E-01   -2.442E-01
    -2.398E-01   -2.353E-01   -2.309E-01   -2.265E-01   -2.221E-01   -2.176E-01   -2.132E-01   -2.088E-01   -2.044E-01   -1.999E-01
    -1.955E-01   -1.911E-01   -1.867E-01   -1.822E-01   -1.778E-01   -1.734E-01   -1.689E-01   -1.645E-01   -1.601E-01   -1.557E-01
    -1.512E-01   -1.468E-01   -1.424E-01   -1.380E-01   -1.335E-01   -1.291E-01   -1.247E-01   -1.203E-01   -1.158E-01   -1.114E-01
    -1.070E-01   -1.026E-01   -9.815E-02   -9.373E-02   -8.931E-02   -8.488E-02   -8.046E-02   -7.604E-02   -7.162E-02   -6.719E-02
    -6.277E-02   -5.835E-02   -5.393E-02   -4.951E-02   -4.508E-02   -4.066E-02   -3.624E-02   -3.182E-02   -2.740E-02   -2.298E-02
    -1.856E-02   -1.414E-02   -9.719E-03   -5.299E-03   -8.795E-04    3.540E-03    7.959E-03    1.238E-02    1.680E-02    2.121E-02
     2.563E-02    3.005E-02    3.447E-02    3.889E-02    4.330E-02    4.772E-02    5.214E-02    5.655E-02    6.097E-02    6.539E-02
     6.980E-02    7.422E-02    7.863E-02    8.305E-02    8.746E-02    9.188E-02    9.629E-02    1.007E-01    1.051E-01    1.095E-01
     1.139E-01    1.184E-01    1.228E-01    1.272E-01    1.316E-01    1.360E-01    1.404E-01    1.448E-01    1.492E-01    1.536E-01
     1.581E-01    1.625E-01    1.669E-01    1.713E-01    1.757E-01    1.801E-01    1.845E-01    1.889E-01    1.933E-01    1.977E-01
     2.021E-01    2.065E-01    2.109E-01    2.154E-01    2.198E-01    2.242E-01    2.286E-01    2.330E-01    2.374E-01    2.418E-01
     2.462E-01    2.506E-01    2.550E-01    2.594E-01    2.638E-01    2.682E-01    2.726E-01    2.770E-01    2.814E-01    2.858E-01
     2.902E-01    2.946E-01    2.990E-01    3.034E-01    3.078E-01    3.122E-01    3.166E-01    3.210E-01    3.254E-01    3.298E-01
     3.341E-01    3.385E-01    3.429E-01    3.473E-01    3.517E-01    3.561E-01    3.605E-01    3.649E-01    3.693E-01    3.737E-01
     3.781E-01    3.825E-01    3.868E-01    3.912E-01    3.956E-01    4.000E-01    4.044E-01    4.088E-01    4.132E-01    4.176E-01
     4.219E-01    4.263E-01    4.307E-01    4.351E-01    4.395E-01    4.439E-01    4.482E-01    4.526E-01    4.570E-01    4.614E-01
     4.658E-01    4.701E-01    4.745E-01    4.789E-01    4.833E-01    4.876E-01    4.920E-01    4.964E-01    5.008E-01    5.052E-01
     5.095E-01    5.139E-01    5.183E-01    5.226E-01    5.270E-01    5.314E-01    5.358E-01    5.401E-01    5.445E-01    5.489E-01
     5.532E-01    5.576E-01    5.620E-01    5.663E-01    5.707E-01    5.751E-01    5.794E-01    5.838E-01
 Ala      Conc. = 9.20E+01
