 LCModel (Version 6.3-1L) Copyright: S.W. Provencher.          Ref.: Magn. Reson. Med. 30:672-679 (1993).                
 Slice#1 Row#3 Col#14  PD_05_press_1_raw_act
 36 lines in following concentration table = NCONC+1
    Conc.  %SD /Cr+PCr  Metabolite                                         
 4.70E+03  23% 248.977 Ala                                                 
    4.049  93%   0.215 Asp                                                 
    0.000 999%   0.000 Cr                                                  
   18.872 250%   1.000 PCr                                                 
    2.429  93%   0.129 GABA                                                
    2.429  93%   0.129 Glc                                                 
  917.920  67%  48.640 Gln                                                 
  871.887  95%  46.200 Glu                                                 
   20.700  78%   1.097 GPC                                                 
    0.000 999%   0.000 PCh                                                 
    0.000 999%   0.000 GSH                                                 
    0.000 999%   0.000 Ins                                                 
 3.09E+03  25% 163.907 Lac                                                 
    0.000 999%   0.000 NAA                                                 
    0.000 999%   0.000 NAAG                                                
    0.810  93% 4.3E-02 Scyllo                                              
    4.050  93%   0.215 Tau                                                 
    1.889 258%   0.100 -CrCH2                                              
   20.700  78%   1.097 GPC+PCh                                             
    0.000 999%   0.000 NAA+NAAG                                            
   18.872 250%   1.000 Cr+PCr                                              
 1.79E+03  74%  94.840 Glu+Gln                                             
 6.22E+04   7% 3.3E+03 Lip13a                                              
    0.000 999%   0.000 Lip13b                                              
 2.20E+04   7% 1.2E+03 Lip09                                               
    0.000 999%   0.000 MM09                                                
    0.000 999%   0.000-Lip20                                               
   29.556 786%   1.566 MM20                                                
    0.000 999%   0.000 MM12                                                
 3.86E+03  39% 204.454 MM14                                                
 3.24E+03  30% 171.773 MM17                                                
 6.22E+04   7% 3.3E+03 Lip13a+Lip13b                                       
 6.61E+04   6% 3.5E+03 MM14+Lip13a+Lip13b+MM12                             
 2.20E+04   7% 1.2E+03 MM09+Lip09                                          
   29.556 786%   1.566 MM20+Lip20                                          
   6 lines in following misc. output table
  FWHM = 0.153 ppm    S/N =  43                                            
  Data shift = 0.084 ppm                                                   
  Ph: -17 deg      -3.0 deg/ppm                                            
  alphaB,S = 6.0E+00,   1.9E+02                                            
    7 spline knots.   Ns = 9(2)                                            
  (12) 2 infls.   ( 8) 1 extrs.                                            
  498 points on ppm-axis = NY
      4.000000     3.992357     3.984714     3.977070     3.969427     3.961784     3.954141     3.946497     3.938854     3.931211
      3.923568     3.915925     3.908281     3.900638     3.892995     3.885352     3.877708     3.870065     3.862422     3.854779
      3.847136     3.839492     3.831849     3.824206     3.816563     3.808919     3.801276     3.793633     3.785990     3.778347
      3.770703     3.763060     3.755417     3.747774     3.740130     3.732487     3.724844     3.717201     3.709558     3.701914
      3.694271     3.686628     3.678985     3.671341     3.663698     3.656055     3.648412     3.640769     3.633125     3.625482
      3.617839     3.610196     3.602552     3.594909     3.587266     3.579623     3.571980     3.564336     3.556693     3.549050
      3.541407     3.533763     3.526120     3.518477     3.510834     3.503191     3.495547     3.487904     3.480261     3.472618
      3.464974     3.457331     3.449688     3.442045     3.434402     3.426758     3.419115     3.411472     3.403829     3.396185
      3.388542     3.380899     3.373256     3.365613     3.357969     3.350326     3.342683     3.335040     3.327396     3.319753
      3.312110     3.304467     3.296824     3.289180     3.281537     3.273894     3.266251     3.258607     3.250964     3.243321
      3.235678     3.228034     3.220391     3.212748     3.205105     3.197462     3.189818     3.182175     3.174532     3.166889
      3.159245     3.151602     3.143959     3.136316     3.128673     3.121029     3.113386     3.105743     3.098100     3.090456
      3.082813     3.075170     3.067527     3.059884     3.052240     3.044597     3.036954     3.029311     3.021667     3.014024
      3.006381     2.998738     2.991095     2.983451     2.975808     2.968165     2.960522     2.952878     2.945235     2.937592
      2.929949     2.922306     2.914662     2.907019     2.899376     2.891733     2.884089     2.876446     2.868803     2.861160
      2.853517     2.845873     2.838230     2.830587     2.822944     2.815300     2.807657     2.800014     2.792371     2.784728
      2.777084     2.769441     2.761798     2.754155     2.746511     2.738868     2.731225     2.723582     2.715939     2.708295
      2.700652     2.693009     2.685366     2.677722     2.670079     2.662436     2.654793     2.647150     2.639506     2.631863
      2.624220     2.616577     2.608933     2.601290     2.593647     2.586004     2.578361     2.570717     2.563074     2.555431
      2.547788     2.540144     2.532501     2.524858     2.517215     2.509572     2.501928     2.494285     2.486642     2.478999
      2.471355     2.463712     2.456069     2.448426     2.440783     2.433139     2.425496     2.417853     2.410210     2.402566
      2.394923     2.387280     2.379637     2.371994     2.364350     2.356707     2.349064     2.341421     2.333777     2.326134
      2.318491     2.310848     2.303205     2.295561     2.287918     2.280275     2.272632     2.264988     2.257345     2.249702
      2.242059     2.234416     2.226772     2.219129     2.211486     2.203843     2.196199     2.188556     2.180913     2.173270
      2.165627     2.157983     2.150340     2.142697     2.135054     2.127410     2.119767     2.112124     2.104481     2.096838
      2.089194     2.081551     2.073908     2.066265     2.058621     2.050978     2.043335     2.035692     2.028049     2.020405
      2.012762     2.005119     1.997476     1.989833     1.982190     1.974546     1.966903     1.959260     1.951617     1.943974
      1.936331     1.928688     1.921045     1.913402     1.905759     1.898115     1.890472     1.882829     1.875186     1.867543
      1.859900     1.852257     1.844614     1.836971     1.829327     1.821684     1.814041     1.806398     1.798755     1.791112
      1.783469     1.775826     1.768183     1.760540     1.752896     1.745253     1.737610     1.729967     1.722324     1.714681
      1.707038     1.699395     1.691752     1.684108     1.676465     1.668822     1.661179     1.653536     1.645893     1.638250
      1.630607     1.622964     1.615321     1.607677     1.600034     1.592391     1.584748     1.577105     1.569462     1.561819
      1.554176     1.546533     1.538890     1.531246     1.523603     1.515960     1.508317     1.500674     1.493031     1.485388
      1.477745     1.470102     1.462458     1.454815     1.447172     1.439529     1.431886     1.424243     1.416600     1.408957
      1.401314     1.393671     1.386027     1.378384     1.370741     1.363098     1.355455     1.347812     1.340169     1.332526
      1.324883     1.317240     1.309596     1.301953     1.294310     1.286667     1.279024     1.271381     1.263738     1.256095
      1.248452     1.240808     1.233165     1.225522     1.217879     1.210236     1.202593     1.194950     1.187307     1.179664
      1.172021     1.164377     1.156734     1.149091     1.141448     1.133805     1.126162     1.118519     1.110876     1.103233
      1.095590     1.087946     1.080303     1.072660     1.065017     1.057374     1.049731     1.042088     1.034445     1.026802
      1.019158     1.011515     1.003872     0.996229     0.988586     0.980943     0.973300     0.965657     0.958014     0.950371
      0.942727     0.935084     0.927441     0.919798     0.912155     0.904512     0.896869     0.889226     0.881583     0.873940
      0.866296     0.858653     0.851010     0.843367     0.835724     0.828081     0.820438     0.812795     0.805152     0.797508
      0.789865     0.782222     0.774579     0.766936     0.759293     0.751650     0.744007     0.736364     0.728721     0.721077
      0.713434     0.705791     0.698148     0.690505     0.682862     0.675219     0.667576     0.659933     0.652290     0.644646
      0.637003     0.629360     0.621717     0.614074     0.606431     0.598788     0.591145     0.583502     0.575858     0.568215
      0.560572     0.552929     0.545286     0.537643     0.530000     0.522357     0.514714     0.507071     0.499427     0.491784
      0.484141     0.476498     0.468855     0.461212     0.453569     0.445925     0.438282     0.430639     0.422996     0.415353
      0.407710     0.400067     0.392424     0.384780     0.377137     0.369494     0.361851     0.354208     0.346565     0.338922
      0.331278     0.323635     0.315992     0.308349     0.300706     0.293063     0.285420     0.277777     0.270133     0.262490
      0.254847     0.247204     0.239561     0.231918     0.224275     0.216631     0.208988     0.201345
 NY phased data points follow
   1.11620E+01  1.07976E+01  1.31691E+01  1.03450E+01  9.51131E+00  9.94496E+00  1.17447E+01  7.77141E+00  8.73235E+00  9.38203E+00
   1.07694E+01  1.27824E+01  1.14243E+01  1.07730E+01  1.08547E+01  1.27016E+01  1.40393E+01  1.10394E+01  1.19038E+01  9.75635E+00
   9.35493E+00  1.25452E+01  1.13018E+01  8.61902E+00  1.29508E+01  8.75824E+00  1.00023E+01  9.44667E+00  1.26596E+01  1.41381E+01
   1.08643E+01  1.30358E+01  1.13346E+01  1.11015E+01  1.00746E+01  1.06611E+01  1.16119E+01  1.12570E+01  1.08481E+01  1.14903E+01
   1.06108E+01  1.21858E+01  1.07824E+01  9.54712E+00  9.46704E+00  1.17575E+01  1.24654E+01  1.11174E+01  1.03656E+01  9.37796E+00
   9.70781E+00  1.24677E+01  1.03640E+01  9.28053E+00  1.17269E+01  1.02653E+01  1.23510E+01  1.24321E+01  1.28556E+01  9.59823E+00
   9.85223E+00  1.21396E+01  1.23500E+01  9.48446E+00  1.24365E+01  1.33266E+01  1.08721E+01  1.20395E+01  1.08611E+01  1.25790E+01
   1.21626E+01  9.58503E+00  1.08642E+01  1.30206E+01  1.38220E+01  1.20839E+01  1.18514E+01  1.32704E+01  1.43353E+01  1.35407E+01
   1.03007E+01  1.44582E+01  1.18914E+01  1.30016E+01  1.36087E+01  1.26476E+01  9.63734E+00  1.32187E+01  1.16991E+01  1.29806E+01
   1.43367E+01  1.51292E+01  1.54869E+01  1.38288E+01  1.09410E+01  1.24258E+01  1.16430E+01  1.41716E+01  1.27858E+01  1.32172E+01
   1.33933E+01  1.14952E+01  1.25765E+01  1.44292E+01  1.24612E+01  1.23291E+01  1.36290E+01  1.71134E+01  9.94557E+00  1.53958E+01
   1.32965E+01  1.43270E+01  1.13598E+01  1.40536E+01  1.47118E+01  1.19767E+01  1.33769E+01  1.25306E+01  1.27545E+01  1.35972E+01
   1.29543E+01  1.45758E+01  1.28797E+01  1.14484E+01  1.38591E+01  1.53170E+01  1.31221E+01  1.42633E+01  1.36263E+01  1.30270E+01
   1.48259E+01  1.60429E+01  1.34001E+01  1.31977E+01  1.27520E+01  1.49180E+01  1.40432E+01  1.43461E+01  1.49812E+01  1.51528E+01
   1.31833E+01  1.44604E+01  1.27913E+01  1.29561E+01  1.18915E+01  1.55005E+01  1.35074E+01  1.24036E+01  1.48617E+01  1.32348E+01
   1.44820E+01  1.47020E+01  1.53844E+01  1.19868E+01  1.48721E+01  1.49159E+01  1.40166E+01  1.41279E+01  1.37784E+01  1.36789E+01
   1.59642E+01  1.43134E+01  1.43426E+01  1.66558E+01  1.41806E+01  1.49385E+01  1.35149E+01  1.48039E+01  1.59000E+01  1.50631E+01
   1.45104E+01  1.60977E+01  1.56436E+01  1.73547E+01  1.71607E+01  1.69637E+01  1.66251E+01  1.31647E+01  1.73266E+01  1.55993E+01
   1.75022E+01  1.55275E+01  1.59939E+01  1.83426E+01  1.73245E+01  1.62354E+01  1.83118E+01  1.81155E+01  1.62075E+01  1.41223E+01
   1.46584E+01  1.58096E+01  1.48980E+01  1.94339E+01  1.68883E+01  1.53458E+01  1.55299E+01  1.84020E+01  1.63262E+01  1.62047E+01
   1.88280E+01  1.67136E+01  1.68797E+01  1.69713E+01  1.68212E+01  1.56397E+01  1.71179E+01  1.85026E+01  1.94564E+01  1.70196E+01
   1.94238E+01  1.88025E+01  1.70295E+01  1.99345E+01  1.88593E+01  1.56138E+01  1.98980E+01  1.81196E+01  1.97634E+01  2.05188E+01
   1.94542E+01  1.86323E+01  2.00002E+01  1.90181E+01  2.12022E+01  1.67045E+01  1.84343E+01  1.88103E+01  1.90563E+01  1.95496E+01
   2.15815E+01  2.01220E+01  1.90869E+01  1.96432E+01  2.01210E+01  2.12453E+01  1.97686E+01  2.07805E+01  2.14265E+01  2.01794E+01
   2.06781E+01  2.00266E+01  2.03550E+01  2.24584E+01  2.27262E+01  1.88603E+01  2.23733E+01  2.07343E+01  2.10104E+01  2.19205E+01
   2.22224E+01  1.90944E+01  2.22972E+01  2.19352E+01  1.89130E+01  2.07577E+01  2.05033E+01  2.37303E+01  2.17316E+01  2.27592E+01
   2.17006E+01  2.16094E+01  2.30522E+01  2.28772E+01  2.54405E+01  2.52721E+01  2.46448E+01  2.44726E+01  2.48802E+01  2.68387E+01
   2.49929E+01  2.83808E+01  2.67518E+01  2.63439E+01  3.05229E+01  2.93656E+01  3.22097E+01  3.03744E+01  3.02071E+01  3.24113E+01
   3.22958E+01  3.43180E+01  3.26625E+01  3.34091E+01  3.27157E+01  3.41201E+01  3.54149E+01  3.62558E+01  3.61718E+01  3.75632E+01
   3.78923E+01  3.83330E+01  3.96513E+01  4.10121E+01  4.34421E+01  4.58526E+01  4.44833E+01  4.64206E+01  4.60612E+01  4.59446E+01
   4.79220E+01  4.82416E+01  4.88477E+01  4.84990E+01  4.99067E+01  5.42787E+01  5.51701E+01  5.54510E+01  5.70804E+01  5.87674E+01
   5.97943E+01  5.98204E+01  6.21534E+01  6.21365E+01  6.69232E+01  6.60639E+01  7.02135E+01  7.25789E+01  7.30057E+01  7.39036E+01
   7.67991E+01  8.20881E+01  8.22594E+01  8.50070E+01  8.49122E+01  8.78612E+01  8.97579E+01  9.39124E+01  9.24504E+01  9.70138E+01
   1.01597E+02  1.02002E+02  1.03316E+02  1.06847E+02  1.08730E+02  1.11873E+02  1.16756E+02  1.18226E+02  1.20990E+02  1.25486E+02
   1.27576E+02  1.31357E+02  1.33572E+02  1.37454E+02  1.42933E+02  1.39020E+02  1.45198E+02  1.49542E+02  1.52207E+02  1.55179E+02
   1.58324E+02  1.60942E+02  1.61250E+02  1.57474E+02  1.61007E+02  1.57574E+02  1.60513E+02  1.57694E+02  1.58444E+02  1.56473E+02
   1.56353E+02  1.56813E+02  1.57179E+02  1.57546E+02  1.55158E+02  1.57393E+02  1.58382E+02  1.56614E+02  1.53799E+02  1.55729E+02
   1.55981E+02  1.54005E+02  1.53415E+02  1.51465E+02  1.47503E+02  1.46919E+02  1.44215E+02  1.44153E+02  1.42447E+02  1.40017E+02
   1.38454E+02  1.38311E+02  1.31252E+02  1.36003E+02  1.33428E+02  1.31106E+02  1.30330E+02  1.28293E+02  1.29940E+02  1.29587E+02
   1.27132E+02  1.27486E+02  1.25440E+02  1.23326E+02  1.20168E+02  1.21189E+02  1.18271E+02  1.14123E+02  1.15737E+02  1.10652E+02
   1.06044E+02  1.06003E+02  9.86010E+01  1.01081E+02  9.56977E+01  9.34129E+01  8.55429E+01  8.57037E+01  8.04012E+01  7.61002E+01
   7.37206E+01  7.08286E+01  6.83807E+01  6.48965E+01  6.29707E+01  6.03418E+01  5.91535E+01  5.53018E+01  5.24989E+01  4.87640E+01
   4.81791E+01  4.37740E+01  4.06950E+01  3.79365E+01  3.90785E+01  3.55978E+01  3.35139E+01  3.21160E+01  3.21672E+01  3.00316E+01
   2.50633E+01  2.49441E+01  2.29279E+01  2.35465E+01  2.05831E+01  1.88994E+01  1.60480E+01  1.41368E+01  1.43970E+01  1.21220E+01
   8.91745E+00  9.01530E+00  6.55267E+00  7.16297E+00  4.82957E+00  6.48757E+00  2.27452E+00  2.29657E+00 -1.06190E+00  8.77812E-01
   2.19764E+00 -4.95000E-01 -6.36110E-01 -3.02312E+00 -3.76941E+00 -6.14502E+00 -5.70427E+00 -5.89861E+00 -7.36918E+00 -6.14513E+00
  -7.86882E+00 -7.79683E+00 -8.62857E+00 -1.04629E+01 -9.53771E+00 -1.28834E+01 -9.65531E+00 -1.42953E+01 -1.29622E+01 -1.09856E+01
  -1.17610E+01 -1.29774E+01 -1.28990E+01 -1.28595E+01 -1.31018E+01 -1.30534E+01 -1.17331E+01 -1.43459E+01 -1.54220E+01 -1.35566E+01
  -1.28446E+01 -1.34635E+01 -1.49611E+01 -1.49100E+01 -1.56803E+01 -1.44975E+01 -1.62740E+01 -1.56608E+01 -1.68377E+01 -1.50345E+01
  -1.56232E+01 -1.49303E+01 -1.48717E+01 -1.30755E+01 -1.66912E+01 -1.92046E+01 -1.47131E+01 -1.37035E+01
 NY points of the fit to the data follow
   9.52477E+00  1.02826E+01  9.76253E+00  1.05370E+01  1.01782E+01  1.09735E+01  1.05899E+01  1.11919E+01  1.07058E+01  1.10334E+01
   1.05162E+01  1.07935E+01  1.02974E+01  1.08559E+01  1.04828E+01  1.12488E+01  1.09103E+01  1.16450E+01  1.11397E+01  1.18315E+01
   1.10362E+01  1.16968E+01  1.07970E+01  1.15112E+01  1.07088E+01  1.15375E+01  1.07726E+01  1.16226E+01  1.09609E+01  1.16784E+01
   1.10342E+01  1.14911E+01  1.09553E+01  1.13098E+01  1.09971E+01  1.11415E+01  1.10984E+01  1.10712E+01  1.12447E+01  1.10068E+01
   1.12511E+01  1.09036E+01  1.13643E+01  1.09675E+01  1.16736E+01  1.13524E+01  1.22124E+01  1.19790E+01  1.25485E+01  1.20113E+01
   1.23014E+01  1.15957E+01  1.16869E+01  1.10647E+01  1.11738E+01  1.09733E+01  1.12556E+01  1.11941E+01  1.14397E+01  1.14456E+01
   1.15723E+01  1.16217E+01  1.16340E+01  1.16324E+01  1.16343E+01  1.16365E+01  1.16394E+01  1.16475E+01  1.16540E+01  1.16673E+01
   1.16758E+01  1.16937E+01  1.17063E+01  1.17273E+01  1.17431E+01  1.17659E+01  1.17847E+01  1.18091E+01  1.18304E+01  1.18558E+01
   1.18795E+01  1.19056E+01  1.19315E+01  1.19594E+01  1.19949E+01  1.20379E+01  1.20717E+01  1.21210E+01  1.21563E+01  1.22209E+01
   1.22573E+01  1.23445E+01  1.23783E+01  1.24932E+01  1.25179E+01  1.26617E+01  1.26735E+01  1.28487E+01  1.28329E+01  1.30217E+01
   1.29778E+01  1.31739E+01  1.31120E+01  1.33215E+01  1.32354E+01  1.34437E+01  1.33380E+01  1.35393E+01  1.34165E+01  1.35996E+01
   1.34658E+01  1.36236E+01  1.34866E+01  1.36140E+01  1.34852E+01  1.35842E+01  1.34737E+01  1.35505E+01  1.34613E+01  1.35171E+01
   1.34539E+01  1.34963E+01  1.34687E+01  1.35189E+01  1.35330E+01  1.36194E+01  1.36359E+01  1.37289E+01  1.37402E+01  1.38332E+01
   1.38397E+01  1.39306E+01  1.39317E+01  1.40157E+01  1.40141E+01  1.40903E+01  1.40878E+01  1.41537E+01  1.41534E+01  1.42094E+01
   1.42144E+01  1.42620E+01  1.42734E+01  1.43129E+01  1.43325E+01  1.43659E+01  1.43975E+01  1.44333E+01  1.44790E+01  1.45267E+01
   1.45752E+01  1.46241E+01  1.46733E+01  1.47229E+01  1.47724E+01  1.48226E+01  1.48723E+01  1.49231E+01  1.49731E+01  1.50245E+01
   1.50747E+01  1.51268E+01  1.51773E+01  1.52301E+01  1.52809E+01  1.53345E+01  1.53859E+01  1.54406E+01  1.54925E+01  1.55480E+01
   1.56009E+01  1.56567E+01  1.57104E+01  1.57668E+01  1.58221E+01  1.58783E+01  1.59299E+01  1.59835E+01  1.60306E+01  1.60747E+01
   1.61207E+01  1.61578E+01  1.62006E+01  1.62346E+01  1.62885E+01  1.63155E+01  1.63702E+01  1.63944E+01  1.64639E+01  1.64716E+01
   1.65617E+01  1.65497E+01  1.66375E+01  1.66249E+01  1.67692E+01  1.67610E+01  1.69352E+01  1.69116E+01  1.71123E+01  1.70286E+01
   1.72372E+01  1.70959E+01  1.73552E+01  1.71578E+01  1.74536E+01  1.72336E+01  1.76771E+01  1.74229E+01  1.79544E+01  1.76264E+01
   1.81860E+01  1.77460E+01  1.83312E+01  1.78190E+01  1.84148E+01  1.78904E+01  1.85250E+01  1.79976E+01  1.86318E+01  1.81293E+01
   1.87903E+01  1.83338E+01  1.89543E+01  1.86041E+01  1.92056E+01  1.89534E+01  1.94806E+01  1.93572E+01  1.98038E+01  1.97156E+01
   1.99842E+01  1.98724E+01  1.99530E+01  1.98690E+01  1.99938E+01  1.99816E+01  2.01744E+01  2.01811E+01  2.05096E+01  2.04296E+01
   2.07846E+01  2.06056E+01  2.09614E+01  2.06461E+01  2.09704E+01  2.06076E+01  2.10134E+01  2.06713E+01  2.11262E+01  2.08453E+01
   2.13062E+01  2.10869E+01  2.15455E+01  2.14086E+01  2.18471E+01  2.18130E+01  2.22015E+01  2.22470E+01  2.25375E+01  2.26838E+01
   2.29692E+01  2.32593E+01  2.35381E+01  2.39289E+01  2.42074E+01  2.45686E+01  2.48501E+01  2.52088E+01  2.54925E+01  2.58441E+01
   2.61553E+01  2.65168E+01  2.68583E+01  2.72728E+01  2.76913E+01  2.81800E+01  2.86740E+01  2.92240E+01  2.97753E+01  3.03671E+01
   3.09679E+01  3.16206E+01  3.22978E+01  3.30344E+01  3.37897E+01  3.45979E+01  3.54290E+01  3.62875E+01  3.71744E+01  3.80783E+01
   3.90011E+01  3.99287E+01  4.08661E+01  4.17999E+01  4.27351E+01  4.36657E+01  4.45902E+01  4.55030E+01  4.64047E+01  4.72940E+01
   4.81727E+01  4.90461E+01  4.99175E+01  5.08012E+01  5.17063E+01  5.26538E+01  5.36658E+01  5.47865E+01  5.61019E+01  5.76495E+01
   5.88826E+01  6.04883E+01  6.18769E+01  6.38436E+01  6.53210E+01  6.76001E+01  6.89550E+01  7.18967E+01  7.33166E+01  7.64413E+01
   7.75398E+01  8.08372E+01  8.13527E+01  8.45069E+01  8.48510E+01  8.81643E+01  8.88591E+01  9.26015E+01  9.35548E+01  9.76914E+01
   9.91427E+01  1.02882E+02  1.04554E+02  1.07687E+02  1.09680E+02  1.12667E+02  1.15318E+02  1.18175E+02  1.21627E+02  1.24150E+02
   1.28332E+02  1.30388E+02  1.34767E+02  1.36088E+02  1.40780E+02  1.41712E+02  1.46900E+02  1.48197E+02  1.53320E+02  1.54873E+02
   1.58590E+02  1.58691E+02  1.60863E+02  1.59454E+02  1.60111E+02  1.58384E+02  1.58355E+02  1.57451E+02  1.58038E+02  1.57422E+02
   1.58137E+02  1.57478E+02  1.58024E+02  1.57241E+02  1.57606E+02  1.56689E+02  1.56945E+02  1.56262E+02  1.56359E+02  1.55930E+02
   1.55292E+02  1.53797E+02  1.52493E+02  1.50175E+02  1.48326E+02  1.45806E+02  1.43832E+02  1.42196E+02  1.40742E+02  1.39411E+02
   1.38173E+02  1.37008E+02  1.35899E+02  1.34831E+02  1.33787E+02  1.32752E+02  1.31707E+02  1.30635E+02  1.29519E+02  1.28339E+02
   1.27080E+02  1.25724E+02  1.24257E+02  1.22665E+02  1.20937E+02  1.19066E+02  1.17045E+02  1.14872E+02  1.12548E+02  1.10075E+02
   1.07460E+02  1.04711E+02  1.01839E+02  9.88576E+01  9.57808E+01  9.26245E+01  8.94054E+01  8.61403E+01  8.28462E+01  7.95397E+01
   7.62367E+01  7.29522E+01  6.97001E+01  6.64929E+01  6.33418E+01  6.02563E+01  5.72446E+01  5.43136E+01  5.14684E+01  4.87130E+01
   4.60501E+01  4.34815E+01  4.10077E+01  3.86285E+01  3.63431E+01  3.41499E+01  3.20467E+01  3.00312E+01  2.81005E+01  2.62517E+01
   2.44816E+01  2.27871E+01  2.11647E+01  1.96112E+01  1.81234E+01  1.66981E+01  1.53321E+01  1.40226E+01  1.27665E+01  1.15611E+01
   1.04039E+01  9.29223E+00  8.22374E+00  7.19624E+00  6.20749E+00  5.25561E+00  4.33858E+00  3.45472E+00  2.60222E+00  1.77962E+00
   9.85318E-01  2.18047E-01 -5.23637E-01 -1.24086E+00 -1.93489E+00 -2.60673E+00 -3.25747E+00 -3.88798E+00 -4.49927E+00 -5.09211E+00
  -5.66740E+00 -6.22577E+00 -6.76804E+00 -7.29477E+00 -7.80670E+00 -8.30433E+00 -8.78831E+00 -9.25906E+00 -9.71717E+00 -1.01630E+01
  -1.05972E+01 -1.10199E+01 -1.14318E+01 -1.18330E+01 -1.22240E+01 -1.26051E+01 -1.29766E+01 -1.33389E+01 -1.36921E+01 -1.40366E+01
  -1.43727E+01 -1.47005E+01 -1.50203E+01 -1.53323E+01 -1.56368E+01 -1.59338E+01 -1.62236E+01 -1.65063E+01 -1.67823E+01 -1.70514E+01
  -1.73140E+01 -1.75702E+01 -1.78200E+01 -1.80637E+01 -1.83013E+01 -1.85329E+01 -1.87587E+01 -1.89786E+01
 NY background values follow
     8.647E+00    8.665E+00    8.683E+00    8.701E+00    8.719E+00    8.737E+00    8.754E+00    8.772E+00    8.790E+00    8.807E+00
     8.825E+00    8.842E+00    8.859E+00    8.877E+00    8.894E+00    8.911E+00    8.928E+00    8.945E+00    8.962E+00    8.979E+00
     8.996E+00    9.013E+00    9.030E+00    9.047E+00    9.064E+00    9.080E+00    9.097E+00    9.114E+00    9.131E+00    9.147E+00
     9.164E+00    9.181E+00    9.197E+00    9.214E+00    9.230E+00    9.247E+00    9.264E+00    9.280E+00    9.297E+00    9.313E+00
     9.330E+00    9.347E+00    9.363E+00    9.380E+00    9.397E+00    9.413E+00    9.430E+00    9.447E+00    9.464E+00    9.480E+00
     9.497E+00    9.514E+00    9.531E+00    9.548E+00    9.565E+00    9.582E+00    9.599E+00    9.616E+00    9.633E+00    9.650E+00
     9.667E+00    9.685E+00    9.702E+00    9.719E+00    9.737E+00    9.754E+00    9.772E+00    9.790E+00    9.808E+00    9.825E+00
     9.843E+00    9.861E+00    9.879E+00    9.898E+00    9.916E+00    9.934E+00    9.953E+00    9.971E+00    9.990E+00    1.001E+01
     1.003E+01    1.005E+01    1.007E+01    1.008E+01    1.010E+01    1.012E+01    1.014E+01    1.016E+01    1.018E+01    1.020E+01
     1.022E+01    1.024E+01    1.026E+01    1.028E+01    1.030E+01    1.032E+01    1.034E+01    1.037E+01    1.039E+01    1.041E+01
     1.043E+01    1.045E+01    1.047E+01    1.049E+01    1.052E+01    1.054E+01    1.056E+01    1.058E+01    1.061E+01    1.063E+01
     1.065E+01    1.067E+01    1.070E+01    1.072E+01    1.075E+01    1.077E+01    1.079E+01    1.082E+01    1.084E+01    1.087E+01
     1.089E+01    1.092E+01    1.094E+01    1.097E+01    1.099E+01    1.102E+01    1.105E+01    1.107E+01    1.110E+01    1.112E+01
     1.115E+01    1.118E+01    1.120E+01    1.123E+01    1.126E+01    1.129E+01    1.131E+01    1.134E+01    1.137E+01    1.140E+01
     1.142E+01    1.145E+01    1.148E+01    1.150E+01    1.153E+01    1.156E+01    1.158E+01    1.161E+01    1.164E+01    1.166E+01
     1.169E+01    1.172E+01    1.174E+01    1.177E+01    1.179E+01    1.182E+01    1.184E+01    1.187E+01    1.189E+01    1.191E+01
     1.194E+01    1.196E+01    1.198E+01    1.200E+01    1.203E+01    1.205E+01    1.207E+01    1.209E+01    1.211E+01    1.213E+01
     1.215E+01    1.217E+01    1.218E+01    1.220E+01    1.222E+01    1.224E+01    1.225E+01    1.227E+01    1.228E+01    1.229E+01
     1.231E+01    1.232E+01    1.233E+01    1.234E+01    1.235E+01    1.236E+01    1.237E+01    1.238E+01    1.239E+01    1.239E+01
     1.240E+01    1.240E+01    1.241E+01    1.241E+01    1.241E+01    1.242E+01    1.242E+01    1.241E+01    1.241E+01    1.241E+01
     1.241E+01    1.240E+01    1.240E+01    1.239E+01    1.238E+01    1.238E+01    1.237E+01    1.236E+01    1.234E+01    1.233E+01
     1.232E+01    1.230E+01    1.228E+01    1.227E+01    1.225E+01    1.223E+01    1.221E+01    1.218E+01    1.216E+01    1.214E+01
     1.211E+01    1.208E+01    1.205E+01    1.202E+01    1.199E+01    1.196E+01    1.192E+01    1.189E+01    1.185E+01    1.181E+01
     1.177E+01    1.173E+01    1.169E+01    1.164E+01    1.159E+01    1.155E+01    1.150E+01    1.145E+01    1.139E+01    1.134E+01
     1.128E+01    1.123E+01    1.117E+01    1.111E+01    1.105E+01    1.098E+01    1.092E+01    1.085E+01    1.078E+01    1.071E+01
     1.064E+01    1.056E+01    1.048E+01    1.041E+01    1.033E+01    1.025E+01    1.016E+01    1.008E+01    9.992E+00    9.904E+00
     9.814E+00    9.723E+00    9.630E+00    9.536E+00    9.440E+00    9.342E+00    9.243E+00    9.142E+00    9.040E+00    8.936E+00
     8.830E+00    8.724E+00    8.615E+00    8.505E+00    8.394E+00    8.281E+00    8.167E+00    8.052E+00    7.935E+00    7.816E+00
     7.696E+00    7.575E+00    7.453E+00    7.329E+00    7.204E+00    7.077E+00    6.949E+00    6.820E+00    6.690E+00    6.558E+00
     6.425E+00    6.291E+00    6.155E+00    6.018E+00    5.880E+00    5.741E+00    5.601E+00    5.459E+00    5.317E+00    5.173E+00
     5.028E+00    4.882E+00    4.735E+00    4.586E+00    4.437E+00    4.286E+00    4.135E+00    3.982E+00    3.829E+00    3.674E+00
     3.518E+00    3.362E+00    3.204E+00    3.045E+00    2.886E+00    2.725E+00    2.564E+00    2.401E+00    2.238E+00    2.073E+00
     1.908E+00    1.742E+00    1.575E+00    1.408E+00    1.239E+00    1.070E+00    8.994E-01    7.284E-01    5.565E-01    3.839E-01
     2.105E-01    3.638E-02   -1.385E-01   -3.141E-01   -4.904E-01   -6.675E-01   -8.452E-01   -1.024E+00   -1.203E+00   -1.382E+00
    -1.563E+00   -1.744E+00   -1.925E+00   -2.108E+00   -2.290E+00   -2.474E+00   -2.658E+00   -2.842E+00   -3.027E+00   -3.213E+00
    -3.399E+00   -3.586E+00   -3.773E+00   -3.960E+00   -4.148E+00   -4.337E+00   -4.526E+00   -4.715E+00   -4.905E+00   -5.095E+00
    -5.286E+00   -5.477E+00   -5.668E+00   -5.860E+00   -6.052E+00   -6.244E+00   -6.437E+00   -6.630E+00   -6.823E+00   -7.017E+00
    -7.211E+00   -7.405E+00   -7.599E+00   -7.794E+00   -7.988E+00   -8.183E+00   -8.379E+00   -8.574E+00   -8.769E+00   -8.965E+00
    -9.161E+00   -9.357E+00   -9.552E+00   -9.748E+00   -9.944E+00   -1.014E+01   -1.034E+01   -1.053E+01   -1.073E+01   -1.092E+01
    -1.112E+01   -1.132E+01   -1.151E+01   -1.171E+01   -1.190E+01   -1.210E+01   -1.229E+01   -1.249E+01   -1.268E+01   -1.287E+01
    -1.307E+01   -1.326E+01   -1.346E+01   -1.365E+01   -1.384E+01   -1.403E+01   -1.422E+01   -1.442E+01   -1.461E+01   -1.480E+01
    -1.499E+01   -1.518E+01   -1.537E+01   -1.556E+01   -1.574E+01   -1.593E+01   -1.612E+01   -1.631E+01   -1.649E+01   -1.668E+01
    -1.686E+01   -1.704E+01   -1.723E+01   -1.741E+01   -1.759E+01   -1.777E+01   -1.795E+01   -1.813E+01   -1.831E+01   -1.849E+01
    -1.867E+01   -1.884E+01   -1.902E+01   -1.919E+01   -1.937E+01   -1.954E+01   -1.971E+01   -1.988E+01   -2.005E+01   -2.022E+01
    -2.039E+01   -2.056E+01   -2.072E+01   -2.089E+01   -2.105E+01   -2.121E+01   -2.137E+01   -2.153E+01   -2.169E+01   -2.185E+01
    -2.201E+01   -2.216E+01   -2.232E+01   -2.247E+01   -2.262E+01   -2.277E+01   -2.292E+01   -2.307E+01   -2.321E+01   -2.336E+01
    -2.350E+01   -2.365E+01   -2.379E+01   -2.393E+01   -2.406E+01   -2.420E+01   -2.433E+01   -2.447E+01   -2.460E+01   -2.473E+01
    -2.486E+01   -2.498E+01   -2.511E+01   -2.523E+01   -2.536E+01   -2.548E+01   -2.560E+01   -2.571E+01   -2.583E+01   -2.594E+01
    -2.605E+01   -2.616E+01   -2.627E+01   -2.638E+01   -2.648E+01   -2.659E+01   -2.669E+01   -2.679E+01   -2.688E+01   -2.698E+01
    -2.707E+01   -2.716E+01   -2.725E+01   -2.734E+01   -2.742E+01   -2.751E+01   -2.759E+01   -2.767E+01
 Ala      Conc. = 4.70E+03
