 LCModel (Version 6.3-1L) Copyright: S.W. Provencher.          Ref.: Magn. Reson. Med. 30:672-679 (1993).                
 Slice#1 Row#8 Col#14  PD_05_press_1_raw_act
 36 lines in following concentration table = NCONC+1
    Conc.  %SD /Cr+PCr  Metabolite                                         
   13.423 144%   0.568 Ala                                                 
    2.666  80%   0.113 Asp                                                 
    0.000 999%   0.000 Cr                                                  
   23.615  42%   1.000 PCr                                                 
    1.578  81% 6.7E-02 GABA                                                
    1.567  81% 6.6E-02 Glc                                                 
   68.894  58%   2.917 Gln                                                 
  109.693  51%   4.645 Glu                                                 
    0.000 999%   0.000 GPC                                                 
    1.377 230% 5.8E-02 PCh                                                 
    0.000 999%   0.000 GSH                                                 
    0.000 999%   0.000 Ins                                                 
   47.231  47%   2.000 Lac                                                 
   15.035  74%   0.637 NAA                                                 
   10.149 109%   0.430 NAAG                                                
    0.543  78% 2.3E-02 Scyllo                                              
    2.608  81%   0.110 Tau                                                 
    2.172 126% 9.2E-02 -CrCH2                                              
    1.377 230% 5.8E-02 GPC+PCh                                             
   25.185  60%   1.066 NAA+NAAG                                            
   23.615  42%   1.000 Cr+PCr                                              
  178.587  45%   7.562 Glu+Gln                                             
 2.03E+03  11%  86.165 Lip13a                                              
    0.000 999%   0.000 Lip13b                                              
  436.415  21%  18.480 Lip09                                               
    0.000 999%   0.000 MM09                                                
  497.630  23%  21.073 Lip20                                               
   96.807 111%   4.099 MM20                                                
   70.014 131%   2.965 MM12                                                
    0.000 999%   0.000 MM14                                                
  511.597  17%  21.664 MM17                                                
 2.03E+03  11%  86.165 Lip13a+Lip13b                                       
 2.10E+03   9%  89.130 MM14+Lip13a+Lip13b+MM12                             
  436.415  21%  18.480 MM09+Lip09                                          
  594.436  18%  25.172 MM20+Lip20                                          
   6 lines in following misc. output table
  FWHM = 0.061 ppm    S/N =   4                                            
  Data shift = 0.031 ppm                                                   
  Ph:  98 deg     -39.1 deg/ppm                                            
  alphaB,S = 1.2E+00,   4.0E-01                                            
   14 spline knots.   Ns = 6(1)                                            
   7 inflections.     7 extrema                                            
  498 points on ppm-axis = NY
      4.000000     3.992357     3.984714     3.977070     3.969427     3.961784     3.954141     3.946497     3.938854     3.931211
      3.923568     3.915925     3.908281     3.900638     3.892995     3.885352     3.877708     3.870065     3.862422     3.854779
      3.847136     3.839492     3.831849     3.824206     3.816563     3.808919     3.801276     3.793633     3.785990     3.778347
      3.770703     3.763060     3.755417     3.747774     3.740130     3.732487     3.724844     3.717201     3.709558     3.701914
      3.694271     3.686628     3.678985     3.671341     3.663698     3.656055     3.648412     3.640769     3.633125     3.625482
      3.617839     3.610196     3.602552     3.594909     3.587266     3.579623     3.571980     3.564336     3.556693     3.549050
      3.541407     3.533763     3.526120     3.518477     3.510834     3.503191     3.495547     3.487904     3.480261     3.472618
      3.464974     3.457331     3.449688     3.442045     3.434402     3.426758     3.419115     3.411472     3.403829     3.396185
      3.388542     3.380899     3.373256     3.365613     3.357969     3.350326     3.342683     3.335040     3.327396     3.319753
      3.312110     3.304467     3.296824     3.289180     3.281537     3.273894     3.266251     3.258607     3.250964     3.243321
      3.235678     3.228034     3.220391     3.212748     3.205105     3.197462     3.189818     3.182175     3.174532     3.166889
      3.159245     3.151602     3.143959     3.136316     3.128673     3.121029     3.113386     3.105743     3.098100     3.090456
      3.082813     3.075170     3.067527     3.059884     3.052240     3.044597     3.036954     3.029311     3.021667     3.014024
      3.006381     2.998738     2.991095     2.983451     2.975808     2.968165     2.960522     2.952878     2.945235     2.937592
      2.929949     2.922306     2.914662     2.907019     2.899376     2.891733     2.884089     2.876446     2.868803     2.861160
      2.853517     2.845873     2.838230     2.830587     2.822944     2.815300     2.807657     2.800014     2.792371     2.784728
      2.777084     2.769441     2.761798     2.754155     2.746511     2.738868     2.731225     2.723582     2.715939     2.708295
      2.700652     2.693009     2.685366     2.677722     2.670079     2.662436     2.654793     2.647150     2.639506     2.631863
      2.624220     2.616577     2.608933     2.601290     2.593647     2.586004     2.578361     2.570717     2.563074     2.555431
      2.547788     2.540144     2.532501     2.524858     2.517215     2.509572     2.501928     2.494285     2.486642     2.478999
      2.471355     2.463712     2.456069     2.448426     2.440783     2.433139     2.425496     2.417853     2.410210     2.402566
      2.394923     2.387280     2.379637     2.371994     2.364350     2.356707     2.349064     2.341421     2.333777     2.326134
      2.318491     2.310848     2.303205     2.295561     2.287918     2.280275     2.272632     2.264988     2.257345     2.249702
      2.242059     2.234416     2.226772     2.219129     2.211486     2.203843     2.196199     2.188556     2.180913     2.173270
      2.165627     2.157983     2.150340     2.142697     2.135054     2.127410     2.119767     2.112124     2.104481     2.096838
      2.089194     2.081551     2.073908     2.066265     2.058621     2.050978     2.043335     2.035692     2.028049     2.020405
      2.012762     2.005119     1.997476     1.989833     1.982190     1.974546     1.966903     1.959260     1.951617     1.943974
      1.936331     1.928688     1.921045     1.913402     1.905759     1.898115     1.890472     1.882829     1.875186     1.867543
      1.859900     1.852257     1.844614     1.836971     1.829327     1.821684     1.814041     1.806398     1.798755     1.791112
      1.783469     1.775826     1.768183     1.760540     1.752896     1.745253     1.737610     1.729967     1.722324     1.714681
      1.707038     1.699395     1.691752     1.684108     1.676465     1.668822     1.661179     1.653536     1.645893     1.638250
      1.630607     1.622964     1.615321     1.607677     1.600034     1.592391     1.584748     1.577105     1.569462     1.561819
      1.554176     1.546533     1.538890     1.531246     1.523603     1.515960     1.508317     1.500674     1.493031     1.485388
      1.477745     1.470102     1.462458     1.454815     1.447172     1.439529     1.431886     1.424243     1.416600     1.408957
      1.401314     1.393671     1.386027     1.378384     1.370741     1.363098     1.355455     1.347812     1.340169     1.332526
      1.324883     1.317240     1.309596     1.301953     1.294310     1.286667     1.279024     1.271381     1.263738     1.256095
      1.248452     1.240808     1.233165     1.225522     1.217879     1.210236     1.202593     1.194950     1.187307     1.179664
      1.172021     1.164377     1.156734     1.149091     1.141448     1.133805     1.126162     1.118519     1.110876     1.103233
      1.095590     1.087946     1.080303     1.072660     1.065017     1.057374     1.049731     1.042088     1.034445     1.026802
      1.019158     1.011515     1.003872     0.996229     0.988586     0.980943     0.973300     0.965657     0.958014     0.950371
      0.942727     0.935084     0.927441     0.919798     0.912155     0.904512     0.896869     0.889226     0.881583     0.873940
      0.866296     0.858653     0.851010     0.843367     0.835724     0.828081     0.820438     0.812795     0.805152     0.797508
      0.789865     0.782222     0.774579     0.766936     0.759293     0.751650     0.744007     0.736364     0.728721     0.721077
      0.713434     0.705791     0.698148     0.690505     0.682862     0.675219     0.667576     0.659933     0.652290     0.644646
      0.637003     0.629360     0.621717     0.614074     0.606431     0.598788     0.591145     0.583502     0.575858     0.568215
      0.560572     0.552929     0.545286     0.537643     0.530000     0.522357     0.514714     0.507071     0.499427     0.491784
      0.484141     0.476498     0.468855     0.461212     0.453569     0.445925     0.438282     0.430639     0.422996     0.415353
      0.407710     0.400067     0.392424     0.384780     0.377137     0.369494     0.361851     0.354208     0.346565     0.338922
      0.331278     0.323635     0.315992     0.308349     0.300706     0.293063     0.285420     0.277777     0.270133     0.262490
      0.254847     0.247204     0.239561     0.231918     0.224275     0.216631     0.208988     0.201345
 NY phased data points follow
  -4.54702E-01 -1.01721E+00 -3.63439E-01 -7.26036E-01  1.24847E+00 -1.42106E+00 -1.58077E-01 -1.00326E+00 -2.34321E+00 -1.22075E-01
  -9.69312E-01 -5.69249E-01 -9.71345E-01 -1.46719E+00 -1.32582E+00 -5.50768E-01 -2.66925E-01 -2.13554E+00 -1.58674E+00 -6.00728E-01
   1.89778E-01 -9.55244E-01 -7.48636E-01 -1.77073E+00 -1.51595E+00 -2.33533E+00 -2.18957E+00  3.25136E-02  2.27269E-01 -2.93563E+00
  -1.34060E+00 -1.91881E-01 -1.11282E+00 -9.35463E-01 -7.21629E-01  1.82578E-01  1.73205E-01 -5.73601E-01 -6.40898E-01 -2.09133E+00
  -1.44122E+00 -8.96323E-01 -7.96987E-01 -1.95708E+00 -1.50892E+00 -2.72594E-02 -8.95684E-01 -1.81621E+00 -1.32498E+00 -1.86156E+00
  -1.12399E+00 -8.63132E-01 -5.61385E-01 -1.72014E+00 -1.62572E+00  2.86696E-01 -4.46176E-01 -3.13903E+00 -3.04921E+00 -3.38039E+00
  -1.43508E+00 -1.51662E+00 -6.24274E-01 -3.18897E-01 -1.00264E+00 -8.99312E-01 -1.67946E+00 -1.76756E+00 -6.83280E-01 -2.35992E-01
  -1.78303E+00 -9.21866E-01 -1.53888E+00 -1.38928E+00 -2.06250E+00 -1.55151E+00 -9.98394E-01 -4.98953E-01 -1.27143E+00 -2.44345E+00
  -1.27131E+00 -1.50235E+00 -2.13440E+00  8.71469E-02 -1.62922E+00 -8.74049E-01 -9.71052E-01 -3.95394E-01  8.74870E-02 -1.63641E+00
  -1.36773E+00 -2.42750E+00 -5.08405E-01 -1.31915E+00 -1.66877E+00 -9.40055E-01 -9.37644E-01 -1.31987E+00 -1.78583E+00 -1.10138E+00
  -1.07039E+00 -2.53123E+00 -2.66501E+00 -9.73348E-01 -1.34726E+00 -9.22753E-01  1.25165E-01  3.15818E-01 -3.99470E-01 -8.34724E-02
  -1.73449E+00 -2.72532E-01 -1.60058E+00 -1.24016E+00 -2.03945E+00 -1.06030E+00 -8.19109E-01 -7.54084E-02 -1.79444E+00 -1.34918E+00
  -1.29895E+00 -7.68565E-01 -1.10037E+00 -1.20091E+00 -9.65975E-01 -1.18771E-01 -1.46133E+00 -4.71624E-01  1.44963E+00  5.70413E-01
  -2.87714E+00 -2.81172E+00 -1.89980E+00 -7.80778E-01 -1.61208E+00 -3.05640E+00  6.16015E-01 -1.97384E+00 -4.99112E-01 -7.20362E-01
  -1.08956E+00 -1.68813E+00  4.75083E-01 -9.80677E-01 -1.44738E+00  2.51022E-01 -1.21174E+00 -1.42968E+00 -3.57637E+00 -8.42880E-01
  -1.56215E+00 -4.22134E-01 -1.82603E+00 -1.71783E+00 -1.20479E+00 -1.54299E+00 -1.01292E+00  4.69173E-01 -2.87326E+00 -7.04014E-02
  -1.57717E+00 -4.94262E-01  1.83833E-01 -1.63264E+00 -4.74404E-02 -3.61131E-01 -3.20174E-02  1.81859E-02 -9.02231E-01 -1.16546E-01
  -2.72659E+00 -1.69191E+00  5.23420E-01  3.12138E-01 -2.40296E+00  5.57706E-01 -4.42208E-01  4.23584E-01 -4.53022E-01 -9.53780E-01
  -9.91310E-01  2.30334E-01 -4.31151E-01 -2.23682E+00 -1.70035E+00 -1.50195E+00 -1.33666E+00  6.73153E-01 -6.53488E-01 -6.13758E-01
  -2.07915E-02  3.63502E-01  7.87143E-01 -1.08909E+00 -2.83242E+00 -4.63271E-01 -1.78471E+00 -2.07560E+00 -1.22418E+00 -1.23985E+00
   1.16425E+00 -1.57079E+00 -1.54799E+00 -9.72128E-01 -7.14853E-01  1.28625E-01  1.50564E-01 -5.74074E-01  2.98487E-01 -3.22199E-01
  -4.37025E-01 -1.21670E+00 -4.26729E-01 -2.46682E+00  1.56739E+00 -1.07445E+00 -1.10466E-01 -1.30087E+00 -1.43071E-01 -5.43646E-01
  -1.48766E+00 -5.17686E-01  9.99870E-01  4.86913E-02 -1.04670E+00 -1.71683E+00 -1.22724E+00 -3.63208E-01 -8.68054E-01  5.90575E-02
  -4.54251E-01 -1.06510E+00 -9.63548E-01  8.21775E-01  4.74493E-01 -4.78600E-01  8.56254E-01 -8.01204E-01 -1.33771E+00  7.92400E-02
  -9.19373E-01 -5.28198E-01 -2.00807E-01 -1.21894E+00  3.60365E-01 -2.48916E-01 -1.84777E+00 -7.67583E-01 -8.16451E-01  4.78977E-01
  -6.43155E-01  6.05171E-01 -9.68236E-01  4.88639E-01 -8.75112E-01  1.21884E+00  8.02583E-01  1.64699E+00  3.78278E-02  9.02384E-01
  -4.47700E-01  3.84082E-01  1.29815E+00 -1.97372E-01 -1.09791E+00  7.94157E-01 -6.63463E-01  1.43687E-02 -1.58511E+00 -2.24432E-01
   7.13378E-01 -2.77228E-01  9.27988E-02 -2.12295E+00 -9.65991E-01 -1.08323E+00 -1.01041E+00  1.31524E+00 -8.70982E-01 -8.49466E-01
   7.63599E-01  6.24425E-01 -1.12059E+00 -5.90619E-01 -1.66313E+00 -8.66965E-02 -4.15282E-02 -3.17891E-01  4.23411E-01 -4.30380E-01
  -2.31289E-01 -1.52518E+00 -1.28858E+00  1.97577E+00  6.76263E-01 -6.21290E-01 -6.26031E-01 -6.43110E-01  1.00918E+00 -3.58753E-01
   1.62699E+00 -3.61866E-01  3.93320E-01  5.97041E-01 -3.91637E-01 -8.93733E-01 -8.04871E-01 -1.27296E+00  8.96238E-01  2.91996E-01
  -5.90210E-01  9.60029E-01 -7.76204E-01 -1.04148E+00 -2.95441E-01  9.70901E-02 -1.60300E+00  5.29685E-01 -1.04775E-01  1.42539E+00
  -1.95384E-01  9.29023E-01 -3.41109E-01 -1.20535E+00 -4.21440E-01  8.51347E-02  7.38854E-01 -2.99180E-01 -9.36514E-01 -1.32871E+00
  -9.07466E-01 -1.10838E+00 -1.54037E+00 -9.88334E-02 -4.54551E-01 -1.39772E+00 -5.48802E-01 -1.54880E+00 -4.85754E-03 -1.00403E+00
   2.29551E+00  1.20571E+00  8.53498E-01  1.67463E+00 -6.61325E-01  2.19429E-01 -6.00664E-01  8.61559E-01  1.65971E+00  8.22521E-01
   1.24836E+00  2.18111E+00 -2.13209E-01  2.21900E+00  1.30252E+00  1.94932E+00  1.03360E+00  1.46526E+00  3.31325E+00  1.02196E+00
   6.30457E-01  3.13283E+00  1.25447E+00  8.40173E-01  2.25550E+00  2.90223E+00  2.83875E+00  2.48208E+00  1.75277E+00  2.04503E+00
   1.50703E+00  2.69402E-01  2.18113E+00  2.27662E+00  2.61204E-01  2.23269E+00  9.08250E-01 -1.13379E+00  9.12254E-01 -6.23394E-01
   2.25106E+00  6.08699E-01  1.14438E-01  5.81442E-01  9.93115E-01 -4.55212E-01 -1.06340E+00  2.99687E-01 -7.05256E-01 -1.76651E+00
  -2.16497E-01 -5.61616E-01 -6.52819E-01 -1.51451E+00 -2.60391E+00 -2.34023E+00 -1.70192E+00 -8.45920E-01 -1.29157E+00 -1.36490E+00
  -3.18555E+00 -9.38243E-01 -1.98235E+00 -1.77133E+00 -2.56791E+00 -2.41443E+00 -2.92655E+00 -3.28363E+00 -1.69252E+00 -2.15807E+00
  -1.50064E+00 -2.69381E+00 -2.01397E+00 -2.85347E+00 -2.76194E+00 -3.23923E+00 -2.47579E+00 -4.58715E+00 -2.99339E+00 -3.25837E+00
  -2.18835E+00 -4.79055E+00 -3.03054E+00 -2.68358E+00 -3.52080E+00 -2.98219E+00 -3.03225E+00 -3.55143E+00 -3.43343E+00 -3.81641E+00
  -2.50387E+00 -1.76204E+00 -4.46439E+00 -4.15053E+00 -4.12122E+00 -4.43993E+00 -6.02271E+00 -5.57623E+00 -3.32649E+00 -4.94143E+00
  -4.31691E+00 -4.87242E+00 -5.09549E+00 -4.16550E+00 -4.75351E+00 -5.12320E+00 -4.81453E+00 -5.62467E+00 -4.13018E+00 -4.82042E+00
  -4.66695E+00 -5.18279E+00 -4.26703E+00 -4.85599E+00 -5.29676E+00 -7.61947E+00 -5.96928E+00 -6.22608E+00 -5.82000E+00 -5.38332E+00
  -4.77616E+00 -6.61243E+00 -4.55097E+00 -6.69578E+00 -5.70018E+00 -6.86000E+00 -5.73691E+00 -6.07145E+00 -6.50340E+00 -6.41864E+00
  -7.23232E+00 -6.47530E+00 -5.40828E+00 -6.22383E+00 -4.99318E+00 -6.60669E+00 -7.01078E+00 -5.48047E+00 -7.43974E+00 -6.42164E+00
  -6.71021E+00 -6.52336E+00 -6.55238E+00 -6.81463E+00 -6.69614E+00 -7.15457E+00 -6.47114E+00 -6.12296E+00 -6.58984E+00 -6.20455E+00
  -6.12450E+00 -7.12950E+00 -5.13997E+00 -6.60151E+00 -5.67557E+00 -6.00163E+00 -6.42968E+00 -6.52391E+00
 NY points of the fit to the data follow
  -1.09801E+00 -1.07197E+00 -9.40005E-01 -6.57809E-01 -2.38342E-01 -1.05975E+00 -7.09142E-01 -9.73052E-01 -9.96415E-01 -7.17387E-01
  -3.48310E-01 -1.15644E-01 -9.32851E-01 -1.38695E+00 -6.25442E-01 -8.45232E-01 -9.66495E-01 -9.41310E-01 -9.29068E-01 -8.90772E-01
  -7.84179E-01 -9.84837E-01 -9.61065E-01 -1.28865E+00 -1.27210E+00 -1.06852E+00 -1.00156E+00 -3.40416E-01 -4.32177E-01 -1.10805E+00
  -9.81771E-01 -1.63834E+00 -1.28073E+00 -1.24307E+00 -6.93512E-01 -1.43223E-01 -7.23035E-01 -1.01779E+00 -1.00969E+00 -1.42658E+00
  -1.30454E+00 -1.17632E+00 -8.26786E-01 -8.58682E-01 -1.12051E+00 -1.10415E+00 -9.81549E-01 -1.01039E+00 -1.04221E+00 -1.06651E+00
  -1.07357E+00 -1.08578E+00 -1.09681E+00 -1.10822E+00 -1.11310E+00 -1.11201E+00 -1.11870E+00 -1.12639E+00 -1.12382E+00 -1.13175E+00
  -1.13663E+00 -1.13053E+00 -1.13187E+00 -1.14588E+00 -1.13546E+00 -1.15541E+00 -1.14796E+00 -1.14225E+00 -1.14562E+00 -1.15185E+00
  -1.13824E+00 -1.13494E+00 -1.15919E+00 -1.16520E+00 -1.16299E+00 -1.16950E+00 -1.16506E+00 -1.13418E+00 -1.13272E+00 -1.17485E+00
  -1.18078E+00 -1.11241E+00 -1.15707E+00 -1.17051E+00 -1.15232E+00 -1.17617E+00 -1.17020E+00 -1.13817E+00 -1.11615E+00 -1.15118E+00
  -1.21524E+00 -1.18603E+00 -1.16114E+00 -1.16090E+00 -1.15404E+00 -1.19325E+00 -1.19133E+00 -1.18513E+00 -1.06980E+00 -9.66275E-01
  -1.16891E+00 -1.07434E+00 -1.18316E+00 -1.16932E+00 -1.07045E+00 -9.65752E-01 -9.34958E-01 -1.16222E+00 -1.24446E+00 -1.05570E+00
  -1.10876E+00 -1.14359E+00 -1.14912E+00 -1.13478E+00 -1.13040E+00 -1.12898E+00 -1.11421E+00 -1.10214E+00 -1.09269E+00 -1.07489E+00
  -1.07756E+00 -3.25004E-01  1.12754E-01 -1.14411E+00 -5.58015E-01 -1.07571E+00 -9.74225E-01 -4.69160E-01  2.05671E-01  3.65048E-01
  -1.09402E+00 -1.43765E+00 -3.26357E-01 -7.50729E-01 -9.22747E-01 -9.28069E-01 -9.12451E-01 -9.06389E-01 -8.83007E-01 -8.65939E-01
  -8.54680E-01 -8.16237E-01 -8.06466E-01 -8.00789E-01 -7.84144E-01 -7.66917E-01 -7.37103E-01 -7.20702E-01 -7.07587E-01 -7.12426E-01
  -7.06721E-01 -6.79032E-01 -6.71979E-01 -6.56680E-01 -6.48125E-01 -6.86956E-01 -7.06290E-01 -6.90516E-01 -6.78700E-01 -6.68776E-01
  -6.70005E-01 -7.22781E-01 -7.52982E-01 -7.98560E-01 -7.76514E-01 -7.90222E-01 -8.08632E-01 -8.25458E-01 -8.74063E-01 -9.01142E-01
  -9.25643E-01 -9.94956E-01 -9.88826E-01 -9.84754E-01 -9.99384E-01 -1.04281E+00 -1.11620E+00 -1.13105E+00 -1.16665E+00 -1.10809E+00
  -1.10415E+00 -1.18103E+00 -1.23074E+00 -1.20627E+00 -1.22371E+00 -1.19765E+00 -1.19157E+00 -1.20406E+00 -1.27265E+00 -1.36094E+00
  -1.25109E+00 -1.33752E+00 -1.41273E+00 -1.29745E+00 -1.32911E+00 -1.32826E+00 -1.28346E+00 -1.12695E+00 -1.15009E+00 -1.34027E+00
  -1.06799E+00 -1.07966E+00 -1.22385E+00 -1.19098E+00 -9.77054E-01 -1.99371E+00 -1.46735E+00 -8.64254E-01 -1.08938E+00 -9.92737E-01
  -1.28679E+00 -9.21126E-01 -1.28151E+00 -1.80261E+00 -2.53699E-01 -1.13825E+00 -1.32017E+00 -7.73259E-01 -7.02103E-01 -4.21922E-01
  -1.01318E+00 -1.11444E+00 -3.25740E-01 -1.05816E+00 -1.60519E+00 -1.50267E+00 -7.17617E-01 -1.08467E-01 -5.39277E-01 -7.31009E-01
  -2.76337E-01 -6.04222E-01 -3.90460E-01 -3.64723E-01 -4.19704E-01 -1.65326E-01 -1.82367E-01 -3.34062E-01 -1.27388E+00 -4.00922E-01
  -4.90894E-02 -2.22943E-01 -2.48019E-01 -8.12974E-02 -2.61901E-01 -7.51593E-01 -4.89377E-01  1.15603E-01 -2.26095E-01 -2.28219E-01
   9.98472E-02  6.61315E-01 -1.29168E-01 -7.24425E-02 -6.48527E-02  8.73538E-01  6.35244E-01  5.36158E-01  8.15151E-01  9.25088E-02
  -3.53330E-01  1.18945E-01  9.44181E-01  4.84251E-01 -6.97027E-01 -3.98694E-01 -4.98541E-02 -4.44552E-01 -6.86409E-01 -6.27557E-01
  -5.33628E-01 -7.77579E-01 -8.16421E-01 -8.40519E-01 -8.90601E-01 -8.89938E-01 -8.43952E-01 -8.41696E-01 -9.14928E-01 -9.10942E-01
  -8.68979E-01 -8.51953E-01 -8.54133E-01 -8.42838E-01 -7.89506E-01 -7.08371E-01 -6.72210E-01 -6.09707E-01 -5.31180E-01 -4.54030E-01
  -3.82038E-01 -3.02857E-01 -2.17457E-01 -1.32741E-01 -5.41981E-02  2.72432E-02  9.12970E-02  1.55736E-01  2.13622E-01  2.55933E-01
   2.83950E-01  3.01082E-01  3.08826E-01  3.05057E-01  2.81822E-01  2.49908E-01  2.07646E-01  1.51908E-01  8.82920E-02  1.92695E-02
  -5.62965E-02 -1.34889E-01 -2.14602E-01 -2.93804E-01 -3.70204E-01 -4.42364E-01 -5.08725E-01 -5.67652E-01 -6.17105E-01 -6.55176E-01
  -6.78002E-01 -6.38927E-01 -5.11853E-01 -9.21339E-01 -8.72439E-01 -8.58045E-01 -8.86642E-01 -7.27316E-01 -6.56116E-01 -7.16234E-01
  -6.67655E-01 -7.94317E-01 -4.84742E-01 -3.64027E-01 -5.63624E-01 -4.57038E-01 -2.43851E-01  1.88234E-01  4.45624E-01  2.05699E-01
   3.61618E-01  7.53970E-01  1.27157E+00  1.53034E+00  4.27149E-02  9.88334E-01  6.55497E-01  9.86512E-01  1.54965E+00  1.60425E+00
   1.93971E+00  1.54014E+00  6.46116E-01  2.60750E+00  1.54256E+00  1.19693E+00  1.56714E+00  2.44711E+00  3.45262E+00  2.51703E+00
   1.65806E+00  2.57533E+00  2.41008E+00  2.19925E+00  2.07981E+00  1.96688E+00  1.84976E+00  1.72515E+00  1.59235E+00  1.45134E+00
   1.30336E+00  1.14982E+00  9.92621E-01  8.33108E-01  6.72841E-01  5.13024E-01  3.55418E-01  2.01396E-01  5.24887E-02 -9.05297E-02
  -2.26730E-01 -3.55622E-01 -4.76300E-01 -5.88404E-01 -6.91478E-01 -7.85782E-01 -8.71325E-01 -9.48531E-01 -1.01744E+00 -1.07868E+00
  -1.13272E+00 -1.18067E+00 -1.22324E+00 -1.26153E+00 -1.29624E+00 -1.32861E+00 -1.35963E+00 -1.39073E+00 -1.42282E+00 -1.45708E+00
  -1.49421E+00 -1.53532E+00 -1.58108E+00 -1.63242E+00 -1.68958E+00 -1.75300E+00 -1.82258E+00 -1.89856E+00 -1.98064E+00 -2.06872E+00
  -2.16206E+00 -2.26020E+00 -2.36225E+00 -2.46774E+00 -2.57576E+00 -2.68568E+00 -2.79644E+00 -2.90744E+00 -3.01779E+00 -3.12712E+00
  -3.23466E+00 -3.34010E+00 -3.44274E+00 -3.54245E+00 -3.63882E+00 -3.73193E+00 -3.82147E+00 -3.90755E+00 -3.98991E+00 -4.06883E+00
  -4.14424E+00 -4.21651E+00 -4.28552E+00 -4.35158E+00 -4.41462E+00 -4.47505E+00 -4.53288E+00 -4.58848E+00 -4.64176E+00 -4.69304E+00
  -4.74225E+00 -4.78980E+00 -4.83563E+00 -4.88007E+00 -4.92295E+00 -4.96457E+00 -5.00485E+00 -5.04414E+00 -5.08230E+00 -5.11960E+00
  -5.15586E+00 -5.19134E+00 -5.22593E+00 -5.25993E+00 -5.29318E+00 -5.32589E+00 -5.35785E+00 -5.38933E+00 -5.42022E+00 -5.45075E+00
  -5.48074E+00 -5.51038E+00 -5.53946E+00 -5.56827E+00 -5.59665E+00 -5.62483E+00 -5.65257E+00 -5.68009E+00 -5.70719E+00 -5.73414E+00
  -5.76076E+00 -5.78726E+00 -5.81341E+00 -5.83941E+00 -5.86508E+00 -5.89070E+00 -5.91604E+00 -5.94131E+00 -5.96627E+00 -5.99116E+00
  -6.01579E+00 -6.04041E+00 -6.06479E+00 -6.08912E+00 -6.11319E+00 -6.13723E+00 -6.16106E+00 -6.18491E+00 -6.20854E+00 -6.23214E+00
  -6.25551E+00 -6.27889E+00 -6.30209E+00 -6.32532E+00 -6.34834E+00 -6.37135E+00 -6.39415E+00 -6.41699E+00
 NY background values follow
    -1.105E+00   -1.107E+00   -1.110E+00   -1.113E+00   -1.115E+00   -1.118E+00   -1.121E+00   -1.123E+00   -1.126E+00   -1.129E+00
    -1.131E+00   -1.134E+00   -1.136E+00   -1.139E+00   -1.142E+00   -1.144E+00   -1.147E+00   -1.150E+00   -1.152E+00   -1.155E+00
    -1.158E+00   -1.160E+00   -1.163E+00   -1.166E+00   -1.168E+00   -1.171E+00   -1.174E+00   -1.176E+00   -1.179E+00   -1.181E+00
    -1.184E+00   -1.187E+00   -1.189E+00   -1.192E+00   -1.195E+00   -1.197E+00   -1.200E+00   -1.203E+00   -1.205E+00   -1.208E+00
    -1.210E+00   -1.213E+00   -1.216E+00   -1.218E+00   -1.221E+00   -1.224E+00   -1.226E+00   -1.229E+00   -1.231E+00   -1.234E+00
    -1.237E+00   -1.239E+00   -1.242E+00   -1.244E+00   -1.247E+00   -1.250E+00   -1.252E+00   -1.255E+00   -1.258E+00   -1.260E+00
    -1.263E+00   -1.265E+00   -1.268E+00   -1.271E+00   -1.273E+00   -1.276E+00   -1.279E+00   -1.281E+00   -1.284E+00   -1.287E+00
    -1.289E+00   -1.292E+00   -1.295E+00   -1.297E+00   -1.300E+00   -1.303E+00   -1.305E+00   -1.308E+00   -1.311E+00   -1.313E+00
    -1.316E+00   -1.319E+00   -1.322E+00   -1.324E+00   -1.327E+00   -1.330E+00   -1.333E+00   -1.335E+00   -1.338E+00   -1.341E+00
    -1.344E+00   -1.347E+00   -1.349E+00   -1.352E+00   -1.355E+00   -1.358E+00   -1.361E+00   -1.364E+00   -1.367E+00   -1.370E+00
    -1.372E+00   -1.375E+00   -1.378E+00   -1.381E+00   -1.384E+00   -1.387E+00   -1.390E+00   -1.393E+00   -1.396E+00   -1.399E+00
    -1.402E+00   -1.405E+00   -1.409E+00   -1.412E+00   -1.415E+00   -1.418E+00   -1.421E+00   -1.424E+00   -1.427E+00   -1.431E+00
    -1.434E+00   -1.437E+00   -1.441E+00   -1.444E+00   -1.447E+00   -1.451E+00   -1.454E+00   -1.457E+00   -1.461E+00   -1.464E+00
    -1.468E+00   -1.471E+00   -1.475E+00   -1.478E+00   -1.482E+00   -1.485E+00   -1.489E+00   -1.493E+00   -1.496E+00   -1.500E+00
    -1.504E+00   -1.507E+00   -1.511E+00   -1.515E+00   -1.519E+00   -1.523E+00   -1.527E+00   -1.530E+00   -1.534E+00   -1.538E+00
    -1.543E+00   -1.547E+00   -1.551E+00   -1.555E+00   -1.559E+00   -1.563E+00   -1.568E+00   -1.572E+00   -1.576E+00   -1.581E+00
    -1.585E+00   -1.590E+00   -1.595E+00   -1.599E+00   -1.604E+00   -1.609E+00   -1.613E+00   -1.618E+00   -1.623E+00   -1.628E+00
    -1.633E+00   -1.638E+00   -1.643E+00   -1.648E+00   -1.654E+00   -1.659E+00   -1.664E+00   -1.670E+00   -1.675E+00   -1.681E+00
    -1.686E+00   -1.692E+00   -1.698E+00   -1.703E+00   -1.709E+00   -1.715E+00   -1.721E+00   -1.727E+00   -1.733E+00   -1.740E+00
    -1.746E+00   -1.752E+00   -1.759E+00   -1.765E+00   -1.772E+00   -1.778E+00   -1.785E+00   -1.792E+00   -1.799E+00   -1.806E+00
    -1.812E+00   -1.820E+00   -1.827E+00   -1.834E+00   -1.841E+00   -1.848E+00   -1.856E+00   -1.863E+00   -1.871E+00   -1.878E+00
    -1.886E+00   -1.894E+00   -1.902E+00   -1.910E+00   -1.918E+00   -1.926E+00   -1.934E+00   -1.942E+00   -1.950E+00   -1.959E+00
    -1.967E+00   -1.976E+00   -1.984E+00   -1.993E+00   -2.002E+00   -2.011E+00   -2.019E+00   -2.028E+00   -2.037E+00   -2.047E+00
    -2.056E+00   -2.065E+00   -2.074E+00   -2.084E+00   -2.093E+00   -2.103E+00   -2.113E+00   -2.123E+00   -2.132E+00   -2.142E+00
    -2.152E+00   -2.162E+00   -2.172E+00   -2.183E+00   -2.193E+00   -2.203E+00   -2.214E+00   -2.224E+00   -2.235E+00   -2.245E+00
    -2.256E+00   -2.267E+00   -2.278E+00   -2.289E+00   -2.300E+00   -2.311E+00   -2.322E+00   -2.333E+00   -2.345E+00   -2.356E+00
    -2.368E+00   -2.379E+00   -2.391E+00   -2.403E+00   -2.414E+00   -2.426E+00   -2.438E+00   -2.450E+00   -2.462E+00   -2.474E+00
    -2.486E+00   -2.499E+00   -2.511E+00   -2.523E+00   -2.536E+00   -2.549E+00   -2.561E+00   -2.574E+00   -2.587E+00   -2.599E+00
    -2.612E+00   -2.625E+00   -2.638E+00   -2.652E+00   -2.665E+00   -2.678E+00   -2.691E+00   -2.705E+00   -2.718E+00   -2.732E+00
    -2.745E+00   -2.759E+00   -2.773E+00   -2.786E+00   -2.800E+00   -2.814E+00   -2.828E+00   -2.842E+00   -2.856E+00   -2.870E+00
    -2.885E+00   -2.899E+00   -2.913E+00   -2.928E+00   -2.942E+00   -2.957E+00   -2.971E+00   -2.986E+00   -3.001E+00   -3.016E+00
    -3.030E+00   -3.045E+00   -3.060E+00   -3.075E+00   -3.090E+00   -3.106E+00   -3.121E+00   -3.136E+00   -3.151E+00   -3.167E+00
    -3.182E+00   -3.198E+00   -3.213E+00   -3.229E+00   -3.244E+00   -3.260E+00   -3.276E+00   -3.292E+00   -3.308E+00   -3.324E+00
    -3.340E+00   -3.356E+00   -3.372E+00   -3.388E+00   -3.404E+00   -3.420E+00   -3.437E+00   -3.453E+00   -3.470E+00   -3.486E+00
    -3.503E+00   -3.519E+00   -3.536E+00   -3.552E+00   -3.569E+00   -3.586E+00   -3.603E+00   -3.620E+00   -3.636E+00   -3.653E+00
    -3.670E+00   -3.688E+00   -3.705E+00   -3.722E+00   -3.739E+00   -3.756E+00   -3.774E+00   -3.791E+00   -3.808E+00   -3.826E+00
    -3.843E+00   -3.861E+00   -3.878E+00   -3.896E+00   -3.914E+00   -3.931E+00   -3.949E+00   -3.967E+00   -3.985E+00   -4.003E+00
    -4.021E+00   -4.038E+00   -4.056E+00   -4.075E+00   -4.093E+00   -4.111E+00   -4.129E+00   -4.147E+00   -4.165E+00   -4.184E+00
    -4.202E+00   -4.220E+00   -4.239E+00   -4.257E+00   -4.276E+00   -4.294E+00   -4.313E+00   -4.331E+00   -4.350E+00   -4.369E+00
    -4.387E+00   -4.406E+00   -4.425E+00   -4.444E+00   -4.463E+00   -4.481E+00   -4.500E+00   -4.519E+00   -4.538E+00   -4.557E+00
    -4.576E+00   -4.595E+00   -4.615E+00   -4.634E+00   -4.653E+00   -4.672E+00   -4.691E+00   -4.711E+00   -4.730E+00   -4.749E+00
    -4.769E+00   -4.788E+00   -4.808E+00   -4.827E+00   -4.846E+00   -4.866E+00   -4.886E+00   -4.905E+00   -4.925E+00   -4.944E+00
    -4.964E+00   -4.984E+00   -5.003E+00   -5.023E+00   -5.043E+00   -5.063E+00   -5.082E+00   -5.102E+00   -5.122E+00   -5.142E+00
    -5.162E+00   -5.182E+00   -5.202E+00   -5.222E+00   -5.242E+00   -5.262E+00   -5.282E+00   -5.302E+00   -5.322E+00   -5.342E+00
    -5.362E+00   -5.382E+00   -5.402E+00   -5.422E+00   -5.442E+00   -5.462E+00   -5.482E+00   -5.503E+00   -5.523E+00   -5.543E+00
    -5.563E+00   -5.583E+00   -5.604E+00   -5.624E+00   -5.644E+00   -5.664E+00   -5.685E+00   -5.705E+00   -5.725E+00   -5.745E+00
    -5.766E+00   -5.786E+00   -5.806E+00   -5.827E+00   -5.847E+00   -5.867E+00   -5.888E+00   -5.908E+00   -5.928E+00   -5.949E+00
    -5.969E+00   -5.989E+00   -6.010E+00   -6.030E+00   -6.050E+00   -6.071E+00   -6.091E+00   -6.111E+00   -6.132E+00   -6.152E+00
    -6.173E+00   -6.193E+00   -6.213E+00   -6.234E+00   -6.254E+00   -6.274E+00   -6.295E+00   -6.315E+00   -6.336E+00   -6.356E+00
    -6.376E+00   -6.397E+00   -6.417E+00   -6.437E+00   -6.458E+00   -6.478E+00   -6.499E+00   -6.519E+00
 Ala      Conc. = 1.34E+01
