 LCModel (Version 6.3-1L) Copyright: S.W. Provencher.          Ref.: Magn. Reson. Med. 30:672-679 (1993).                
 Slice#3 Row#8 Col#5  PD_05_press_1_raw_act
 36 lines in following concentration table = NCONC+1
    Conc.  %SD /Cr+PCr  Metabolite                                         
    0.000 999%   0.000 Ala                                                 
    0.000 999%   0.000 Asp                                                 
  582.546  24%   0.457 Cr                                                  
  690.805  21%   0.543 PCr                                                 
    0.000 999%   0.000 GABA                                                
    0.000 999%   0.000 Glc                                                 
  607.968  25%   0.477 Gln                                                 
 1.23E+03  14%   0.963 Glu                                                 
  353.436   4%   0.278 GPC                                                 
    0.000 999%   0.000 PCh                                                 
  359.891  12%   0.283 GSH                                                 
  234.215  63%   0.184 Ins                                                 
    0.000 999%   0.000 Lac                                                 
 1.76E+03   5%   1.385 NAA                                                 
  153.211  62%   0.120 NAAG                                                
    0.000 999%   0.000 Scyllo                                              
    0.000 999%   0.000 Tau                                                 
    0.000 999%   0.000 -CrCH2                                              
  353.436   4%   0.278 GPC+PCh                                             
 1.92E+03   3%   1.505 NAA+NAAG                                            
 1.27E+03   3%   1.000 Cr+PCr                                              
 1.83E+03  14%   1.440 Glu+Gln                                             
 1.13E+03  26%   0.885 Lip13a                                              
    0.000 999%   0.000 Lip13b                                              
    0.000 999%   0.000 Lip09                                               
  833.493  17%   0.655 MM09                                                
  247.033  51%   0.194 Lip20                                               
 1.79E+03  14%   1.407 MM20                                                
  274.082  31%   0.215 MM12                                                
  854.615  26%   0.671 MM14                                                
  777.955  21%   0.611 MM17                                                
 1.13E+03  26%   0.885 Lip13a+Lip13b                                       
 2.26E+03  15%   1.772 MM14+Lip13a+Lip13b+MM12                             
  833.493  17%   0.655 MM09+Lip09                                          
 2.04E+03  12%   1.601 MM20+Lip20                                          
   6 lines in following misc. output table
  FWHM = 0.054 ppm    S/N =  16                                            
  Data shift = 0.023 ppm                                                   
  Ph:  -6 deg      -3.5 deg/ppm                                            
  alphaB,S = 5.9E-01,   1.0E+02                                            
   14 spline knots.   Ns = 7(1)                                            
  ( 7) 5 infls.   ( 5) 1 extrs.                                            
  498 points on ppm-axis = NY
      4.000000     3.992357     3.984714     3.977070     3.969427     3.961784     3.954141     3.946497     3.938854     3.931211
      3.923568     3.915925     3.908281     3.900638     3.892995     3.885352     3.877708     3.870065     3.862422     3.854779
      3.847136     3.839492     3.831849     3.824206     3.816563     3.808919     3.801276     3.793633     3.785990     3.778347
      3.770703     3.763060     3.755417     3.747774     3.740130     3.732487     3.724844     3.717201     3.709558     3.701914
      3.694271     3.686628     3.678985     3.671341     3.663698     3.656055     3.648412     3.640769     3.633125     3.625482
      3.617839     3.610196     3.602552     3.594909     3.587266     3.579623     3.571980     3.564336     3.556693     3.549050
      3.541407     3.533763     3.526120     3.518477     3.510834     3.503191     3.495547     3.487904     3.480261     3.472618
      3.464974     3.457331     3.449688     3.442045     3.434402     3.426758     3.419115     3.411472     3.403829     3.396185
      3.388542     3.380899     3.373256     3.365613     3.357969     3.350326     3.342683     3.335040     3.327396     3.319753
      3.312110     3.304467     3.296824     3.289180     3.281537     3.273894     3.266251     3.258607     3.250964     3.243321
      3.235678     3.228034     3.220391     3.212748     3.205105     3.197462     3.189818     3.182175     3.174532     3.166889
      3.159245     3.151602     3.143959     3.136316     3.128673     3.121029     3.113386     3.105743     3.098100     3.090456
      3.082813     3.075170     3.067527     3.059884     3.052240     3.044597     3.036954     3.029311     3.021667     3.014024
      3.006381     2.998738     2.991095     2.983451     2.975808     2.968165     2.960522     2.952878     2.945235     2.937592
      2.929949     2.922306     2.914662     2.907019     2.899376     2.891733     2.884089     2.876446     2.868803     2.861160
      2.853517     2.845873     2.838230     2.830587     2.822944     2.815300     2.807657     2.800014     2.792371     2.784728
      2.777084     2.769441     2.761798     2.754155     2.746511     2.738868     2.731225     2.723582     2.715939     2.708295
      2.700652     2.693009     2.685366     2.677722     2.670079     2.662436     2.654793     2.647150     2.639506     2.631863
      2.624220     2.616577     2.608933     2.601290     2.593647     2.586004     2.578361     2.570717     2.563074     2.555431
      2.547788     2.540144     2.532501     2.524858     2.517215     2.509572     2.501928     2.494285     2.486642     2.478999
      2.471355     2.463712     2.456069     2.448426     2.440783     2.433139     2.425496     2.417853     2.410210     2.402566
      2.394923     2.387280     2.379637     2.371994     2.364350     2.356707     2.349064     2.341421     2.333777     2.326134
      2.318491     2.310848     2.303205     2.295561     2.287918     2.280275     2.272632     2.264988     2.257345     2.249702
      2.242059     2.234416     2.226772     2.219129     2.211486     2.203843     2.196199     2.188556     2.180913     2.173270
      2.165627     2.157983     2.150340     2.142697     2.135054     2.127410     2.119767     2.112124     2.104481     2.096838
      2.089194     2.081551     2.073908     2.066265     2.058621     2.050978     2.043335     2.035692     2.028049     2.020405
      2.012762     2.005119     1.997476     1.989833     1.982190     1.974546     1.966903     1.959260     1.951617     1.943974
      1.936331     1.928688     1.921045     1.913402     1.905759     1.898115     1.890472     1.882829     1.875186     1.867543
      1.859900     1.852257     1.844614     1.836971     1.829327     1.821684     1.814041     1.806398     1.798755     1.791112
      1.783469     1.775826     1.768183     1.760540     1.752896     1.745253     1.737610     1.729967     1.722324     1.714681
      1.707038     1.699395     1.691752     1.684108     1.676465     1.668822     1.661179     1.653536     1.645893     1.638250
      1.630607     1.622964     1.615321     1.607677     1.600034     1.592391     1.584748     1.577105     1.569462     1.561819
      1.554176     1.546533     1.538890     1.531246     1.523603     1.515960     1.508317     1.500674     1.493031     1.485388
      1.477745     1.470102     1.462458     1.454815     1.447172     1.439529     1.431886     1.424243     1.416600     1.408957
      1.401314     1.393671     1.386027     1.378384     1.370741     1.363098     1.355455     1.347812     1.340169     1.332526
      1.324883     1.317240     1.309596     1.301953     1.294310     1.286667     1.279024     1.271381     1.263738     1.256095
      1.248452     1.240808     1.233165     1.225522     1.217879     1.210236     1.202593     1.194950     1.187307     1.179664
      1.172021     1.164377     1.156734     1.149091     1.141448     1.133805     1.126162     1.118519     1.110876     1.103233
      1.095590     1.087946     1.080303     1.072660     1.065017     1.057374     1.049731     1.042088     1.034445     1.026802
      1.019158     1.011515     1.003872     0.996229     0.988586     0.980943     0.973300     0.965657     0.958014     0.950371
      0.942727     0.935084     0.927441     0.919798     0.912155     0.904512     0.896869     0.889226     0.881583     0.873940
      0.866296     0.858653     0.851010     0.843367     0.835724     0.828081     0.820438     0.812795     0.805152     0.797508
      0.789865     0.782222     0.774579     0.766936     0.759293     0.751650     0.744007     0.736364     0.728721     0.721077
      0.713434     0.705791     0.698148     0.690505     0.682862     0.675219     0.667576     0.659933     0.652290     0.644646
      0.637003     0.629360     0.621717     0.614074     0.606431     0.598788     0.591145     0.583502     0.575858     0.568215
      0.560572     0.552929     0.545286     0.537643     0.530000     0.522357     0.514714     0.507071     0.499427     0.491784
      0.484141     0.476498     0.468855     0.461212     0.453569     0.445925     0.438282     0.430639     0.422996     0.415353
      0.407710     0.400067     0.392424     0.384780     0.377137     0.369494     0.361851     0.354208     0.346565     0.338922
      0.331278     0.323635     0.315992     0.308349     0.300706     0.293063     0.285420     0.277777     0.270133     0.262490
      0.254847     0.247204     0.239561     0.231918     0.224275     0.216631     0.208988     0.201345
 NY phased data points follow
   4.34677E+01  4.07557E+01  4.26498E+01  4.31464E+01  4.38340E+01  4.86155E+01  4.96490E+01  5.58897E+01  5.82270E+01  6.33545E+01
   6.21915E+01  6.47396E+01  6.49714E+01  5.73160E+01  5.50826E+01  5.30922E+01  4.59489E+01  4.24550E+01  4.12038E+01  3.78323E+01
   3.65666E+01  3.83135E+01  3.58049E+01  3.64695E+01  3.77591E+01  3.81711E+01  3.75736E+01  3.37928E+01  3.81284E+01  3.63838E+01
   4.00640E+01  4.08638E+01  4.08264E+01  3.88531E+01  3.73062E+01  3.22920E+01  3.47605E+01  3.05527E+01  3.22646E+01  2.91256E+01
   3.36386E+01  2.97315E+01  3.05363E+01  3.10286E+01  3.20486E+01  3.10830E+01  3.31981E+01  3.43148E+01  3.38540E+01  3.52221E+01
   3.01665E+01  2.77994E+01  2.68999E+01  2.84282E+01  2.40093E+01  2.27500E+01  2.60653E+01  2.64397E+01  2.65355E+01  2.46390E+01
   2.36338E+01  2.14849E+01  2.16999E+01  2.05252E+01  2.03004E+01  2.03914E+01  1.92142E+01  1.82385E+01  1.64154E+01  1.52056E+01
   1.45361E+01  1.77583E+01  1.69767E+01  1.78987E+01  2.05553E+01  1.72921E+01  1.97338E+01  1.81626E+01  1.54426E+01  1.62327E+01
   1.84529E+01  1.59065E+01  1.68453E+01  1.45305E+01  1.57573E+01  1.67304E+01  1.79610E+01  1.36279E+01  1.85629E+01  1.73983E+01
   1.54939E+01  1.74757E+01  1.78190E+01  1.65127E+01  1.68181E+01  1.61681E+01  2.04599E+01  1.89373E+01  2.44656E+01  2.62589E+01
   2.99736E+01  3.79219E+01  4.20029E+01  4.79944E+01  4.59323E+01  3.97436E+01  3.77628E+01  2.89734E+01  2.80744E+01  2.44255E+01
   2.14797E+01  1.81682E+01  1.73645E+01  1.65264E+01  1.49334E+01  1.72914E+01  1.46772E+01  1.60681E+01  1.78676E+01  1.48463E+01
   1.53797E+01  1.88479E+01  2.22230E+01  2.53169E+01  3.17092E+01  4.04734E+01  4.73976E+01  5.13876E+01  4.98960E+01  4.51604E+01
   4.09959E+01  3.32766E+01  2.88118E+01  2.40840E+01  2.15810E+01  1.64956E+01  1.47714E+01  1.23590E+01  1.26682E+01  1.09135E+01
   1.37077E+01  1.30851E+01  1.20039E+01  1.33587E+01  9.67453E+00  1.31664E+01  1.26135E+01  1.02487E+01  1.06921E+01  1.13811E+01
   1.04831E+01  8.07260E+00  7.81767E+00  8.41154E+00  9.21628E+00  9.81943E+00  6.54910E+00  5.97237E+00  9.16558E+00  5.95304E+00
   7.29887E+00  4.25798E+00  5.36120E+00  6.90833E+00  7.87532E+00  4.60620E+00  8.30353E+00  8.44281E+00  5.95184E+00  4.24481E+00
   2.17817E+00  4.57801E+00  3.13272E+00 -4.13273E+00 -5.76374E-01  4.37101E-01 -3.00540E+00  2.29079E+00 -1.28075E+00 -1.66848E+00
   4.42928E-01 -3.40865E+00 -2.26076E+00 -2.21311E+00  1.40656E+00  2.18290E+00  9.09015E-01  2.29526E+00  4.24594E+00  3.94770E+00
   8.03265E+00  8.71622E+00  1.09362E+01  1.22194E+01  8.93029E+00  1.01868E+01  8.77284E+00  9.34377E+00  5.53201E+00  5.12439E+00
   6.55821E+00  7.30813E+00  7.24054E+00  1.11695E+01  8.02951E+00  7.29395E+00  5.19170E+00  8.04312E+00  2.70197E+00  3.32265E+00
   3.37151E+00  5.08543E+00  6.61973E+00  8.69056E+00  1.32587E+01  1.38067E+01  1.34383E+01  1.09453E+01  1.38392E+01  8.89539E+00
   1.01952E+01  2.98994E+00  5.66831E+00  4.77771E+00  6.76641E+00  5.33968E+00  9.17634E+00  1.32409E+01  1.24809E+01  1.21103E+01
   1.30346E+01  1.00816E+01  1.49883E+01  1.18731E+01  1.03058E+01  8.26044E+00  1.30359E+01  1.16993E+01  1.07908E+01  1.02556E+01
   1.21942E+01  6.89504E+00  1.10825E+01  8.46167E+00  1.17722E+01  1.23298E+01  1.17705E+01  1.20864E+01  1.26456E+01  1.55574E+01
   1.77228E+01  1.82855E+01  2.11231E+01  2.57199E+01  3.14994E+01  3.27649E+01  3.96102E+01  4.50851E+01  5.87050E+01  7.36488E+01
   7.57200E+01  6.49827E+01  5.77710E+01  4.75485E+01  4.06010E+01  3.03325E+01  2.48928E+01  1.69286E+01  1.61208E+01  1.49045E+01
   9.54745E+00  1.21454E+01  1.31232E+01  1.08441E+01  1.02791E+01  1.04702E+01  9.26118E+00  7.74599E+00  9.89045E+00  7.41149E+00
   8.62629E+00  8.76153E+00  8.51469E+00  8.32004E+00  7.82459E+00  7.09437E+00  7.16634E+00  8.78469E+00  1.08339E+01  6.09934E+00
   6.77040E+00  1.05030E+01  9.00352E+00  7.16947E+00  1.04423E+01  9.43144E+00  8.71620E+00  7.80029E+00  8.90997E+00  9.40578E+00
   1.07458E+01  1.23981E+01  8.49718E+00  9.89723E+00  1.07558E+01  1.36327E+01  1.26807E+01  1.32239E+01  1.20775E+01  1.40185E+01
   1.36284E+01  1.31161E+01  1.20228E+01  1.20914E+01  1.44332E+01  1.26298E+01  1.18805E+01  1.37413E+01  1.11956E+01  1.05631E+01
   1.02106E+01  1.09807E+01  1.20143E+01  9.80636E+00  1.19476E+01  1.22326E+01  1.04683E+01  1.37828E+01  1.02189E+01  1.11079E+01
   1.18933E+01  1.03458E+01  1.01856E+01  1.37980E+01  1.16284E+01  9.89478E+00  8.91482E+00  1.22500E+01  9.25826E+00  1.19633E+01
   9.94598E+00  1.10241E+01  1.05201E+01  1.18955E+01  1.13052E+01  1.28703E+01  1.30187E+01  1.34650E+01  1.21721E+01  1.22632E+01
   1.41168E+01  1.16560E+01  1.18709E+01  1.37903E+01  1.23161E+01  1.19605E+01  9.59168E+00  9.88155E+00  1.16636E+01  9.69592E+00
   1.08846E+01  1.21733E+01  1.10830E+01  1.20225E+01  1.19969E+01  1.00069E+01  1.12561E+01  1.03304E+01  1.02205E+01  1.03284E+01
   1.11181E+01  7.25184E+00  1.30023E+01  1.15891E+01  7.66799E+00  8.64707E+00  1.02106E+01  9.58576E+00  8.75972E+00  5.02164E+00
   6.58796E+00  5.41283E+00  4.78663E+00  6.76797E+00  9.40156E+00  8.15083E+00  7.54828E+00  6.64289E+00  6.49535E+00  6.92991E+00
   8.85477E+00  9.17482E+00  5.92309E+00  8.75852E+00  7.34986E+00  7.87071E+00  8.34164E+00  7.94808E+00  9.56764E+00  8.98302E+00
   1.16145E+01  8.24221E+00  8.94726E+00  9.74729E+00  1.19449E+01  9.79945E+00  1.09722E+01  1.15145E+01  6.05371E+00  1.09947E+01
   8.87114E+00  9.50198E+00  7.48071E+00  7.50499E+00  6.41443E+00  4.09090E+00  4.91061E+00  4.76783E+00  5.93852E+00  5.78979E+00
   3.97249E+00  6.87713E+00  5.99891E+00  4.59833E+00  5.03427E+00  4.86265E+00  4.31453E+00  6.77119E+00  5.80385E+00  6.00696E+00
   7.76928E+00  5.70531E+00  5.09485E+00  3.59046E+00  5.53576E+00  3.83216E+00  3.59097E+00  4.29975E+00  4.59604E+00  4.19577E+00
   4.73953E+00  2.39035E+00  3.27977E+00  4.60610E+00  3.18404E+00  4.08221E+00  3.01724E+00  5.11299E+00  1.03146E+00  4.55722E+00
   3.38189E+00  2.97630E+00  1.21696E+00  3.74616E+00  5.34273E+00  2.81297E+00  2.98958E+00  3.24163E+00  4.09268E+00  4.76168E+00
   5.98932E+00  4.47615E+00  4.92007E+00  1.54485E+00  1.14252E+00  3.72111E+00  6.31187E+00  2.05715E+00  4.33760E+00  5.91833E+00
   9.19784E-01  3.49347E+00  2.94897E+00  1.27534E+00  4.96286E+00  2.90182E+00  3.19022E+00  2.93056E+00  2.95219E+00  1.43066E+00
   3.57817E+00  3.25363E+00  3.12400E+00  5.17208E+00  4.19674E+00  1.43490E+00  2.23249E+00  2.48577E+00  3.27704E+00  4.65303E+00
   3.96482E+00  5.30868E+00  7.09250E-01  3.53424E+00  2.39359E+00  1.74932E+00  4.52792E+00  2.74466E+00
 NY points of the fit to the data follow
   4.03079E+01  4.03352E+01  4.10885E+01  4.24388E+01  4.40307E+01  4.63725E+01  4.94778E+01  5.33753E+01  5.76761E+01  6.13309E+01
   6.33276E+01  6.31811E+01  6.09437E+01  5.73491E+01  5.34677E+01  4.98422E+01  4.65048E+01  4.34447E+01  4.09826E+01  3.91096E+01
   3.76826E+01  3.67595E+01  3.60527E+01  3.56845E+01  3.55966E+01  3.54035E+01  3.52294E+01  3.56268E+01  3.70322E+01  3.90928E+01
   4.08620E+01  4.15927E+01  4.11965E+01  3.99351E+01  3.79620E+01  3.56409E+01  3.35829E+01  3.20166E+01  3.08865E+01  3.03263E+01
   3.03133E+01  3.04717E+01  3.05950E+01  3.06791E+01  3.07926E+01  3.08986E+01  3.08795E+01  3.05777E+01  3.00233E+01  2.94183E+01
   2.87817E+01  2.80779E+01  2.74045E+01  2.68227E+01  2.62635E+01  2.57312E+01  2.52841E+01  2.49258E+01  2.46154E+01  2.43230E+01
   2.40130E+01  2.36488E+01  2.32313E+01  2.27869E+01  2.23666E+01  2.20186E+01  2.17337E+01  2.14819E+01  2.12560E+01  2.10622E+01
   2.08921E+01  2.07241E+01  2.05254E+01  2.02866E+01  2.00229E+01  1.97489E+01  1.94763E+01  1.92126E+01  1.89593E+01  1.87073E+01
   1.84407E+01  1.81710E+01  1.79019E+01  1.76314E+01  1.73445E+01  1.70292E+01  1.67012E+01  1.64045E+01  1.61768E+01  1.60328E+01
   1.59603E+01  1.59308E+01  1.59346E+01  1.59809E+01  1.61143E+01  1.65868E+01  1.83733E+01  2.11725E+01  2.35472E+01  2.61945E+01
   3.06473E+01  3.71888E+01  4.37565E+01  4.71459E+01  4.59979E+01  4.18465E+01  3.67717E+01  3.17566E+01  2.72657E+01  2.34312E+01
   1.99448E+01  1.67040E+01  1.46229E+01  1.39151E+01  1.36356E+01  1.34913E+01  1.34265E+01  1.34363E+01  1.35807E+01  1.41965E+01
   1.64656E+01  2.00081E+01  2.31279E+01  2.66192E+01  3.22782E+01  4.03923E+01  4.84772E+01  5.27422E+01  5.15181E+01  4.65959E+01
   4.05656E+01  3.46790E+01  2.93971E+01  2.47025E+01  2.00699E+01  1.55288E+01  1.24004E+01  1.11265E+01  1.07067E+01  1.07506E+01
   1.10173E+01  1.12623E+01  1.13658E+01  1.13446E+01  1.12136E+01  1.09830E+01  1.06979E+01  1.03711E+01  1.00081E+01  9.65006E+00
   9.30658E+00  9.01963E+00  8.77460E+00  8.51312E+00  8.21083E+00  7.99271E+00  7.86599E+00  7.73432E+00  7.48894E+00  7.03425E+00
   6.58681E+00  6.42840E+00  6.56617E+00  6.74274E+00  6.70318E+00  6.37427E+00  5.88536E+00  5.40700E+00  4.98774E+00  4.56551E+00
   4.19718E+00  3.92181E+00  3.58951E+00  3.14388E+00  2.68806E+00  2.46747E+00  2.59726E+00  2.87622E+00  2.97593E+00  2.79932E+00
   2.55572E+00  2.56760E+00  2.79867E+00  3.04118E+00  3.20418E+00  3.37652E+00  3.82667E+00  4.66029E+00  5.74989E+00  6.83626E+00
   7.65861E+00  7.98923E+00  7.89903E+00  7.62838E+00  7.29221E+00  6.83410E+00  6.31387E+00  6.05574E+00  6.30137E+00  7.05369E+00
   8.07028E+00  9.10693E+00  9.91402E+00  1.01254E+01  9.82101E+00  9.00927E+00  7.60930E+00  5.84282E+00  4.20668E+00  3.36481E+00
   3.41435E+00  4.08271E+00  5.39428E+00  7.40827E+00  9.69064E+00  1.13072E+01  1.16281E+01  1.08762E+01  9.51266E+00  7.56304E+00
   5.38970E+00  3.60666E+00  2.82045E+00  3.31373E+00  4.66566E+00  6.38105E+00  8.11214E+00  9.56825E+00  1.05240E+01  1.09343E+01
   1.10719E+01  1.10924E+01  1.10106E+01  1.09387E+01  1.10769E+01  1.14723E+01  1.20162E+01  1.25238E+01  1.27344E+01  1.25657E+01
   1.20017E+01  1.12075E+01  1.05857E+01  1.04798E+01  1.08570E+01  1.14538E+01  1.21821E+01  1.29628E+01  1.37483E+01  1.46366E+01
   1.55696E+01  1.66216E+01  1.87395E+01  2.41528E+01  3.03337E+01  3.51317E+01  4.04366E+01  4.89487E+01  6.03963E+01  7.00583E+01
   7.26195E+01  6.75680E+01  5.87668E+01  4.92209E+01  4.01775E+01  3.24581E+01  2.59613E+01  1.98342E+01  1.43318E+01  1.15352E+01
   1.05996E+01  1.01156E+01  9.84491E+00  9.71589E+00  9.61609E+00  9.46400E+00  9.28823E+00  9.10125E+00  8.90202E+00  8.69962E+00
   8.51281E+00  8.34790E+00  8.21027E+00  8.10563E+00  8.03109E+00  7.97915E+00  7.94161E+00  7.91978E+00  7.92289E+00  7.95632E+00
   8.01907E+00  8.11391E+00  8.24026E+00  8.39721E+00  8.58297E+00  8.79575E+00  9.03337E+00  9.29409E+00  9.57740E+00  9.88224E+00
   1.02040E+01  1.05364E+01  1.08703E+01  1.11957E+01  1.15027E+01  1.17828E+01  1.20288E+01  1.22333E+01  1.23900E+01  1.24967E+01
   1.25530E+01  1.25598E+01  1.25200E+01  1.24385E+01  1.23216E+01  1.21772E+01  1.20140E+01  1.18405E+01  1.16649E+01  1.14948E+01
   1.13370E+01  1.11973E+01  1.10799E+01  1.09870E+01  1.09195E+01  1.08771E+01  1.08584E+01  1.08614E+01  1.08828E+01  1.09192E+01
   1.09668E+01  1.10223E+01  1.10828E+01  1.11457E+01  1.12089E+01  1.12706E+01  1.13298E+01  1.13866E+01  1.14411E+01  1.14939E+01
   1.15457E+01  1.15972E+01  1.16494E+01  1.17029E+01  1.17584E+01  1.18157E+01  1.18740E+01  1.19323E+01  1.19891E+01  1.20424E+01
   1.20899E+01  1.21287E+01  1.21556E+01  1.21679E+01  1.21628E+01  1.21378E+01  1.20908E+01  1.20200E+01  1.19243E+01  1.18035E+01
   1.16579E+01  1.14888E+01  1.12976E+01  1.10864E+01  1.08580E+01  1.06156E+01  1.03628E+01  1.01030E+01  9.83976E+00  9.57661E+00
   9.31708E+00  9.06460E+00  8.82226E+00  8.59275E+00  8.37844E+00  8.18151E+00  8.00396E+00  7.84754E+00  7.71363E+00  7.60328E+00
   7.51737E+00  7.45673E+00  7.42206E+00  7.41383E+00  7.43217E+00  7.47688E+00  7.54758E+00  7.64362E+00  7.76395E+00  7.90690E+00
   8.07015E+00  8.25075E+00  8.44523E+00  8.64954E+00  8.85898E+00  9.06822E+00  9.27143E+00  9.46262E+00  9.63585E+00  9.78538E+00
   9.90583E+00  9.99234E+00  1.00409E+01  1.00488E+01  1.00143E+01  9.93730E+00  9.81857E+00  9.66020E+00  9.46541E+00  9.23845E+00
   8.98437E+00  8.70863E+00  8.41687E+00  8.11469E+00  7.80757E+00  7.50068E+00  7.19862E+00  6.90527E+00  6.62370E+00  6.35629E+00
   6.10481E+00  5.87043E+00  5.65368E+00  5.45451E+00  5.27243E+00  5.10671E+00  4.95646E+00  4.82069E+00  4.69820E+00  4.58775E+00
   4.48809E+00  4.39812E+00  4.31685E+00  4.24338E+00  4.17675E+00  4.11610E+00  4.06070E+00  4.00996E+00  3.96342E+00  3.92061E+00
   3.88103E+00  3.84425E+00  3.80998E+00  3.77799E+00  3.74811E+00  3.72008E+00  3.69365E+00  3.66861E+00  3.64486E+00  3.62236E+00
   3.60099E+00  3.58061E+00  3.56106E+00  3.54225E+00  3.52420E+00  3.50690E+00  3.49027E+00  3.47419E+00  3.45859E+00  3.44344E+00
   3.42880E+00  3.41465E+00  3.40092E+00  3.38751E+00  3.37439E+00  3.36160E+00  3.34918E+00  3.33709E+00  3.32525E+00  3.31361E+00
   3.30217E+00  3.29100E+00  3.28009E+00  3.26942E+00  3.25891E+00  3.24852E+00  3.23831E+00  3.22832E+00  3.21853E+00  3.20890E+00
   3.19936E+00  3.18993E+00  3.18065E+00  3.17157E+00  3.16265E+00  3.15382E+00  3.14507E+00  3.13643E+00  3.12795E+00  3.11965E+00
   3.11147E+00  3.10336E+00  3.09534E+00  3.08746E+00  3.07977E+00  3.07225E+00  3.06486E+00  3.05757E+00
 NY background values follow
     3.888E+01    3.859E+01    3.830E+01    3.802E+01    3.773E+01    3.744E+01    3.715E+01    3.687E+01    3.658E+01    3.629E+01
     3.600E+01    3.572E+01    3.543E+01    3.514E+01    3.485E+01    3.457E+01    3.428E+01    3.399E+01    3.371E+01    3.342E+01
     3.314E+01    3.285E+01    3.257E+01    3.228E+01    3.200E+01    3.172E+01    3.143E+01    3.115E+01    3.087E+01    3.059E+01
     3.031E+01    3.003E+01    2.976E+01    2.948E+01    2.920E+01    2.893E+01    2.865E+01    2.838E+01    2.811E+01    2.784E+01
     2.757E+01    2.730E+01    2.703E+01    2.676E+01    2.650E+01    2.623E+01    2.597E+01    2.571E+01    2.545E+01    2.519E+01
     2.493E+01    2.467E+01    2.442E+01    2.416E+01    2.391E+01    2.366E+01    2.341E+01    2.317E+01    2.292E+01    2.267E+01
     2.243E+01    2.219E+01    2.195E+01    2.171E+01    2.147E+01    2.124E+01    2.101E+01    2.077E+01    2.054E+01    2.031E+01
     2.009E+01    1.986E+01    1.964E+01    1.942E+01    1.920E+01    1.898E+01    1.876E+01    1.855E+01    1.834E+01    1.812E+01
     1.792E+01    1.771E+01    1.750E+01    1.730E+01    1.710E+01    1.690E+01    1.670E+01    1.651E+01    1.631E+01    1.612E+01
     1.593E+01    1.574E+01    1.556E+01    1.537E+01    1.519E+01    1.501E+01    1.484E+01    1.466E+01    1.449E+01    1.432E+01
     1.415E+01    1.398E+01    1.381E+01    1.365E+01    1.349E+01    1.333E+01    1.317E+01    1.301E+01    1.285E+01    1.270E+01
     1.255E+01    1.240E+01    1.225E+01    1.211E+01    1.196E+01    1.182E+01    1.168E+01    1.154E+01    1.140E+01    1.126E+01
     1.113E+01    1.099E+01    1.086E+01    1.073E+01    1.060E+01    1.047E+01    1.035E+01    1.022E+01    1.010E+01    9.975E+00
     9.855E+00    9.736E+00    9.618E+00    9.501E+00    9.386E+00    9.272E+00    9.160E+00    9.048E+00    8.938E+00    8.830E+00
     8.722E+00    8.616E+00    8.512E+00    8.408E+00    8.306E+00    8.206E+00    8.107E+00    8.009E+00    7.913E+00    7.818E+00
     7.725E+00    7.633E+00    7.543E+00    7.454E+00    7.367E+00    7.281E+00    7.197E+00    7.115E+00    7.034E+00    6.955E+00
     6.877E+00    6.801E+00    6.727E+00    6.654E+00    6.584E+00    6.514E+00    6.447E+00    6.381E+00    6.317E+00    6.255E+00
     6.195E+00    6.136E+00    6.079E+00    6.024E+00    5.971E+00    5.920E+00    5.871E+00    5.823E+00    5.778E+00    5.734E+00
     5.692E+00    5.653E+00    5.615E+00    5.579E+00    5.545E+00    5.513E+00    5.483E+00    5.454E+00    5.427E+00    5.402E+00
     5.378E+00    5.356E+00    5.336E+00    5.317E+00    5.299E+00    5.283E+00    5.268E+00    5.255E+00    5.243E+00    5.232E+00
     5.222E+00    5.213E+00    5.206E+00    5.199E+00    5.194E+00    5.190E+00    5.186E+00    5.184E+00    5.182E+00    5.181E+00
     5.181E+00    5.181E+00    5.183E+00    5.185E+00    5.187E+00    5.190E+00    5.194E+00    5.198E+00    5.202E+00    5.207E+00
     5.212E+00    5.218E+00    5.224E+00    5.230E+00    5.236E+00    5.242E+00    5.249E+00    5.255E+00    5.262E+00    5.268E+00
     5.275E+00    5.282E+00    5.288E+00    5.295E+00    5.302E+00    5.308E+00    5.315E+00    5.322E+00    5.329E+00    5.335E+00
     5.342E+00    5.348E+00    5.355E+00    5.362E+00    5.368E+00    5.375E+00    5.381E+00    5.387E+00    5.394E+00    5.400E+00
     5.406E+00    5.412E+00    5.418E+00    5.424E+00    5.430E+00    5.435E+00    5.441E+00    5.446E+00    5.451E+00    5.457E+00
     5.462E+00    5.466E+00    5.471E+00    5.476E+00    5.480E+00    5.484E+00    5.489E+00    5.492E+00    5.496E+00    5.500E+00
     5.503E+00    5.506E+00    5.509E+00    5.512E+00    5.514E+00    5.516E+00    5.519E+00    5.520E+00    5.522E+00    5.523E+00
     5.524E+00    5.525E+00    5.526E+00    5.526E+00    5.526E+00    5.526E+00    5.526E+00    5.525E+00    5.524E+00    5.523E+00
     5.522E+00    5.520E+00    5.518E+00    5.515E+00    5.513E+00    5.510E+00    5.506E+00    5.503E+00    5.499E+00    5.495E+00
     5.490E+00    5.485E+00    5.480E+00    5.475E+00    5.469E+00    5.463E+00    5.456E+00    5.449E+00    5.442E+00    5.435E+00
     5.427E+00    5.418E+00    5.410E+00    5.401E+00    5.391E+00    5.381E+00    5.371E+00    5.361E+00    5.350E+00    5.338E+00
     5.327E+00    5.315E+00    5.302E+00    5.289E+00    5.276E+00    5.263E+00    5.249E+00    5.235E+00    5.221E+00    5.206E+00
     5.191E+00    5.175E+00    5.160E+00    5.144E+00    5.128E+00    5.111E+00    5.095E+00    5.078E+00    5.061E+00    5.043E+00
     5.026E+00    5.008E+00    4.990E+00    4.972E+00    4.953E+00    4.935E+00    4.916E+00    4.897E+00    4.878E+00    4.859E+00
     4.839E+00    4.820E+00    4.800E+00    4.780E+00    4.760E+00    4.740E+00    4.720E+00    4.699E+00    4.679E+00    4.658E+00
     4.638E+00    4.617E+00    4.596E+00    4.576E+00    4.555E+00    4.534E+00    4.513E+00    4.492E+00    4.471E+00    4.450E+00
     4.429E+00    4.408E+00    4.388E+00    4.367E+00    4.346E+00    4.325E+00    4.304E+00    4.284E+00    4.263E+00    4.243E+00
     4.222E+00    4.202E+00    4.182E+00    4.162E+00    4.142E+00    4.122E+00    4.102E+00    4.083E+00    4.063E+00    4.044E+00
     4.025E+00    4.007E+00    3.988E+00    3.970E+00    3.951E+00    3.933E+00    3.916E+00    3.898E+00    3.881E+00    3.864E+00
     3.848E+00    3.831E+00    3.815E+00    3.799E+00    3.784E+00    3.769E+00    3.754E+00    3.739E+00    3.725E+00    3.711E+00
     3.698E+00    3.684E+00    3.671E+00    3.659E+00    3.646E+00    3.634E+00    3.623E+00    3.611E+00    3.600E+00    3.589E+00
     3.578E+00    3.568E+00    3.557E+00    3.547E+00    3.538E+00    3.528E+00    3.519E+00    3.509E+00    3.501E+00    3.492E+00
     3.483E+00    3.475E+00    3.466E+00    3.458E+00    3.450E+00    3.442E+00    3.435E+00    3.427E+00    3.420E+00    3.412E+00
     3.405E+00    3.398E+00    3.391E+00    3.384E+00    3.377E+00    3.370E+00    3.363E+00    3.357E+00    3.350E+00    3.343E+00
     3.337E+00    3.330E+00    3.324E+00    3.317E+00    3.310E+00    3.304E+00    3.297E+00    3.291E+00    3.284E+00    3.278E+00
     3.272E+00    3.265E+00    3.259E+00    3.252E+00    3.246E+00    3.239E+00    3.233E+00    3.227E+00    3.220E+00    3.214E+00
     3.208E+00    3.201E+00    3.195E+00    3.188E+00    3.182E+00    3.176E+00    3.169E+00    3.163E+00    3.157E+00    3.150E+00
     3.144E+00    3.138E+00    3.132E+00    3.125E+00    3.119E+00    3.113E+00    3.106E+00    3.100E+00    3.094E+00    3.087E+00
     3.081E+00    3.075E+00    3.069E+00    3.062E+00    3.056E+00    3.050E+00    3.043E+00    3.037E+00
 Cr       Conc. = 5.83E+02
