 LCModel (Version 6.3-1L) Copyright: S.W. Provencher.          Ref.: Magn. Reson. Med. 30:672-679 (1993).                
 Slice#1 Row#11 Col#10  PD_05_press_1_raw_act
 36 lines in following concentration table = NCONC+1
    Conc.  %SD /Cr+PCr  Metabolite                                         
   95.488  75%   0.118 Ala                                                 
    0.000 999%   0.000 Asp                                                 
  445.322  27%   0.550 Cr                                                  
  364.545  34%   0.450 PCr                                                 
    7.867 999% 9.7E-03 GABA                                                
   41.480 246% 5.1E-02 Glc                                                 
  521.016  29%   0.643 Gln                                                 
 1.07E+03  17%   1.327 Glu                                                 
  293.222   5%   0.362 GPC                                                 
    0.000 999%   0.000 PCh                                                 
  233.813  21%   0.289 GSH                                                 
 1.13E+03  15%   1.394 Ins                                                 
   61.390 129% 7.6E-02 Lac                                                 
 1.55E+03   6%   1.913 NAA                                                 
  392.598  25%   0.485 NAAG                                                
   65.977  27% 8.1E-02 Scyllo                                              
   78.354 169% 9.7E-02 Tau                                                 
  214.090  32%   0.264 -CrCH2                                              
  293.222   5%   0.362 GPC+PCh                                             
 1.94E+03   3%   2.398 NAA+NAAG                                            
  809.867   5%   1.000 Cr+PCr                                              
 1.60E+03  16%   1.971 Glu+Gln                                             
  878.474  43%   1.085 Lip13a                                              
    0.000 999%   0.000 Lip13b                                              
  164.539 109%   0.203 Lip09                                               
  930.945  21%   1.150 MM09                                                
  168.548  73%   0.208 Lip20                                               
 1.72E+03  15%   2.119 MM20                                                
  252.841  55%   0.312 MM12                                                
 1.00E+03  28%   1.238 MM14                                                
  384.166  34%   0.474 MM17                                                
  878.474  43%   1.085 Lip13a+Lip13b                                       
 2.13E+03  10%   2.635 MM14+Lip13a+Lip13b+MM12                             
 1.10E+03  11%   1.353 MM09+Lip09                                          
 1.88E+03  13%   2.327 MM20+Lip20                                          
   6 lines in following misc. output table
  FWHM = 0.054 ppm    S/N =  14                                            
  Data shift = 0.015 ppm                                                   
  Ph: -19 deg       1.3 deg/ppm                                            
  alphaB,S = 3.1E+00,   1.1E+02                                            
   14 spline knots.   Ns = 7(1)                                            
  (12) 5 infls.   ( 9) 1 extrs.                                            
  498 points on ppm-axis = NY
      4.000000     3.992357     3.984714     3.977070     3.969427     3.961784     3.954141     3.946497     3.938854     3.931211
      3.923568     3.915925     3.908281     3.900638     3.892995     3.885352     3.877708     3.870065     3.862422     3.854779
      3.847136     3.839492     3.831849     3.824206     3.816563     3.808919     3.801276     3.793633     3.785990     3.778347
      3.770703     3.763060     3.755417     3.747774     3.740130     3.732487     3.724844     3.717201     3.709558     3.701914
      3.694271     3.686628     3.678985     3.671341     3.663698     3.656055     3.648412     3.640769     3.633125     3.625482
      3.617839     3.610196     3.602552     3.594909     3.587266     3.579623     3.571980     3.564336     3.556693     3.549050
      3.541407     3.533763     3.526120     3.518477     3.510834     3.503191     3.495547     3.487904     3.480261     3.472618
      3.464974     3.457331     3.449688     3.442045     3.434402     3.426758     3.419115     3.411472     3.403829     3.396185
      3.388542     3.380899     3.373256     3.365613     3.357969     3.350326     3.342683     3.335040     3.327396     3.319753
      3.312110     3.304467     3.296824     3.289180     3.281537     3.273894     3.266251     3.258607     3.250964     3.243321
      3.235678     3.228034     3.220391     3.212748     3.205105     3.197462     3.189818     3.182175     3.174532     3.166889
      3.159245     3.151602     3.143959     3.136316     3.128673     3.121029     3.113386     3.105743     3.098100     3.090456
      3.082813     3.075170     3.067527     3.059884     3.052240     3.044597     3.036954     3.029311     3.021667     3.014024
      3.006381     2.998738     2.991095     2.983451     2.975808     2.968165     2.960522     2.952878     2.945235     2.937592
      2.929949     2.922306     2.914662     2.907019     2.899376     2.891733     2.884089     2.876446     2.868803     2.861160
      2.853517     2.845873     2.838230     2.830587     2.822944     2.815300     2.807657     2.800014     2.792371     2.784728
      2.777084     2.769441     2.761798     2.754155     2.746511     2.738868     2.731225     2.723582     2.715939     2.708295
      2.700652     2.693009     2.685366     2.677722     2.670079     2.662436     2.654793     2.647150     2.639506     2.631863
      2.624220     2.616577     2.608933     2.601290     2.593647     2.586004     2.578361     2.570717     2.563074     2.555431
      2.547788     2.540144     2.532501     2.524858     2.517215     2.509572     2.501928     2.494285     2.486642     2.478999
      2.471355     2.463712     2.456069     2.448426     2.440783     2.433139     2.425496     2.417853     2.410210     2.402566
      2.394923     2.387280     2.379637     2.371994     2.364350     2.356707     2.349064     2.341421     2.333777     2.326134
      2.318491     2.310848     2.303205     2.295561     2.287918     2.280275     2.272632     2.264988     2.257345     2.249702
      2.242059     2.234416     2.226772     2.219129     2.211486     2.203843     2.196199     2.188556     2.180913     2.173270
      2.165627     2.157983     2.150340     2.142697     2.135054     2.127410     2.119767     2.112124     2.104481     2.096838
      2.089194     2.081551     2.073908     2.066265     2.058621     2.050978     2.043335     2.035692     2.028049     2.020405
      2.012762     2.005119     1.997476     1.989833     1.982190     1.974546     1.966903     1.959260     1.951617     1.943974
      1.936331     1.928688     1.921045     1.913402     1.905759     1.898115     1.890472     1.882829     1.875186     1.867543
      1.859900     1.852257     1.844614     1.836971     1.829327     1.821684     1.814041     1.806398     1.798755     1.791112
      1.783469     1.775826     1.768183     1.760540     1.752896     1.745253     1.737610     1.729967     1.722324     1.714681
      1.707038     1.699395     1.691752     1.684108     1.676465     1.668822     1.661179     1.653536     1.645893     1.638250
      1.630607     1.622964     1.615321     1.607677     1.600034     1.592391     1.584748     1.577105     1.569462     1.561819
      1.554176     1.546533     1.538890     1.531246     1.523603     1.515960     1.508317     1.500674     1.493031     1.485388
      1.477745     1.470102     1.462458     1.454815     1.447172     1.439529     1.431886     1.424243     1.416600     1.408957
      1.401314     1.393671     1.386027     1.378384     1.370741     1.363098     1.355455     1.347812     1.340169     1.332526
      1.324883     1.317240     1.309596     1.301953     1.294310     1.286667     1.279024     1.271381     1.263738     1.256095
      1.248452     1.240808     1.233165     1.225522     1.217879     1.210236     1.202593     1.194950     1.187307     1.179664
      1.172021     1.164377     1.156734     1.149091     1.141448     1.133805     1.126162     1.118519     1.110876     1.103233
      1.095590     1.087946     1.080303     1.072660     1.065017     1.057374     1.049731     1.042088     1.034445     1.026802
      1.019158     1.011515     1.003872     0.996229     0.988586     0.980943     0.973300     0.965657     0.958014     0.950371
      0.942727     0.935084     0.927441     0.919798     0.912155     0.904512     0.896869     0.889226     0.881583     0.873940
      0.866296     0.858653     0.851010     0.843367     0.835724     0.828081     0.820438     0.812795     0.805152     0.797508
      0.789865     0.782222     0.774579     0.766936     0.759293     0.751650     0.744007     0.736364     0.728721     0.721077
      0.713434     0.705791     0.698148     0.690505     0.682862     0.675219     0.667576     0.659933     0.652290     0.644646
      0.637003     0.629360     0.621717     0.614074     0.606431     0.598788     0.591145     0.583502     0.575858     0.568215
      0.560572     0.552929     0.545286     0.537643     0.530000     0.522357     0.514714     0.507071     0.499427     0.491784
      0.484141     0.476498     0.468855     0.461212     0.453569     0.445925     0.438282     0.430639     0.422996     0.415353
      0.407710     0.400067     0.392424     0.384780     0.377137     0.369494     0.361851     0.354208     0.346565     0.338922
      0.331278     0.323635     0.315992     0.308349     0.300706     0.293063     0.285420     0.277777     0.270133     0.262490
      0.254847     0.247204     0.239561     0.231918     0.224275     0.216631     0.208988     0.201345
 NY phased data points follow
   3.59084E+00  1.48619E+00  9.49500E-01  2.66879E+00  2.45889E+00  1.95238E+00  4.61730E+00  5.69110E+00  7.02865E+00  8.31633E+00
   1.10482E+01  8.74580E+00  1.29678E+01  8.56501E+00  1.15239E+01  1.10627E+01  4.09406E+00  4.06989E+00  3.73743E+00  3.48998E+00
   1.30122E+00  4.86050E-01  1.41724E+00  3.68921E+00  6.95547E-01 -8.58230E-01  2.36449E+00  1.79922E+00  2.80701E+00 -2.67060E-01
   2.99320E+00  6.06034E+00  5.08070E+00  6.83219E+00  3.87583E+00  4.01843E+00  1.40754E+00  3.48042E+00 -7.70815E-01  1.68483E+00
   5.14272E+00  3.29669E+00  3.45196E+00  5.60192E+00  5.52799E+00  6.11584E+00  8.18800E+00  5.53786E+00  8.64939E+00  6.45566E+00
   6.96062E+00  6.28708E+00  2.37564E+00  1.47873E+00  4.09049E+00  1.26629E+00  4.59246E+00  3.61677E+00  5.96801E-01  3.73638E+00
   6.88189E-01  5.37783E-01  1.66210E+00 -1.02810E-01 -1.33730E+00 -7.82189E-01 -1.97703E+00 -2.14626E+00 -1.81656E+00 -8.04914E-01
  -1.17312E+00  2.22152E+00  1.67975E-01  1.05426E-01  1.97102E+00  4.90962E-01 -7.02076E-01 -2.01309E-01  1.85135E+00 -1.58110E+00
  -1.34241E+00  5.68176E-01 -3.18015E+00  9.11550E-01 -4.87765E-01  9.14711E-01 -3.72635E+00  3.02919E+00 -4.00552E-02 -2.63596E+00
   5.00660E-01  1.67576E+00  6.38243E-01 -2.04037E-01  2.58535E+00  2.08632E+00  1.18541E+00  1.17880E+00  1.99151E+00  4.44978E+00
   9.48844E+00  1.86946E+01  1.98696E+01  2.50927E+01  2.42033E+01  2.03993E+01  1.97889E+01  1.31791E+01  7.64085E+00  4.19739E+00
   2.93733E+00  2.18506E+00 -9.49324E-01  5.68999E-01 -1.39592E+00  1.55661E+00  4.83669E-01  3.26505E+00  5.91310E+00  2.21723E+00
   2.43322E+00  1.25927E+00  3.42125E+00  7.09472E+00  1.06794E+01  1.51265E+01  2.28640E+01  2.48371E+01  2.61132E+01  2.63166E+01
   1.85708E+01  1.35765E+01  6.19964E+00  8.16322E+00  7.89178E+00  2.57343E+00  4.20567E-01 -2.64316E+00 -1.80430E+00 -6.71865E-02
  -8.81257E-01  1.15230E-01 -2.13886E+00  2.83412E+00 -7.68151E-01  1.26556E+00  2.09591E+00  7.42177E-01  2.31062E+00  2.39231E+00
   2.20607E+00 -1.06699E-02  2.68680E+00  6.38092E-01 -3.31672E-01 -2.69362E+00 -2.38066E+00  2.39516E-01  3.06571E+00  1.07407E-01
  -1.97917E+00  1.04686E-01 -2.74677E+00  2.07502E-01 -1.36356E+00 -3.18619E+00 -1.15336E+00 -7.42465E+00 -4.81608E+00 -6.61942E+00
  -1.13699E+01 -9.34831E+00 -8.95618E+00 -9.64706E+00 -9.83554E+00 -1.65861E+01 -9.17302E+00 -1.00254E+01 -7.25859E+00 -9.78858E+00
  -8.77447E+00 -6.93744E+00 -9.50976E+00 -5.66717E+00 -6.53647E+00 -7.77528E+00 -8.66847E+00 -5.30166E+00 -7.42193E+00 -4.70905E+00
  -6.04208E+00 -8.79289E+00 -3.50428E+00 -5.18116E+00 -6.11374E+00 -6.02165E+00 -1.00380E+01 -7.42125E+00 -7.94999E+00 -7.69052E+00
  -4.99653E+00 -3.13396E+00 -2.72637E+00 -1.56475E+00 -7.57394E-01  6.89137E-02 -2.37161E+00  6.11898E-01 -5.52552E+00 -3.16962E+00
  -2.97931E+00 -2.34083E+00  2.17281E+00 -4.02586E-01  4.79079E+00  6.12054E+00  4.71760E+00  6.19776E+00  4.42208E+00  2.38715E+00
  -1.68542E+00 -5.69487E+00 -3.95370E+00 -5.69346E+00 -3.21151E+00  9.11183E-01  1.81665E+00  2.59422E+00  2.38101E+00  1.80676E+00
   3.08807E+00  2.88693E+00  2.33769E+00  4.49951E+00  1.53725E+00  5.20153E+00  2.69616E+00  3.81443E+00  1.33350E+00  1.80233E+00
   1.06662E+00 -1.25730E+00 -2.14343E+00 -7.14907E-01  4.15572E-01  3.73899E+00  3.63305E+00  6.74168E+00  7.23596E+00  6.77731E+00
   8.64944E+00  1.25431E+01  1.22734E+01  2.00693E+01  2.46988E+01  3.30709E+01  3.84973E+01  4.32610E+01  4.71372E+01  5.68678E+01
   6.48647E+01  6.35127E+01  5.57388E+01  3.95396E+01  2.43496E+01  1.39809E+01  1.06459E+01  6.51863E+00  5.53748E+00  2.73568E+00
   1.67604E+00  3.73457E+00 -1.03312E+00  1.18191E+00 -7.54676E-01 -8.86844E-02  1.94320E-01  1.69711E+00 -2.20304E+00  1.33943E+00
   1.15505E+00 -1.63800E-01  1.27583E+00  6.84962E-01  1.72091E+00  2.33531E-01 -2.96538E+00  1.35493E+00 -6.67333E-01  4.56970E-01
   2.08628E+00  1.83468E-01  2.00931E+00 -4.13861E-01 -4.34000E-03  9.31278E-01  1.39595E+00 -9.74721E-01 -1.91447E+00  2.21736E+00
   5.42420E-01  6.71925E-01  6.74353E-01 -1.20360E+00  2.27150E+00  7.01645E-02 -4.52585E-01 -3.09984E-01  2.58397E+00  2.06522E+00
   2.39849E+00  9.83529E-01 -1.27420E+00  1.34654E-01 -1.23682E+00  4.76316E-01  2.36102E+00 -1.32781E+00  2.76056E+00  7.95232E-01
   3.63930E+00  1.69561E+00  1.40970E+00  5.95917E-01  2.51757E+00 -1.68347E+00  1.88650E+00  1.91582E+00  2.68033E+00  2.24104E+00
   1.44435E+00  1.26492E+00  3.73225E+00  3.11609E+00  2.05219E+00  1.49374E+00  2.24448E+00  4.70432E+00  5.82776E+00  5.55744E+00
   6.63014E+00  6.90649E+00  5.22133E+00  6.04672E+00  9.95864E+00  7.49657E+00  1.16726E+01  9.04235E+00  7.39172E+00  7.89655E+00
   6.13362E+00  4.11978E+00  6.24216E+00  5.55297E+00  4.66280E+00  3.58410E+00  5.28070E+00  4.39075E+00  5.00653E+00  3.30055E+00
   4.89521E+00  2.49004E+00  2.77506E+00  2.88731E+00  4.55650E+00  2.80112E+00  2.13652E+00  2.81922E+00  3.97485E+00  1.65443E+00
   2.60224E+00  2.66461E+00  1.27972E+00  3.24675E+00 -3.61988E-01  4.95327E-01  2.61176E+00  1.97648E+00  3.71042E-02  1.95102E-01
   2.94882E-01  1.44229E+00  3.03873E+00  3.07380E+00  1.31179E+00  9.89326E-01 -4.45883E-01  4.25996E+00  3.06192E+00  3.17093E+00
   2.35745E+00  1.37200E+00  3.90352E+00  4.04786E+00  4.76983E+00  5.01490E+00  5.15531E+00  4.68792E+00  5.48481E+00  7.38110E+00
   5.13842E+00  7.20385E+00  4.35760E+00  7.56688E+00  5.64682E+00  8.48385E+00  6.52837E+00  7.54367E+00  5.15048E+00  6.26475E+00
   4.37456E+00  3.63267E+00  4.19856E+00  4.58498E+00  2.04455E+00  1.13139E+00  1.74646E+00  1.11877E+00 -1.57525E+00 -3.54084E-01
  -1.47509E-02  1.92317E+00 -2.34449E-01 -1.48596E+00  1.24631E+00  9.13407E-01 -4.38543E-01  9.59396E-01  2.83821E-01  2.44436E+00
   1.43935E+00  9.36257E-02 -1.57435E+00 -4.63046E-01 -2.37076E+00 -2.27809E+00 -1.72832E+00 -6.97356E-02 -2.24318E+00  4.23879E-01
  -2.02185E+00 -2.59565E+00 -1.03343E-01 -2.25264E+00  1.84649E-01 -1.16264E+00  5.61478E-01 -1.28675E+00 -1.23819E-01 -1.59915E+00
  -2.05967E+00 -3.70387E+00 -3.93516E+00 -1.15486E+00  8.60029E-02 -1.37318E+00 -9.35349E-01  6.01522E-01 -1.14484E+00 -4.83213E-02
  -3.89575E+00 -6.54724E-01 -2.14801E+00  1.10396E-01 -1.40994E+00 -1.83087E+00  4.49189E-01 -4.66139E-01 -3.14230E+00 -1.04261E+00
  -9.78619E-01  2.46972E-01 -1.07553E+00 -3.65814E+00 -2.45374E+00 -4.89025E-01  2.73662E-01 -7.98202E-01  2.28893E+00 -2.10545E-01
   7.61864E-01 -2.12159E+00 -1.59361E+00 -1.67954E+00 -1.20656E+00 -3.43263E-01 -1.56433E-01 -3.28221E+00 -2.23621E+00 -2.04446E+00
  -1.71446E+00  2.40970E+00 -2.72719E+00 -3.59651E+00 -2.72711E-01  1.32992E+00 -1.09231E+00 -1.09219E+00
 NY points of the fit to the data follow
   2.96169E-01 -8.05855E-02  2.17860E-02  2.73095E-01  7.76455E-01  1.95987E+00  3.60948E+00  5.37411E+00  7.12130E+00  8.76914E+00
   1.02623E+01  1.14291E+01  1.19198E+01  1.14252E+01  9.93970E+00  7.80692E+00  5.63083E+00  4.03886E+00  3.14622E+00  2.45336E+00
   1.79407E+00  1.31522E+00  1.02095E+00  9.58914E-01  1.02323E+00  1.05997E+00  1.12668E+00  1.45908E+00  2.30817E+00  3.70847E+00
   5.41895E+00  6.90996E+00  7.59002E+00  7.24181E+00  6.02010E+00  4.38283E+00  2.82414E+00  1.49692E+00  4.84463E-01  6.52885E-02
   3.73418E-01  1.16714E+00  2.09555E+00  3.07921E+00  4.23286E+00  5.60708E+00  7.07184E+00  8.16949E+00  8.31843E+00  7.30003E+00
   5.34302E+00  3.10403E+00  1.38129E+00  4.85236E-01  1.61638E-01  1.17409E-01  3.09620E-01  7.57217E-01  1.33757E+00  1.87989E+00
   2.22889E+00  2.20812E+00  1.76278E+00  9.93550E-01  2.01542E-01 -2.84865E-01 -4.00253E-01 -2.47413E-01  7.83270E-02  4.83955E-01
   8.75449E-01  1.19317E+00  1.37968E+00  1.40036E+00  1.25920E+00  1.00370E+00  7.04898E-01  4.06353E-01  1.38374E-01 -7.46379E-02
  -1.26118E-01 -8.95527E-02 -4.51970E-02  3.32795E-02  1.82665E-01  3.79694E-01  4.86748E-01  3.31529E-01 -1.52487E-01 -8.08792E-01
  -1.39708E+00 -1.71892E+00 -1.71709E+00 -1.55848E+00 -1.43388E+00 -1.18084E+00  8.75639E-02  2.22037E+00  4.39283E+00  6.86298E+00
   1.02853E+01  1.50040E+01  2.03800E+01  2.46697E+01  2.59273E+01  2.34103E+01  1.80952E+01  1.20622E+01  7.26855E+00  4.29843E+00
   2.33080E+00  5.97089E-01 -5.36453E-01 -9.54253E-01 -1.14516E+00 -1.25972E+00 -1.33629E+00 -1.36879E+00 -1.30537E+00 -8.66484E-01
   4.42458E-01  2.61756E+00  5.12781E+00  7.97822E+00  1.16117E+01  1.62189E+01  2.12181E+01  2.51524E+01  2.63483E+01  2.41212E+01
   1.93286E+01  1.37978E+01  9.21067E+00  6.10226E+00  3.83834E+00  1.82348E+00  2.22870E-01 -6.66598E-01 -9.82728E-01 -8.95753E-01
  -5.79079E-01 -2.47536E-01 -3.93904E-02 -2.80910E-03 -1.39008E-01 -3.78042E-01 -6.32075E-01 -8.72541E-01 -1.08989E+00 -1.28100E+00
  -1.45936E+00 -1.61331E+00 -1.75366E+00 -1.91237E+00 -2.11759E+00 -2.27045E+00 -2.32782E+00 -2.33003E+00 -2.36052E+00 -2.59660E+00
  -3.00660E+00 -3.37264E+00 -3.49786E+00 -3.37162E+00 -3.15199E+00 -3.10153E+00 -3.38863E+00 -3.93089E+00 -4.50855E+00 -4.98156E+00
  -5.26886E+00 -5.37098E+00 -5.47032E+00 -5.68596E+00 -6.03040E+00 -6.37230E+00 -6.49572E+00 -6.30151E+00 -5.95628E+00 -5.73612E+00
  -5.78725E+00 -5.92264E+00 -5.89521E+00 -5.59324E+00 -5.11424E+00 -4.64458E+00 -4.20600E+00 -3.62754E+00 -2.77595E+00 -1.74652E+00
  -8.43858E-01 -4.15383E-01 -4.94451E-01 -8.90575E-01 -1.37817E+00 -1.82229E+00 -2.12742E+00 -2.12067E+00 -1.77691E+00 -1.12952E+00
  -2.71564E-01  6.31190E-01  1.29773E+00  1.44740E+00  1.09564E+00  2.08861E-01 -1.23803E+00 -3.01519E+00 -4.65679E+00 -5.55338E+00
  -5.52428E+00 -4.68756E+00 -3.17138E+00 -1.17901E+00  8.92212E-01  2.46844E+00  3.07582E+00  2.56773E+00  1.01389E+00 -1.28080E+00
  -3.58163E+00 -5.27872E+00 -6.02893E+00 -5.64768E+00 -4.25187E+00 -2.16270E+00 -1.87948E-02  1.55118E+00  2.30348E+00  2.43040E+00
   2.30654E+00  2.08692E+00  1.85560E+00  1.80733E+00  2.05686E+00  2.47654E+00  2.93373E+00  3.35388E+00  3.61724E+00  3.58512E+00
   3.13579E+00  2.40279E+00  1.76178E+00  1.56476E+00  1.90355E+00  2.65486E+00  3.62812E+00  4.58844E+00  5.61084E+00  6.98229E+00
   8.42578E+00  9.94721E+00  1.23084E+01  1.77189E+01  2.51037E+01  3.20104E+01  3.81091E+01  4.41596E+01  5.09677E+01  5.79458E+01
   6.24800E+01  6.13452E+01  5.33488E+01  4.05597E+01  2.74232E+01  1.79292E+01  1.24529E+01  8.66249E+00  5.08688E+00  2.97649E+00
   2.25793E+00  1.86702E+00  1.62578E+00  1.49707E+00  1.39826E+00  1.24911E+00  1.04198E+00  7.87227E-01  5.24861E-01  3.00729E-01
   1.36189E-01  1.80845E-02 -6.49495E-02 -1.16003E-01 -1.42899E-01 -1.64841E-01 -1.97581E-01 -2.33185E-01 -2.51180E-01 -2.39833E-01
  -1.97014E-01 -1.22133E-01 -2.12948E-02  9.06022E-02  1.96194E-01  2.85705E-01  3.58953E-01  4.21661E-01  4.80400E-01  5.37877E-01
   5.98012E-01  6.62747E-01  7.25396E-01  7.75948E-01  8.07813E-01  8.20520E-01  8.17625E-01  8.00533E-01  7.70204E-01  7.31618E-01
   6.89360E-01  6.47038E-01  6.08635E-01  5.77649E-01  5.58192E-01  5.54675E-01  5.72181E-01  6.15786E-01  6.92148E-01  8.12887E-01
   1.00025E+00  1.22432E+00  1.42956E+00  1.63885E+00  1.87102E+00  2.10347E+00  2.26804E+00  2.27998E+00  2.14137E+00  1.97228E+00
   1.86871E+00  1.92541E+00  2.20349E+00  2.69811E+00  3.35503E+00  4.10974E+00  4.88547E+00  5.54815E+00  5.98172E+00  6.20820E+00
   6.34068E+00  6.46400E+00  6.56989E+00  6.63604E+00  6.66980E+00  6.69595E+00  6.66095E+00  6.50083E+00  6.22548E+00  5.89042E+00
   5.55758E+00  5.30480E+00  5.18522E+00  5.19910E+00  5.30017E+00  5.42779E+00  5.52484E+00  5.51825E+00  5.35723E+00  5.07661E+00
   4.75101E+00  4.43651E+00  4.13517E+00  3.82461E+00  3.51952E+00  3.23729E+00  2.97076E+00  2.71699E+00  2.47613E+00  2.24898E+00
   2.03711E+00  1.84200E+00  1.66542E+00  1.50863E+00  1.37303E+00  1.25972E+00  1.17022E+00  1.10581E+00  1.06794E+00  1.05765E+00
   1.07625E+00  1.12482E+00  1.20480E+00  1.31721E+00  1.46299E+00  1.64239E+00  1.85547E+00  2.10155E+00  2.37953E+00  2.68707E+00
   3.02090E+00  3.37632E+00  3.74781E+00  4.12857E+00  4.51100E+00  4.88627E+00  5.24509E+00  5.57763E+00  5.87455E+00  6.12680E+00
   6.32653E+00  6.46681E+00  6.54261E+00  6.55067E+00  6.49022E+00  6.36239E+00  6.17062E+00  5.91986E+00  5.61695E+00  5.26985E+00
   4.88770E+00  4.47976E+00  4.05547E+00  3.62355E+00  3.19234E+00  2.76906E+00  2.36012E+00  1.97038E+00  1.60363E+00  1.26223E+00
   9.47775E-01  6.60762E-01  4.01138E-01  1.67871E-01 -4.03571E-02 -2.25411E-01 -3.88996E-01 -5.33113E-01 -6.59567E-01 -7.70451E-01
  -8.67521E-01 -9.52574E-01 -1.02692E+00 -1.09195E+00 -1.14875E+00 -1.19859E+00 -1.24231E+00 -1.28080E+00 -1.31453E+00 -1.34416E+00
  -1.37014E+00 -1.39309E+00 -1.41329E+00 -1.43113E+00 -1.44667E+00 -1.46027E+00 -1.47211E+00 -1.48253E+00 -1.49157E+00 -1.49940E+00
  -1.50596E+00 -1.51153E+00 -1.51614E+00 -1.52003E+00 -1.52312E+00 -1.52549E+00 -1.52708E+00 -1.52813E+00 -1.52862E+00 -1.52872E+00
  -1.52828E+00 -1.52738E+00 -1.52597E+00 -1.52427E+00 -1.52221E+00 -1.51991E+00 -1.51720E+00 -1.51418E+00 -1.51082E+00 -1.50731E+00
  -1.50356E+00 -1.49963E+00 -1.49535E+00 -1.49087E+00 -1.48615E+00 -1.48136E+00 -1.47636E+00 -1.47121E+00 -1.46576E+00 -1.46019E+00
  -1.45444E+00 -1.44866E+00 -1.44269E+00 -1.43656E+00 -1.43017E+00 -1.42370E+00 -1.41709E+00 -1.41045E+00 -1.40357E+00 -1.39654E+00
  -1.38927E+00 -1.38193E+00 -1.37445E+00 -1.36688E+00 -1.35902E+00 -1.35097E+00 -1.34265E+00 -1.33424E+00
 NY background values follow
    -1.938E+00   -1.944E+00   -1.950E+00   -1.956E+00   -1.962E+00   -1.968E+00   -1.973E+00   -1.979E+00   -1.985E+00   -1.991E+00
    -1.997E+00   -2.003E+00   -2.009E+00   -2.014E+00   -2.020E+00   -2.026E+00   -2.032E+00   -2.038E+00   -2.044E+00   -2.049E+00
    -2.055E+00   -2.061E+00   -2.067E+00   -2.073E+00   -2.079E+00   -2.085E+00   -2.090E+00   -2.096E+00   -2.102E+00   -2.108E+00
    -2.114E+00   -2.119E+00   -2.125E+00   -2.131E+00   -2.137E+00   -2.143E+00   -2.148E+00   -2.154E+00   -2.160E+00   -2.166E+00
    -2.172E+00   -2.177E+00   -2.183E+00   -2.189E+00   -2.195E+00   -2.200E+00   -2.206E+00   -2.212E+00   -2.218E+00   -2.223E+00
    -2.229E+00   -2.235E+00   -2.241E+00   -2.246E+00   -2.252E+00   -2.258E+00   -2.263E+00   -2.269E+00   -2.275E+00   -2.280E+00
    -2.286E+00   -2.292E+00   -2.297E+00   -2.303E+00   -2.309E+00   -2.314E+00   -2.320E+00   -2.326E+00   -2.331E+00   -2.337E+00
    -2.342E+00   -2.348E+00   -2.353E+00   -2.359E+00   -2.364E+00   -2.370E+00   -2.375E+00   -2.381E+00   -2.386E+00   -2.392E+00
    -2.397E+00   -2.403E+00   -2.408E+00   -2.414E+00   -2.419E+00   -2.424E+00   -2.430E+00   -2.435E+00   -2.441E+00   -2.446E+00
    -2.451E+00   -2.456E+00   -2.462E+00   -2.467E+00   -2.472E+00   -2.478E+00   -2.483E+00   -2.488E+00   -2.493E+00   -2.498E+00
    -2.504E+00   -2.509E+00   -2.514E+00   -2.519E+00   -2.524E+00   -2.529E+00   -2.534E+00   -2.539E+00   -2.544E+00   -2.549E+00
    -2.554E+00   -2.559E+00   -2.564E+00   -2.569E+00   -2.574E+00   -2.579E+00   -2.583E+00   -2.588E+00   -2.593E+00   -2.598E+00
    -2.603E+00   -2.607E+00   -2.612E+00   -2.617E+00   -2.621E+00   -2.626E+00   -2.631E+00   -2.635E+00   -2.640E+00   -2.644E+00
    -2.649E+00   -2.653E+00   -2.658E+00   -2.662E+00   -2.666E+00   -2.671E+00   -2.675E+00   -2.680E+00   -2.684E+00   -2.688E+00
    -2.692E+00   -2.696E+00   -2.701E+00   -2.705E+00   -2.709E+00   -2.713E+00   -2.717E+00   -2.721E+00   -2.725E+00   -2.729E+00
    -2.733E+00   -2.736E+00   -2.740E+00   -2.744E+00   -2.748E+00   -2.751E+00   -2.755E+00   -2.758E+00   -2.762E+00   -2.765E+00
    -2.769E+00   -2.772E+00   -2.776E+00   -2.779E+00   -2.782E+00   -2.785E+00   -2.788E+00   -2.791E+00   -2.794E+00   -2.797E+00
    -2.800E+00   -2.803E+00   -2.806E+00   -2.808E+00   -2.811E+00   -2.813E+00   -2.816E+00   -2.818E+00   -2.821E+00   -2.823E+00
    -2.825E+00   -2.827E+00   -2.829E+00   -2.832E+00   -2.833E+00   -2.835E+00   -2.837E+00   -2.839E+00   -2.841E+00   -2.842E+00
    -2.844E+00   -2.845E+00   -2.847E+00   -2.848E+00   -2.849E+00   -2.850E+00   -2.852E+00   -2.853E+00   -2.854E+00   -2.855E+00
    -2.855E+00   -2.856E+00   -2.857E+00   -2.858E+00   -2.858E+00   -2.859E+00   -2.859E+00   -2.860E+00   -2.860E+00   -2.860E+00
    -2.861E+00   -2.861E+00   -2.861E+00   -2.861E+00   -2.861E+00   -2.861E+00   -2.861E+00   -2.861E+00   -2.860E+00   -2.860E+00
    -2.860E+00   -2.859E+00   -2.859E+00   -2.858E+00   -2.858E+00   -2.857E+00   -2.856E+00   -2.855E+00   -2.854E+00   -2.854E+00
    -2.853E+00   -2.852E+00   -2.850E+00   -2.849E+00   -2.848E+00   -2.847E+00   -2.846E+00   -2.844E+00   -2.843E+00   -2.841E+00
    -2.840E+00   -2.838E+00   -2.836E+00   -2.835E+00   -2.833E+00   -2.831E+00   -2.829E+00   -2.827E+00   -2.825E+00   -2.823E+00
    -2.821E+00   -2.819E+00   -2.817E+00   -2.814E+00   -2.812E+00   -2.810E+00   -2.807E+00   -2.805E+00   -2.802E+00   -2.800E+00
    -2.797E+00   -2.794E+00   -2.792E+00   -2.789E+00   -2.786E+00   -2.783E+00   -2.780E+00   -2.777E+00   -2.774E+00   -2.771E+00
    -2.768E+00   -2.764E+00   -2.761E+00   -2.758E+00   -2.754E+00   -2.751E+00   -2.747E+00   -2.744E+00   -2.740E+00   -2.737E+00
    -2.733E+00   -2.729E+00   -2.726E+00   -2.722E+00   -2.718E+00   -2.714E+00   -2.710E+00   -2.706E+00   -2.702E+00   -2.698E+00
    -2.694E+00   -2.689E+00   -2.685E+00   -2.681E+00   -2.677E+00   -2.672E+00   -2.668E+00   -2.663E+00   -2.659E+00   -2.654E+00
    -2.650E+00   -2.645E+00   -2.640E+00   -2.635E+00   -2.631E+00   -2.626E+00   -2.621E+00   -2.616E+00   -2.611E+00   -2.606E+00
    -2.601E+00   -2.596E+00   -2.591E+00   -2.586E+00   -2.581E+00   -2.575E+00   -2.570E+00   -2.565E+00   -2.559E+00   -2.554E+00
    -2.548E+00   -2.543E+00   -2.537E+00   -2.532E+00   -2.526E+00   -2.521E+00   -2.515E+00   -2.509E+00   -2.504E+00   -2.498E+00
    -2.492E+00   -2.486E+00   -2.480E+00   -2.474E+00   -2.468E+00   -2.462E+00   -2.456E+00   -2.450E+00   -2.444E+00   -2.438E+00
    -2.432E+00   -2.426E+00   -2.419E+00   -2.413E+00   -2.407E+00   -2.400E+00   -2.394E+00   -2.388E+00   -2.381E+00   -2.375E+00
    -2.368E+00   -2.362E+00   -2.355E+00   -2.349E+00   -2.342E+00   -2.335E+00   -2.329E+00   -2.322E+00   -2.315E+00   -2.308E+00
    -2.302E+00   -2.295E+00   -2.288E+00   -2.281E+00   -2.274E+00   -2.267E+00   -2.260E+00   -2.253E+00   -2.246E+00   -2.239E+00
    -2.232E+00   -2.225E+00   -2.218E+00   -2.211E+00   -2.204E+00   -2.196E+00   -2.189E+00   -2.182E+00   -2.175E+00   -2.167E+00
    -2.160E+00   -2.153E+00   -2.145E+00   -2.138E+00   -2.130E+00   -2.123E+00   -2.115E+00   -2.108E+00   -2.101E+00   -2.093E+00
    -2.085E+00   -2.078E+00   -2.070E+00   -2.063E+00   -2.055E+00   -2.047E+00   -2.040E+00   -2.032E+00   -2.024E+00   -2.017E+00
    -2.009E+00   -2.001E+00   -1.993E+00   -1.985E+00   -1.978E+00   -1.970E+00   -1.962E+00   -1.954E+00   -1.946E+00   -1.938E+00
    -1.930E+00   -1.922E+00   -1.914E+00   -1.906E+00   -1.898E+00   -1.890E+00   -1.882E+00   -1.874E+00   -1.866E+00   -1.858E+00
    -1.850E+00   -1.842E+00   -1.834E+00   -1.826E+00   -1.818E+00   -1.810E+00   -1.801E+00   -1.793E+00   -1.785E+00   -1.777E+00
    -1.769E+00   -1.761E+00   -1.752E+00   -1.744E+00   -1.736E+00   -1.728E+00   -1.719E+00   -1.711E+00   -1.703E+00   -1.695E+00
    -1.686E+00   -1.678E+00   -1.670E+00   -1.661E+00   -1.653E+00   -1.645E+00   -1.637E+00   -1.628E+00   -1.620E+00   -1.612E+00
    -1.603E+00   -1.595E+00   -1.586E+00   -1.578E+00   -1.570E+00   -1.561E+00   -1.553E+00   -1.545E+00   -1.536E+00   -1.528E+00
    -1.520E+00   -1.511E+00   -1.503E+00   -1.494E+00   -1.486E+00   -1.478E+00   -1.469E+00   -1.461E+00   -1.452E+00   -1.444E+00
    -1.436E+00   -1.427E+00   -1.419E+00   -1.410E+00   -1.402E+00   -1.394E+00   -1.385E+00   -1.377E+00   -1.368E+00   -1.360E+00
    -1.352E+00   -1.343E+00   -1.335E+00   -1.326E+00   -1.318E+00   -1.309E+00   -1.301E+00   -1.293E+00   -1.284E+00   -1.276E+00
    -1.267E+00   -1.259E+00   -1.251E+00   -1.242E+00   -1.234E+00   -1.225E+00   -1.217E+00   -1.208E+00
 Ala      Conc. = 9.55E+01
