 LCModel (Version 6.3-1L) Copyright: S.W. Provencher.          Ref.: Magn. Reson. Med. 30:672-679 (1993).                
 Slice#3 Row#3 Col#7  PD_05_press_1_raw_act
 36 lines in following concentration table = NCONC+1
    Conc.  %SD /Cr+PCr  Metabolite                                         
  319.629  65%   0.201 Ala                                                 
    0.000 999%   0.000 Asp                                                 
  748.913  38%   0.470 Cr                                                  
  845.033  34%   0.530 PCr                                                 
  299.084  61%   0.188 GABA                                                
    0.000 999%   0.000 Glc                                                 
 2.72E+03  16%   1.707 Gln                                                 
 2.88E+03  18%   1.804 Glu                                                 
  458.806   5%   0.288 GPC                                                 
    0.000 999%   0.000 PCh                                                 
  786.442  13%   0.493 GSH                                                 
 2.43E+03  15%   1.526 Ins                                                 
  944.447  25%   0.593 Lac                                                 
 1.93E+03   4%   1.211 NAA                                                 
    0.000 999%   0.000 NAAG                                                
  133.981  23% 8.4E-02 Scyllo                                              
    0.000 999%   0.000 Tau                                                 
   99.364 136% 6.2E-02 -CrCH2                                              
  458.806   5%   0.288 GPC+PCh                                             
 1.93E+03   4%   1.211 NAA+NAAG                                            
 1.59E+03   4%   1.000 Cr+PCr                                              
 5.60E+03  15%   3.511 Glu+Gln                                             
 5.48E+03  10%   3.440 Lip13a                                              
    0.000 999%   0.000 Lip13b                                              
 1.42E+03  12%   0.888 Lip09                                               
   47.107 373% 3.0E-02 MM09                                                
  826.456  13%   0.518 Lip20                                               
  459.575  71%   0.288 MM20                                                
   43.471 290% 2.7E-02 MM12                                                
 1.80E+03  21%   1.127+MM14                                                
  266.747  75%   0.167 MM17                                                
 5.48E+03  10%   3.440 Lip13a+Lip13b                                       
 7.32E+03   5%   4.594 MM14+Lip13a+Lip13b+MM12                             
 1.46E+03  11%   0.918 MM09+Lip09                                          
 1.29E+03  24%   0.807 MM20+Lip20                                          
   6 lines in following misc. output table
  FWHM = 0.076 ppm    S/N =   8                                            
  Data shift =-0.038 ppm                                                   
  Ph:   5 deg     -11.5 deg/ppm                                            
  alphaB,S = 1.0E+00,   6.4E+02                                            
   14 spline knots.   Ns =11(1)                                            
  ( 6) 4 infls.   ( 1) 1 extrs.                                            
  498 points on ppm-axis = NY
      4.000000     3.992357     3.984714     3.977070     3.969427     3.961784     3.954141     3.946497     3.938854     3.931211
      3.923568     3.915925     3.908281     3.900638     3.892995     3.885352     3.877708     3.870065     3.862422     3.854779
      3.847136     3.839492     3.831849     3.824206     3.816563     3.808919     3.801276     3.793633     3.785990     3.778347
      3.770703     3.763060     3.755417     3.747774     3.740130     3.732487     3.724844     3.717201     3.709558     3.701914
      3.694271     3.686628     3.678985     3.671341     3.663698     3.656055     3.648412     3.640769     3.633125     3.625482
      3.617839     3.610196     3.602552     3.594909     3.587266     3.579623     3.571980     3.564336     3.556693     3.549050
      3.541407     3.533763     3.526120     3.518477     3.510834     3.503191     3.495547     3.487904     3.480261     3.472618
      3.464974     3.457331     3.449688     3.442045     3.434402     3.426758     3.419115     3.411472     3.403829     3.396185
      3.388542     3.380899     3.373256     3.365613     3.357969     3.350326     3.342683     3.335040     3.327396     3.319753
      3.312110     3.304467     3.296824     3.289180     3.281537     3.273894     3.266251     3.258607     3.250964     3.243321
      3.235678     3.228034     3.220391     3.212748     3.205105     3.197462     3.189818     3.182175     3.174532     3.166889
      3.159245     3.151602     3.143959     3.136316     3.128673     3.121029     3.113386     3.105743     3.098100     3.090456
      3.082813     3.075170     3.067527     3.059884     3.052240     3.044597     3.036954     3.029311     3.021667     3.014024
      3.006381     2.998738     2.991095     2.983451     2.975808     2.968165     2.960522     2.952878     2.945235     2.937592
      2.929949     2.922306     2.914662     2.907019     2.899376     2.891733     2.884089     2.876446     2.868803     2.861160
      2.853517     2.845873     2.838230     2.830587     2.822944     2.815300     2.807657     2.800014     2.792371     2.784728
      2.777084     2.769441     2.761798     2.754155     2.746511     2.738868     2.731225     2.723582     2.715939     2.708295
      2.700652     2.693009     2.685366     2.677722     2.670079     2.662436     2.654793     2.647150     2.639506     2.631863
      2.624220     2.616577     2.608933     2.601290     2.593647     2.586004     2.578361     2.570717     2.563074     2.555431
      2.547788     2.540144     2.532501     2.524858     2.517215     2.509572     2.501928     2.494285     2.486642     2.478999
      2.471355     2.463712     2.456069     2.448426     2.440783     2.433139     2.425496     2.417853     2.410210     2.402566
      2.394923     2.387280     2.379637     2.371994     2.364350     2.356707     2.349064     2.341421     2.333777     2.326134
      2.318491     2.310848     2.303205     2.295561     2.287918     2.280275     2.272632     2.264988     2.257345     2.249702
      2.242059     2.234416     2.226772     2.219129     2.211486     2.203843     2.196199     2.188556     2.180913     2.173270
      2.165627     2.157983     2.150340     2.142697     2.135054     2.127410     2.119767     2.112124     2.104481     2.096838
      2.089194     2.081551     2.073908     2.066265     2.058621     2.050978     2.043335     2.035692     2.028049     2.020405
      2.012762     2.005119     1.997476     1.989833     1.982190     1.974546     1.966903     1.959260     1.951617     1.943974
      1.936331     1.928688     1.921045     1.913402     1.905759     1.898115     1.890472     1.882829     1.875186     1.867543
      1.859900     1.852257     1.844614     1.836971     1.829327     1.821684     1.814041     1.806398     1.798755     1.791112
      1.783469     1.775826     1.768183     1.760540     1.752896     1.745253     1.737610     1.729967     1.722324     1.714681
      1.707038     1.699395     1.691752     1.684108     1.676465     1.668822     1.661179     1.653536     1.645893     1.638250
      1.630607     1.622964     1.615321     1.607677     1.600034     1.592391     1.584748     1.577105     1.569462     1.561819
      1.554176     1.546533     1.538890     1.531246     1.523603     1.515960     1.508317     1.500674     1.493031     1.485388
      1.477745     1.470102     1.462458     1.454815     1.447172     1.439529     1.431886     1.424243     1.416600     1.408957
      1.401314     1.393671     1.386027     1.378384     1.370741     1.363098     1.355455     1.347812     1.340169     1.332526
      1.324883     1.317240     1.309596     1.301953     1.294310     1.286667     1.279024     1.271381     1.263738     1.256095
      1.248452     1.240808     1.233165     1.225522     1.217879     1.210236     1.202593     1.194950     1.187307     1.179664
      1.172021     1.164377     1.156734     1.149091     1.141448     1.133805     1.126162     1.118519     1.110876     1.103233
      1.095590     1.087946     1.080303     1.072660     1.065017     1.057374     1.049731     1.042088     1.034445     1.026802
      1.019158     1.011515     1.003872     0.996229     0.988586     0.980943     0.973300     0.965657     0.958014     0.950371
      0.942727     0.935084     0.927441     0.919798     0.912155     0.904512     0.896869     0.889226     0.881583     0.873940
      0.866296     0.858653     0.851010     0.843367     0.835724     0.828081     0.820438     0.812795     0.805152     0.797508
      0.789865     0.782222     0.774579     0.766936     0.759293     0.751650     0.744007     0.736364     0.728721     0.721077
      0.713434     0.705791     0.698148     0.690505     0.682862     0.675219     0.667576     0.659933     0.652290     0.644646
      0.637003     0.629360     0.621717     0.614074     0.606431     0.598788     0.591145     0.583502     0.575858     0.568215
      0.560572     0.552929     0.545286     0.537643     0.530000     0.522357     0.514714     0.507071     0.499427     0.491784
      0.484141     0.476498     0.468855     0.461212     0.453569     0.445925     0.438282     0.430639     0.422996     0.415353
      0.407710     0.400067     0.392424     0.384780     0.377137     0.369494     0.361851     0.354208     0.346565     0.338922
      0.331278     0.323635     0.315992     0.308349     0.300706     0.293063     0.285420     0.277777     0.270133     0.262490
      0.254847     0.247204     0.239561     0.231918     0.224275     0.216631     0.208988     0.201345
 NY phased data points follow
   1.91878E+01  1.90213E+01  2.04378E+01  2.49399E+01  2.54872E+01  2.50469E+01  2.70791E+01  3.03038E+01  3.01828E+01  3.55196E+01
   4.03738E+01  3.60054E+01  3.54223E+01  3.44339E+01  3.23514E+01  2.74059E+01  2.65847E+01  2.48871E+01  2.37295E+01  2.50779E+01
   2.54841E+01  2.20542E+01  2.46288E+01  2.44902E+01  2.37137E+01  2.39873E+01  2.49192E+01  2.47568E+01  2.73624E+01  2.35283E+01
   2.90072E+01  2.78894E+01  2.77640E+01  2.78209E+01  2.24439E+01  2.07578E+01  1.70203E+01  1.87304E+01  2.06122E+01  2.34754E+01
   2.34950E+01  2.08805E+01  2.19432E+01  2.76104E+01  1.89105E+01  2.61714E+01  2.39513E+01  2.26916E+01  2.54564E+01  2.56100E+01
   2.10045E+01  1.85447E+01  1.76693E+01  1.98794E+01  1.63170E+01  1.94177E+01  1.57368E+01  2.03784E+01  1.49236E+01  1.68651E+01
   1.50928E+01  1.45404E+01  1.41413E+01  1.34778E+01  1.22257E+01  9.21170E+00  1.07791E+01  1.13956E+01  1.10875E+01  9.34107E+00
   1.38280E+01  1.21799E+01  7.59353E+00  9.59876E+00  9.05611E+00  8.70552E+00  1.21396E+01  1.13919E+01  1.31170E+01  8.39657E+00
   1.16088E+01  9.64005E+00  8.86353E+00  7.15163E+00  1.11781E+01  8.69666E+00  1.12750E+01  8.86408E+00  1.05888E+01  1.13222E+01
   1.30296E+01  1.52473E+01  1.21446E+01  1.50513E+01  1.32092E+01  1.35158E+01  1.65781E+01  1.50345E+01  1.79586E+01  1.97114E+01
   1.91683E+01  2.80821E+01  2.95331E+01  3.90294E+01  3.63485E+01  3.56568E+01  2.81158E+01  2.73900E+01  2.07476E+01  1.80523E+01
   1.69921E+01  1.63638E+01  1.33608E+01  1.25348E+01  1.38513E+01  1.13515E+01  9.88155E+00  7.53597E+00  1.39172E+01  1.56337E+01
   1.73719E+01  2.12176E+01  2.17839E+01  2.23922E+01  2.69338E+01  3.52706E+01  4.34353E+01  4.32098E+01  4.45442E+01  3.98333E+01
   4.12038E+01  3.11589E+01  2.49734E+01  1.80990E+01  2.10941E+01  1.78287E+01  1.26263E+01  1.02278E+01  1.03295E+01  6.19721E+00
   7.88041E+00  4.09054E+00  1.07655E+01  6.33957E+00  6.98917E+00  8.52973E+00  8.08941E+00  6.20606E+00  4.30222E+00  7.09766E+00
   7.43114E+00  5.80713E+00  5.89128E+00  8.05939E+00  4.43682E+00  5.41653E+00  6.58503E+00  3.69057E+00  9.38455E+00  3.83929E+00
   7.84415E+00  3.95965E+00 -9.70223E-01  9.36498E-01  3.15467E-01  2.76889E+00  4.50986E+00  4.73806E+00  5.88518E+00  4.33642E+00
   7.26225E-01 -2.58239E-01  3.20901E+00  6.95265E-01  3.17485E-01 -1.39052E+00 -4.31699E+00 -5.45942E+00  4.61500E-01 -4.22261E+00
  -9.87319E-01 -3.98666E+00 -1.68558E+00 -3.31401E+00 -7.49086E+00 -2.52912E+00 -1.72729E+00 -1.93810E+00 -1.27142E+00  1.62440E+00
   3.16590E+00  1.96714E+00  4.81470E+00  5.49212E+00  8.83077E+00  3.48616E+00  4.74106E+00  5.99411E+00  4.73898E+00  4.57336E+00
   4.07047E+00  6.82612E+00  8.57236E+00  5.85447E+00  4.73701E+00  4.50033E+00  4.19211E+00  2.33635E+00 -2.35497E-01  3.86666E+00
   3.40519E+00  2.94652E+00  6.22727E+00  1.05333E+01  9.83392E+00  6.15336E+00  1.31816E+01  1.21883E+01  1.05251E+01  8.60980E+00
   9.60977E+00  3.50202E+00  1.35631E+00  7.59470E+00  5.87096E+00  7.86092E+00  9.21273E+00  1.02600E+01  1.08202E+01  5.99213E+00
   7.54969E+00  8.02910E+00  8.73184E+00  7.02168E+00  1.01229E+01  8.79506E+00  1.05984E+01  1.21052E+01  8.19406E+00  9.58173E+00
   9.49685E+00  4.10259E+00  9.42312E+00  4.71986E+00  9.03953E+00  7.58811E+00  1.12819E+01  8.16626E+00  1.46610E+01  1.04287E+01
   1.14105E+01  1.15116E+01  1.20028E+01  1.68600E+01  1.88785E+01  2.28808E+01  2.47412E+01  2.56178E+01  4.06902E+01  5.22855E+01
   5.86011E+01  5.85162E+01  5.65264E+01  4.75296E+01  4.23551E+01  3.36639E+01  3.25093E+01  2.67423E+01  2.61580E+01  2.19674E+01
   1.41041E+01  1.63117E+01  1.61728E+01  1.15776E+01  1.26849E+01  1.15129E+01  1.16720E+01  1.30803E+01  1.20579E+01  9.73677E+00
   5.82896E+00  7.34646E+00  5.64839E+00  7.88807E+00  7.87580E+00  6.13589E+00  8.45742E+00  4.75492E+00  7.07187E+00  6.28666E+00
   7.37709E+00  2.64040E+00  6.68123E+00  4.98923E+00  7.53978E+00  6.83545E+00  6.16023E+00  7.04575E+00  7.28245E+00  4.82718E+00
   8.91425E+00  6.43159E+00  6.95802E+00  6.52320E+00  9.34035E+00  7.11998E+00  5.88035E+00  9.32206E+00  9.90525E+00  1.23450E+01
   1.20404E+01  1.17083E+01  1.17182E+01  1.07043E+01  1.38438E+01  1.17015E+01  1.12923E+01  1.27704E+01  1.37176E+01  1.58615E+01
   1.81095E+01  1.28198E+01  1.71206E+01  2.01299E+01  1.90247E+01  1.63220E+01  2.34012E+01  2.66918E+01  2.45253E+01  2.71151E+01
   3.11491E+01  3.60569E+01  3.42202E+01  3.93129E+01  4.31200E+01  4.71401E+01  4.99818E+01  5.19958E+01  5.22142E+01  5.47513E+01
   5.67025E+01  5.32648E+01  5.59775E+01  5.34569E+01  5.06705E+01  4.95278E+01  4.45237E+01  4.18938E+01  4.37027E+01  3.62069E+01
   3.17519E+01  3.03919E+01  2.88534E+01  2.88514E+01  2.56617E+01  2.39166E+01  2.22836E+01  2.10780E+01  1.95920E+01  1.71185E+01
   1.85132E+01  1.65331E+01  1.21967E+01  9.14654E+00  1.28255E+01  7.07105E+00  1.23452E+01  1.22447E+01  6.55961E+00  1.03142E+01
   1.13852E+01  8.36228E+00  9.32418E+00  1.03125E+01  6.53556E+00  8.03585E+00  6.63631E+00  8.83651E+00  5.79746E+00  4.77992E+00
   7.82711E+00  1.16149E+01  8.28755E+00  6.78024E+00  4.99448E+00  3.47847E+00  4.20182E+00  4.09519E+00  8.56521E+00  7.47660E+00
   6.90809E+00  8.17309E+00  1.01916E+01  6.01239E+00  7.78164E+00  9.04727E+00  7.70738E+00  5.77095E+00  8.30413E+00  8.00464E+00
   1.03269E+01  7.66905E+00  1.08392E+01  1.06245E+01  7.71263E+00  9.24983E+00  8.09470E+00  1.18256E+01  1.45897E+01  1.03442E+01
   1.45592E+01  1.49503E+01  1.09498E+01  1.35561E+01  1.06901E+01  1.17637E+01  1.40228E+01  1.24171E+01  9.49298E+00  9.38282E+00
   1.17814E+01  8.06605E+00  6.10623E+00  4.39600E+00  5.60053E+00  1.18693E+01  6.24869E+00  5.01942E+00  3.60816E+00  8.85649E+00
   6.31514E+00  6.70832E+00  6.28427E+00  7.64428E+00  3.97894E+00  1.95608E+00  2.13852E+00  5.43385E+00  3.65650E+00  2.42445E+00
   4.77556E+00  4.31154E+00  2.89189E+00  2.41633E+00  5.86333E+00  4.18873E+00  4.39255E+00  1.75744E+00  2.14665E+00  2.77015E+00
   6.37304E+00  2.68298E+00  4.61615E+00  3.18270E+00  8.07513E+00  4.01391E+00  5.50945E+00  5.45978E+00  4.53807E+00  3.25312E+00
   4.38784E+00  3.14348E+00  4.25042E+00  5.02096E-01  3.13641E+00  5.22682E+00  4.40964E+00  3.53714E+00  4.73221E+00  7.56330E+00
   4.80116E-01  1.20552E+00  5.75996E+00  4.39755E+00  4.12660E+00  3.92640E+00  5.60346E+00  4.14582E+00 -2.12644E-01  3.49659E+00
   4.13152E+00  2.48520E+00  4.58165E-01  2.46201E+00  2.42199E+00  1.65852E+00  2.58940E+00  3.06566E+00  4.26630E+00  2.76250E+00
   4.41677E+00  6.33969E+00 -6.52173E-01  5.04408E+00  2.86247E+00  3.89914E+00  3.80439E+00  2.82758E+00
 NY points of the fit to the data follow
   1.95121E+01  1.99251E+01  2.06829E+01  2.17378E+01  2.31837E+01  2.51509E+01  2.75823E+01  3.02852E+01  3.29867E+01  3.52354E+01
   3.65823E+01  3.68110E+01  3.59754E+01  3.43498E+01  3.22927E+01  3.01207E+01  2.80740E+01  2.62220E+01  2.46551E+01  2.33936E+01
   2.23386E+01  2.14822E+01  2.09369E+01  2.07614E+01  2.09944E+01  2.17487E+01  2.29580E+01  2.45771E+01  2.63962E+01  2.80986E+01
   2.92916E+01  2.96204E+01  2.89331E+01  2.73490E+01  2.52158E+01  2.30585E+01  2.14004E+01  2.04674E+01  2.01051E+01  2.00423E+01
   2.01175E+01  2.02671E+01  2.07259E+01  2.15685E+01  2.26049E+01  2.35839E+01  2.41539E+01  2.41016E+01  2.33717E+01  2.20738E+01
   2.05025E+01  1.89524E+01  1.76318E+01  1.67034E+01  1.61260E+01  1.57574E+01  1.54850E+01  1.52044E+01  1.48530E+01  1.45180E+01
   1.43110E+01  1.41075E+01  1.37683E+01  1.33547E+01  1.30179E+01  1.28418E+01  1.28387E+01  1.29629E+01  1.31402E+01  1.32754E+01
   1.32828E+01  1.31734E+01  1.30104E+01  1.28207E+01  1.26270E+01  1.24124E+01  1.22211E+01  1.20466E+01  1.18474E+01  1.16199E+01
   1.13805E+01  1.11471E+01  1.09518E+01  1.08196E+01  1.07786E+01  1.07782E+01  1.07175E+01  1.05457E+01  1.02786E+01  9.97706E+00
   9.71010E+00  9.55680E+00  9.74628E+00  1.05914E+01  1.18827E+01  1.33329E+01  1.48420E+01  1.65031E+01  1.85501E+01  2.12492E+01
   2.47059E+01  2.84883E+01  3.18186E+01  3.39351E+01  3.43649E+01  3.30817E+01  3.04665E+01  2.71373E+01  2.37382E+01  2.07284E+01
   1.82364E+01  1.61385E+01  1.41943E+01  1.22209E+01  1.01917E+01  8.42378E+00  7.87298E+00  9.02849E+00  1.10359E+01  1.33988E+01
   1.60376E+01  1.90752E+01  2.27418E+01  2.71452E+01  3.20426E+01  3.67734E+01  4.04300E+01  4.22577E+01  4.19709E+01  3.97567E+01
   3.61683E+01  3.18895E+01  2.75419E+01  2.35458E+01  2.00550E+01  1.70033E+01  1.42541E+01  1.17275E+01  9.45612E+00  7.73098E+00
   7.04274E+00  7.08223E+00  7.12658E+00  7.03324E+00  6.86130E+00  6.71621E+00  6.65935E+00  6.62895E+00  6.54647E+00  6.39287E+00
   6.14781E+00  5.82052E+00  5.49060E+00  5.20967E+00  5.02767E+00  4.92764E+00  4.85102E+00  4.74803E+00  4.59271E+00  4.38923E+00
   4.17327E+00  3.99431E+00  3.87860E+00  3.81113E+00  3.74789E+00  3.63462E+00  3.42285E+00  3.11051E+00  2.74810E+00  2.38385E+00
   2.03996E+00  1.70791E+00  1.38659E+00  1.07153E+00  7.46906E-01  4.17655E-01  1.31526E-01 -8.66514E-02 -1.98169E-01 -1.79901E-01
  -7.35512E-02  8.63265E-02  2.62336E-01  4.48218E-01  6.60779E-01  9.21615E-01  1.25893E+00  1.68924E+00  2.16080E+00  2.57441E+00
   2.84162E+00  2.92872E+00  2.85327E+00  2.73551E+00  2.77346E+00  3.13456E+00  3.92930E+00  5.09376E+00  6.35980E+00  7.46789E+00
   8.28859E+00  8.68467E+00  8.57390E+00  7.90509E+00  6.70616E+00  5.18513E+00  3.57136E+00  2.18085E+00  1.35757E+00  1.32699E+00
   2.14743E+00  3.65875E+00  5.53313E+00  7.44783E+00  9.06033E+00  9.97249E+00  9.98837E+00  9.24363E+00  7.99749E+00  6.54017E+00
   5.20172E+00  4.28336E+00  3.94124E+00  4.25156E+00  5.10394E+00  6.11545E+00  6.97283E+00  7.51024E+00  7.80934E+00  8.12820E+00
   8.49301E+00  8.84708E+00  9.24804E+00  9.75688E+00  1.03269E+01  1.07740E+01  1.09731E+01  1.09223E+01  1.05496E+01  9.74400E+00
   8.58502E+00  7.31436E+00  6.24401E+00  5.59497E+00  5.43321E+00  5.75557E+00  6.45821E+00  7.24394E+00  7.89517E+00  8.64150E+00
   1.02286E+01  1.28505E+01  1.60913E+01  1.96539E+01  2.33338E+01  2.70983E+01  3.12660E+01  3.61872E+01  4.17602E+01  4.72102E+01
   5.13805E+01  5.32946E+01  5.25328E+01  4.93243E+01  4.43961E+01  3.87456E+01  3.33207E+01  2.86668E+01  2.48273E+01  2.15043E+01
   1.83432E+01  1.50863E+01  1.18325E+01  9.15997E+00  7.89207E+00  7.64131E+00  7.55991E+00  7.48218E+00  7.36363E+00  7.20304E+00
   7.05385E+00  6.93899E+00  6.85987E+00  6.80671E+00  6.76938E+00  6.73504E+00  6.71002E+00  6.70619E+00  6.72212E+00  6.75696E+00
   6.81050E+00  6.87772E+00  6.95560E+00  7.04061E+00  7.12722E+00  7.21752E+00  7.31212E+00  7.41026E+00  7.51479E+00  7.62836E+00
   7.74906E+00  7.87407E+00  8.00359E+00  8.13819E+00  8.27683E+00  8.41973E+00  8.56899E+00  8.72638E+00  8.89645E+00  9.08562E+00
   9.30164E+00  9.55383E+00  9.85354E+00  1.02150E+01  1.06574E+01  1.12111E+01  1.18985E+01  1.26833E+01  1.35448E+01  1.44908E+01
   1.55393E+01  1.67044E+01  1.79794E+01  1.93378E+01  2.07735E+01  2.22535E+01  2.37434E+01  2.52547E+01  2.68444E+01  2.85958E+01
   3.05966E+01  3.29082E+01  3.55299E+01  3.83785E+01  4.13158E+01  4.42229E+01  4.69947E+01  4.94061E+01  5.13385E+01  5.28060E+01
   5.38314E+01  5.43658E+01  5.43726E+01  5.38148E+01  5.26593E+01  5.07435E+01  4.79717E+01  4.44788E+01  4.06262E+01  3.67971E+01
   3.33659E+01  3.06325E+01  2.86878E+01  2.73623E+01  2.63186E+01  2.52200E+01  2.38624E+01  2.22219E+01  2.04513E+01  1.88026E+01
   1.73932E+01  1.60761E+01  1.48422E+01  1.36943E+01  1.25759E+01  1.14165E+01  1.02053E+01  9.10759E+00  8.31664E+00  7.74425E+00
   7.30713E+00  6.96715E+00  6.70199E+00  6.49649E+00  6.33962E+00  6.22311E+00  6.14071E+00  6.08773E+00  6.06069E+00  6.05703E+00
   6.07492E+00  6.11313E+00  6.17088E+00  6.24774E+00  6.34361E+00  6.45856E+00  6.59279E+00  6.74651E+00  6.91994E+00  7.11318E+00
   7.32616E+00  7.55857E+00  7.80975E+00  8.07859E+00  8.36351E+00  8.66237E+00  8.97247E+00  9.29047E+00  9.61243E+00  9.93380E+00
   1.02496E+01  1.05543E+01  1.08424E+01  1.11079E+01  1.13453E+01  1.15491E+01  1.17143E+01  1.18368E+01  1.19132E+01  1.19412E+01
   1.19193E+01  1.18477E+01  1.17273E+01  1.15604E+01  1.13503E+01  1.11011E+01  1.08177E+01  1.05056E+01  1.01706E+01  9.81843E+00
   9.45506E+00  9.08601E+00  8.71644E+00  8.35098E+00  7.99369E+00  7.64795E+00  7.31651E+00  7.00140E+00  6.70406E+00  6.42537E+00
   6.16573E+00  5.92510E+00  5.70310E+00  5.49906E+00  5.31211E+00  5.14125E+00  4.98543E+00  4.84351E+00  4.71437E+00  4.59689E+00
   4.49001E+00  4.39275E+00  4.30420E+00  4.22348E+00  4.14983E+00  4.08249E+00  4.02086E+00  3.96436E+00  3.91249E+00  3.86477E+00
   3.82080E+00  3.78019E+00  3.74264E+00  3.70786E+00  3.67562E+00  3.64565E+00  3.61775E+00  3.59174E+00  3.56747E+00  3.54480E+00
   3.52358E+00  3.50370E+00  3.48505E+00  3.46752E+00  3.45106E+00  3.43558E+00  3.42100E+00  3.40724E+00  3.39426E+00  3.38199E+00
   3.37042E+00  3.35949E+00  3.34916E+00  3.33938E+00  3.33012E+00  3.32137E+00  3.31311E+00  3.30530E+00  3.29791E+00  3.29092E+00
   3.28432E+00  3.27811E+00  3.27228E+00  3.26680E+00  3.26166E+00  3.25686E+00  3.25240E+00  3.24828E+00  3.24451E+00  3.24106E+00
   3.23796E+00  3.23520E+00  3.23283E+00  3.23084E+00  3.22927E+00  3.22812E+00  3.22743E+00  3.22726E+00
 NY background values follow
     9.712E+00    9.668E+00    9.623E+00    9.578E+00    9.533E+00    9.488E+00    9.444E+00    9.399E+00    9.354E+00    9.309E+00
     9.264E+00    9.219E+00    9.175E+00    9.130E+00    9.085E+00    9.040E+00    8.995E+00    8.950E+00    8.906E+00    8.861E+00
     8.816E+00    8.771E+00    8.727E+00    8.682E+00    8.637E+00    8.593E+00    8.548E+00    8.504E+00    8.459E+00    8.415E+00
     8.370E+00    8.326E+00    8.281E+00    8.237E+00    8.193E+00    8.149E+00    8.104E+00    8.060E+00    8.016E+00    7.972E+00
     7.928E+00    7.884E+00    7.841E+00    7.797E+00    7.753E+00    7.710E+00    7.666E+00    7.623E+00    7.579E+00    7.536E+00
     7.493E+00    7.450E+00    7.407E+00    7.364E+00    7.321E+00    7.278E+00    7.236E+00    7.193E+00    7.151E+00    7.108E+00
     7.066E+00    7.024E+00    6.982E+00    6.941E+00    6.899E+00    6.858E+00    6.816E+00    6.775E+00    6.734E+00    6.693E+00
     6.653E+00    6.612E+00    6.572E+00    6.532E+00    6.492E+00    6.452E+00    6.412E+00    6.373E+00    6.334E+00    6.295E+00
     6.256E+00    6.217E+00    6.179E+00    6.141E+00    6.103E+00    6.065E+00    6.027E+00    5.990E+00    5.953E+00    5.916E+00
     5.880E+00    5.843E+00    5.807E+00    5.771E+00    5.736E+00    5.700E+00    5.665E+00    5.630E+00    5.596E+00    5.561E+00
     5.527E+00    5.493E+00    5.460E+00    5.426E+00    5.393E+00    5.360E+00    5.328E+00    5.295E+00    5.263E+00    5.231E+00
     5.200E+00    5.169E+00    5.138E+00    5.107E+00    5.076E+00    5.046E+00    5.016E+00    4.986E+00    4.957E+00    4.928E+00
     4.899E+00    4.870E+00    4.842E+00    4.814E+00    4.786E+00    4.759E+00    4.731E+00    4.704E+00    4.678E+00    4.651E+00
     4.625E+00    4.599E+00    4.574E+00    4.548E+00    4.523E+00    4.499E+00    4.474E+00    4.450E+00    4.426E+00    4.402E+00
     4.379E+00    4.356E+00    4.333E+00    4.311E+00    4.289E+00    4.267E+00    4.246E+00    4.225E+00    4.204E+00    4.183E+00
     4.163E+00    4.143E+00    4.124E+00    4.105E+00    4.086E+00    4.067E+00    4.049E+00    4.031E+00    4.014E+00    3.997E+00
     3.980E+00    3.963E+00    3.947E+00    3.932E+00    3.916E+00    3.901E+00    3.887E+00    3.873E+00    3.859E+00    3.845E+00
     3.832E+00    3.820E+00    3.807E+00    3.795E+00    3.784E+00    3.773E+00    3.762E+00    3.752E+00    3.742E+00    3.732E+00
     3.723E+00    3.715E+00    3.707E+00    3.699E+00    3.691E+00    3.684E+00    3.678E+00    3.671E+00    3.666E+00    3.660E+00
     3.655E+00    3.650E+00    3.646E+00    3.642E+00    3.638E+00    3.635E+00    3.631E+00    3.629E+00    3.626E+00    3.624E+00
     3.622E+00    3.621E+00    3.619E+00    3.618E+00    3.617E+00    3.617E+00    3.616E+00    3.616E+00    3.617E+00    3.617E+00
     3.618E+00    3.618E+00    3.620E+00    3.621E+00    3.622E+00    3.624E+00    3.626E+00    3.628E+00    3.630E+00    3.632E+00
     3.635E+00    3.637E+00    3.640E+00    3.643E+00    3.646E+00    3.649E+00    3.652E+00    3.655E+00    3.659E+00    3.662E+00
     3.666E+00    3.670E+00    3.673E+00    3.677E+00    3.681E+00    3.685E+00    3.689E+00    3.693E+00    3.698E+00    3.702E+00
     3.706E+00    3.710E+00    3.715E+00    3.719E+00    3.724E+00    3.728E+00    3.733E+00    3.737E+00    3.742E+00    3.746E+00
     3.751E+00    3.755E+00    3.760E+00    3.765E+00    3.769E+00    3.774E+00    3.778E+00    3.783E+00    3.788E+00    3.792E+00
     3.797E+00    3.801E+00    3.805E+00    3.810E+00    3.814E+00    3.818E+00    3.823E+00    3.827E+00    3.831E+00    3.835E+00
     3.839E+00    3.843E+00    3.847E+00    3.851E+00    3.854E+00    3.858E+00    3.862E+00    3.865E+00    3.868E+00    3.872E+00
     3.875E+00    3.878E+00    3.881E+00    3.884E+00    3.887E+00    3.890E+00    3.893E+00    3.896E+00    3.898E+00    3.901E+00
     3.903E+00    3.906E+00    3.908E+00    3.910E+00    3.912E+00    3.914E+00    3.916E+00    3.918E+00    3.920E+00    3.921E+00
     3.923E+00    3.924E+00    3.926E+00    3.927E+00    3.928E+00    3.930E+00    3.931E+00    3.932E+00    3.932E+00    3.933E+00
     3.934E+00    3.935E+00    3.935E+00    3.935E+00    3.936E+00    3.936E+00    3.936E+00    3.936E+00    3.936E+00    3.936E+00
     3.936E+00    3.935E+00    3.935E+00    3.934E+00    3.934E+00    3.933E+00    3.932E+00    3.931E+00    3.930E+00    3.929E+00
     3.928E+00    3.927E+00    3.925E+00    3.924E+00    3.922E+00    3.921E+00    3.919E+00    3.917E+00    3.915E+00    3.914E+00
     3.912E+00    3.909E+00    3.907E+00    3.905E+00    3.903E+00    3.900E+00    3.898E+00    3.895E+00    3.893E+00    3.890E+00
     3.887E+00    3.885E+00    3.882E+00    3.879E+00    3.876E+00    3.873E+00    3.870E+00    3.866E+00    3.863E+00    3.860E+00
     3.856E+00    3.853E+00    3.849E+00    3.846E+00    3.842E+00    3.838E+00    3.835E+00    3.831E+00    3.827E+00    3.823E+00
     3.819E+00    3.815E+00    3.811E+00    3.807E+00    3.803E+00    3.799E+00    3.795E+00    3.790E+00    3.786E+00    3.782E+00
     3.778E+00    3.773E+00    3.769E+00    3.765E+00    3.760E+00    3.756E+00    3.752E+00    3.747E+00    3.743E+00    3.739E+00
     3.734E+00    3.730E+00    3.726E+00    3.721E+00    3.717E+00    3.713E+00    3.709E+00    3.704E+00    3.700E+00    3.696E+00
     3.692E+00    3.688E+00    3.683E+00    3.679E+00    3.675E+00    3.671E+00    3.667E+00    3.663E+00    3.660E+00    3.656E+00
     3.652E+00    3.648E+00    3.645E+00    3.641E+00    3.637E+00    3.634E+00    3.630E+00    3.627E+00    3.623E+00    3.620E+00
     3.616E+00    3.613E+00    3.610E+00    3.606E+00    3.603E+00    3.600E+00    3.597E+00    3.594E+00    3.591E+00    3.587E+00
     3.584E+00    3.581E+00    3.578E+00    3.575E+00    3.572E+00    3.570E+00    3.567E+00    3.564E+00    3.561E+00    3.558E+00
     3.555E+00    3.553E+00    3.550E+00    3.547E+00    3.545E+00    3.542E+00    3.539E+00    3.537E+00    3.534E+00    3.531E+00
     3.529E+00    3.526E+00    3.524E+00    3.521E+00    3.519E+00    3.516E+00    3.514E+00    3.511E+00    3.509E+00    3.507E+00
     3.504E+00    3.502E+00    3.499E+00    3.497E+00    3.495E+00    3.492E+00    3.490E+00    3.488E+00    3.485E+00    3.483E+00
     3.481E+00    3.478E+00    3.476E+00    3.474E+00    3.471E+00    3.469E+00    3.467E+00    3.465E+00    3.462E+00    3.460E+00
     3.458E+00    3.455E+00    3.453E+00    3.451E+00    3.449E+00    3.446E+00    3.444E+00    3.442E+00    3.440E+00    3.437E+00
     3.435E+00    3.433E+00    3.430E+00    3.428E+00    3.426E+00    3.423E+00    3.421E+00    3.419E+00
 Ala      Conc. = 3.20E+02
