 LCModel (Version 6.3-1L) Copyright: S.W. Provencher.          Ref.: Magn. Reson. Med. 30:672-679 (1993).                
 Slice#2 Row#12 Col#3  PD_05_press_1_raw_act
 36 lines in following concentration table = NCONC+1
    Conc.  %SD /Cr+PCr  Metabolite                                         
   17.404 999% 3.1E-02 Ala                                                 
    3.799 999% 6.8E-03 Asp                                                 
    0.000 999%   0.000 Cr                                                  
  557.142  11%   1.000 PCr                                                 
   20.693 219% 3.7E-02 GABA                                                
   55.865  82%   0.100 Glc                                                 
  760.852  44%   1.366 Gln                                                 
   60.406 606%   0.108 Glu                                                 
    0.000 999%   0.000 GPC                                                 
  131.658  17%   0.236 PCh                                                 
   34.166 225% 6.1E-02 GSH                                                 
  517.153  48%   0.928 Ins                                                 
  317.846  63%   0.570 Lac                                                 
  143.038  43%   0.257 NAA                                                 
    0.000 999%   0.000 NAAG                                                
   35.438  39% 6.4E-02 Scyllo                                              
  138.622  53%   0.249 Tau                                                 
  519.149  23%   0.932 -CrCH2                                              
  131.658  17%   0.236 GPC+PCh                                             
  143.038  43%   0.257 NAA+NAAG                                            
  557.142  11%   1.000 Cr+PCr                                              
  821.258  70%   1.474 Glu+Gln                                             
 1.33E+04  11%  23.889 Lip13a                                              
    0.000 999%   0.000 Lip13b                                              
 1.99E+03  23%   3.573 Lip09                                               
    0.000 999%   0.000 MM09                                                
 2.43E+03  14%   4.357 Lip20                                               
    0.000 999%   0.000 MM20                                                
    0.000 999%   0.000 MM12                                                
 6.11E+03  14%  10.963+MM14                                                
 1.44E+03  32%   2.577 MM17                                                
 1.33E+04  11%  23.889 Lip13a+Lip13b                                       
 1.94E+04   8%  34.852 MM14+Lip13a+Lip13b+MM12                             
 1.99E+03  23%   3.573 MM09+Lip09                                          
 2.43E+03  14%   4.357 MM20+Lip20                                          
   6 lines in following misc. output table
  FWHM = 0.183 ppm    S/N =  14                                            
  Data shift = 0.061 ppm                                                   
  Ph:  99 deg     -16.3 deg/ppm                                            
  alphaB,S = 3.4E+00,   4.6E+01                                            
    7 spline knots.   Ns = 9(2)                                            
  (14) 7 infls.   (14) 3 extrs.                                            
  498 points on ppm-axis = NY
      4.000000     3.992357     3.984714     3.977070     3.969427     3.961784     3.954141     3.946497     3.938854     3.931211
      3.923568     3.915925     3.908281     3.900638     3.892995     3.885352     3.877708     3.870065     3.862422     3.854779
      3.847136     3.839492     3.831849     3.824206     3.816563     3.808919     3.801276     3.793633     3.785990     3.778347
      3.770703     3.763060     3.755417     3.747774     3.740130     3.732487     3.724844     3.717201     3.709558     3.701914
      3.694271     3.686628     3.678985     3.671341     3.663698     3.656055     3.648412     3.640769     3.633125     3.625482
      3.617839     3.610196     3.602552     3.594909     3.587266     3.579623     3.571980     3.564336     3.556693     3.549050
      3.541407     3.533763     3.526120     3.518477     3.510834     3.503191     3.495547     3.487904     3.480261     3.472618
      3.464974     3.457331     3.449688     3.442045     3.434402     3.426758     3.419115     3.411472     3.403829     3.396185
      3.388542     3.380899     3.373256     3.365613     3.357969     3.350326     3.342683     3.335040     3.327396     3.319753
      3.312110     3.304467     3.296824     3.289180     3.281537     3.273894     3.266251     3.258607     3.250964     3.243321
      3.235678     3.228034     3.220391     3.212748     3.205105     3.197462     3.189818     3.182175     3.174532     3.166889
      3.159245     3.151602     3.143959     3.136316     3.128673     3.121029     3.113386     3.105743     3.098100     3.090456
      3.082813     3.075170     3.067527     3.059884     3.052240     3.044597     3.036954     3.029311     3.021667     3.014024
      3.006381     2.998738     2.991095     2.983451     2.975808     2.968165     2.960522     2.952878     2.945235     2.937592
      2.929949     2.922306     2.914662     2.907019     2.899376     2.891733     2.884089     2.876446     2.868803     2.861160
      2.853517     2.845873     2.838230     2.830587     2.822944     2.815300     2.807657     2.800014     2.792371     2.784728
      2.777084     2.769441     2.761798     2.754155     2.746511     2.738868     2.731225     2.723582     2.715939     2.708295
      2.700652     2.693009     2.685366     2.677722     2.670079     2.662436     2.654793     2.647150     2.639506     2.631863
      2.624220     2.616577     2.608933     2.601290     2.593647     2.586004     2.578361     2.570717     2.563074     2.555431
      2.547788     2.540144     2.532501     2.524858     2.517215     2.509572     2.501928     2.494285     2.486642     2.478999
      2.471355     2.463712     2.456069     2.448426     2.440783     2.433139     2.425496     2.417853     2.410210     2.402566
      2.394923     2.387280     2.379637     2.371994     2.364350     2.356707     2.349064     2.341421     2.333777     2.326134
      2.318491     2.310848     2.303205     2.295561     2.287918     2.280275     2.272632     2.264988     2.257345     2.249702
      2.242059     2.234416     2.226772     2.219129     2.211486     2.203843     2.196199     2.188556     2.180913     2.173270
      2.165627     2.157983     2.150340     2.142697     2.135054     2.127410     2.119767     2.112124     2.104481     2.096838
      2.089194     2.081551     2.073908     2.066265     2.058621     2.050978     2.043335     2.035692     2.028049     2.020405
      2.012762     2.005119     1.997476     1.989833     1.982190     1.974546     1.966903     1.959260     1.951617     1.943974
      1.936331     1.928688     1.921045     1.913402     1.905759     1.898115     1.890472     1.882829     1.875186     1.867543
      1.859900     1.852257     1.844614     1.836971     1.829327     1.821684     1.814041     1.806398     1.798755     1.791112
      1.783469     1.775826     1.768183     1.760540     1.752896     1.745253     1.737610     1.729967     1.722324     1.714681
      1.707038     1.699395     1.691752     1.684108     1.676465     1.668822     1.661179     1.653536     1.645893     1.638250
      1.630607     1.622964     1.615321     1.607677     1.600034     1.592391     1.584748     1.577105     1.569462     1.561819
      1.554176     1.546533     1.538890     1.531246     1.523603     1.515960     1.508317     1.500674     1.493031     1.485388
      1.477745     1.470102     1.462458     1.454815     1.447172     1.439529     1.431886     1.424243     1.416600     1.408957
      1.401314     1.393671     1.386027     1.378384     1.370741     1.363098     1.355455     1.347812     1.340169     1.332526
      1.324883     1.317240     1.309596     1.301953     1.294310     1.286667     1.279024     1.271381     1.263738     1.256095
      1.248452     1.240808     1.233165     1.225522     1.217879     1.210236     1.202593     1.194950     1.187307     1.179664
      1.172021     1.164377     1.156734     1.149091     1.141448     1.133805     1.126162     1.118519     1.110876     1.103233
      1.095590     1.087946     1.080303     1.072660     1.065017     1.057374     1.049731     1.042088     1.034445     1.026802
      1.019158     1.011515     1.003872     0.996229     0.988586     0.980943     0.973300     0.965657     0.958014     0.950371
      0.942727     0.935084     0.927441     0.919798     0.912155     0.904512     0.896869     0.889226     0.881583     0.873940
      0.866296     0.858653     0.851010     0.843367     0.835724     0.828081     0.820438     0.812795     0.805152     0.797508
      0.789865     0.782222     0.774579     0.766936     0.759293     0.751650     0.744007     0.736364     0.728721     0.721077
      0.713434     0.705791     0.698148     0.690505     0.682862     0.675219     0.667576     0.659933     0.652290     0.644646
      0.637003     0.629360     0.621717     0.614074     0.606431     0.598788     0.591145     0.583502     0.575858     0.568215
      0.560572     0.552929     0.545286     0.537643     0.530000     0.522357     0.514714     0.507071     0.499427     0.491784
      0.484141     0.476498     0.468855     0.461212     0.453569     0.445925     0.438282     0.430639     0.422996     0.415353
      0.407710     0.400067     0.392424     0.384780     0.377137     0.369494     0.361851     0.354208     0.346565     0.338922
      0.331278     0.323635     0.315992     0.308349     0.300706     0.293063     0.285420     0.277777     0.270133     0.262490
      0.254847     0.247204     0.239561     0.231918     0.224275     0.216631     0.208988     0.201345
 NY phased data points follow
   1.03397E+02  1.03205E+02  1.01765E+02  9.95136E+01  9.86683E+01  9.79001E+01  9.55126E+01  9.33875E+01  9.35718E+01  9.26819E+01
   9.14263E+01  8.72738E+01  8.83856E+01  8.68311E+01  8.30236E+01  8.55666E+01  8.37516E+01  8.39455E+01  8.23605E+01  8.12524E+01
   8.15915E+01  8.18019E+01  7.93386E+01  7.84851E+01  7.88260E+01  7.79806E+01  7.86507E+01  7.69604E+01  7.48204E+01  7.48647E+01
   7.44688E+01  7.44434E+01  7.49822E+01  7.40150E+01  7.07336E+01  7.09010E+01  7.10537E+01  7.05720E+01  6.80533E+01  7.12460E+01
   6.73811E+01  6.74199E+01  6.88581E+01  6.46988E+01  6.54334E+01  6.67636E+01  6.15868E+01  6.14117E+01  6.24704E+01  6.13895E+01
   6.05368E+01  5.85517E+01  5.88163E+01  5.88635E+01  5.63140E+01  5.61255E+01  5.48771E+01  5.78369E+01  5.76450E+01  5.35933E+01
   5.43416E+01  5.47672E+01  5.28992E+01  5.23984E+01  5.18586E+01  5.20299E+01  5.06837E+01  5.03582E+01  5.20525E+01  5.05154E+01
   4.73366E+01  4.96654E+01  4.78729E+01  4.73066E+01  4.60078E+01  4.72674E+01  4.69590E+01  4.48032E+01  4.58163E+01  4.12596E+01
   4.48254E+01  4.45172E+01  4.09864E+01  4.06317E+01  4.03977E+01  4.13091E+01  4.11267E+01  4.08308E+01  3.72102E+01  3.92736E+01
   3.72953E+01  3.78577E+01  3.65277E+01  3.50988E+01  3.70594E+01  3.50035E+01  3.73563E+01  3.41649E+01  3.62902E+01  3.74174E+01
   3.59998E+01  3.53290E+01  3.35583E+01  3.36820E+01  3.35709E+01  3.25412E+01  3.04574E+01  3.11682E+01  2.98824E+01  2.86424E+01
   2.87186E+01  2.84536E+01  3.05206E+01  2.83094E+01  2.80662E+01  2.85424E+01  2.75958E+01  2.64721E+01  2.67088E+01  2.72382E+01
   2.80236E+01  2.56021E+01  2.75305E+01  2.91269E+01  2.67880E+01  2.73450E+01  2.44990E+01  2.55790E+01  2.34199E+01  2.35415E+01
   2.14032E+01  2.37098E+01  2.34604E+01  2.22541E+01  2.10415E+01  2.17187E+01  2.13490E+01  2.11313E+01  2.11734E+01  2.20510E+01
   2.02291E+01  1.98020E+01  1.83892E+01  2.00865E+01  1.86757E+01  1.93854E+01  1.81756E+01  1.67224E+01  1.69757E+01  1.60867E+01
   1.46373E+01  1.72932E+01  1.49780E+01  1.44246E+01  1.44422E+01  1.37900E+01  1.28207E+01  9.96943E+00  1.08738E+01  1.32611E+01
   1.11849E+01  1.17097E+01  1.09928E+01  1.09450E+01  1.04458E+01  9.05017E+00  8.02682E+00  9.37831E+00  8.17094E+00  7.01711E+00
   5.03858E+00  7.80749E+00  3.51995E+00  4.47376E+00  3.91700E+00  3.87655E+00  2.77946E+00  3.42650E+00  2.90668E+00  4.00140E+00
   1.43614E+00 -3.40291E-01  1.40697E+00  3.18042E-01 -1.69138E+00 -2.46317E-01  1.02547E+00 -1.61065E-01 -6.76960E-01  1.18795E+00
  -1.17349E-01 -1.49602E+00  1.28225E+00 -6.67746E-01 -2.12131E+00  6.10281E-02 -2.32735E-01 -1.19669E+00 -1.34939E-01  8.58900E-01
   1.38827E+00 -1.19381E+00  4.24004E-01  4.59296E-01 -2.97557E-01  9.29927E-01 -2.44813E-01  1.74136E-01 -3.68604E-01  1.04208E+00
  -9.72310E-01  1.74619E+00  2.47855E+00  3.40045E+00  3.37993E+00  3.10482E+00  1.19748E+00  1.50654E+00 -2.56800E-01  1.73802E+00
   2.99320E+00  1.69288E+00  3.29713E+00  4.17817E+00  2.72114E+00  4.79703E+00  4.10551E+00  5.09706E+00  4.61833E+00  3.70100E+00
   3.67214E+00  4.29237E+00  4.52249E+00  4.78266E+00  7.69746E+00  5.78632E+00  6.72757E+00  5.84990E+00  4.22871E+00  6.07717E+00
   6.27913E+00  4.16517E+00  5.67576E+00  5.54341E+00  6.30112E+00  5.60764E+00  6.22100E+00  5.03742E+00  8.53780E+00  5.77811E+00
   7.01981E+00  7.23383E+00  7.90292E+00  9.50203E+00  8.92117E+00  9.39470E+00  1.18322E+01  1.38707E+01  1.03986E+01  1.14245E+01
   9.32227E+00  9.03199E+00  7.01822E+00  9.03265E+00  9.12887E+00  6.21384E+00  6.53131E+00  8.17452E+00  8.10417E+00  8.30403E+00
   9.13251E+00  1.05027E+01  1.09027E+01  1.14763E+01  1.03455E+01  1.07393E+01  1.14605E+01  9.10689E+00  1.10569E+01  1.32781E+01
   1.04912E+01  1.14096E+01  1.34162E+01  1.41567E+01  1.26736E+01  1.29415E+01  1.16656E+01  1.50444E+01  1.39042E+01  1.30033E+01
   1.44470E+01  1.45369E+01  1.38188E+01  1.71742E+01  1.64303E+01  1.70639E+01  1.82609E+01  1.65412E+01  1.83689E+01  1.99408E+01
   2.00312E+01  2.07656E+01  2.22060E+01  2.52208E+01  2.34631E+01  2.51289E+01  2.36690E+01  2.58439E+01  2.72542E+01  2.88843E+01
   3.07903E+01  3.09381E+01  3.14432E+01  3.31677E+01  3.28287E+01  3.61260E+01  3.88564E+01  4.06992E+01  3.94740E+01  4.23764E+01
   4.35295E+01  4.50286E+01  4.65686E+01  4.66098E+01  4.74360E+01  4.86299E+01  5.15343E+01  5.04592E+01  5.28308E+01  5.21581E+01
   5.34518E+01  5.38545E+01  5.40675E+01  5.33995E+01  5.28713E+01  5.44937E+01  5.48546E+01  5.49517E+01  5.68447E+01  5.48105E+01
   5.63016E+01  5.57795E+01  5.48340E+01  5.57515E+01  5.43540E+01  5.62214E+01  5.37508E+01  5.21661E+01  5.23828E+01  5.21418E+01
   5.34748E+01  5.24487E+01  5.31633E+01  5.26258E+01  5.16180E+01  4.94714E+01  4.89510E+01  4.98886E+01  4.88124E+01  4.83524E+01
   4.92341E+01  4.85521E+01  4.77600E+01  4.75559E+01  4.65199E+01  4.67228E+01  4.34791E+01  4.50876E+01  4.44968E+01  4.41160E+01
   4.46545E+01  4.39574E+01  4.15763E+01  4.40908E+01  4.33188E+01  4.30870E+01  4.40481E+01  4.01730E+01  4.12066E+01  3.88691E+01
   3.84140E+01  3.72702E+01  3.74625E+01  3.81449E+01  3.74003E+01  3.66864E+01  3.61925E+01  3.43488E+01  3.66337E+01  3.72699E+01
   3.52772E+01  3.66047E+01  3.53045E+01  3.69516E+01  3.62240E+01  3.39482E+01  3.32434E+01  3.32630E+01  3.42792E+01  3.27682E+01
   3.41720E+01  3.24491E+01  3.42880E+01  3.34911E+01  3.37086E+01  3.17172E+01  3.17788E+01  3.02259E+01  3.20243E+01  3.06964E+01
   3.13821E+01  3.05619E+01  2.85249E+01  2.89489E+01  2.94274E+01  2.96981E+01  2.80254E+01  2.82487E+01  2.78809E+01  2.90113E+01
   2.70415E+01  2.90714E+01  2.56797E+01  2.67781E+01  2.73793E+01  2.56882E+01  2.47884E+01  2.60201E+01  2.69209E+01  2.57410E+01
   2.48188E+01  2.54147E+01  2.55992E+01  2.48706E+01  2.46632E+01  2.51389E+01  2.38004E+01  2.42765E+01  2.17038E+01  2.20090E+01
   2.28925E+01  2.26680E+01  2.28336E+01  2.29527E+01  2.16216E+01  2.16913E+01  2.26027E+01  2.40149E+01  2.12381E+01  2.29251E+01
   2.02952E+01  1.99965E+01  2.14478E+01  2.06881E+01  2.09075E+01  2.02608E+01  2.14783E+01  2.02952E+01  2.03626E+01  1.92463E+01
   1.94784E+01  2.00982E+01  1.91958E+01  1.98654E+01  2.01906E+01  1.80317E+01  1.91637E+01  1.73354E+01  2.09563E+01  1.83054E+01
   1.78670E+01  1.68686E+01  1.64957E+01  1.79921E+01  1.71963E+01  1.69067E+01  1.69194E+01  1.64162E+01  1.49533E+01  1.61941E+01
   1.53292E+01  1.66297E+01  1.59850E+01  1.47930E+01  1.41990E+01  1.44681E+01  1.48081E+01  1.43127E+01  1.48229E+01  1.34989E+01
   1.35656E+01  1.45620E+01  1.14413E+01  1.38587E+01  1.32584E+01  1.14645E+01  1.23484E+01  1.09988E+01
 NY points of the fit to the data follow
   9.93945E+01  9.94015E+01  9.85102E+01  9.79655E+01  9.69547E+01  9.63066E+01  9.47501E+01  9.34443E+01  9.22189E+01  9.12706E+01
   9.00473E+01  8.90142E+01  8.81508E+01  8.74666E+01  8.67474E+01  8.62329E+01  8.54248E+01  8.49107E+01  8.39111E+01  8.31350E+01
   8.21018E+01  8.13716E+01  8.02324E+01  7.92749E+01  7.87499E+01  7.82177E+01  7.75427E+01  7.65984E+01  7.56838E+01  7.44750E+01
   7.44125E+01  7.44706E+01  7.37715E+01  7.30966E+01  7.21675E+01  7.14822E+01  7.06417E+01  7.00138E+01  6.93429E+01  6.88581E+01
   6.84126E+01  6.79506E+01  6.74390E+01  6.68795E+01  6.63093E+01  6.55579E+01  6.48218E+01  6.40853E+01  6.32715E+01  6.24629E+01
   6.14962E+01  6.07740E+01  5.98431E+01  5.92739E+01  5.87354E+01  5.82601E+01  5.77929E+01  5.72073E+01  5.66427E+01  5.58836E+01
   5.52666E+01  5.44849E+01  5.37942E+01  5.30847E+01  5.24733E+01  5.18091E+01  5.11625E+01  5.04039E+01  4.97469E+01  4.91382E+01
   4.86791E+01  4.81224E+01  4.75942E+01  4.69249E+01  4.63253E+01  4.56719E+01  4.51263E+01  4.45125E+01  4.41232E+01  4.34491E+01
   4.29798E+01  4.22862E+01  4.18524E+01  4.11496E+01  4.06604E+01  3.99882E+01  3.95014E+01  3.88450E+01  3.83609E+01  3.76009E+01
   3.71004E+01  3.63515E+01  3.58186E+01  3.53776E+01  3.51227E+01  3.53817E+01  3.53249E+01  3.56385E+01  3.56970E+01  3.58445E+01
   3.57106E+01  3.50106E+01  3.46317E+01  3.37023E+01  3.31777E+01  3.20616E+01  3.14068E+01  3.07016E+01  3.04201E+01  3.00248E+01
   2.97775E+01  2.94711E+01  2.90334E+01  2.85117E+01  2.79791E+01  2.73818E+01  2.71423E+01  2.65701E+01  2.71026E+01  2.74847E+01
   2.77888E+01  2.82769E+01  2.78793E+01  2.79231E+01  2.63070E+01  2.68624E+01  2.52490E+01  2.56202E+01  2.38544E+01  2.40320E+01
   2.27175E+01  2.30613E+01  2.20671E+01  2.26128E+01  2.17697E+01  2.24406E+01  2.14500E+01  2.20669E+01  2.10695E+01  2.16151E+01
   2.02142E+01  2.04184E+01  1.92720E+01  1.94190E+01  1.80357E+01  1.77114E+01  1.58192E+01  1.49097E+01  1.45771E+01  1.43272E+01
   1.41035E+01  1.38642E+01  1.36307E+01  1.33603E+01  1.30955E+01  1.28159E+01  1.25241E+01  1.22137E+01  1.18784E+01  1.15257E+01
   1.11392E+01  1.07562E+01  1.03341E+01  9.93084E+00  9.49740E+00  9.07984E+00  8.63398E+00  8.20730E+00  7.76065E+00  7.33847E+00
   6.91199E+00  6.50306E+00  6.10196E+00  5.70890E+00  5.34283E+00  4.97923E+00  4.63231E+00  4.28607E+00  3.95366E+00  3.63771E+00
   3.34121E+00  3.07629E+00  2.83202E+00  2.60640E+00  2.40639E+00  2.21266E+00  1.98731E+00  1.80125E+00  1.48874E+00  1.25728E+00
   8.95115E-01  6.76263E-01  3.75931E-01  2.88653E-01  2.09421E-01  3.37223E-01  4.37018E-01  7.13881E-01  8.18471E-01  9.61628E-01
   7.53684E-01  6.70003E-01  7.84044E-02 -9.75491E-02 -6.59891E-01 -7.16360E-01 -1.07067E+00 -8.21727E-01 -7.02541E-01 -3.16499E-01
  -6.52597E-02  3.94386E-01  7.06119E-01  1.09192E+00  1.30927E+00  1.60463E+00  1.73307E+00  2.02900E+00  2.08440E+00  2.34187E+00
   2.40249E+00  2.60428E+00  2.61630E+00  2.89477E+00  3.14703E+00  3.30845E+00  3.43432E+00  3.62570E+00  3.73108E+00  4.01090E+00
   4.27924E+00  4.43669E+00  4.29766E+00  4.62532E+00  4.69532E+00  4.88115E+00  4.96402E+00  5.00800E+00  5.09015E+00  4.89560E+00
   5.00128E+00  4.88361E+00  5.11280E+00  5.21391E+00  5.61124E+00  5.99547E+00  6.50492E+00  6.97574E+00  7.45169E+00  7.83125E+00
   8.38919E+00  8.64260E+00  9.27845E+00  9.57200E+00  1.00575E+01  1.03314E+01  1.07783E+01  1.09679E+01  1.07546E+01  1.07089E+01
   1.03385E+01  1.02117E+01  9.82433E+00  9.94031E+00  9.63558E+00  9.72396E+00  9.50786E+00  9.62129E+00  9.40333E+00  9.55370E+00
   9.31020E+00  9.42800E+00  9.23002E+00  9.46601E+00  9.26504E+00  9.52510E+00  9.50692E+00  9.88869E+00  9.87334E+00  1.02357E+01
   1.01453E+01  1.03777E+01  1.07679E+01  1.12349E+01  1.17092E+01  1.22319E+01  1.27539E+01  1.33091E+01  1.38562E+01  1.44324E+01
   1.49936E+01  1.55731E+01  1.61348E+01  1.67115E+01  1.72673E+01  1.78416E+01  1.83968E+01  1.89748E+01  1.95440E+01  2.01433E+01
   2.07407E+01  2.13814E+01  2.20323E+01  2.27384E+01  2.34687E+01  2.42671E+01  2.51022E+01  2.60186E+01  2.69826E+01  2.80346E+01
   2.91368E+01  3.03292E+01  3.15678E+01  3.28880E+01  3.42473E+01  3.56721E+01  3.71207E+01  3.86150E+01  4.01037E+01  4.16138E+01
   4.30688E+01  4.45135E+01  4.58697E+01  4.71842E+01  4.83764E+01  4.95054E+01  5.05065E+01  5.14414E+01  5.22439E+01  5.29712E+01
   5.35499E+01  5.40506E+01  5.43944E+01  5.46368E+01  5.47928E+01  5.48686E+01  5.49522E+01  5.50602E+01  5.51268E+01  5.53489E+01
   5.52202E+01  5.51803E+01  5.48597E+01  5.45340E+01  5.39577E+01  5.33297E+01  5.27896E+01  5.25104E+01  5.21736E+01  5.21237E+01
   5.19590E+01  5.22184E+01  5.21240E+01  5.22093E+01  5.19615E+01  5.18567E+01  5.14219E+01  5.10386E+01  5.04644E+01  5.00070E+01
   4.93244E+01  4.87647E+01  4.81186E+01  4.76646E+01  4.69773E+01  4.63982E+01  4.56830E+01  4.50762E+01  4.46525E+01  4.43534E+01
   4.38389E+01  4.34975E+01  4.29899E+01  4.25494E+01  4.19995E+01  4.11720E+01  4.04976E+01  3.99408E+01  3.94239E+01  3.89671E+01
   3.85298E+01  3.81428E+01  3.77691E+01  3.74413E+01  3.71229E+01  3.68465E+01  3.65755E+01  3.63421E+01  3.61094E+01  3.59093E+01
   3.57047E+01  3.55276E+01  3.53406E+01  3.51754E+01  3.49950E+01  3.48312E+01  3.46473E+01  3.44753E+01  3.42789E+01  3.40908E+01
   3.38751E+01  3.36651E+01  3.34258E+01  3.31909E+01  3.29261E+01  3.26658E+01  3.23763E+01  3.20925E+01  3.17812E+01  3.14778E+01
   3.11493E+01  3.08314E+01  3.04914E+01  3.01649E+01  2.98193E+01  2.94901E+01  2.91446E+01  2.88181E+01  2.84776E+01  2.81584E+01
   2.78271E+01  2.75186E+01  2.71994E+01  2.69040E+01  2.65988E+01  2.63179E+01  2.60275E+01  2.57617E+01  2.54863E+01  2.52352E+01
   2.49744E+01  2.47374E+01  2.44902E+01  2.42663E+01  2.40316E+01  2.38195E+01  2.35959E+01  2.33944E+01  2.31807E+01  2.29883E+01
   2.27831E+01  2.25987E+01  2.24008E+01  2.22231E+01  2.20314E+01  2.18593E+01  2.16727E+01  2.15052E+01  2.13229E+01  2.11591E+01
   2.09802E+01  2.08194E+01  2.06430E+01  2.04845E+01  2.03101E+01  2.01533E+01  1.99803E+01  1.98245E+01  1.96524E+01  1.94973E+01
   1.93257E+01  1.91709E+01  1.89993E+01  1.88443E+01  1.86725E+01  1.85171E+01  1.83446E+01  1.81885E+01  1.80152E+01  1.78582E+01
   1.76838E+01  1.75256E+01  1.73500E+01  1.71904E+01  1.70133E+01  1.68522E+01  1.66736E+01  1.65107E+01  1.63304E+01  1.61658E+01
   1.59836E+01  1.58171E+01  1.56329E+01  1.54644E+01  1.52783E+01  1.51076E+01  1.49194E+01  1.47466E+01  1.45562E+01  1.43812E+01
   1.41885E+01  1.40113E+01  1.38163E+01  1.36368E+01  1.34396E+01  1.32577E+01  1.30581E+01  1.28739E+01
 NY background values follow
     9.682E+01    9.600E+01    9.519E+01    9.438E+01    9.357E+01    9.276E+01    9.196E+01    9.116E+01    9.036E+01    8.956E+01
     8.877E+01    8.798E+01    8.719E+01    8.641E+01    8.562E+01    8.484E+01    8.407E+01    8.329E+01    8.252E+01    8.175E+01
     8.098E+01    8.022E+01    7.946E+01    7.870E+01    7.794E+01    7.719E+01    7.644E+01    7.569E+01    7.495E+01    7.421E+01
     7.347E+01    7.273E+01    7.200E+01    7.127E+01    7.055E+01    6.982E+01    6.910E+01    6.838E+01    6.767E+01    6.695E+01
     6.624E+01    6.554E+01    6.484E+01    6.413E+01    6.344E+01    6.274E+01    6.205E+01    6.136E+01    6.068E+01    6.000E+01
     5.932E+01    5.864E+01    5.797E+01    5.730E+01    5.663E+01    5.597E+01    5.531E+01    5.465E+01    5.400E+01    5.335E+01
     5.270E+01    5.206E+01    5.141E+01    5.078E+01    5.014E+01    4.951E+01    4.888E+01    4.826E+01    4.764E+01    4.702E+01
     4.641E+01    4.579E+01    4.519E+01    4.458E+01    4.398E+01    4.338E+01    4.279E+01    4.220E+01    4.161E+01    4.103E+01
     4.044E+01    3.987E+01    3.929E+01    3.872E+01    3.816E+01    3.759E+01    3.703E+01    3.648E+01    3.592E+01    3.538E+01
     3.483E+01    3.429E+01    3.375E+01    3.321E+01    3.268E+01    3.216E+01    3.163E+01    3.111E+01    3.059E+01    3.008E+01
     2.957E+01    2.907E+01    2.857E+01    2.807E+01    2.757E+01    2.708E+01    2.660E+01    2.611E+01    2.563E+01    2.516E+01
     2.469E+01    2.422E+01    2.375E+01    2.329E+01    2.284E+01    2.238E+01    2.194E+01    2.149E+01    2.105E+01    2.061E+01
     2.018E+01    1.975E+01    1.933E+01    1.891E+01    1.849E+01    1.808E+01    1.767E+01    1.726E+01    1.686E+01    1.646E+01
     1.607E+01    1.568E+01    1.529E+01    1.491E+01    1.454E+01    1.416E+01    1.379E+01    1.343E+01    1.307E+01    1.271E+01
     1.236E+01    1.201E+01    1.166E+01    1.132E+01    1.098E+01    1.065E+01    1.032E+01    9.990E+00    9.668E+00    9.350E+00
     9.036E+00    8.726E+00    8.420E+00    8.117E+00    7.819E+00    7.524E+00    7.234E+00    6.947E+00    6.664E+00    6.386E+00
     6.111E+00    5.840E+00    5.573E+00    5.309E+00    5.050E+00    4.795E+00    4.543E+00    4.296E+00    4.052E+00    3.812E+00
     3.576E+00    3.344E+00    3.116E+00    2.892E+00    2.671E+00    2.455E+00    2.242E+00    2.034E+00    1.829E+00    1.628E+00
     1.431E+00    1.237E+00    1.048E+00    8.624E-01    6.807E-01    5.029E-01    3.290E-01    1.589E-01   -7.364E-03   -1.698E-01
    -3.283E-01   -4.830E-01   -6.339E-01   -7.809E-01   -9.241E-01   -1.063E+00   -1.199E+00   -1.331E+00   -1.458E+00   -1.582E+00
    -1.703E+00   -1.819E+00   -1.932E+00   -2.040E+00   -2.145E+00   -2.246E+00   -2.344E+00   -2.437E+00   -2.527E+00   -2.612E+00
    -2.695E+00   -2.773E+00   -2.847E+00   -2.918E+00   -2.985E+00   -3.048E+00   -3.107E+00   -3.163E+00   -3.214E+00   -3.262E+00
    -3.306E+00   -3.347E+00   -3.383E+00   -3.416E+00   -3.445E+00   -3.470E+00   -3.492E+00   -3.509E+00   -3.523E+00   -3.533E+00
    -3.540E+00   -3.543E+00   -3.541E+00   -3.537E+00   -3.528E+00   -3.516E+00   -3.500E+00   -3.480E+00   -3.456E+00   -3.429E+00
    -3.398E+00   -3.363E+00   -3.324E+00   -3.282E+00   -3.236E+00   -3.186E+00   -3.133E+00   -3.076E+00   -3.015E+00   -2.950E+00
    -2.882E+00   -2.810E+00   -2.734E+00   -2.655E+00   -2.573E+00   -2.487E+00   -2.397E+00   -2.305E+00   -2.209E+00   -2.110E+00
    -2.007E+00   -1.902E+00   -1.794E+00   -1.682E+00   -1.568E+00   -1.450E+00   -1.330E+00   -1.207E+00   -1.082E+00   -9.535E-01
    -8.225E-01   -6.890E-01   -5.530E-01   -4.145E-01   -2.737E-01   -1.304E-01    1.513E-02    1.629E-01    3.129E-01    4.651E-01
     6.193E-01    7.755E-01    9.338E-01    1.094E+00    1.256E+00    1.420E+00    1.585E+00    1.753E+00    1.922E+00    2.092E+00
     2.265E+00    2.438E+00    2.613E+00    2.790E+00    2.968E+00    3.147E+00    3.327E+00    3.509E+00    3.692E+00    3.875E+00
     4.060E+00    4.246E+00    4.433E+00    4.620E+00    4.808E+00    4.997E+00    5.187E+00    5.378E+00    5.569E+00    5.760E+00
     5.952E+00    6.145E+00    6.338E+00    6.531E+00    6.724E+00    6.918E+00    7.112E+00    7.306E+00    7.500E+00    7.694E+00
     7.888E+00    8.082E+00    8.275E+00    8.469E+00    8.662E+00    8.855E+00    9.047E+00    9.240E+00    9.431E+00    9.622E+00
     9.813E+00    1.000E+01    1.019E+01    1.038E+01    1.057E+01    1.075E+01    1.094E+01    1.113E+01    1.131E+01    1.149E+01
     1.167E+01    1.186E+01    1.203E+01    1.221E+01    1.239E+01    1.256E+01    1.274E+01    1.291E+01    1.308E+01    1.325E+01
     1.342E+01    1.359E+01    1.375E+01    1.391E+01    1.407E+01    1.423E+01    1.439E+01    1.454E+01    1.469E+01    1.484E+01
     1.499E+01    1.514E+01    1.528E+01    1.542E+01    1.556E+01    1.570E+01    1.583E+01    1.596E+01    1.609E+01    1.622E+01
     1.634E+01    1.646E+01    1.658E+01    1.670E+01    1.681E+01    1.692E+01    1.702E+01    1.713E+01    1.723E+01    1.733E+01
     1.742E+01    1.751E+01    1.760E+01    1.769E+01    1.777E+01    1.785E+01    1.793E+01    1.800E+01    1.808E+01    1.815E+01
     1.821E+01    1.828E+01    1.834E+01    1.840E+01    1.845E+01    1.850E+01    1.856E+01    1.860E+01    1.865E+01    1.869E+01
     1.873E+01    1.877E+01    1.880E+01    1.883E+01    1.886E+01    1.889E+01    1.891E+01    1.893E+01    1.895E+01    1.897E+01
     1.898E+01    1.899E+01    1.900E+01    1.901E+01    1.901E+01    1.901E+01    1.901E+01    1.901E+01    1.900E+01    1.899E+01
     1.898E+01    1.896E+01    1.895E+01    1.893E+01    1.891E+01    1.888E+01    1.886E+01    1.883E+01    1.880E+01    1.877E+01
     1.873E+01    1.869E+01    1.865E+01    1.861E+01    1.856E+01    1.852E+01    1.847E+01    1.842E+01    1.836E+01    1.830E+01
     1.825E+01    1.819E+01    1.812E+01    1.806E+01    1.799E+01    1.792E+01    1.785E+01    1.777E+01    1.770E+01    1.762E+01
     1.754E+01    1.745E+01    1.737E+01    1.728E+01    1.719E+01    1.710E+01    1.701E+01    1.691E+01    1.681E+01    1.671E+01
     1.661E+01    1.651E+01    1.640E+01    1.629E+01    1.618E+01    1.607E+01    1.596E+01    1.584E+01    1.572E+01    1.560E+01
     1.548E+01    1.536E+01    1.523E+01    1.510E+01    1.497E+01    1.484E+01    1.471E+01    1.457E+01    1.443E+01    1.429E+01
     1.415E+01    1.401E+01    1.386E+01    1.372E+01    1.357E+01    1.342E+01    1.327E+01    1.311E+01    1.296E+01    1.280E+01
     1.264E+01    1.248E+01    1.231E+01    1.215E+01    1.198E+01    1.182E+01    1.165E+01    1.147E+01
 Ala      Conc. = 1.74E+01
