 LCModel (Version 6.3-1L) Copyright: S.W. Provencher.          Ref.: Magn. Reson. Med. 30:672-679 (1993).                
 Slice#1 Row#7 Col#14  PD_05_press_1_raw_act
 36 lines in following concentration table = NCONC+1
    Conc.  %SD /Cr+PCr  Metabolite                                         
    5.604 160%   0.664 Ala                                                 
    1.902  97%   0.225 Asp                                                 
    8.442  95%   1.000 Cr                                                  
    0.000 999%   0.000 PCr                                                 
    1.061 104%   0.126 GABA                                                
    1.120  99%   0.133 Glc                                                 
   14.235 127%   1.686 Gln                                                 
    0.000 999%   0.000 Glu                                                 
    0.000 999%   0.000 GPC                                                 
    1.143 194%   0.135 PCh                                                 
    0.000 999%   0.000 GSH                                                 
    2.004 999%   0.237 Ins                                                 
    0.000 999%   0.000 Lac                                                 
   15.019  80%   1.779 NAA                                                 
    9.885  77%   1.171 NAAG                                                
    0.391  94% 4.6E-02 Scyllo                                              
    1.835 100%   0.217 Tau                                                 
    0.994 174%   0.118 -CrCH2                                              
    1.143 194%   0.135 GPC+PCh                                             
   24.904  69%   2.950 NAA+NAAG                                            
    8.442  95%   1.000 Cr+PCr                                              
   14.235 127%   1.686 Glu+Gln                                             
 2.58E+03  25% 305.963 Lip13a                                              
    0.000 999%   0.000 Lip13b                                              
 1.25E+03  19% 147.809 Lip09                                               
  826.260  21%  97.871 MM09                                                
  344.346  49%  40.788 Lip20                                               
   32.810 494%   3.886 MM20                                                
  682.317  45%  80.821 MM12                                                
  968.709  28% 114.745 MM14                                                
  624.505  34%  73.973 MM17                                                
 2.58E+03  25% 305.963 Lip13a+Lip13b                                       
 4.23E+03  13% 501.528 MM14+Lip13a+Lip13b+MM12                             
 2.07E+03  13% 245.681 MM09+Lip09                                          
  377.156  41%  44.674 MM20+Lip20                                          
   6 lines in following misc. output table
  FWHM = 0.038 ppm    S/N =   5                                            
  Data shift = 0.038 ppm                                                   
  Ph:-153 deg     -16.4 deg/ppm                                            
  alphaB,S = 5.6E-01,   3.2E+00                                            
   14 spline knots.   Ns = 5(1)                                            
  ( 4) 2 infls.   ( 2) 2 extrs.                                            
  498 points on ppm-axis = NY
      4.000000     3.992357     3.984714     3.977070     3.969427     3.961784     3.954141     3.946497     3.938854     3.931211
      3.923568     3.915925     3.908281     3.900638     3.892995     3.885352     3.877708     3.870065     3.862422     3.854779
      3.847136     3.839492     3.831849     3.824206     3.816563     3.808919     3.801276     3.793633     3.785990     3.778347
      3.770703     3.763060     3.755417     3.747774     3.740130     3.732487     3.724844     3.717201     3.709558     3.701914
      3.694271     3.686628     3.678985     3.671341     3.663698     3.656055     3.648412     3.640769     3.633125     3.625482
      3.617839     3.610196     3.602552     3.594909     3.587266     3.579623     3.571980     3.564336     3.556693     3.549050
      3.541407     3.533763     3.526120     3.518477     3.510834     3.503191     3.495547     3.487904     3.480261     3.472618
      3.464974     3.457331     3.449688     3.442045     3.434402     3.426758     3.419115     3.411472     3.403829     3.396185
      3.388542     3.380899     3.373256     3.365613     3.357969     3.350326     3.342683     3.335040     3.327396     3.319753
      3.312110     3.304467     3.296824     3.289180     3.281537     3.273894     3.266251     3.258607     3.250964     3.243321
      3.235678     3.228034     3.220391     3.212748     3.205105     3.197462     3.189818     3.182175     3.174532     3.166889
      3.159245     3.151602     3.143959     3.136316     3.128673     3.121029     3.113386     3.105743     3.098100     3.090456
      3.082813     3.075170     3.067527     3.059884     3.052240     3.044597     3.036954     3.029311     3.021667     3.014024
      3.006381     2.998738     2.991095     2.983451     2.975808     2.968165     2.960522     2.952878     2.945235     2.937592
      2.929949     2.922306     2.914662     2.907019     2.899376     2.891733     2.884089     2.876446     2.868803     2.861160
      2.853517     2.845873     2.838230     2.830587     2.822944     2.815300     2.807657     2.800014     2.792371     2.784728
      2.777084     2.769441     2.761798     2.754155     2.746511     2.738868     2.731225     2.723582     2.715939     2.708295
      2.700652     2.693009     2.685366     2.677722     2.670079     2.662436     2.654793     2.647150     2.639506     2.631863
      2.624220     2.616577     2.608933     2.601290     2.593647     2.586004     2.578361     2.570717     2.563074     2.555431
      2.547788     2.540144     2.532501     2.524858     2.517215     2.509572     2.501928     2.494285     2.486642     2.478999
      2.471355     2.463712     2.456069     2.448426     2.440783     2.433139     2.425496     2.417853     2.410210     2.402566
      2.394923     2.387280     2.379637     2.371994     2.364350     2.356707     2.349064     2.341421     2.333777     2.326134
      2.318491     2.310848     2.303205     2.295561     2.287918     2.280275     2.272632     2.264988     2.257345     2.249702
      2.242059     2.234416     2.226772     2.219129     2.211486     2.203843     2.196199     2.188556     2.180913     2.173270
      2.165627     2.157983     2.150340     2.142697     2.135054     2.127410     2.119767     2.112124     2.104481     2.096838
      2.089194     2.081551     2.073908     2.066265     2.058621     2.050978     2.043335     2.035692     2.028049     2.020405
      2.012762     2.005119     1.997476     1.989833     1.982190     1.974546     1.966903     1.959260     1.951617     1.943974
      1.936331     1.928688     1.921045     1.913402     1.905759     1.898115     1.890472     1.882829     1.875186     1.867543
      1.859900     1.852257     1.844614     1.836971     1.829327     1.821684     1.814041     1.806398     1.798755     1.791112
      1.783469     1.775826     1.768183     1.760540     1.752896     1.745253     1.737610     1.729967     1.722324     1.714681
      1.707038     1.699395     1.691752     1.684108     1.676465     1.668822     1.661179     1.653536     1.645893     1.638250
      1.630607     1.622964     1.615321     1.607677     1.600034     1.592391     1.584748     1.577105     1.569462     1.561819
      1.554176     1.546533     1.538890     1.531246     1.523603     1.515960     1.508317     1.500674     1.493031     1.485388
      1.477745     1.470102     1.462458     1.454815     1.447172     1.439529     1.431886     1.424243     1.416600     1.408957
      1.401314     1.393671     1.386027     1.378384     1.370741     1.363098     1.355455     1.347812     1.340169     1.332526
      1.324883     1.317240     1.309596     1.301953     1.294310     1.286667     1.279024     1.271381     1.263738     1.256095
      1.248452     1.240808     1.233165     1.225522     1.217879     1.210236     1.202593     1.194950     1.187307     1.179664
      1.172021     1.164377     1.156734     1.149091     1.141448     1.133805     1.126162     1.118519     1.110876     1.103233
      1.095590     1.087946     1.080303     1.072660     1.065017     1.057374     1.049731     1.042088     1.034445     1.026802
      1.019158     1.011515     1.003872     0.996229     0.988586     0.980943     0.973300     0.965657     0.958014     0.950371
      0.942727     0.935084     0.927441     0.919798     0.912155     0.904512     0.896869     0.889226     0.881583     0.873940
      0.866296     0.858653     0.851010     0.843367     0.835724     0.828081     0.820438     0.812795     0.805152     0.797508
      0.789865     0.782222     0.774579     0.766936     0.759293     0.751650     0.744007     0.736364     0.728721     0.721077
      0.713434     0.705791     0.698148     0.690505     0.682862     0.675219     0.667576     0.659933     0.652290     0.644646
      0.637003     0.629360     0.621717     0.614074     0.606431     0.598788     0.591145     0.583502     0.575858     0.568215
      0.560572     0.552929     0.545286     0.537643     0.530000     0.522357     0.514714     0.507071     0.499427     0.491784
      0.484141     0.476498     0.468855     0.461212     0.453569     0.445925     0.438282     0.430639     0.422996     0.415353
      0.407710     0.400067     0.392424     0.384780     0.377137     0.369494     0.361851     0.354208     0.346565     0.338922
      0.331278     0.323635     0.315992     0.308349     0.300706     0.293063     0.285420     0.277777     0.270133     0.262490
      0.254847     0.247204     0.239561     0.231918     0.224275     0.216631     0.208988     0.201345
 NY phased data points follow
  -8.68584E-03 -1.05769E+00 -9.31882E-01  4.13590E-01  1.09533E+00  5.55993E-01  9.60723E-01  1.38708E+00 -2.11814E-01  1.22274E-01
   5.51301E-01  6.80336E-01  3.46614E-01 -3.14872E-01  6.50610E-01  1.31159E+00  1.44149E+00  3.83576E-01 -2.27889E-01  8.04801E-01
  -7.99248E-01 -8.79652E-01 -8.83009E-01  1.07915E-01 -4.84011E-02  1.62622E-02 -3.20486E-01  1.01396E+00  1.46574E+00 -4.40639E-02
  -1.00294E+00 -1.12363E+00  8.84053E-01 -2.29937E-01  5.57991E-01  6.46712E-01  3.87746E-01  2.31857E-01 -2.13549E+00 -3.17051E-01
   6.75337E-01  2.17362E+00 -7.85411E-01 -1.00181E+00  2.27239E+00  4.53715E-01  6.68270E-01 -2.78419E-01 -1.08337E-01  1.21635E+00
   7.78270E-01  1.78471E+00  1.06237E+00 -4.09778E-01  9.90853E-01  2.50970E+00  3.42226E+00 -4.50943E-01  1.15839E+00 -7.78236E-01
  -3.90240E-01 -5.96646E-01  9.94134E-01  9.18106E-01  4.65902E-01  1.88559E-01  3.80616E-01 -5.60499E-02  8.59415E-02  3.21628E-01
   4.12664E-01  8.96758E-01  4.96269E-01 -1.62336E-02  1.01773E+00 -3.67307E-01  1.12695E+00  1.05682E+00  1.00243E+00  3.14441E-01
   1.84442E+00 -8.28415E-01 -9.29260E-01  1.51784E-01  1.47881E-02  2.28945E+00  7.92700E-01  3.16294E-01  2.08717E+00  5.45727E-01
   1.02744E+00 -3.70733E-01  1.62526E+00  5.17359E-01  8.82763E-01  1.18195E+00  5.04801E-01  1.60391E+00 -8.37680E-02  1.15890E+00
   2.93175E-01  3.30698E-01 -1.09415E+00 -5.38152E-01  8.71086E-01  3.60339E-01  1.43637E+00  1.39170E-01  1.68616E+00  4.73811E-01
  -3.84286E-01  5.50449E-01  1.62817E+00  3.84287E-01  1.29306E-01  1.62507E-01  1.67766E+00  6.25957E-01 -5.47977E-01 -1.38961E-02
   1.15653E+00  3.71552E-01 -3.37129E-01 -5.37573E-01 -3.74703E-01  9.58999E-01  8.11876E-01  1.91063E+00  1.80543E+00  2.75659E+00
   1.58872E-01  9.42110E-01  5.55139E-01  4.47107E-01 -3.34049E-03  1.60139E+00  1.75395E+00  2.10096E+00  2.34538E+00  3.41640E-01
   1.14311E+00  1.04227E+00  2.30514E+00 -8.08037E-01  2.45166E+00  7.10539E-01  1.32867E+00  1.60250E+00  1.90588E+00  5.98069E-01
   1.25838E+00  2.22608E+00  1.64947E+00  1.61663E+00  5.35755E-03  6.27132E-01  2.34906E+00  1.81758E+00  1.35371E+00  1.41417E+00
   7.91433E-01  2.47051E+00  2.24730E+00  6.45251E-01  8.03045E-01  8.39542E-01  2.28165E+00  9.35859E-01  1.38381E+00  3.35635E-02
  -1.09834E+00  4.60380E-01  2.41174E+00  4.74902E-01  1.97259E+00  1.77294E+00  1.32477E+00  1.80805E+00  6.25250E-01  7.96583E-01
   4.44015E+00  3.18810E+00  2.45618E+00  4.86946E-01  1.03289E+00  3.67532E-01  1.00386E+00  1.33123E+00 -6.10762E-01  1.72099E+00
   3.10726E+00  2.25569E+00  2.22340E+00  8.20853E-01  1.25086E+00  1.72465E+00  1.87018E+00  1.70319E-01  1.32805E+00  2.87543E+00
   1.75483E+00  1.08716E+00  1.76827E+00  1.33362E+00  7.93259E-01  1.94795E+00  1.14283E+00  4.13806E+00  2.86755E+00  2.12431E+00
   2.09357E+00  3.41490E+00  1.15685E+00  3.84115E+00  2.57116E+00  1.96225E+00  1.25613E+00  1.93019E+00  2.59704E+00  1.11309E+00
   2.25059E+00  2.69896E+00  2.79631E+00  4.56684E+00  3.79261E+00  2.99656E-01  2.04428E+00  3.07909E+00  2.79557E+00  3.23808E+00
   3.66464E+00  2.70985E+00  1.77567E+00  1.96034E+00  4.66018E+00  3.11472E+00  3.37609E+00  1.87904E+00  2.77161E+00  2.85828E+00
   3.52753E+00  3.22872E+00  2.18016E+00  3.57712E+00  4.53976E+00  3.17951E+00  2.06996E+00  2.06704E+00  2.62172E+00  2.61670E+00
   2.33537E+00  2.38391E+00  2.10231E+00  1.94938E+00  3.54897E+00  3.28033E+00  3.15416E+00  3.22778E+00  3.17309E+00  4.12353E+00
   3.25805E+00  4.06139E+00  5.60596E+00  3.75553E+00  4.26397E+00  3.72838E+00  4.59025E+00  3.35736E+00  1.95213E+00  5.02786E+00
   4.55897E+00  4.41430E+00  3.52315E+00  2.21010E+00  4.28767E+00  3.09603E+00  4.78836E+00  3.98291E+00  2.54685E+00  3.82879E+00
   3.28163E+00  3.37545E+00  3.21071E+00  3.81921E+00  3.02720E+00  5.12810E+00  3.86485E+00  4.53686E+00  4.81084E+00  4.35809E+00
   3.86324E+00  4.26293E+00  4.83274E+00  6.07887E+00  5.49493E+00  4.86024E+00  5.06398E+00  6.08443E+00  4.46268E+00  5.73233E+00
   3.09708E+00  4.22644E+00  5.02417E+00  6.00066E+00  5.46606E+00  4.24524E+00  4.19286E+00  4.33323E+00  6.31952E+00  5.78251E+00
   6.17395E+00  6.25666E+00  4.94306E+00  6.24528E+00  6.52078E+00  4.86088E+00  6.30345E+00  8.50225E+00  7.39380E+00  7.94882E+00
   9.14098E+00  7.81546E+00  7.18363E+00  7.65122E+00  7.79888E+00  8.48722E+00  7.14062E+00  8.84539E+00  7.72158E+00  5.87496E+00
   8.20583E+00  6.04384E+00  7.76466E+00  7.93257E+00  6.36903E+00  8.48932E+00  6.70120E+00  6.67751E+00  6.46688E+00  8.51216E+00
   9.16046E+00  7.29379E+00  9.43020E+00  9.07014E+00  1.04072E+01  8.13664E+00  7.12387E+00  8.92362E+00  8.18081E+00  8.22354E+00
   9.43713E+00  8.21554E+00  9.00428E+00  1.10751E+01  9.31781E+00  1.09631E+01  8.92595E+00  1.12688E+01  9.42093E+00  8.12858E+00
   9.66573E+00  9.01734E+00  8.80610E+00  8.09418E+00  9.62333E+00  7.84071E+00  8.59993E+00  8.56039E+00  8.24926E+00  9.61067E+00
   9.27622E+00  8.52222E+00  9.52012E+00  8.47749E+00  9.22574E+00  1.04712E+01  7.98131E+00  8.07390E+00  6.96873E+00  7.81957E+00
   9.38586E+00  6.44060E+00  7.27737E+00  8.66333E+00  7.86889E+00  6.07708E+00  7.41689E+00  8.97953E+00  5.26771E+00  7.15387E+00
   7.05507E+00  8.72688E+00  6.79959E+00  5.84730E+00  6.80316E+00  5.86099E+00  7.19868E+00  4.83663E+00  5.86697E+00  5.34084E+00
   5.79650E+00  3.99804E+00  5.35093E+00  4.05207E+00  3.38448E+00  5.43363E+00  3.17710E+00  4.35093E+00  4.20668E+00  5.34469E+00
   3.70469E+00  4.06867E+00  4.41974E+00  3.45245E+00  2.09445E+00  4.04266E+00  1.23090E+00  2.44436E+00  8.53091E-01  1.94807E+00
   3.72432E-01 -8.63532E-01  1.13164E+00  1.79052E-01 -7.27232E-01 -1.50648E-02  1.62371E+00  8.50602E-02 -5.25391E-01  4.62301E-01
   1.08039E+00  2.40540E-01 -1.53556E+00  2.28926E-01  2.04736E-01 -4.63938E-01 -1.77829E+00 -1.99118E-01 -2.14250E+00 -1.35057E+00
  -1.33844E+00 -2.22806E+00 -2.97823E+00 -3.17630E+00 -1.67197E+00 -2.30195E+00 -3.60409E+00 -3.26116E+00 -4.89368E+00 -5.05309E+00
  -4.01972E+00 -5.86627E+00 -4.15051E+00 -3.69849E+00 -7.44267E+00 -5.18677E+00 -5.48543E+00 -5.72929E+00 -4.85316E+00 -6.49090E+00
  -7.33533E+00 -7.28050E+00 -7.97766E+00 -7.32604E+00 -6.16905E+00 -8.46263E+00 -5.93948E+00 -8.99400E+00 -8.09164E+00 -8.69625E+00
  -8.29276E+00 -7.84275E+00 -1.04016E+01 -8.11263E+00 -9.06070E+00 -9.40851E+00 -8.82610E+00 -8.92202E+00 -9.89981E+00 -8.43178E+00
  -9.80815E+00 -9.55869E+00 -9.98036E+00 -1.12620E+01 -1.10631E+01 -1.07986E+01 -9.28820E+00 -1.02766E+01 -9.81079E+00 -1.04282E+01
  -1.08196E+01 -1.00504E+01 -1.05473E+01 -9.99689E+00 -1.01973E+01 -1.16981E+01 -1.04536E+01 -1.01274E+01
 NY points of the fit to the data follow
   1.50318E-01  1.49412E-01  1.48863E-01  1.53559E-01  1.66560E-01  1.66767E-01  9.71715E-02 -3.04405E-02 -1.14470E-01 -6.79089E-02
   1.07559E-01  3.48791E-01  5.64302E-01  6.71738E-01  6.58589E-01  5.70186E-01  4.39401E-01  3.00298E-01  2.21021E-01  1.88360E-01
   1.68986E-01  1.70414E-01  2.11399E-01  2.86497E-01  3.61742E-01  4.01848E-01  3.91150E-01  3.21224E-01  2.08948E-01  1.08316E-01
   6.95615E-02  1.09765E-01  2.18505E-01  3.50344E-01  4.41134E-01  4.61410E-01  4.24489E-01  3.62485E-01  3.00428E-01  2.65364E-01
   2.68718E-01  2.88728E-01  3.06142E-01  3.14869E-01  3.16657E-01  3.16822E-01  3.28486E-01  3.52318E-01  3.76429E-01  3.92666E-01
   3.96366E-01  3.90088E-01  3.79715E-01  3.70671E-01  3.66593E-01  3.67298E-01  3.69795E-01  3.72943E-01  3.77696E-01  3.85494E-01
   3.96515E-01  4.07352E-01  4.14216E-01  4.17292E-01  4.17824E-01  4.17714E-01  4.19953E-01  4.24556E-01  4.28789E-01  4.31819E-01
   4.32283E-01  4.28795E-01  4.25955E-01  4.31838E-01  4.48737E-01  4.71329E-01  4.94280E-01  5.07857E-01  5.06199E-01  4.94798E-01
   4.80683E-01  4.63066E-01  4.47749E-01  4.48339E-01  4.69473E-01  5.04792E-01  5.42393E-01  5.69445E-01  5.78180E-01  5.73098E-01
   5.64496E-01  5.56521E-01  5.48290E-01  5.43127E-01  5.37419E-01  5.29794E-01  5.26916E-01  5.29242E-01  5.17784E-01  4.72777E-01
   4.25929E-01  4.32522E-01  5.17134E-01  6.54880E-01  7.98167E-01  8.95809E-01  9.19730E-01  8.82409E-01  8.16698E-01  7.42980E-01
   6.87561E-01  6.74334E-01  6.76718E-01  6.82560E-01  6.89528E-01  6.98795E-01  7.09300E-01  7.19410E-01  7.28539E-01  7.36029E-01
   7.37280E-01  7.04299E-01  5.77435E-01  4.09774E-01  3.54929E-01  5.12758E-01  8.44236E-01  1.23486E+00  1.54709E+00  1.67327E+00
   1.61739E+00  1.46411E+00  1.27461E+00  1.10276E+00  1.03805E+00  1.03547E+00  1.04670E+00  1.06547E+00  1.09060E+00  1.11910E+00
   1.14771E+00  1.17370E+00  1.19718E+00  1.22228E+00  1.25131E+00  1.28352E+00  1.31682E+00  1.34855E+00  1.37734E+00  1.40447E+00
   1.43221E+00  1.45827E+00  1.47749E+00  1.48796E+00  1.49102E+00  1.49527E+00  1.51395E+00  1.54858E+00  1.58413E+00  1.60381E+00
   1.59926E+00  1.57504E+00  1.54895E+00  1.53925E+00  1.54826E+00  1.56921E+00  1.59005E+00  1.59329E+00  1.57314E+00  1.54262E+00
   1.51948E+00  1.51538E+00  1.53068E+00  1.54281E+00  1.53326E+00  1.50654E+00  1.48073E+00  1.46935E+00  1.47668E+00  1.48902E+00
   1.48807E+00  1.47469E+00  1.46365E+00  1.46202E+00  1.46810E+00  1.48016E+00  1.49289E+00  1.50490E+00  1.52033E+00  1.54892E+00
   1.59118E+00  1.63811E+00  1.67754E+00  1.70024E+00  1.69964E+00  1.67955E+00  1.64984E+00  1.61251E+00  1.57560E+00  1.55911E+00
   1.57781E+00  1.63334E+00  1.72509E+00  1.84352E+00  1.97227E+00  2.09901E+00  2.19422E+00  2.20284E+00  2.10399E+00  1.94353E+00
   1.78718E+00  1.68733E+00  1.68055E+00  1.76233E+00  1.88746E+00  2.02012E+00  2.13979E+00  2.21975E+00  2.26197E+00  2.29752E+00
   2.32899E+00  2.35863E+00  2.39344E+00  2.43480E+00  2.47990E+00  2.52382E+00  2.56419E+00  2.59915E+00  2.62563E+00  2.64052E+00
   2.64733E+00  2.66317E+00  2.69641E+00  2.72985E+00  2.73944E+00  2.71604E+00  2.67093E+00  2.63488E+00  2.65497E+00  2.74767E+00
   2.87965E+00  3.00786E+00  3.10296E+00  3.13365E+00  3.10595E+00  3.05781E+00  3.00935E+00  2.96774E+00  2.95013E+00  2.96280E+00
   2.96297E+00  2.88015E+00  2.75468E+00  2.73454E+00  2.91157E+00  3.16205E+00  3.30058E+00  3.36062E+00  3.48867E+00  3.77226E+00
   4.17218E+00  4.53917E+00  4.69270E+00  4.61360E+00  4.34352E+00  3.97566E+00  3.58017E+00  3.28625E+00  3.17894E+00  3.13336E+00
   3.10600E+00  3.09275E+00  3.09495E+00  3.11211E+00  3.13903E+00  3.16998E+00  3.20252E+00  3.23643E+00  3.27445E+00  3.32104E+00
   3.37959E+00  3.45175E+00  3.53798E+00  3.63700E+00  3.74528E+00  3.85993E+00  3.97887E+00  4.09941E+00  4.21861E+00  4.33573E+00
   4.45278E+00  4.57053E+00  4.68727E+00  4.80140E+00  4.90994E+00  5.00938E+00  5.09712E+00  5.17129E+00  5.23162E+00  5.28072E+00
   5.32114E+00  5.35512E+00  5.38456E+00  5.41095E+00  5.43611E+00  5.46196E+00  5.49003E+00  5.52296E+00  5.56341E+00  5.61349E+00
   5.67500E+00  5.74917E+00  5.83669E+00  5.93768E+00  6.05165E+00  6.17752E+00  6.31368E+00  6.45799E+00  6.60776E+00  6.75972E+00
   6.90960E+00  7.05032E+00  7.17266E+00  7.29692E+00  7.46167E+00  7.67004E+00  7.88018E+00  8.04310E+00  8.12899E+00  8.13351E+00
   8.06634E+00  7.94201E+00  7.79625E+00  7.68773E+00  7.67288E+00  7.74291E+00  7.86005E+00  7.98650E+00  8.08310E+00  8.14021E+00
   8.16761E+00  8.17074E+00  8.17749E+00  8.21572E+00  8.27726E+00  8.35613E+00  8.44937E+00  8.55466E+00  8.66966E+00  8.79191E+00
   8.91869E+00  9.04715E+00  9.17429E+00  9.29703E+00  9.41231E+00  9.51709E+00  9.60849E+00  9.68382E+00  9.74068E+00  9.77699E+00
   9.79110E+00  9.78180E+00  9.74843E+00  9.69089E+00  9.60972E+00  9.50604E+00  9.38160E+00  9.23878E+00  9.08050E+00  8.91019E+00
   8.73168E+00  8.54907E+00  8.36662E+00  8.18861E+00  8.01914E+00  7.86197E+00  7.72038E+00  7.59696E+00  7.49352E+00  7.41095E+00
   7.34915E+00  7.30699E+00  7.28233E+00  7.27210E+00  7.27237E+00  7.27857E+00  7.28569E+00  7.28850E+00  7.28181E+00  7.26076E+00
   7.22107E+00  7.15924E+00  7.07274E+00  6.96014E+00  6.82117E+00  6.65669E+00  6.46864E+00  6.25988E+00  6.03404E+00  5.79526E+00
   5.54796E+00  5.29664E+00  5.04559E+00  4.79874E+00  4.55945E+00  4.33040E+00  4.11352E+00  3.90994E+00  3.72002E+00  3.54339E+00
   3.37902E+00  3.22531E+00  3.08025E+00  2.94151E+00  2.80656E+00  2.67281E+00  2.53773E+00  2.39890E+00  2.25415E+00  2.10161E+00
   1.93974E+00  1.76737E+00  1.58374E+00  1.38845E+00  1.18150E+00  9.63222E-01  7.34260E-01  4.95527E-01  2.48141E-01 -6.60463E-03
  -2.67312E-01 -5.32518E-01 -8.00751E-01 -1.07057E+00 -1.34060E+00 -1.60955E+00 -1.87625E+00 -2.13968E+00 -2.39894E+00 -2.65329E+00
  -2.90213E+00 -3.14499E+00 -3.38155E+00 -3.61159E+00 -3.83500E+00 -4.05177E+00 -4.26196E+00 -4.46569E+00 -4.66315E+00 -4.85454E+00
  -5.04012E+00 -5.22017E+00 -5.39495E+00 -5.56475E+00 -5.72987E+00 -5.89056E+00 -6.04711E+00 -6.19978E+00 -6.34882E+00 -6.49446E+00
  -6.63693E+00 -6.77644E+00 -6.91320E+00 -7.04738E+00 -7.17917E+00 -7.30871E+00 -7.43617E+00 -7.56167E+00 -7.68535E+00 -7.80733E+00
  -7.92771E+00 -8.04659E+00 -8.16407E+00 -8.28023E+00 -8.39515E+00 -8.50891E+00 -8.62156E+00 -8.73317E+00 -8.84379E+00 -8.95349E+00
  -9.06230E+00 -9.17027E+00 -9.27744E+00 -9.38384E+00 -9.48951E+00 -9.59449E+00 -9.69878E+00 -9.80244E+00 -9.90547E+00 -1.00079E+01
  -1.01097E+01 -1.02110E+01 -1.03118E+01 -1.04120E+01 -1.05117E+01 -1.06108E+01 -1.07095E+01 -1.08077E+01
 NY background values follow
     7.906E-02    8.282E-02    8.661E-02    9.041E-02    9.422E-02    9.806E-02    1.019E-01    1.058E-01    1.096E-01    1.135E-01
     1.174E-01    1.213E-01    1.252E-01    1.291E-01    1.331E-01    1.370E-01    1.409E-01    1.449E-01    1.488E-01    1.527E-01
     1.567E-01    1.606E-01    1.645E-01    1.684E-01    1.724E-01    1.763E-01    1.802E-01    1.841E-01    1.880E-01    1.918E-01
     1.957E-01    1.996E-01    2.034E-01    2.072E-01    2.110E-01    2.148E-01    2.186E-01    2.223E-01    2.261E-01    2.298E-01
     2.335E-01    2.371E-01    2.408E-01    2.444E-01    2.480E-01    2.515E-01    2.550E-01    2.585E-01    2.620E-01    2.655E-01
     2.689E-01    2.723E-01    2.757E-01    2.790E-01    2.824E-01    2.857E-01    2.890E-01    2.923E-01    2.956E-01    2.988E-01
     3.021E-01    3.053E-01    3.086E-01    3.118E-01    3.150E-01    3.182E-01    3.215E-01    3.247E-01    3.279E-01    3.311E-01
     3.343E-01    3.376E-01    3.408E-01    3.440E-01    3.473E-01    3.506E-01    3.538E-01    3.571E-01    3.604E-01    3.637E-01
     3.671E-01    3.704E-01    3.738E-01    3.772E-01    3.806E-01    3.840E-01    3.875E-01    3.910E-01    3.945E-01    3.980E-01
     4.016E-01    4.052E-01    4.088E-01    4.125E-01    4.162E-01    4.200E-01    4.238E-01    4.276E-01    4.315E-01    4.355E-01
     4.395E-01    4.436E-01    4.477E-01    4.519E-01    4.561E-01    4.605E-01    4.649E-01    4.693E-01    4.739E-01    4.785E-01
     4.832E-01    4.880E-01    4.929E-01    4.979E-01    5.029E-01    5.081E-01    5.133E-01    5.187E-01    5.242E-01    5.297E-01
     5.354E-01    5.412E-01    5.471E-01    5.531E-01    5.592E-01    5.655E-01    5.719E-01    5.784E-01    5.850E-01    5.918E-01
     5.987E-01    6.058E-01    6.130E-01    6.203E-01    6.278E-01    6.354E-01    6.432E-01    6.511E-01    6.592E-01    6.674E-01
     6.758E-01    6.843E-01    6.929E-01    7.017E-01    7.105E-01    7.196E-01    7.287E-01    7.379E-01    7.473E-01    7.568E-01
     7.663E-01    7.760E-01    7.858E-01    7.956E-01    8.056E-01    8.156E-01    8.258E-01    8.360E-01    8.463E-01    8.566E-01
     8.670E-01    8.775E-01    8.881E-01    8.987E-01    9.094E-01    9.201E-01    9.309E-01    9.417E-01    9.526E-01    9.635E-01
     9.744E-01    9.853E-01    9.963E-01    1.007E+00    1.018E+00    1.029E+00    1.040E+00    1.052E+00    1.063E+00    1.074E+00
     1.085E+00    1.096E+00    1.107E+00    1.118E+00    1.129E+00    1.140E+00    1.151E+00    1.162E+00    1.173E+00    1.184E+00
     1.194E+00    1.205E+00    1.216E+00    1.226E+00    1.236E+00    1.247E+00    1.257E+00    1.267E+00    1.277E+00    1.287E+00
     1.297E+00    1.306E+00    1.316E+00    1.325E+00    1.334E+00    1.343E+00    1.352E+00    1.361E+00    1.369E+00    1.378E+00
     1.386E+00    1.393E+00    1.401E+00    1.409E+00    1.416E+00    1.423E+00    1.430E+00    1.436E+00    1.442E+00    1.448E+00
     1.454E+00    1.459E+00    1.465E+00    1.470E+00    1.474E+00    1.478E+00    1.482E+00    1.486E+00    1.490E+00    1.493E+00
     1.495E+00    1.498E+00    1.500E+00    1.502E+00    1.503E+00    1.504E+00    1.505E+00    1.505E+00    1.506E+00    1.505E+00
     1.505E+00    1.504E+00    1.503E+00    1.501E+00    1.499E+00    1.497E+00    1.494E+00    1.491E+00    1.487E+00    1.484E+00
     1.479E+00    1.475E+00    1.470E+00    1.465E+00    1.459E+00    1.453E+00    1.446E+00    1.439E+00    1.432E+00    1.425E+00
     1.417E+00    1.408E+00    1.399E+00    1.390E+00    1.380E+00    1.370E+00    1.360E+00    1.349E+00    1.338E+00    1.326E+00
     1.314E+00    1.301E+00    1.288E+00    1.275E+00    1.261E+00    1.247E+00    1.232E+00    1.217E+00    1.201E+00    1.185E+00
     1.169E+00    1.152E+00    1.135E+00    1.117E+00    1.099E+00    1.080E+00    1.061E+00    1.042E+00    1.022E+00    1.002E+00
     9.815E-01    9.604E-01    9.389E-01    9.171E-01    8.948E-01    8.721E-01    8.489E-01    8.254E-01    8.014E-01    7.770E-01
     7.523E-01    7.271E-01    7.014E-01    6.754E-01    6.490E-01    6.221E-01    5.949E-01    5.672E-01    5.392E-01    5.107E-01
     4.818E-01    4.525E-01    4.228E-01    3.927E-01    3.622E-01    3.312E-01    2.999E-01    2.682E-01    2.360E-01    2.035E-01
     1.706E-01    1.372E-01    1.035E-01    6.936E-02    3.482E-02   -1.156E-04   -3.545E-02   -7.118E-02   -1.073E-01   -1.438E-01
    -1.807E-01   -2.181E-01   -2.558E-01   -2.939E-01   -3.323E-01   -3.712E-01   -4.105E-01   -4.501E-01   -4.902E-01   -5.306E-01
    -5.715E-01   -6.127E-01   -6.543E-01   -6.962E-01   -7.386E-01   -7.814E-01   -8.245E-01   -8.680E-01   -9.119E-01   -9.562E-01
    -1.001E+00   -1.046E+00   -1.091E+00   -1.137E+00   -1.183E+00   -1.230E+00   -1.277E+00   -1.324E+00   -1.372E+00   -1.420E+00
    -1.468E+00   -1.517E+00   -1.566E+00   -1.616E+00   -1.666E+00   -1.716E+00   -1.766E+00   -1.817E+00   -1.869E+00   -1.921E+00
    -1.973E+00   -2.025E+00   -2.078E+00   -2.131E+00   -2.185E+00   -2.239E+00   -2.293E+00   -2.348E+00   -2.403E+00   -2.459E+00
    -2.515E+00   -2.571E+00   -2.627E+00   -2.684E+00   -2.742E+00   -2.799E+00   -2.857E+00   -2.916E+00   -2.975E+00   -3.034E+00
    -3.094E+00   -3.153E+00   -3.214E+00   -3.275E+00   -3.336E+00   -3.397E+00   -3.459E+00   -3.521E+00   -3.584E+00   -3.647E+00
    -3.710E+00   -3.774E+00   -3.838E+00   -3.902E+00   -3.967E+00   -4.032E+00   -4.098E+00   -4.164E+00   -4.230E+00   -4.296E+00
    -4.364E+00   -4.431E+00   -4.499E+00   -4.567E+00   -4.635E+00   -4.704E+00   -4.774E+00   -4.843E+00   -4.913E+00   -4.983E+00
    -5.054E+00   -5.125E+00   -5.197E+00   -5.268E+00   -5.341E+00   -5.413E+00   -5.486E+00   -5.559E+00   -5.633E+00   -5.706E+00
    -5.781E+00   -5.855E+00   -5.930E+00   -6.005E+00   -6.081E+00   -6.157E+00   -6.233E+00   -6.310E+00   -6.387E+00   -6.464E+00
    -6.542E+00   -6.620E+00   -6.698E+00   -6.776E+00   -6.855E+00   -6.935E+00   -7.014E+00   -7.094E+00   -7.175E+00   -7.255E+00
    -7.336E+00   -7.417E+00   -7.499E+00   -7.581E+00   -7.663E+00   -7.745E+00   -7.828E+00   -7.911E+00   -7.994E+00   -8.078E+00
    -8.162E+00   -8.246E+00   -8.330E+00   -8.415E+00   -8.500E+00   -8.584E+00   -8.670E+00   -8.755E+00   -8.840E+00   -8.926E+00
    -9.012E+00   -9.098E+00   -9.184E+00   -9.270E+00   -9.357E+00   -9.443E+00   -9.530E+00   -9.617E+00   -9.703E+00   -9.790E+00
    -9.877E+00   -9.964E+00   -1.005E+01   -1.014E+01   -1.023E+01   -1.031E+01   -1.040E+01   -1.049E+01   -1.057E+01   -1.066E+01
    -1.075E+01   -1.084E+01   -1.092E+01   -1.101E+01   -1.110E+01   -1.118E+01   -1.127E+01   -1.136E+01
 Ala      Conc. = 5.60E+00
