 LCModel (Version 6.3-1L) Copyright: S.W. Provencher.          Ref.: Magn. Reson. Med. 30:672-679 (1993).                
 Slice#2 Row#12 Col#10  PD_05_press_1_raw_act
 36 lines in following concentration table = NCONC+1
    Conc.  %SD /Cr+PCr  Metabolite                                         
  114.507  54%   0.156 Ala                                                 
    0.000 999%   0.000 Asp                                                 
  319.196  36%   0.435 Cr                                                  
  414.524  29%   0.565 PCr                                                 
   18.855 432% 2.6E-02 GABA                                                
    0.000 999%   0.000 Glc                                                 
  386.657  34%   0.527 Gln                                                 
  912.877  17%   1.244 Glu                                                 
  242.618   5%   0.331 GPC                                                 
    0.000 999%   0.000 PCh                                                 
  203.908  18%   0.278 GSH                                                 
  687.054  17%   0.936 Ins                                                 
   84.319  81%   0.115 Lac                                                 
 1.29E+03   6%   1.762 NAA                                                 
  121.557  68%   0.166 NAAG                                                
   67.278  20% 9.2E-02 Scyllo                                              
   55.625 172% 7.6E-02 Tau                                                 
  131.968  39%   0.180 -CrCH2                                              
  242.618   5%   0.331 GPC+PCh                                             
 1.41E+03   3%   1.927 NAA+NAAG                                            
  733.720   4%   1.000 Cr+PCr                                              
 1.30E+03  17%   1.771 Glu+Gln                                             
  302.397  51%   0.412 Lip13a                                              
    0.000 999%   0.000 Lip13b                                              
    0.000 999%   0.000 Lip09                                               
  861.692   9%   1.174 MM09                                                
   53.801  99% 7.3E-02 Lip20                                               
 2.12E+03   8%   2.887 MM20                                                
  288.728  27%   0.394 MM12                                                
 1.13E+03  16%   1.539 MM14                                                
  818.024  16%   1.115 MM17                                                
  302.397  51%   0.412 Lip13a+Lip13b                                       
 1.72E+03   9%   2.344 MM14+Lip13a+Lip13b+MM12                             
  861.692   9%   1.174 MM09+Lip09                                          
 2.17E+03   8%   2.960 MM20+Lip20                                          
   6 lines in following misc. output table
  FWHM = 0.061 ppm    S/N =  15                                            
  Data shift = 0.023 ppm                                                   
  Ph: -45 deg     -13.3 deg/ppm                                            
  alphaB,S = 8.5E+01,   1.7E+02                                            
   14 spline knots.   Ns = 8(1)                                            
   2 inflections.     1 extrema                                            
  498 points on ppm-axis = NY
      4.000000     3.992357     3.984714     3.977070     3.969427     3.961784     3.954141     3.946497     3.938854     3.931211
      3.923568     3.915925     3.908281     3.900638     3.892995     3.885352     3.877708     3.870065     3.862422     3.854779
      3.847136     3.839492     3.831849     3.824206     3.816563     3.808919     3.801276     3.793633     3.785990     3.778347
      3.770703     3.763060     3.755417     3.747774     3.740130     3.732487     3.724844     3.717201     3.709558     3.701914
      3.694271     3.686628     3.678985     3.671341     3.663698     3.656055     3.648412     3.640769     3.633125     3.625482
      3.617839     3.610196     3.602552     3.594909     3.587266     3.579623     3.571980     3.564336     3.556693     3.549050
      3.541407     3.533763     3.526120     3.518477     3.510834     3.503191     3.495547     3.487904     3.480261     3.472618
      3.464974     3.457331     3.449688     3.442045     3.434402     3.426758     3.419115     3.411472     3.403829     3.396185
      3.388542     3.380899     3.373256     3.365613     3.357969     3.350326     3.342683     3.335040     3.327396     3.319753
      3.312110     3.304467     3.296824     3.289180     3.281537     3.273894     3.266251     3.258607     3.250964     3.243321
      3.235678     3.228034     3.220391     3.212748     3.205105     3.197462     3.189818     3.182175     3.174532     3.166889
      3.159245     3.151602     3.143959     3.136316     3.128673     3.121029     3.113386     3.105743     3.098100     3.090456
      3.082813     3.075170     3.067527     3.059884     3.052240     3.044597     3.036954     3.029311     3.021667     3.014024
      3.006381     2.998738     2.991095     2.983451     2.975808     2.968165     2.960522     2.952878     2.945235     2.937592
      2.929949     2.922306     2.914662     2.907019     2.899376     2.891733     2.884089     2.876446     2.868803     2.861160
      2.853517     2.845873     2.838230     2.830587     2.822944     2.815300     2.807657     2.800014     2.792371     2.784728
      2.777084     2.769441     2.761798     2.754155     2.746511     2.738868     2.731225     2.723582     2.715939     2.708295
      2.700652     2.693009     2.685366     2.677722     2.670079     2.662436     2.654793     2.647150     2.639506     2.631863
      2.624220     2.616577     2.608933     2.601290     2.593647     2.586004     2.578361     2.570717     2.563074     2.555431
      2.547788     2.540144     2.532501     2.524858     2.517215     2.509572     2.501928     2.494285     2.486642     2.478999
      2.471355     2.463712     2.456069     2.448426     2.440783     2.433139     2.425496     2.417853     2.410210     2.402566
      2.394923     2.387280     2.379637     2.371994     2.364350     2.356707     2.349064     2.341421     2.333777     2.326134
      2.318491     2.310848     2.303205     2.295561     2.287918     2.280275     2.272632     2.264988     2.257345     2.249702
      2.242059     2.234416     2.226772     2.219129     2.211486     2.203843     2.196199     2.188556     2.180913     2.173270
      2.165627     2.157983     2.150340     2.142697     2.135054     2.127410     2.119767     2.112124     2.104481     2.096838
      2.089194     2.081551     2.073908     2.066265     2.058621     2.050978     2.043335     2.035692     2.028049     2.020405
      2.012762     2.005119     1.997476     1.989833     1.982190     1.974546     1.966903     1.959260     1.951617     1.943974
      1.936331     1.928688     1.921045     1.913402     1.905759     1.898115     1.890472     1.882829     1.875186     1.867543
      1.859900     1.852257     1.844614     1.836971     1.829327     1.821684     1.814041     1.806398     1.798755     1.791112
      1.783469     1.775826     1.768183     1.760540     1.752896     1.745253     1.737610     1.729967     1.722324     1.714681
      1.707038     1.699395     1.691752     1.684108     1.676465     1.668822     1.661179     1.653536     1.645893     1.638250
      1.630607     1.622964     1.615321     1.607677     1.600034     1.592391     1.584748     1.577105     1.569462     1.561819
      1.554176     1.546533     1.538890     1.531246     1.523603     1.515960     1.508317     1.500674     1.493031     1.485388
      1.477745     1.470102     1.462458     1.454815     1.447172     1.439529     1.431886     1.424243     1.416600     1.408957
      1.401314     1.393671     1.386027     1.378384     1.370741     1.363098     1.355455     1.347812     1.340169     1.332526
      1.324883     1.317240     1.309596     1.301953     1.294310     1.286667     1.279024     1.271381     1.263738     1.256095
      1.248452     1.240808     1.233165     1.225522     1.217879     1.210236     1.202593     1.194950     1.187307     1.179664
      1.172021     1.164377     1.156734     1.149091     1.141448     1.133805     1.126162     1.118519     1.110876     1.103233
      1.095590     1.087946     1.080303     1.072660     1.065017     1.057374     1.049731     1.042088     1.034445     1.026802
      1.019158     1.011515     1.003872     0.996229     0.988586     0.980943     0.973300     0.965657     0.958014     0.950371
      0.942727     0.935084     0.927441     0.919798     0.912155     0.904512     0.896869     0.889226     0.881583     0.873940
      0.866296     0.858653     0.851010     0.843367     0.835724     0.828081     0.820438     0.812795     0.805152     0.797508
      0.789865     0.782222     0.774579     0.766936     0.759293     0.751650     0.744007     0.736364     0.728721     0.721077
      0.713434     0.705791     0.698148     0.690505     0.682862     0.675219     0.667576     0.659933     0.652290     0.644646
      0.637003     0.629360     0.621717     0.614074     0.606431     0.598788     0.591145     0.583502     0.575858     0.568215
      0.560572     0.552929     0.545286     0.537643     0.530000     0.522357     0.514714     0.507071     0.499427     0.491784
      0.484141     0.476498     0.468855     0.461212     0.453569     0.445925     0.438282     0.430639     0.422996     0.415353
      0.407710     0.400067     0.392424     0.384780     0.377137     0.369494     0.361851     0.354208     0.346565     0.338922
      0.331278     0.323635     0.315992     0.308349     0.300706     0.293063     0.285420     0.277777     0.270133     0.262490
      0.254847     0.247204     0.239561     0.231918     0.224275     0.216631     0.208988     0.201345
 NY phased data points follow
  -4.06691E+00 -2.81634E+00 -2.97518E+00 -3.15990E+00 -1.75387E+00 -7.59620E-01  1.71572E+00  5.89208E+00  5.59498E+00  6.95685E+00
   6.85071E+00  9.48905E+00  8.58109E+00  8.03661E+00  5.46073E+00  4.84193E+00  1.98624E+00 -5.42928E-01 -1.79574E+00  5.92033E-01
  -2.63306E+00 -7.08078E-01 -2.84870E+00 -5.89745E-01 -9.13687E-01 -5.40407E-01  3.28048E-01  2.88656E-01 -9.77746E-01  1.31251E+00
   1.44317E+00  5.78468E-01  2.63691E+00  4.37816E-01 -9.06495E-01  1.37149E+00 -1.15304E+00 -2.33909E-01 -2.90926E+00 -1.11113E-02
   9.82613E-01 -1.37296E-01  2.38264E+00  3.37052E-01  1.07917E+00  3.72898E+00  3.09588E+00  3.45943E+00  4.43830E+00  3.50010E+00
   1.27188E+00  2.38850E+00 -3.96990E-01  8.55955E-01 -4.43708E-01 -1.48098E-01 -3.48717E-01 -9.70114E-01  1.16614E+00 -1.72643E+00
  -1.49153E+00 -2.83732E+00 -4.15526E+00 -3.56347E+00 -3.59730E+00 -3.43963E+00 -1.96882E+00 -5.34027E+00 -4.99857E+00 -1.54294E+00
  -3.62001E+00 -1.85590E+00 -2.82672E+00 -1.04563E+00 -1.28184E+00 -2.41262E+00 -2.04372E+00 -2.05646E+00 -1.88779E+00 -4.58780E+00
  -1.90613E+00 -2.98608E+00 -2.07026E+00 -2.38722E+00 -2.05223E+00 -1.36331E+00 -2.00551E+00 -8.67092E-01 -5.88493E-01  2.00034E-01
  -3.13948E-01  4.22907E-01 -2.20032E+00 -2.33983E-01  1.79772E+00  6.00057E-01  1.96880E-01  2.76296E+00  2.87778E+00  7.83944E+00
   1.00030E+01  1.24893E+01  1.41439E+01  1.51603E+01  1.55573E+01  1.47182E+01  1.13401E+01  8.82578E+00  5.21602E+00  6.69624E+00
   2.58858E+00  2.27080E+00  1.59983E+00  3.49391E+00  4.13803E-01  8.98459E-01  4.53608E+00  1.01896E+00  2.00791E-01  9.06042E-01
   8.71211E-03  2.89322E+00  5.49168E+00  9.03198E+00  1.17734E+01  1.52323E+01  1.89268E+01  2.09194E+01  1.86643E+01  2.12302E+01
   1.45824E+01  1.17974E+01  9.28509E+00  4.83457E+00  5.28141E+00  1.63907E+00  1.20524E+00 -1.92031E-01 -1.96741E+00 -2.22487E+00
  -1.34356E+00 -1.75431E+00 -4.26782E-01  2.31744E-01 -1.13608E+00  9.71656E-01  2.28284E+00 -6.75838E-02  4.31569E-01  4.39380E-01
   4.20247E-01  6.19256E-01 -1.42931E+00 -1.86054E+00 -1.73949E+00 -3.04126E+00 -2.61668E+00 -1.50413E+00 -3.83067E-01 -1.43045E-01
  -1.29640E+00 -4.52930E+00 -1.14578E+00 -3.11641E+00 -4.47330E+00 -1.91670E+00 -2.23555E+00 -3.04742E+00 -5.40543E+00 -5.80509E+00
  -4.03503E+00 -7.26759E+00 -6.29202E+00 -7.58285E+00 -8.50698E+00 -6.64899E+00 -6.99968E+00 -4.89060E+00 -6.75073E+00 -5.33633E+00
  -3.23022E+00 -7.60203E+00 -4.34658E+00 -3.94344E+00 -5.90689E+00 -5.77951E+00 -5.53744E+00 -6.21835E+00 -3.13357E+00 -2.90003E+00
  -2.98180E+00 -1.90471E+00 -1.08402E-01 -1.59143E+00 -2.80260E+00 -2.15141E+00 -3.15575E+00 -6.09415E-01 -8.24866E-01 -3.81346E+00
  -5.92552E-01 -2.80049E+00 -7.97947E-02  1.50741E+00  4.91040E-01 -8.42107E-01 -5.15634E-01 -2.02792E+00 -5.78032E-02 -1.98547E+00
  -1.97332E+00 -1.52663E+00 -2.09455E-02  4.83272E-01  2.87541E+00  4.28118E+00  4.30363E+00  2.60271E+00  2.88706E+00  2.13970E+00
  -1.37574E-02 -6.01287E-02 -5.80242E-01 -4.08841E+00  2.85689E-01 -2.88929E-01  1.67807E+00  2.94337E+00  3.26190E+00  1.44331E+00
   4.74878E+00  3.65676E+00  4.76497E+00  4.42963E+00  4.70005E+00  4.22975E+00  4.94239E+00  2.83315E+00  3.86114E+00  2.83645E+00
   1.51149E+00  1.78761E+00  2.01626E-02  3.19434E+00  2.38252E+00  6.19226E+00  6.86595E+00  5.28875E+00  8.67205E+00  9.56589E+00
   9.00426E+00  9.66551E+00  1.13243E+01  1.39936E+01  1.76727E+01  2.05163E+01  2.58103E+01  3.08269E+01  3.78880E+01  4.37497E+01
   4.45441E+01  4.31595E+01  4.07950E+01  3.36959E+01  2.80506E+01  2.27471E+01  1.73883E+01  1.26003E+01  1.08642E+01  9.33563E+00
   6.49989E+00  3.40578E+00  4.16624E+00  2.17700E+00  2.83722E+00  4.71788E+00  4.14167E+00  2.94127E+00  4.48463E+00  4.28442E+00
   2.40649E+00  3.13134E+00  2.11205E+00  2.33796E+00  2.97661E+00 -2.81126E-01  2.79962E+00  2.35430E+00  3.47808E+00  2.80981E+00
   1.72230E+00  3.85751E+00  2.49332E+00  3.41752E+00  9.93306E-01  4.99820E+00  3.66952E+00  2.70012E+00  2.34378E+00  6.31015E+00
   6.09903E+00  3.81180E+00  2.19530E+00  3.72470E+00  4.37437E+00  6.49954E+00  4.18000E+00  7.04505E+00  5.90194E+00  2.29344E+00
   4.25241E+00  4.02648E+00  4.92567E+00  4.72123E+00  4.39754E+00  3.90690E+00  4.29726E+00  6.71949E+00  5.28915E+00  6.32297E+00
   4.81543E+00  3.44351E+00  5.70645E+00  3.48247E+00  5.02870E+00  3.30494E+00  4.24686E+00  3.62588E+00  4.25182E+00  4.13540E+00
   4.95014E+00  5.74042E+00  3.81126E+00  3.96671E+00  5.29490E+00  6.31838E+00  5.93291E+00  7.42893E+00  7.80142E+00  7.85886E+00
   7.39305E+00  4.79769E+00  6.16556E+00  6.45621E+00  5.27592E+00  7.08324E+00  6.12627E+00  4.76351E+00  5.60761E+00  4.02607E+00
   6.19538E+00  2.84372E+00  2.78464E+00  4.51419E+00  4.50721E+00  3.58072E+00  4.85515E+00  5.39414E+00  3.74627E+00  3.24418E+00
   3.65528E+00  4.11716E+00  3.04308E+00  3.60389E+00  4.97660E+00  3.81190E+00  4.31945E+00  2.94590E+00  3.43273E+00  4.65297E+00
   3.40939E+00  3.42987E+00  2.08792E+00  2.34187E+00  2.49869E+00  1.01486E+00  1.77226E+00  9.22357E-01  3.98995E+00  2.45226E+00
   3.07889E+00  2.15233E+00 -1.40072E-01  6.34949E-01  2.11715E-01  3.18394E+00  1.37042E+00  9.05870E-01  8.87362E-01  2.42414E+00
   3.19881E+00  3.32158E+00  2.34219E+00  3.29133E+00  3.54892E+00  4.76261E+00  4.52056E+00  3.98598E+00  7.46149E+00  2.58932E+00
   5.47372E+00  6.13998E+00  5.40701E+00  4.25924E+00  4.78185E+00  7.08842E+00  6.27771E+00  6.49381E+00  6.97790E+00  2.79724E+00
   4.27482E+00  4.39992E+00  5.46063E+00  5.36629E+00  4.13987E+00  4.44504E+00  4.95535E+00  2.70047E+00  4.51285E+00  2.91436E+00
   3.72956E+00  2.29392E+00  1.81286E+00  2.18989E+00  1.85178E+00  3.22957E+00  1.92465E+00 -7.64788E-01  2.68322E+00  1.09238E-01
   9.71854E-01  1.61326E+00  1.27451E+00  1.43770E+00 -1.52462E-01  2.06495E+00  6.65184E-01  1.36916E+00  1.51454E+00 -7.44512E-01
   9.58523E-01  1.68459E+00  1.85040E+00  1.11447E+00 -4.67114E-01  1.83976E+00  8.28154E-01  3.07726E+00  1.80877E+00  2.28067E-01
   1.40030E+00  7.56938E-01  1.65743E+00 -1.97076E+00  1.33081E+00  4.70950E-01  8.82797E-01  3.75354E-01  1.93923E+00 -3.06097E-01
  -2.55473E-01 -2.19152E+00  6.12797E-01  5.41196E-01  5.62868E-01  9.08038E-01  7.27437E-01  1.80860E+00 -1.86646E-01  9.21121E-02
   5.10732E-01  3.66297E-02 -4.88877E-01 -7.02136E-01  4.90471E-01 -7.54877E-01  7.96939E-02  1.00204E+00  8.34025E-02  2.41919E-01
   1.14060E+00  8.15726E-01  7.81893E-01 -1.05146E+00 -1.36757E+00  2.79145E+00  1.71467E-01  5.02027E-01  5.12314E-01  1.87605E-01
   6.25382E-01  1.30771E+00  1.63403E+00  2.21035E+00 -1.21632E+00 -2.93299E-01  3.90868E-01  1.99579E+00
 NY points of the fit to the data follow
  -2.95448E+00 -3.03681E+00 -2.77088E+00 -2.11215E+00 -1.08359E+00  2.71839E-01  1.95476E+00  3.86964E+00  5.78679E+00  7.39267E+00
   8.38816E+00  8.60100E+00  8.04590E+00  6.90995E+00  5.46715E+00  3.99152E+00  2.66906E+00  1.54508E+00  5.68995E-01 -2.09632E-01
  -8.16427E-01 -1.22417E+00 -1.34861E+00 -1.36169E+00 -1.31954E+00 -1.16325E+00 -8.06358E-01 -2.16005E-01  5.16400E-01  1.27621E+00
   1.94663E+00  2.39148E+00  2.51328E+00  2.28372E+00  1.75847E+00  1.05674E+00  2.75394E-01 -4.74632E-01 -1.08983E+00 -1.40376E+00
  -1.30497E+00 -9.41449E-01 -3.97441E-01  2.99043E-01  1.08913E+00  1.83409E+00  2.33057E+00  2.47716E+00  2.25778E+00  1.68121E+00
   8.74413E-01  5.14606E-02 -6.26519E-01 -1.07484E+00 -1.32811E+00 -1.46997E+00 -1.50108E+00 -1.38363E+00 -1.18925E+00 -1.04692E+00
  -1.03080E+00 -1.14727E+00 -1.37425E+00 -1.64062E+00 -1.86617E+00 -2.00045E+00 -2.02844E+00 -1.97534E+00 -1.86871E+00 -1.72922E+00
  -1.59396E+00 -1.48725E+00 -1.42949E+00 -1.43252E+00 -1.49461E+00 -1.60872E+00 -1.75410E+00 -1.90109E+00 -2.03229E+00 -2.06599E+00
  -2.00355E+00 -1.89234E+00 -1.71276E+00 -1.45450E+00 -1.14184E+00 -8.33050E-01 -6.07065E-01 -5.31561E-01 -6.08873E-01 -8.24642E-01
  -1.13945E+00 -1.47176E+00 -1.75225E+00 -1.94069E+00 -1.89412E+00 -1.23429E+00 -5.02504E-02  1.54562E+00  3.68682E+00  6.43999E+00
   9.64714E+00  1.27985E+01  1.52128E+01  1.63696E+01  1.60868E+01  1.44769E+01  1.19444E+01  9.09492E+00  6.45568E+00  4.27308E+00
   2.49898E+00  9.25097E-01 -4.30256E-01 -1.17297E+00 -1.44674E+00 -1.57202E+00 -1.63155E+00 -1.62476E+00 -1.39789E+00 -4.49440E-01
   1.14144E+00  3.10650E+00  5.57793E+00  8.70855E+00  1.23355E+01  1.59116E+01  1.86803E+01  2.00392E+01  1.98001E+01  1.80940E+01
   1.53277E+01  1.21717E+01  9.19284E+00  6.64741E+00  4.50692E+00  2.56661E+00  8.74111E-01 -3.02779E-02 -2.76914E-01 -2.87810E-01
  -2.16238E-01 -1.52276E-01 -1.46168E-01 -1.91409E-01 -2.75256E-01 -4.01461E-01 -5.54422E-01 -7.23060E-01 -9.01919E-01 -1.07606E+00
  -1.23960E+00 -1.37742E+00 -1.48633E+00 -1.59901E+00 -1.71611E+00 -1.82319E+00 -1.92563E+00 -2.02735E+00 -2.15532E+00 -2.31359E+00
  -2.45805E+00 -2.54749E+00 -2.57726E+00 -2.57257E+00 -2.58030E+00 -2.64871E+00 -2.79724E+00 -3.02415E+00 -3.30762E+00 -3.58889E+00
  -3.80718E+00 -4.00198E+00 -4.21171E+00 -4.44672E+00 -4.66295E+00 -4.77309E+00 -4.77634E+00 -4.73035E+00 -4.67319E+00 -4.63929E+00
  -4.62268E+00 -4.58396E+00 -4.50324E+00 -4.35617E+00 -4.10881E+00 -3.75747E+00 -3.32793E+00 -2.83211E+00 -2.27415E+00 -1.71143E+00
  -1.25418E+00 -9.93985E-01 -9.39841E-01 -1.01804E+00 -1.14539E+00 -1.23901E+00 -1.20223E+00 -1.02646E+00 -7.18319E-01 -2.87145E-01
   1.87124E-01  6.12929E-01  8.80076E-01  9.24437E-01  6.84005E-01  1.21983E-01 -6.77535E-01 -1.52162E+00 -2.20106E+00 -2.52113E+00
  -2.45994E+00 -1.98840E+00 -1.13636E+00 -4.98493E-02  1.02267E+00  1.77169E+00  2.03649E+00  1.81065E+00  1.10013E+00  3.76498E-03
  -1.21467E+00 -2.16031E+00 -2.58090E+00 -2.46737E+00 -1.91532E+00 -1.04485E+00  1.81520E-03  1.02621E+00  1.79584E+00  2.31979E+00
   2.68697E+00  2.98582E+00  3.26172E+00  3.49796E+00  3.72606E+00  3.99154E+00  4.24246E+00  4.42301E+00  4.50172E+00  4.44828E+00
   4.30112E+00  4.15150E+00  4.10480E+00  4.24440E+00  4.57579E+00  5.03783E+00  5.56553E+00  6.13833E+00  6.76399E+00  7.39481E+00
   8.06235E+00  8.96109E+00  1.08008E+01  1.39515E+01  1.76641E+01  2.18272E+01  2.67024E+01  3.22270E+01  3.76996E+01  4.19969E+01
   4.40905E+01  4.34998E+01  4.03098E+01  3.50719E+01  2.88383E+01  2.28123E+01  1.77651E+01  1.37557E+01  1.03573E+01  7.26228E+00
   5.08267E+00  4.19499E+00  3.77420E+00  3.49665E+00  3.29280E+00  3.13183E+00  2.96928E+00  2.79787E+00  2.62478E+00  2.45858E+00
   2.31105E+00  2.19163E+00  2.09879E+00  2.03095E+00  1.99548E+00  1.99483E+00  2.02296E+00  2.07506E+00  2.15130E+00  2.25417E+00
   2.38348E+00  2.53324E+00  2.70060E+00  2.88407E+00  3.07903E+00  3.27982E+00  3.48277E+00  3.68442E+00  3.88110E+00  4.06861E+00
   4.24228E+00  4.39760E+00  4.53135E+00  4.63992E+00  4.72018E+00  4.77062E+00  4.79139E+00  4.78433E+00  4.75222E+00  4.69845E+00
   4.62809E+00  4.54693E+00  4.46089E+00  4.37638E+00  4.30013E+00  4.23887E+00  4.19975E+00  4.19153E+00  4.22879E+00  4.32909E+00
   4.45941E+00  4.59464E+00  4.74098E+00  4.88722E+00  4.99439E+00  5.01162E+00  4.90642E+00  4.72198E+00  4.52357E+00  4.34566E+00
   4.24297E+00  4.28195E+00  4.49428E+00  4.85522E+00  5.29439E+00  5.72988E+00  6.11473E+00  6.43295E+00  6.63730E+00  6.73057E+00
   6.74446E+00  6.69603E+00  6.61460E+00  6.49570E+00  6.30488E+00  6.04294E+00  5.71425E+00  5.33439E+00  4.93700E+00  4.54896E+00
   4.21689E+00  3.99712E+00  3.91984E+00  3.96818E+00  4.08845E+00  4.21763E+00  4.31736E+00  4.37901E+00  4.37651E+00  4.29458E+00
   4.16449E+00  4.01558E+00  3.86163E+00  3.69667E+00  3.51341E+00  3.34134E+00  3.19380E+00  3.05829E+00  2.92954E+00  2.80607E+00
   2.68774E+00  2.57514E+00  2.46914E+00  2.37088E+00  2.28154E+00  2.20240E+00  2.13466E+00  2.07958E+00  2.03827E+00  2.01184E+00
   2.00133E+00  2.00772E+00  2.03191E+00  2.07474E+00  2.13693E+00  2.21912E+00  2.32177E+00  2.44521E+00  2.58943E+00  2.75418E+00
   2.93872E+00  3.14193E+00  3.36209E+00  3.59690E+00  3.84341E+00  4.09801E+00  4.35643E+00  4.61388E+00  4.86506E+00  5.10437E+00
   5.32603E+00  5.52437E+00  5.69397E+00  5.83000E+00  5.92835E+00  5.98590E+00  6.00059E+00  5.97163E+00  5.89944E+00  5.78575E+00
   5.63337E+00  5.44616E+00  5.22877E+00  4.98646E+00  4.72485E+00  4.44967E+00  4.16654E+00  3.88077E+00  3.59714E+00  3.31991E+00
   3.05258E+00  2.79800E+00  2.55826E+00  2.33478E+00  2.12837E+00  1.93929E+00  1.76737E+00  1.61209E+00  1.47261E+00  1.34795E+00
   1.23699E+00  1.13857E+00  1.05152E+00  9.74706E-01  9.07018E-01  8.47459E-01  7.95085E-01  7.49082E-01  7.08682E-01  6.73233E-01
   6.42123E-01  6.14854E-01  5.90962E-01  5.70079E-01  5.51842E-01  5.35969E-01  5.22176E-01  5.10259E-01  5.00007E-01  4.91273E-01
   4.83883E-01  4.77721E-01  4.72649E-01  4.68589E-01  4.65438E-01  4.63135E-01  4.61583E-01  4.60736E-01  4.60515E-01  4.60894E-01
   4.61813E-01  4.63248E-01  4.65135E-01  4.67461E-01  4.70176E-01  4.73279E-01  4.76726E-01  4.80509E-01  4.84584E-01  4.88951E-01
   4.93579E-01  4.98477E-01  5.03610E-01  5.08980E-01  5.14552E-01  5.20339E-01  5.26314E-01  5.32493E-01  5.38841E-01  5.45368E-01
   5.52045E-01  5.58892E-01  5.65889E-01  5.73051E-01  5.80349E-01  5.87798E-01  5.95376E-01  6.03109E-01  6.10979E-01  6.19002E-01
   6.27156E-01  6.35461E-01  6.43904E-01  6.52516E-01  6.61282E-01  6.70229E-01  6.79340E-01  6.88652E-01
 NY background values follow
    -4.047E+00   -4.038E+00   -4.029E+00   -4.019E+00   -4.010E+00   -4.000E+00   -3.991E+00   -3.981E+00   -3.972E+00   -3.962E+00
    -3.953E+00   -3.944E+00   -3.934E+00   -3.925E+00   -3.915E+00   -3.906E+00   -3.896E+00   -3.887E+00   -3.877E+00   -3.868E+00
    -3.858E+00   -3.849E+00   -3.839E+00   -3.830E+00   -3.821E+00   -3.811E+00   -3.802E+00   -3.792E+00   -3.783E+00   -3.773E+00
    -3.764E+00   -3.754E+00   -3.745E+00   -3.735E+00   -3.726E+00   -3.716E+00   -3.707E+00   -3.697E+00   -3.688E+00   -3.678E+00
    -3.668E+00   -3.659E+00   -3.649E+00   -3.640E+00   -3.630E+00   -3.621E+00   -3.611E+00   -3.602E+00   -3.592E+00   -3.583E+00
    -3.573E+00   -3.564E+00   -3.554E+00   -3.545E+00   -3.535E+00   -3.525E+00   -3.516E+00   -3.506E+00   -3.497E+00   -3.487E+00
    -3.478E+00   -3.468E+00   -3.458E+00   -3.449E+00   -3.439E+00   -3.430E+00   -3.420E+00   -3.411E+00   -3.401E+00   -3.391E+00
    -3.382E+00   -3.372E+00   -3.363E+00   -3.353E+00   -3.343E+00   -3.334E+00   -3.324E+00   -3.315E+00   -3.305E+00   -3.295E+00
    -3.286E+00   -3.276E+00   -3.267E+00   -3.257E+00   -3.247E+00   -3.238E+00   -3.228E+00   -3.218E+00   -3.209E+00   -3.199E+00
    -3.190E+00   -3.180E+00   -3.170E+00   -3.161E+00   -3.151E+00   -3.141E+00   -3.132E+00   -3.122E+00   -3.113E+00   -3.103E+00
    -3.093E+00   -3.084E+00   -3.074E+00   -3.064E+00   -3.055E+00   -3.045E+00   -3.035E+00   -3.026E+00   -3.016E+00   -3.006E+00
    -2.997E+00   -2.987E+00   -2.977E+00   -2.968E+00   -2.958E+00   -2.948E+00   -2.939E+00   -2.929E+00   -2.919E+00   -2.910E+00
    -2.900E+00   -2.890E+00   -2.881E+00   -2.871E+00   -2.861E+00   -2.851E+00   -2.842E+00   -2.832E+00   -2.822E+00   -2.813E+00
    -2.803E+00   -2.793E+00   -2.784E+00   -2.774E+00   -2.764E+00   -2.754E+00   -2.745E+00   -2.735E+00   -2.725E+00   -2.716E+00
    -2.706E+00   -2.696E+00   -2.686E+00   -2.677E+00   -2.667E+00   -2.657E+00   -2.648E+00   -2.638E+00   -2.628E+00   -2.618E+00
    -2.609E+00   -2.599E+00   -2.589E+00   -2.579E+00   -2.570E+00   -2.560E+00   -2.550E+00   -2.541E+00   -2.531E+00   -2.521E+00
    -2.511E+00   -2.502E+00   -2.492E+00   -2.482E+00   -2.472E+00   -2.463E+00   -2.453E+00   -2.443E+00   -2.433E+00   -2.424E+00
    -2.414E+00   -2.404E+00   -2.394E+00   -2.385E+00   -2.375E+00   -2.365E+00   -2.355E+00   -2.345E+00   -2.336E+00   -2.326E+00
    -2.316E+00   -2.306E+00   -2.297E+00   -2.287E+00   -2.277E+00   -2.267E+00   -2.257E+00   -2.248E+00   -2.238E+00   -2.228E+00
    -2.218E+00   -2.209E+00   -2.199E+00   -2.189E+00   -2.179E+00   -2.169E+00   -2.160E+00   -2.150E+00   -2.140E+00   -2.130E+00
    -2.120E+00   -2.111E+00   -2.101E+00   -2.091E+00   -2.081E+00   -2.071E+00   -2.062E+00   -2.052E+00   -2.042E+00   -2.032E+00
    -2.022E+00   -2.013E+00   -2.003E+00   -1.993E+00   -1.983E+00   -1.973E+00   -1.964E+00   -1.954E+00   -1.944E+00   -1.934E+00
    -1.924E+00   -1.915E+00   -1.905E+00   -1.895E+00   -1.885E+00   -1.875E+00   -1.865E+00   -1.856E+00   -1.846E+00   -1.836E+00
    -1.826E+00   -1.816E+00   -1.807E+00   -1.797E+00   -1.787E+00   -1.777E+00   -1.767E+00   -1.757E+00   -1.748E+00   -1.738E+00
    -1.728E+00   -1.718E+00   -1.708E+00   -1.698E+00   -1.689E+00   -1.679E+00   -1.669E+00   -1.659E+00   -1.649E+00   -1.639E+00
    -1.630E+00   -1.620E+00   -1.610E+00   -1.600E+00   -1.590E+00   -1.580E+00   -1.571E+00   -1.561E+00   -1.551E+00   -1.541E+00
    -1.531E+00   -1.521E+00   -1.512E+00   -1.502E+00   -1.492E+00   -1.482E+00   -1.472E+00   -1.462E+00   -1.452E+00   -1.443E+00
    -1.433E+00   -1.423E+00   -1.413E+00   -1.403E+00   -1.393E+00   -1.384E+00   -1.374E+00   -1.364E+00   -1.354E+00   -1.344E+00
    -1.334E+00   -1.324E+00   -1.315E+00   -1.305E+00   -1.295E+00   -1.285E+00   -1.275E+00   -1.265E+00   -1.255E+00   -1.246E+00
    -1.236E+00   -1.226E+00   -1.216E+00   -1.206E+00   -1.196E+00   -1.187E+00   -1.177E+00   -1.167E+00   -1.157E+00   -1.147E+00
    -1.137E+00   -1.127E+00   -1.118E+00   -1.108E+00   -1.098E+00   -1.088E+00   -1.078E+00   -1.068E+00   -1.058E+00   -1.049E+00
    -1.039E+00   -1.029E+00   -1.019E+00   -1.009E+00   -9.992E-01   -9.894E-01   -9.795E-01   -9.696E-01   -9.598E-01   -9.499E-01
    -9.401E-01   -9.302E-01   -9.204E-01   -9.105E-01   -9.006E-01   -8.908E-01   -8.809E-01   -8.711E-01   -8.612E-01   -8.513E-01
    -8.415E-01   -8.316E-01   -8.218E-01   -8.119E-01   -8.020E-01   -7.922E-01   -7.823E-01   -7.725E-01   -7.626E-01   -7.527E-01
    -7.429E-01   -7.330E-01   -7.232E-01   -7.133E-01   -7.035E-01   -6.936E-01   -6.837E-01   -6.739E-01   -6.640E-01   -6.542E-01
    -6.443E-01   -6.345E-01   -6.246E-01   -6.147E-01   -6.049E-01   -5.950E-01   -5.852E-01   -5.753E-01   -5.655E-01   -5.556E-01
    -5.458E-01   -5.359E-01   -5.260E-01   -5.162E-01   -5.063E-01   -4.965E-01   -4.866E-01   -4.768E-01   -4.669E-01   -4.571E-01
    -4.472E-01   -4.374E-01   -4.275E-01   -4.177E-01   -4.078E-01   -3.980E-01   -3.881E-01   -3.783E-01   -3.684E-01   -3.586E-01
    -3.487E-01   -3.389E-01   -3.290E-01   -3.192E-01   -3.093E-01   -2.995E-01   -2.896E-01   -2.798E-01   -2.700E-01   -2.601E-01
    -2.503E-01   -2.404E-01   -2.306E-01   -2.207E-01   -2.109E-01   -2.011E-01   -1.912E-01   -1.814E-01   -1.715E-01   -1.617E-01
    -1.519E-01   -1.420E-01   -1.322E-01   -1.224E-01   -1.125E-01   -1.027E-01   -9.285E-02   -8.302E-02   -7.319E-02   -6.335E-02
    -5.352E-02   -4.369E-02   -3.386E-02   -2.403E-02   -1.420E-02   -4.374E-03    5.454E-03    1.528E-02    2.511E-02    3.493E-02
     4.476E-02    5.458E-02    6.440E-02    7.422E-02    8.405E-02    9.387E-02    1.037E-01    1.135E-01    1.233E-01    1.331E-01
     1.430E-01    1.528E-01    1.626E-01    1.724E-01    1.822E-01    1.920E-01    2.018E-01    2.117E-01    2.215E-01    2.313E-01
     2.411E-01    2.509E-01    2.607E-01    2.705E-01    2.803E-01    2.901E-01    2.999E-01    3.097E-01    3.195E-01    3.293E-01
     3.391E-01    3.489E-01    3.587E-01    3.685E-01    3.783E-01    3.881E-01    3.979E-01    4.077E-01    4.175E-01    4.272E-01
     4.370E-01    4.468E-01    4.566E-01    4.664E-01    4.762E-01    4.860E-01    4.957E-01    5.055E-01    5.153E-01    5.251E-01
     5.348E-01    5.446E-01    5.544E-01    5.642E-01    5.739E-01    5.837E-01    5.935E-01    6.033E-01    6.130E-01    6.228E-01
     6.326E-01    6.423E-01    6.521E-01    6.618E-01    6.716E-01    6.814E-01    6.911E-01    7.009E-01    7.106E-01    7.204E-01
     7.301E-01    7.399E-01    7.496E-01    7.594E-01    7.691E-01    7.789E-01    7.886E-01    7.984E-01
 Ala      Conc. = 1.15E+02
