 LCModel (Version 6.3-1L) Copyright: S.W. Provencher.          Ref.: Magn. Reson. Med. 30:672-679 (1993).                
 Slice#2 Row#8 Col#14  PD_05_press_1_raw_act
 36 lines in following concentration table = NCONC+1
    Conc.  %SD /Cr+PCr  Metabolite                                         
 1.57E+03  27%  35.614 Ala                                                 
    6.984  45%   0.158 Asp                                                 
    0.000 999%   0.000 Cr                                                  
   44.179  47%   1.000 PCr                                                 
    4.145  45% 9.4E-02 GABA                                                
    4.155  45% 9.4E-02 Glc                                                 
    0.000 999%   0.000 Gln                                                 
  626.540  45%  14.182 Glu                                                 
    0.000 999%   0.000 GPC                                                 
   23.983  32%   0.543 PCh                                                 
    0.000 999%   0.000 GSH                                                 
    0.000 999%   0.000 Ins                                                 
  489.163 114%  11.072 Lac                                                 
   22.549 140%   0.510 NAA                                                 
    0.000 999%   0.000 NAAG                                                
    1.391  45% 3.1E-02 Scyllo                                              
    6.981  45%   0.158 Tau                                                 
    5.443  93%   0.123 -CrCH2                                              
   23.983  32%   0.543 GPC+PCh                                             
   22.549 140%   0.510 NAA+NAAG                                            
   44.179  47%   1.000 Cr+PCr                                              
  626.540  45%  14.182 Glu+Gln                                             
 5.46E+03  15% 123.628 Lip13a                                              
    0.000 999%   0.000 Lip13b                                              
 1.81E+03  14%  40.984 Lip09                                               
 1.23E+03  19%  27.909 MM09                                                
  505.558  31%  11.443 Lip20                                               
    0.000 999%   0.000 MM20                                                
  612.055  35%  13.854 MM12                                                
 2.03E+03  22%  46.043 MM14                                                
 1.51E+03  22%  34.166 MM17                                                
 5.46E+03  15% 123.628 Lip13a+Lip13b                                       
 8.11E+03  10% 183.525 MM14+Lip13a+Lip13b+MM12                             
 3.04E+03   9%  68.893 MM09+Lip09                                          
  505.558  31%  11.443 MM20+Lip20                                          
   6 lines in following misc. output table
  FWHM = 0.168 ppm    S/N =  12                                            
  Data shift = 0.260 ppm                                                   
  Ph: 111 deg      21.6 deg/ppm                                            
  alphaB,S = 8.5E+01,   4.1E+02                                            
    6 spline knots.   Ns = 9(2)                                            
   2 inflections.     1 extrema                                            
  498 points on ppm-axis = NY
      4.000000     3.992357     3.984714     3.977070     3.969427     3.961784     3.954141     3.946497     3.938854     3.931211
      3.923568     3.915925     3.908281     3.900638     3.892995     3.885352     3.877708     3.870065     3.862422     3.854779
      3.847136     3.839492     3.831849     3.824206     3.816563     3.808919     3.801276     3.793633     3.785990     3.778347
      3.770703     3.763060     3.755417     3.747774     3.740130     3.732487     3.724844     3.717201     3.709558     3.701914
      3.694271     3.686628     3.678985     3.671341     3.663698     3.656055     3.648412     3.640769     3.633125     3.625482
      3.617839     3.610196     3.602552     3.594909     3.587266     3.579623     3.571980     3.564336     3.556693     3.549050
      3.541407     3.533763     3.526120     3.518477     3.510834     3.503191     3.495547     3.487904     3.480261     3.472618
      3.464974     3.457331     3.449688     3.442045     3.434402     3.426758     3.419115     3.411472     3.403829     3.396185
      3.388542     3.380899     3.373256     3.365613     3.357969     3.350326     3.342683     3.335040     3.327396     3.319753
      3.312110     3.304467     3.296824     3.289180     3.281537     3.273894     3.266251     3.258607     3.250964     3.243321
      3.235678     3.228034     3.220391     3.212748     3.205105     3.197462     3.189818     3.182175     3.174532     3.166889
      3.159245     3.151602     3.143959     3.136316     3.128673     3.121029     3.113386     3.105743     3.098100     3.090456
      3.082813     3.075170     3.067527     3.059884     3.052240     3.044597     3.036954     3.029311     3.021667     3.014024
      3.006381     2.998738     2.991095     2.983451     2.975808     2.968165     2.960522     2.952878     2.945235     2.937592
      2.929949     2.922306     2.914662     2.907019     2.899376     2.891733     2.884089     2.876446     2.868803     2.861160
      2.853517     2.845873     2.838230     2.830587     2.822944     2.815300     2.807657     2.800014     2.792371     2.784728
      2.777084     2.769441     2.761798     2.754155     2.746511     2.738868     2.731225     2.723582     2.715939     2.708295
      2.700652     2.693009     2.685366     2.677722     2.670079     2.662436     2.654793     2.647150     2.639506     2.631863
      2.624220     2.616577     2.608933     2.601290     2.593647     2.586004     2.578361     2.570717     2.563074     2.555431
      2.547788     2.540144     2.532501     2.524858     2.517215     2.509572     2.501928     2.494285     2.486642     2.478999
      2.471355     2.463712     2.456069     2.448426     2.440783     2.433139     2.425496     2.417853     2.410210     2.402566
      2.394923     2.387280     2.379637     2.371994     2.364350     2.356707     2.349064     2.341421     2.333777     2.326134
      2.318491     2.310848     2.303205     2.295561     2.287918     2.280275     2.272632     2.264988     2.257345     2.249702
      2.242059     2.234416     2.226772     2.219129     2.211486     2.203843     2.196199     2.188556     2.180913     2.173270
      2.165627     2.157983     2.150340     2.142697     2.135054     2.127410     2.119767     2.112124     2.104481     2.096838
      2.089194     2.081551     2.073908     2.066265     2.058621     2.050978     2.043335     2.035692     2.028049     2.020405
      2.012762     2.005119     1.997476     1.989833     1.982190     1.974546     1.966903     1.959260     1.951617     1.943974
      1.936331     1.928688     1.921045     1.913402     1.905759     1.898115     1.890472     1.882829     1.875186     1.867543
      1.859900     1.852257     1.844614     1.836971     1.829327     1.821684     1.814041     1.806398     1.798755     1.791112
      1.783469     1.775826     1.768183     1.760540     1.752896     1.745253     1.737610     1.729967     1.722324     1.714681
      1.707038     1.699395     1.691752     1.684108     1.676465     1.668822     1.661179     1.653536     1.645893     1.638250
      1.630607     1.622964     1.615321     1.607677     1.600034     1.592391     1.584748     1.577105     1.569462     1.561819
      1.554176     1.546533     1.538890     1.531246     1.523603     1.515960     1.508317     1.500674     1.493031     1.485388
      1.477745     1.470102     1.462458     1.454815     1.447172     1.439529     1.431886     1.424243     1.416600     1.408957
      1.401314     1.393671     1.386027     1.378384     1.370741     1.363098     1.355455     1.347812     1.340169     1.332526
      1.324883     1.317240     1.309596     1.301953     1.294310     1.286667     1.279024     1.271381     1.263738     1.256095
      1.248452     1.240808     1.233165     1.225522     1.217879     1.210236     1.202593     1.194950     1.187307     1.179664
      1.172021     1.164377     1.156734     1.149091     1.141448     1.133805     1.126162     1.118519     1.110876     1.103233
      1.095590     1.087946     1.080303     1.072660     1.065017     1.057374     1.049731     1.042088     1.034445     1.026802
      1.019158     1.011515     1.003872     0.996229     0.988586     0.980943     0.973300     0.965657     0.958014     0.950371
      0.942727     0.935084     0.927441     0.919798     0.912155     0.904512     0.896869     0.889226     0.881583     0.873940
      0.866296     0.858653     0.851010     0.843367     0.835724     0.828081     0.820438     0.812795     0.805152     0.797508
      0.789865     0.782222     0.774579     0.766936     0.759293     0.751650     0.744007     0.736364     0.728721     0.721077
      0.713434     0.705791     0.698148     0.690505     0.682862     0.675219     0.667576     0.659933     0.652290     0.644646
      0.637003     0.629360     0.621717     0.614074     0.606431     0.598788     0.591145     0.583502     0.575858     0.568215
      0.560572     0.552929     0.545286     0.537643     0.530000     0.522357     0.514714     0.507071     0.499427     0.491784
      0.484141     0.476498     0.468855     0.461212     0.453569     0.445925     0.438282     0.430639     0.422996     0.415353
      0.407710     0.400067     0.392424     0.384780     0.377137     0.369494     0.361851     0.354208     0.346565     0.338922
      0.331278     0.323635     0.315992     0.308349     0.300706     0.293063     0.285420     0.277777     0.270133     0.262490
      0.254847     0.247204     0.239561     0.231918     0.224275     0.216631     0.208988     0.201345
 NY phased data points follow
  -7.38709E-01 -3.94144E-01 -1.50544E-01 -8.44100E-01  8.03792E-03 -2.21273E-01 -6.41398E-01  2.45785E-01 -1.40641E+00 -7.14721E-01
   4.64421E-01  7.71064E-01  2.35448E-01 -5.79736E-01  6.16161E-01 -1.15644E-01 -1.69668E+00  9.53202E-01 -4.03527E-01 -7.90402E-01
  -7.36597E-01 -1.18263E+00  4.14275E-01 -6.06705E-02 -8.96167E-01 -1.12507E+00 -8.99639E-01 -1.32747E+00 -8.44802E-01 -2.80706E-01
  -4.71121E-01 -1.64897E+00  4.57324E-03  2.90198E-01  2.54893E-01 -1.25972E-01 -4.77605E-01  1.28093E+00  1.86336E-01 -7.67936E-01
  -6.39960E-01  8.42120E-01 -1.49530E+00 -3.55562E-01 -5.27965E-01 -1.22840E+00  2.09186E-02 -6.89431E-01 -7.31785E-01 -1.26405E+00
  -4.27008E-01 -5.83032E-01  2.64953E-01  2.92574E-01 -1.50001E+00 -8.52449E-01  3.46992E-01  1.22133E-01  1.25986E-01 -1.17219E+00
  -8.58192E-01 -1.12783E+00  8.79453E-03 -1.39235E+00 -1.49724E+00 -1.02313E+00  3.23396E-01 -9.67678E-01 -9.14866E-01  4.57562E-01
  -1.12531E+00 -3.58256E-01  6.01933E-01  3.30315E-01  2.46597E-01  4.07230E-01 -3.88337E-01 -6.51392E-01 -4.03534E-02 -1.24053E+00
  -6.31707E-01 -1.19544E+00 -3.68139E-01 -4.33895E-01  3.60337E-01  4.89195E-01 -6.93800E-01 -1.69581E+00 -5.79837E-01 -1.65804E+00
  -3.28498E-01 -9.31002E-01 -1.02948E+00 -1.14738E+00  6.16338E-01  3.80611E-01  9.63912E-01  1.08398E+00  1.18883E+00 -1.24838E+00
  -1.40811E-01  4.53620E-01  6.34699E-01 -3.78354E-02 -1.30470E+00  1.90205E-01  2.93354E-01  2.03186E-01 -7.85989E-01 -3.97350E-01
  -9.43493E-02  7.57304E-01  1.34269E+00 -1.08126E+00  1.12336E+00 -1.34102E-01 -3.06529E-01  2.17477E-01  1.42614E+00 -1.11589E+00
  -8.49834E-01  6.80880E-01  1.99806E-01  6.09912E-01 -9.41658E-01  1.39492E+00  2.95039E-01 -9.82864E-01 -1.14934E+00  1.76622E-01
  -1.33957E+00  6.02406E-01 -7.98056E-01  5.49788E-01 -3.25658E-01  2.06206E+00  8.09166E-01 -7.95966E-01 -4.28232E-01 -3.22759E-02
   1.30452E+00  8.36306E-01 -1.33190E-02 -8.12207E-01 -3.24575E-01  6.05827E-01  7.79965E-01 -1.72724E+00 -1.23170E-01 -1.18810E+00
  -2.47492E-01 -1.51755E+00 -8.16083E-01 -1.80273E-02 -1.21889E-01 -3.10326E-01 -5.63856E-01  4.58851E-01 -4.43516E-01 -2.04641E-01
  -1.85031E-01 -7.02821E-02 -1.54496E-01 -1.85431E+00 -1.00301E+00 -1.21717E-01 -8.00944E-01  2.76333E-01 -3.20120E-01 -7.16104E-01
  -1.25624E+00  6.81675E-02  2.20822E-01  7.43594E-01  8.71295E-01  6.00419E-01 -6.63438E-02 -1.14731E+00 -3.38033E-01  8.95050E-02
  -1.14662E+00  3.18197E-01 -3.55587E-01  1.26710E+00  3.35160E-01 -6.63662E-01  1.04112E-01  5.83453E-01 -7.83421E-03 -4.83544E-01
   1.58440E-01  2.64832E-01 -9.91034E-01 -6.27409E-01  4.50045E-01  7.28943E-01 -9.17134E-01  3.03387E-01  7.76237E-02  1.72330E-01
   3.09814E-01  6.03208E-02  8.70595E-01 -1.92618E-01  1.09453E+00 -6.61709E-01  6.04169E-01 -6.97064E-01 -7.37546E-01 -9.83694E-01
   6.56429E-01  2.13188E-02  1.40120E-01  3.92565E-02 -2.28019E-01 -3.62591E-01  1.95509E-01 -5.58730E-01  4.20798E-01 -1.85756E+00
   3.03397E-01 -7.98954E-02 -8.01111E-01 -1.50335E+00 -2.12848E+00 -7.28770E-01 -1.21889E+00 -4.12953E-01  5.44652E-01  9.00176E-01
  -3.60904E-01 -4.31551E-01 -1.90892E+00  3.20414E-01  7.45855E-02 -5.03385E-01  4.97079E-01  8.84906E-01  4.52726E-01  1.01877E+00
  -1.54629E-01  2.02050E-01  1.24290E+00  2.04007E+00  9.43762E-01  9.96897E-01  1.52013E-02 -5.74014E-01  9.77460E-01  1.27581E+00
   6.07943E-01  1.64318E+00  1.12392E+00  5.44904E-01  1.15827E+00  1.04308E+00  1.42634E+00  1.56869E+00  1.11032E+00  2.29301E+00
   1.28687E+00  2.96426E+00  2.65570E+00 -1.41062E-01  1.67086E+00  2.52172E+00  2.74687E+00  2.37982E+00  2.37101E+00  1.74039E+00
   3.02862E-01  3.43481E+00  1.07118E+00  1.14782E+00  1.44918E+00  1.30850E+00  1.78551E+00  2.11568E+00  1.87333E+00  1.70560E+00
   2.09499E+00  1.68946E+00  3.69293E+00  3.38263E+00  3.48946E+00  3.12548E+00  5.02418E+00  3.78529E+00  4.68160E+00  5.08305E+00
   5.99258E+00  4.98096E+00  6.54610E+00  7.07246E+00  6.48508E+00  6.30779E+00  6.19612E+00  8.73171E+00  8.38337E+00  7.90929E+00
   8.97323E+00  8.45225E+00  1.01142E+01  9.47967E+00  1.04493E+01  1.22407E+01  1.10381E+01  1.17801E+01  1.22920E+01  1.37296E+01
   1.31402E+01  1.35301E+01  1.38152E+01  1.41698E+01  1.71930E+01  1.43387E+01  1.67460E+01  1.49961E+01  1.68070E+01  1.75983E+01
   1.73536E+01  1.71571E+01  1.74263E+01  1.58926E+01  1.60482E+01  1.62913E+01  1.65430E+01  1.73338E+01  1.70040E+01  1.63976E+01
   1.78558E+01  1.61001E+01  1.74492E+01  1.72568E+01  1.54016E+01  1.68476E+01  1.60739E+01  1.74434E+01  1.75940E+01  1.74401E+01
   1.73967E+01  1.65049E+01  1.73466E+01  1.83055E+01  1.93925E+01  1.75985E+01  1.91125E+01  1.96325E+01  1.90411E+01  1.86679E+01
   1.86567E+01  2.02680E+01  2.13847E+01  2.01584E+01  2.01651E+01  2.08246E+01  1.99027E+01  1.84546E+01  2.05462E+01  1.98487E+01
   1.91123E+01  1.95251E+01  2.11518E+01  2.10584E+01  2.02740E+01  2.06288E+01  2.14533E+01  1.92920E+01  1.88928E+01  2.07096E+01
   2.05918E+01  1.92827E+01  2.03418E+01  1.93404E+01  2.01923E+01  1.89820E+01  1.84304E+01  1.87843E+01  1.70640E+01  1.82025E+01
   1.76098E+01  1.71966E+01  1.74143E+01  1.80996E+01  1.77876E+01  1.66591E+01  1.58647E+01  1.67334E+01  1.49320E+01  1.66580E+01
   1.51115E+01  1.52031E+01  1.38960E+01  1.36154E+01  1.34160E+01  1.42703E+01  1.35301E+01  1.37310E+01  1.27259E+01  1.19708E+01
   1.15087E+01  1.12920E+01  1.10398E+01  1.17937E+01  1.09010E+01  9.73457E+00  1.05656E+01  9.27039E+00  8.95872E+00  1.07020E+01
   9.15115E+00  8.99762E+00  9.83840E+00  8.69403E+00  9.13645E+00  7.21759E+00  7.52117E+00  8.29504E+00  6.70649E+00  6.75520E+00
   7.34404E+00  6.66672E+00  4.76457E+00  4.47923E+00  6.22411E+00  5.60257E+00  5.11307E+00  5.68282E+00  5.02656E+00  4.27628E+00
   4.95745E+00  3.86129E+00  4.79038E+00  3.26804E+00  4.16002E+00  2.92497E+00  3.35244E+00  4.03597E+00  1.81334E+00  3.57500E+00
   2.65307E+00  1.64499E+00  1.25792E+00  1.38945E+00  1.00422E+00  1.15601E+00  2.01349E+00  2.26320E+00  2.12253E+00  7.84999E-01
   1.61911E+00  8.53486E-01  1.75380E+00 -4.47762E-01  7.71348E-01 -4.62852E-01  3.46618E-01 -1.54724E+00 -5.54834E-01  3.55997E-01
  -6.19588E-02 -1.90851E+00 -8.66592E-01 -6.92399E-02  6.26738E-02 -5.54966E-01 -7.48724E-01 -2.32415E+00 -2.18014E+00 -1.31423E-01
   2.64529E-01 -1.77995E+00 -2.33935E+00 -3.52535E-01 -2.09728E+00  2.27379E-01 -2.60215E+00 -1.22683E+00 -3.33348E+00 -2.87862E+00
  -1.13278E+00 -1.98505E+00 -2.50140E+00 -2.42171E+00 -1.12565E+00 -1.14295E+00 -2.32476E+00 -1.58112E+00 -2.91069E+00 -3.64185E+00
  -2.81623E+00 -2.06109E+00 -3.14653E+00 -1.39858E+00 -1.83944E+00 -2.54342E+00 -2.36124E+00 -2.18566E+00
 NY points of the fit to the data follow
  -2.19601E-01 -6.33445E-02 -1.91806E-01 -3.47010E-02 -1.54253E-01  1.65739E-02 -9.15932E-02  1.06142E-01 -1.79945E-02  1.75884E-01
   1.35999E-02  2.06406E-01  9.09488E-04  2.06916E-01 -4.56251E-02  1.96158E-01 -7.33297E-02  1.74858E-01 -1.20621E-01  1.11976E-01
  -1.99609E-01  2.66500E-02 -2.65535E-01 -5.91928E-02 -2.95743E-01 -1.21781E-01 -2.90891E-01 -1.80720E-01 -2.77797E-01 -2.43836E-01
  -2.61842E-01 -3.01978E-01 -2.41930E-01 -3.58467E-01 -2.17210E-01 -4.04037E-01 -1.90858E-01 -4.36281E-01 -1.75153E-01 -4.64934E-01
  -1.84745E-01 -4.85518E-01 -1.85709E-01 -4.83026E-01 -1.77354E-01 -4.40427E-01 -1.45607E-01 -3.63108E-01 -1.51234E-01 -3.77761E-01
  -2.49036E-01 -4.57330E-01 -3.93802E-01 -5.53405E-01 -5.17336E-01 -5.76632E-01 -5.17680E-01 -5.39959E-01 -5.00798E-01 -5.05904E-01
  -4.95582E-01 -4.91539E-01 -5.02478E-01 -5.06863E-01 -5.19539E-01 -5.23398E-01 -5.35249E-01 -5.37982E-01 -5.48033E-01 -5.49681E-01
  -5.58080E-01 -5.59705E-01 -5.66247E-01 -5.68216E-01 -5.72702E-01 -5.74745E-01 -5.77559E-01 -5.80234E-01 -5.81778E-01 -5.85312E-01
  -5.85702E-01 -5.89605E-01 -5.88979E-01 -5.92236E-01 -5.87631E-01 -5.73480E-01 -5.47939E-01 -5.27749E-01 -4.80788E-01 -4.60548E-01
  -3.89469E-01 -3.73778E-01 -2.75693E-01 -2.71645E-01 -1.46498E-01 -1.63075E-01 -1.53624E-02 -6.11190E-02  1.01026E-01  2.25749E-02
   1.90770E-01  8.10924E-02  2.48302E-01  1.12631E-01  2.73273E-01  1.14405E-01  2.60679E-01  8.68290E-02  2.20854E-01  5.47172E-02
   1.65505E-01  1.55566E-02  9.68444E-02 -2.62139E-02  2.24402E-02 -6.21314E-02 -4.68753E-02 -8.60243E-02 -1.03623E-01 -9.66735E-02
  -1.45583E-01 -9.95308E-02 -1.76208E-01 -9.26719E-02 -1.83384E-01 -6.26609E-02 -1.50486E-01 -2.98825E-02 -1.27489E-01 -1.60694E-02
  -1.19737E-01 -2.22367E-02 -1.26643E-01 -4.55854E-02 -1.45530E-01 -8.25184E-02 -1.73082E-01 -1.28280E-01 -2.04507E-01 -1.75434E-01
  -2.34200E-01 -2.17600E-01 -2.57895E-01 -2.50280E-01 -2.73457E-01 -2.72510E-01 -2.77755E-01 -2.75500E-01 -2.62527E-01 -2.48078E-01
  -2.34946E-01 -2.22340E-01 -2.12294E-01 -2.02905E-01 -1.97075E-01 -1.91657E-01 -1.90604E-01 -1.89527E-01 -1.93545E-01 -1.96964E-01
  -2.05774E-01 -2.13450E-01 -2.26723E-01 -2.38571E-01 -2.55696E-01 -2.71045E-01 -2.90806E-01 -3.08833E-01 -3.30312E-01 -3.50520E-01
  -3.72562E-01 -3.93846E-01 -4.15364E-01 -4.36820E-01 -4.56918E-01 -4.77735E-01 -4.95495E-01 -5.14815E-01 -5.29390E-01 -5.46194E-01
  -5.57037E-01 -5.70689E-01 -5.77744E-01 -5.87608E-01 -5.90226E-01 -5.94691E-01 -5.91467E-01 -5.88099E-01 -5.78315E-01 -5.73413E-01
  -5.55203E-01 -5.55865E-01 -5.36067E-01 -5.44567E-01 -5.23100E-01 -5.36285E-01 -5.02222E-01 -5.04438E-01 -4.30937E-01 -4.44862E-01
  -3.34252E-01 -3.74327E-01 -2.28825E-01 -3.17924E-01 -1.56195E-01 -3.03674E-01 -1.06673E-01 -3.11631E-01 -8.49430E-02 -3.45422E-01
  -1.01290E-01 -4.03974E-01 -1.49388E-01 -4.75621E-01 -2.10880E-01 -5.33255E-01 -2.57771E-01 -5.57417E-01 -2.82134E-01 -5.44942E-01
  -2.82261E-01 -4.99825E-01 -2.66751E-01 -4.31959E-01 -2.34294E-01 -3.41506E-01 -1.75950E-01 -2.19633E-01 -8.56502E-02 -8.04182E-02
   2.71589E-02  6.77491E-02  1.40402E-01  2.04302E-01  2.56816E-01  3.47520E-01  4.07414E-01  5.16160E-01  5.96399E-01  6.70507E-01
   7.33812E-01  7.71427E-01  8.13281E-01  8.21915E-01  8.36241E-01  8.51981E-01  8.84652E-01  9.30683E-01  9.70515E-01  1.05024E+00
   1.08733E+00  1.19221E+00  1.21671E+00  1.33390E+00  1.33811E+00  1.46437E+00  1.44797E+00  1.57738E+00  1.54115E+00  1.66865E+00
   1.61440E+00  1.73468E+00  1.65938E+00  1.76571E+00  1.68237E+00  1.77277E+00  1.70030E+00  1.78194E+00  1.72399E+00  1.79396E+00
   1.75538E+00  1.81234E+00  1.79076E+00  1.84243E+00  1.85166E+00  1.91707E+00  1.96421E+00  2.04994E+00  2.13417E+00  2.24655E+00
   2.36890E+00  2.52324E+00  2.69986E+00  2.90575E+00  3.12914E+00  3.38318E+00  3.65672E+00  3.95362E+00  4.27430E+00  4.61639E+00
   4.97932E+00  5.35967E+00  5.75648E+00  6.16560E+00  6.58524E+00  7.01302E+00  7.44354E+00  7.87369E+00  8.29850E+00  8.71605E+00
   9.12222E+00  9.51744E+00  9.89915E+00  1.02720E+01  1.06371E+01  1.10031E+01  1.13784E+01  1.17840E+01  1.22599E+01  1.28368E+01
   1.32805E+01  1.38989E+01  1.42606E+01  1.48838E+01  1.51096E+01  1.56688E+01  1.56605E+01  1.62642E+01  1.61414E+01  1.67124E+01
   1.64666E+01  1.69323E+01  1.66090E+01  1.69646E+01  1.66495E+01  1.69092E+01  1.66931E+01  1.68620E+01  1.67974E+01  1.68588E+01
   1.69285E+01  1.68146E+01  1.70200E+01  1.67383E+01  1.70773E+01  1.66580E+01  1.71421E+01  1.66717E+01  1.73153E+01  1.68268E+01
   1.75870E+01  1.71140E+01  1.79513E+01  1.75349E+01  1.83963E+01  1.80592E+01  1.89287E+01  1.87522E+01  1.95792E+01  1.95546E+01
   2.00910E+01  1.99585E+01  2.02755E+01  2.00819E+01  2.02027E+01  2.00242E+01  2.00432E+01  2.00678E+01  2.02187E+01  2.02784E+01
   2.04262E+01  2.04573E+01  2.05573E+01  2.05317E+01  2.05606E+01  2.04624E+01  2.04237E+01  2.02824E+01  2.01874E+01  2.00264E+01
   1.98411E+01  1.95814E+01  1.93457E+01  1.90359E+01  1.87804E+01  1.84783E+01  1.82410E+01  1.80464E+01  1.78782E+01  1.77287E+01
   1.75911E+01  1.74595E+01  1.73273E+01  1.71885E+01  1.70367E+01  1.68667E+01  1.66735E+01  1.64537E+01  1.62047E+01  1.59261E+01
   1.56182E+01  1.52834E+01  1.49247E+01  1.45469E+01  1.41548E+01  1.37546E+01  1.33516E+01  1.29520E+01  1.25606E+01  1.21822E+01
   1.18203E+01  1.14777E+01  1.11558E+01  1.08556E+01  1.05763E+01  1.03171E+01  1.00757E+01  9.84998E+00  9.63668E+00  9.43299E+00
   9.23541E+00  9.04112E+00  8.84689E+00  8.65038E+00  8.44904E+00  8.24132E+00  8.02555E+00  7.80112E+00  7.56725E+00  7.32422E+00
   7.07208E+00  6.81181E+00  6.54410E+00  6.27044E+00  5.99189E+00  5.71023E+00  5.42667E+00  5.14303E+00  4.86048E+00  4.58073E+00
   4.30476E+00  4.03403E+00  3.76926E+00  3.51160E+00  3.26147E+00  3.01973E+00  2.78650E+00  2.56235E+00  2.34716E+00  2.14126E+00
   1.94433E+00  1.75654E+00  1.57741E+00  1.40699E+00  1.24472E+00  1.09057E+00  9.43921E-01  8.04723E-01  6.72325E-01  5.46673E-01
   4.27122E-01  3.13628E-01  2.05562E-01  1.02903E-01  5.04495E-03 -8.80028E-02 -1.76817E-01 -2.61359E-01 -3.42176E-01 -4.19201E-01
  -4.92950E-01 -5.63331E-01 -6.30831E-01 -6.95332E-01 -7.57299E-01 -8.16592E-01 -8.73654E-01 -9.28323E-01 -9.81023E-01 -1.03158E+00
  -1.08039E+00 -1.12728E+00 -1.17263E+00 -1.21623E+00 -1.25847E+00 -1.29914E+00 -1.33859E+00 -1.37661E+00 -1.41355E+00 -1.44918E+00
  -1.48386E+00 -1.51734E+00 -1.54996E+00 -1.58148E+00 -1.61225E+00 -1.64199E+00 -1.67106E+00 -1.69918E+00 -1.72669E+00 -1.75333E+00
  -1.77942E+00 -1.80470E+00 -1.82947E+00 -1.85348E+00 -1.87704E+00 -1.89986E+00 -1.92227E+00 -1.94397E+00
 NY background values follow
    -5.227E-01   -5.266E-01   -5.305E-01   -5.343E-01   -5.382E-01   -5.421E-01   -5.460E-01   -5.498E-01   -5.537E-01   -5.576E-01
    -5.614E-01   -5.653E-01   -5.692E-01   -5.731E-01   -5.769E-01   -5.808E-01   -5.847E-01   -5.885E-01   -5.924E-01   -5.963E-01
    -6.002E-01   -6.040E-01   -6.079E-01   -6.118E-01   -6.157E-01   -6.195E-01   -6.234E-01   -6.273E-01   -6.312E-01   -6.350E-01
    -6.389E-01   -6.428E-01   -6.467E-01   -6.506E-01   -6.544E-01   -6.583E-01   -6.622E-01   -6.661E-01   -6.700E-01   -6.739E-01
    -6.777E-01   -6.816E-01   -6.855E-01   -6.894E-01   -6.933E-01   -6.972E-01   -7.011E-01   -7.050E-01   -7.089E-01   -7.128E-01
    -7.167E-01   -7.206E-01   -7.245E-01   -7.284E-01   -7.323E-01   -7.362E-01   -7.401E-01   -7.440E-01   -7.479E-01   -7.518E-01
    -7.557E-01   -7.597E-01   -7.636E-01   -7.675E-01   -7.714E-01   -7.753E-01   -7.793E-01   -7.832E-01   -7.871E-01   -7.911E-01
    -7.950E-01   -7.989E-01   -8.029E-01   -8.068E-01   -8.107E-01   -8.147E-01   -8.186E-01   -8.226E-01   -8.265E-01   -8.305E-01
    -8.344E-01   -8.384E-01   -8.424E-01   -8.463E-01   -8.503E-01   -8.543E-01   -8.582E-01   -8.622E-01   -8.662E-01   -8.702E-01
    -8.742E-01   -8.781E-01   -8.821E-01   -8.861E-01   -8.901E-01   -8.941E-01   -8.981E-01   -9.021E-01   -9.061E-01   -9.101E-01
    -9.142E-01   -9.182E-01   -9.222E-01   -9.262E-01   -9.302E-01   -9.343E-01   -9.383E-01   -9.423E-01   -9.464E-01   -9.504E-01
    -9.545E-01   -9.585E-01   -9.626E-01   -9.666E-01   -9.707E-01   -9.748E-01   -9.788E-01   -9.829E-01   -9.870E-01   -9.911E-01
    -9.952E-01   -9.992E-01   -1.003E+00   -1.007E+00   -1.012E+00   -1.016E+00   -1.020E+00   -1.024E+00   -1.028E+00   -1.032E+00
    -1.036E+00   -1.040E+00   -1.044E+00   -1.049E+00   -1.053E+00   -1.057E+00   -1.061E+00   -1.065E+00   -1.069E+00   -1.074E+00
    -1.078E+00   -1.082E+00   -1.086E+00   -1.090E+00   -1.094E+00   -1.099E+00   -1.103E+00   -1.107E+00   -1.111E+00   -1.115E+00
    -1.120E+00   -1.124E+00   -1.128E+00   -1.132E+00   -1.137E+00   -1.141E+00   -1.145E+00   -1.149E+00   -1.154E+00   -1.158E+00
    -1.162E+00   -1.166E+00   -1.171E+00   -1.175E+00   -1.179E+00   -1.184E+00   -1.188E+00   -1.192E+00   -1.197E+00   -1.201E+00
    -1.205E+00   -1.209E+00   -1.214E+00   -1.218E+00   -1.223E+00   -1.227E+00   -1.231E+00   -1.236E+00   -1.240E+00   -1.244E+00
    -1.249E+00   -1.253E+00   -1.257E+00   -1.262E+00   -1.266E+00   -1.271E+00   -1.275E+00   -1.280E+00   -1.284E+00   -1.288E+00
    -1.293E+00   -1.297E+00   -1.302E+00   -1.306E+00   -1.311E+00   -1.315E+00   -1.319E+00   -1.324E+00   -1.328E+00   -1.333E+00
    -1.337E+00   -1.342E+00   -1.346E+00   -1.351E+00   -1.355E+00   -1.360E+00   -1.364E+00   -1.369E+00   -1.373E+00   -1.378E+00
    -1.383E+00   -1.387E+00   -1.392E+00   -1.396E+00   -1.401E+00   -1.405E+00   -1.410E+00   -1.414E+00   -1.419E+00   -1.424E+00
    -1.428E+00   -1.433E+00   -1.437E+00   -1.442E+00   -1.447E+00   -1.451E+00   -1.456E+00   -1.460E+00   -1.465E+00   -1.470E+00
    -1.474E+00   -1.479E+00   -1.484E+00   -1.488E+00   -1.493E+00   -1.497E+00   -1.502E+00   -1.507E+00   -1.511E+00   -1.516E+00
    -1.521E+00   -1.526E+00   -1.530E+00   -1.535E+00   -1.540E+00   -1.544E+00   -1.549E+00   -1.554E+00   -1.558E+00   -1.563E+00
    -1.568E+00   -1.573E+00   -1.577E+00   -1.582E+00   -1.587E+00   -1.592E+00   -1.596E+00   -1.601E+00   -1.606E+00   -1.611E+00
    -1.615E+00   -1.620E+00   -1.625E+00   -1.630E+00   -1.634E+00   -1.639E+00   -1.644E+00   -1.649E+00   -1.654E+00   -1.658E+00
    -1.663E+00   -1.668E+00   -1.673E+00   -1.678E+00   -1.683E+00   -1.687E+00   -1.692E+00   -1.697E+00   -1.702E+00   -1.707E+00
    -1.712E+00   -1.716E+00   -1.721E+00   -1.726E+00   -1.731E+00   -1.736E+00   -1.741E+00   -1.746E+00   -1.751E+00   -1.755E+00
    -1.760E+00   -1.765E+00   -1.770E+00   -1.775E+00   -1.780E+00   -1.785E+00   -1.790E+00   -1.795E+00   -1.800E+00   -1.805E+00
    -1.809E+00   -1.814E+00   -1.819E+00   -1.824E+00   -1.829E+00   -1.834E+00   -1.839E+00   -1.844E+00   -1.849E+00   -1.854E+00
    -1.859E+00   -1.864E+00   -1.869E+00   -1.874E+00   -1.879E+00   -1.884E+00   -1.889E+00   -1.894E+00   -1.899E+00   -1.904E+00
    -1.909E+00   -1.914E+00   -1.919E+00   -1.924E+00   -1.929E+00   -1.934E+00   -1.939E+00   -1.944E+00   -1.949E+00   -1.954E+00
    -1.959E+00   -1.964E+00   -1.969E+00   -1.974E+00   -1.979E+00   -1.984E+00   -1.989E+00   -1.994E+00   -1.999E+00   -2.005E+00
    -2.010E+00   -2.015E+00   -2.020E+00   -2.025E+00   -2.030E+00   -2.035E+00   -2.040E+00   -2.045E+00   -2.050E+00   -2.055E+00
    -2.060E+00   -2.066E+00   -2.071E+00   -2.076E+00   -2.081E+00   -2.086E+00   -2.091E+00   -2.096E+00   -2.101E+00   -2.107E+00
    -2.112E+00   -2.117E+00   -2.122E+00   -2.127E+00   -2.132E+00   -2.137E+00   -2.143E+00   -2.148E+00   -2.153E+00   -2.158E+00
    -2.163E+00   -2.168E+00   -2.173E+00   -2.179E+00   -2.184E+00   -2.189E+00   -2.194E+00   -2.199E+00   -2.205E+00   -2.210E+00
    -2.215E+00   -2.220E+00   -2.225E+00   -2.230E+00   -2.236E+00   -2.241E+00   -2.246E+00   -2.251E+00   -2.256E+00   -2.262E+00
    -2.267E+00   -2.272E+00   -2.277E+00   -2.283E+00   -2.288E+00   -2.293E+00   -2.298E+00   -2.303E+00   -2.309E+00   -2.314E+00
    -2.319E+00   -2.324E+00   -2.330E+00   -2.335E+00   -2.340E+00   -2.345E+00   -2.351E+00   -2.356E+00   -2.361E+00   -2.366E+00
    -2.372E+00   -2.377E+00   -2.382E+00   -2.387E+00   -2.393E+00   -2.398E+00   -2.403E+00   -2.408E+00   -2.414E+00   -2.419E+00
    -2.424E+00   -2.429E+00   -2.435E+00   -2.440E+00   -2.445E+00   -2.451E+00   -2.456E+00   -2.461E+00   -2.466E+00   -2.472E+00
    -2.477E+00   -2.482E+00   -2.488E+00   -2.493E+00   -2.498E+00   -2.503E+00   -2.509E+00   -2.514E+00   -2.519E+00   -2.525E+00
    -2.530E+00   -2.535E+00   -2.541E+00   -2.546E+00   -2.551E+00   -2.556E+00   -2.562E+00   -2.567E+00   -2.572E+00   -2.578E+00
    -2.583E+00   -2.588E+00   -2.594E+00   -2.599E+00   -2.604E+00   -2.610E+00   -2.615E+00   -2.620E+00   -2.626E+00   -2.631E+00
    -2.636E+00   -2.642E+00   -2.647E+00   -2.652E+00   -2.658E+00   -2.663E+00   -2.668E+00   -2.674E+00   -2.679E+00   -2.684E+00
    -2.690E+00   -2.695E+00   -2.700E+00   -2.706E+00   -2.711E+00   -2.716E+00   -2.722E+00   -2.727E+00   -2.732E+00   -2.738E+00
    -2.743E+00   -2.748E+00   -2.754E+00   -2.759E+00   -2.764E+00   -2.770E+00   -2.775E+00   -2.780E+00   -2.786E+00   -2.791E+00
    -2.796E+00   -2.802E+00   -2.807E+00   -2.813E+00   -2.818E+00   -2.823E+00   -2.829E+00   -2.834E+00
 Ala      Conc. = 1.57E+03
