 LCModel (Version 6.3-1L) Copyright: S.W. Provencher.          Ref.: Magn. Reson. Med. 30:672-679 (1993).                
 Slice#2 Row#1 Col#3  PD_05_press_1_raw_act
 36 lines in following concentration table = NCONC+1
    Conc.  %SD /Cr+PCr  Metabolite                                         
   33.182  75%   1.033 Ala                                                 
    6.958  83%   0.217 Asp                                                 
   32.111 112%   1.000 Cr                                                  
    0.000 999%   0.000 PCr                                                 
    4.103  84%   0.128 GABA                                                
    3.760  92%   0.117 Glc                                                 
    0.000 999%   0.000 Gln                                                 
   50.505 107%   1.573 Glu                                                 
    0.000 999%   0.000 GPC                                                 
    7.843  59%   0.244 PCh                                                 
    0.000 999%   0.000 GSH                                                 
    0.000 999%   0.000 Ins                                                 
   54.634  53%   1.701 Lac                                                 
   58.663  29%   1.827 NAA                                                 
   20.013  91%   0.623 NAAG                                                
    1.258  91% 3.9E-02 Scyllo                                              
    6.548  87%   0.204 Tau                                                 
   11.070  98%   0.345 -CrCH2                                              
    7.843  59%   0.244 GPC+PCh                                             
   78.676  21%   2.450 NAA+NAAG                                            
   32.111  40%   1.000 Cr+PCr                                              
   50.505 107%   1.573 Glu+Gln                                             
    0.000 999%   0.000 Lip13a                                              
   69.126  39%   2.153 Lip13b                                              
    0.000 999%   0.000 Lip09                                               
    0.000 999%   0.000 MM09                                                
   18.288  79%   0.570 Lip20                                               
 5.33E-03 999% 1.7E-04 MM20                                                
    0.000 999%   0.000 MM12                                                
    0.000 999%   0.000 MM14                                                
    0.000 999%   0.000 MM17                                                
   69.126  39%   2.153 Lip13a+Lip13b                                       
   69.126  39%   2.153 MM14+Lip13a+Lip13b+MM12                             
    0.000 999%   0.000 MM09+Lip09                                          
   18.293  79%   0.570 MM20+Lip20                                          
   6 lines in following misc. output table
  FWHM = 0.038 ppm    S/N =   1                                            
  Data shift =-0.015 ppm                                                   
  Ph: -32 deg      -7.4 deg/ppm                                            
  alphaB,S = 8.5E+01,   2.0E+01                                            
   14 spline knots.   Ns = 5(1)                                            
   2 inflections.     1 extrema                                            
  498 points on ppm-axis = NY
      4.000000     3.992357     3.984714     3.977070     3.969427     3.961784     3.954141     3.946497     3.938854     3.931211
      3.923568     3.915925     3.908281     3.900638     3.892995     3.885352     3.877708     3.870065     3.862422     3.854779
      3.847136     3.839492     3.831849     3.824206     3.816563     3.808919     3.801276     3.793633     3.785990     3.778347
      3.770703     3.763060     3.755417     3.747774     3.740130     3.732487     3.724844     3.717201     3.709558     3.701914
      3.694271     3.686628     3.678985     3.671341     3.663698     3.656055     3.648412     3.640769     3.633125     3.625482
      3.617839     3.610196     3.602552     3.594909     3.587266     3.579623     3.571980     3.564336     3.556693     3.549050
      3.541407     3.533763     3.526120     3.518477     3.510834     3.503191     3.495547     3.487904     3.480261     3.472618
      3.464974     3.457331     3.449688     3.442045     3.434402     3.426758     3.419115     3.411472     3.403829     3.396185
      3.388542     3.380899     3.373256     3.365613     3.357969     3.350326     3.342683     3.335040     3.327396     3.319753
      3.312110     3.304467     3.296824     3.289180     3.281537     3.273894     3.266251     3.258607     3.250964     3.243321
      3.235678     3.228034     3.220391     3.212748     3.205105     3.197462     3.189818     3.182175     3.174532     3.166889
      3.159245     3.151602     3.143959     3.136316     3.128673     3.121029     3.113386     3.105743     3.098100     3.090456
      3.082813     3.075170     3.067527     3.059884     3.052240     3.044597     3.036954     3.029311     3.021667     3.014024
      3.006381     2.998738     2.991095     2.983451     2.975808     2.968165     2.960522     2.952878     2.945235     2.937592
      2.929949     2.922306     2.914662     2.907019     2.899376     2.891733     2.884089     2.876446     2.868803     2.861160
      2.853517     2.845873     2.838230     2.830587     2.822944     2.815300     2.807657     2.800014     2.792371     2.784728
      2.777084     2.769441     2.761798     2.754155     2.746511     2.738868     2.731225     2.723582     2.715939     2.708295
      2.700652     2.693009     2.685366     2.677722     2.670079     2.662436     2.654793     2.647150     2.639506     2.631863
      2.624220     2.616577     2.608933     2.601290     2.593647     2.586004     2.578361     2.570717     2.563074     2.555431
      2.547788     2.540144     2.532501     2.524858     2.517215     2.509572     2.501928     2.494285     2.486642     2.478999
      2.471355     2.463712     2.456069     2.448426     2.440783     2.433139     2.425496     2.417853     2.410210     2.402566
      2.394923     2.387280     2.379637     2.371994     2.364350     2.356707     2.349064     2.341421     2.333777     2.326134
      2.318491     2.310848     2.303205     2.295561     2.287918     2.280275     2.272632     2.264988     2.257345     2.249702
      2.242059     2.234416     2.226772     2.219129     2.211486     2.203843     2.196199     2.188556     2.180913     2.173270
      2.165627     2.157983     2.150340     2.142697     2.135054     2.127410     2.119767     2.112124     2.104481     2.096838
      2.089194     2.081551     2.073908     2.066265     2.058621     2.050978     2.043335     2.035692     2.028049     2.020405
      2.012762     2.005119     1.997476     1.989833     1.982190     1.974546     1.966903     1.959260     1.951617     1.943974
      1.936331     1.928688     1.921045     1.913402     1.905759     1.898115     1.890472     1.882829     1.875186     1.867543
      1.859900     1.852257     1.844614     1.836971     1.829327     1.821684     1.814041     1.806398     1.798755     1.791112
      1.783469     1.775826     1.768183     1.760540     1.752896     1.745253     1.737610     1.729967     1.722324     1.714681
      1.707038     1.699395     1.691752     1.684108     1.676465     1.668822     1.661179     1.653536     1.645893     1.638250
      1.630607     1.622964     1.615321     1.607677     1.600034     1.592391     1.584748     1.577105     1.569462     1.561819
      1.554176     1.546533     1.538890     1.531246     1.523603     1.515960     1.508317     1.500674     1.493031     1.485388
      1.477745     1.470102     1.462458     1.454815     1.447172     1.439529     1.431886     1.424243     1.416600     1.408957
      1.401314     1.393671     1.386027     1.378384     1.370741     1.363098     1.355455     1.347812     1.340169     1.332526
      1.324883     1.317240     1.309596     1.301953     1.294310     1.286667     1.279024     1.271381     1.263738     1.256095
      1.248452     1.240808     1.233165     1.225522     1.217879     1.210236     1.202593     1.194950     1.187307     1.179664
      1.172021     1.164377     1.156734     1.149091     1.141448     1.133805     1.126162     1.118519     1.110876     1.103233
      1.095590     1.087946     1.080303     1.072660     1.065017     1.057374     1.049731     1.042088     1.034445     1.026802
      1.019158     1.011515     1.003872     0.996229     0.988586     0.980943     0.973300     0.965657     0.958014     0.950371
      0.942727     0.935084     0.927441     0.919798     0.912155     0.904512     0.896869     0.889226     0.881583     0.873940
      0.866296     0.858653     0.851010     0.843367     0.835724     0.828081     0.820438     0.812795     0.805152     0.797508
      0.789865     0.782222     0.774579     0.766936     0.759293     0.751650     0.744007     0.736364     0.728721     0.721077
      0.713434     0.705791     0.698148     0.690505     0.682862     0.675219     0.667576     0.659933     0.652290     0.644646
      0.637003     0.629360     0.621717     0.614074     0.606431     0.598788     0.591145     0.583502     0.575858     0.568215
      0.560572     0.552929     0.545286     0.537643     0.530000     0.522357     0.514714     0.507071     0.499427     0.491784
      0.484141     0.476498     0.468855     0.461212     0.453569     0.445925     0.438282     0.430639     0.422996     0.415353
      0.407710     0.400067     0.392424     0.384780     0.377137     0.369494     0.361851     0.354208     0.346565     0.338922
      0.331278     0.323635     0.315992     0.308349     0.300706     0.293063     0.285420     0.277777     0.270133     0.262490
      0.254847     0.247204     0.239561     0.231918     0.224275     0.216631     0.208988     0.201345
 NY phased data points follow
  -1.33368E+00 -7.37134E-01 -3.28344E+00 -1.71575E+00 -2.48012E+00 -1.94796E+00 -6.20937E-01 -2.18202E+00 -1.59778E+00  5.77602E-01
  -1.99089E+00 -1.09784E+00 -8.24100E-01  6.14899E-02 -3.96094E-01 -1.65993E+00 -1.66298E+00 -3.31147E+00 -2.89020E+00 -2.53720E+00
  -1.00782E+00 -2.78040E+00 -3.55479E+00 -1.09701E+00 -9.25086E-01 -1.30277E+00 -3.04280E+00 -7.25817E-01 -1.64485E+00  1.04211E-01
  -2.75304E+00 -1.07400E+00  8.20422E-01 -1.90629E+00 -2.56947E+00 -1.00707E+00 -2.20983E+00 -1.80205E+00 -1.51570E+00 -3.01535E+00
  -2.57645E+00 -1.13436E+00 -1.15194E+00 -1.35796E+00 -1.95763E+00  3.82254E-02 -2.02704E+00 -8.26688E-01  1.61656E-01 -7.77010E-01
  -5.87610E-02 -6.04049E-01 -4.61652E+00 -1.04894E+00 -3.94288E-01  5.33470E-02 -4.49915E-01 -1.96495E+00 -7.23561E-01 -1.73196E+00
   7.82155E-02  6.13744E-01 -2.27486E+00 -6.38939E-01 -1.11155E+00 -2.14713E+00 -8.86725E-01 -1.56914E+00 -1.28919E+00 -1.82305E-01
   1.57512E-01 -1.48678E+00 -1.28904E+00 -2.57390E-02 -3.72706E-01  3.89824E-01 -1.50795E+00 -9.75768E-01 -1.19254E+00 -1.25964E-01
  -2.56749E+00 -2.19931E+00 -1.20728E+00  7.70689E-01 -1.18052E+00 -2.92418E-02 -2.42641E+00 -5.07541E-01 -2.03799E+00 -7.30624E-01
   7.46799E-01 -2.17071E+00  2.64815E-01 -7.00495E-01 -4.99741E-01 -1.69842E+00 -1.12619E+00 -1.08789E+00 -1.28024E+00 -7.41773E-01
  -7.04006E-01  5.55903E-01  1.39003E+00  3.03292E-01 -5.62129E-01 -7.59921E-01 -1.26390E+00 -2.99751E-01 -4.76630E-01 -9.74957E-01
   2.04469E-02 -1.40398E+00 -1.89995E+00 -3.74573E-01 -6.07030E-01 -1.16292E+00 -7.09881E-01 -1.93045E+00 -6.53403E-01 -4.59870E-02
  -1.21387E+00 -1.89647E+00 -1.21448E+00 -2.04153E+00 -5.24036E-01 -1.32313E+00  4.25100E+00  3.27353E-01  4.45567E-02  4.34709E-01
   1.93206E-01 -3.15564E-01 -5.65292E-01  5.57673E-03 -2.35601E+00 -1.86267E+00 -6.48809E-01 -8.10183E-01 -4.13613E-01 -2.46159E+00
  -3.11996E+00 -1.97667E+00  2.17523E-01 -1.42307E+00  2.01027E+00 -1.37572E-01 -8.99553E-01  4.13411E-02 -1.28342E+00 -1.16645E+00
   1.20049E-01 -3.14681E-01 -1.04388E+00 -1.25355E+00 -9.03440E-02  4.47895E-01 -2.58106E+00  4.26222E-01 -2.33519E+00 -1.89423E+00
  -3.87660E-01  1.16328E-01 -1.80358E+00 -1.69507E+00  9.19391E-02 -6.40134E-01  6.02617E-01 -3.56779E-01  1.13756E-01 -6.18992E-01
  -3.46118E-01 -1.49139E+00 -1.92503E+00 -2.35605E+00 -7.71073E-01 -1.33870E-01 -1.34267E+00  3.48590E-01 -8.64549E-01 -1.05696E-01
  -9.36345E-01 -1.27053E+00 -7.52251E-01  4.63890E-01 -3.33750E-01 -5.75986E-01  5.90323E-01 -2.78992E-01  4.12255E-01  9.64915E-01
  -1.58528E+00  6.68862E-03 -4.37170E-02 -1.46022E+00  1.32922E+00  3.82309E-01  2.12230E-01 -4.50881E-01 -1.52541E+00 -4.76461E-01
  -2.08634E+00 -1.43569E+00 -1.38905E+00  4.77691E-01 -1.48876E-01  2.10680E-01 -1.73738E+00 -1.41535E+00  4.34154E-01 -7.38882E-01
  -1.17011E+00  7.00588E-01 -1.32090E+00 -1.18463E+00 -1.43316E-01  5.30850E-01  2.25393E+00  3.54681E-03 -9.39134E-01 -9.06144E-03
   7.00969E-02 -1.04924E+00 -1.22276E+00 -8.32447E-01 -8.71260E-01 -9.05023E-01 -1.04254E+00  5.43877E-01 -9.10387E-01  2.64754E-01
   2.31409E-02  7.71758E-02 -1.92288E+00 -5.39923E-01 -3.27490E-02 -1.15282E+00 -7.21869E-01 -2.03107E+00  1.85951E-01 -1.06212E+00
   1.66928E-01 -1.02532E+00  1.80511E+00 -1.09082E+00  1.44380E-01  2.34870E-01  1.17333E+00 -5.83079E-01  1.68018E+00  1.72155E-01
  -5.87885E-01  1.65091E+00  4.62371E-01  4.75753E-01 -4.31172E-01  4.89858E-01  7.52087E-01  5.34800E-01  6.44485E-01  1.91196E+00
   2.58883E+00  2.84261E+00  7.02159E-01  1.46855E-01  8.59351E-01 -1.39930E+00 -1.82006E-01 -9.83631E-01 -6.27758E-01 -1.91800E+00
  -4.75220E-01 -1.13667E+00  4.60857E-02  1.71602E+00  9.32080E-01 -1.69616E+00 -4.53509E-01 -9.43026E-02 -1.53504E-01  5.35946E-02
  -2.99437E-01  1.05552E+00 -8.97449E-01 -9.15914E-01 -7.54184E-01  1.05329E+00  6.20710E-01 -1.39673E+00  2.64163E+00 -1.80591E-01
   4.91350E-01  5.28065E-01  5.93549E-02 -5.01147E-01 -2.04265E+00  2.55729E-01  2.20181E-01 -1.76791E+00  7.82209E-02 -2.00115E+00
  -3.11207E+00  1.54694E+00 -1.93021E+00  6.49638E-01 -1.17726E+00 -4.72002E-01 -3.37917E+00  3.88476E-01 -1.65068E+00 -2.19675E+00
  -1.70135E+00 -2.52702E-01 -9.58827E-01  2.16148E-01 -5.64693E-01 -2.81659E-01 -8.75956E-02 -4.32343E-01 -2.37203E-01 -2.97971E-01
  -8.16850E-01 -7.87673E-01 -7.19658E-01 -1.74741E+00  3.28105E-01  1.86594E-01 -6.68196E-01 -2.29690E+00 -2.69442E+00 -1.09063E+00
   8.15622E-02 -2.67068E+00 -2.06842E+00 -1.78458E+00 -1.41279E+00 -2.38564E+00  1.81349E-02 -5.57903E-01 -1.07281E+00 -4.76741E-01
   2.22295E-01 -1.96762E-01  1.11238E+00  1.43827E+00 -7.31715E-01 -1.04411E+00  9.38638E-01 -8.33771E-02 -3.46123E-01 -1.85511E+00
  -1.13772E-01 -4.50861E-01  1.28719E+00 -2.71970E+00 -1.04111E+00  7.61797E-01  1.35970E+00  2.77941E+00  3.43092E-01  1.17115E+00
   1.38234E+00 -1.57228E-01 -1.55334E+00  7.72604E-01 -1.18328E+00 -1.66109E+00 -8.38190E-01 -2.20416E+00 -7.17601E-01 -2.18154E+00
  -9.66062E-01 -1.25503E+00  9.30919E-01 -6.45871E-01 -8.85890E-01  2.47965E-01 -1.59316E+00 -3.30695E-01 -1.74158E+00  7.41557E-01
   7.61147E-01 -7.88054E-01 -4.48060E-02 -1.39835E+00 -2.90791E+00  1.78114E+00 -1.30749E+00 -7.61553E-01 -2.06445E+00 -1.88769E-01
  -1.16083E+00 -1.15375E+00 -2.22663E+00 -1.87155E+00 -1.65502E+00 -1.38514E+00 -9.75346E-01 -1.47800E+00 -1.39514E+00 -2.09985E+00
  -2.44014E+00 -1.19320E+00 -1.21391E+00 -1.46265E+00 -3.45976E-01 -1.87480E+00 -1.47036E+00 -2.51541E+00 -2.18221E+00 -1.24863E+00
  -1.68884E+00 -4.54845E+00 -1.72188E+00 -4.88011E-01 -2.34970E+00 -1.16223E+00 -4.10989E-01 -1.88230E+00 -8.41172E-01 -3.17062E+00
  -2.05150E-01 -2.19837E+00 -5.71958E-01  8.95012E-01 -2.03978E+00  7.14961E-01 -2.89844E-01 -3.09278E+00 -2.70623E+00  1.12402E+00
  -1.38565E+00 -6.94697E-01  3.81972E-01 -6.46916E-01 -4.74644E-01 -9.13912E-02 -4.17504E-01  4.71748E-01  4.85921E-01  9.01943E-01
   7.28484E-01  9.75037E-01 -1.42277E+00  7.02470E-02 -1.31723E+00 -1.12524E+00  2.85803E-01 -1.04300E+00 -1.04495E+00  1.64397E-01
  -1.02469E-02 -1.83292E+00 -6.26502E-01 -4.59490E-01 -1.96688E-01 -2.18687E+00  9.02458E-01 -5.24327E-01 -1.04958E+00 -3.17858E+00
  -4.85453E-01 -6.82206E-01 -6.25368E-01 -1.82095E+00 -2.58947E-01 -4.72335E-01 -1.79485E+00  2.58765E+00 -9.68559E-01  6.12454E-01
  -2.55159E-01 -1.14430E+00 -3.66094E-01 -1.84421E+00 -4.84454E-01  5.11730E-02 -1.00736E+00  8.39260E-01 -6.33581E-01 -2.14012E+00
   6.11057E-01  2.94401E-01  5.70908E-01 -5.43769E-01 -1.99595E+00  1.76921E+00  5.68327E-01 -2.43182E+00 -1.20395E+00 -2.43515E+00
   2.43180E-01 -2.10631E+00  2.52230E-01  5.79767E-01 -9.43722E-01 -1.09169E+00  2.42925E-01 -2.50623E+00
 NY points of the fit to the data follow
  -9.95431E-01 -9.75809E-01 -9.56163E-01 -9.43812E-01 -9.51968E-01 -9.80617E-01 -1.00712E+00 -9.93462E-01 -8.87744E-01 -6.61654E-01
  -3.94480E-01 -2.26833E-01 -2.25783E-01 -3.45413E-01 -5.09551E-01 -6.79962E-01 -8.29664E-01 -9.20380E-01 -9.43805E-01 -9.26171E-01
  -8.85824E-01 -8.34579E-01 -7.83061E-01 -7.49061E-01 -7.54669E-01 -8.12996E-01 -9.13461E-01 -1.02114E+00 -1.09508E+00 -1.11009E+00
  -1.05903E+00 -9.49477E-01 -8.16049E-01 -7.15149E-01 -6.87899E-01 -7.29026E-01 -8.05234E-01 -8.81187E-01 -9.33303E-01 -9.51432E-01
  -9.42411E-01 -9.23579E-01 -9.07269E-01 -8.97121E-01 -8.93573E-01 -8.94574E-01 -8.96541E-01 -8.98129E-01 -8.98956E-01 -8.98949E-01
  -8.97047E-01 -8.93046E-01 -8.88333E-01 -8.84823E-01 -8.83763E-01 -8.84987E-01 -8.87587E-01 -8.90699E-01 -8.92808E-01 -8.93068E-01
  -8.91974E-01 -8.89854E-01 -8.86532E-01 -8.82318E-01 -8.77488E-01 -8.73700E-01 -8.72608E-01 -8.74355E-01 -8.78218E-01 -8.82702E-01
  -8.84447E-01 -8.80440E-01 -8.69911E-01 -8.53876E-01 -8.37466E-01 -8.28729E-01 -8.32921E-01 -8.47200E-01 -8.63702E-01 -8.75567E-01
  -8.78859E-01 -8.70367E-01 -8.50993E-01 -8.24216E-01 -7.93562E-01 -7.68360E-01 -7.60018E-01 -7.70304E-01 -7.90577E-01 -8.11888E-01
  -8.31521E-01 -8.50240E-01 -8.66640E-01 -8.77984E-01 -8.81139E-01 -8.73526E-01 -8.53780E-01 -8.19953E-01 -7.53622E-01 -6.33665E-01
  -4.45642E-01 -1.92795E-01  4.46850E-02  1.48338E-01  7.45913E-02 -1.14876E-01 -3.31798E-01 -5.28020E-01 -6.84602E-01 -7.79920E-01
  -8.17997E-01 -8.31317E-01 -8.37733E-01 -8.41482E-01 -8.43288E-01 -8.44047E-01 -8.44340E-01 -8.44379E-01 -8.44029E-01 -8.41820E-01
  -8.34777E-01 -8.12039E-01 -7.32636E-01 -5.62628E-01 -2.81724E-01  8.90500E-02  4.17834E-01  5.41078E-01  4.17665E-01  1.44851E-01
  -1.57725E-01 -4.30030E-01 -6.44345E-01 -7.68392E-01 -8.15392E-01 -8.30653E-01 -8.35839E-01 -8.36248E-01 -8.34296E-01 -8.32384E-01
  -8.32211E-01 -8.32564E-01 -8.30647E-01 -8.25593E-01 -8.19028E-01 -8.13816E-01 -8.11917E-01 -8.12915E-01 -8.15237E-01 -8.17930E-01
  -8.20940E-01 -8.24599E-01 -8.28864E-01 -8.32012E-01 -8.31052E-01 -8.25633E-01 -8.20168E-01 -8.21094E-01 -8.34098E-01 -8.58091E-01
  -8.80968E-01 -8.89603E-01 -8.79587E-01 -8.59096E-01 -8.42518E-01 -8.39338E-01 -8.49671E-01 -8.68079E-01 -8.86784E-01 -8.99022E-01
  -9.02903E-01 -9.03338E-01 -9.09115E-01 -9.23598E-01 -9.42179E-01 -9.53040E-01 -9.48226E-01 -9.32142E-01 -9.18916E-01 -9.17371E-01
  -9.21571E-01 -9.19429E-01 -9.07189E-01 -8.88985E-01 -8.71265E-01 -8.56695E-01 -8.38191E-01 -8.09716E-01 -7.75811E-01 -7.46017E-01
  -7.25964E-01 -7.15974E-01 -7.13126E-01 -7.14079E-01 -7.12820E-01 -7.07884E-01 -7.06380E-01 -7.12536E-01 -7.22220E-01 -7.28438E-01
  -7.26897E-01 -7.13569E-01 -6.89599E-01 -6.65139E-01 -6.56226E-01 -6.73285E-01 -7.13074E-01 -7.67468E-01 -8.27739E-01 -8.78614E-01
  -9.03091E-01 -8.84531E-01 -8.16178E-01 -7.04035E-01 -5.77340E-01 -4.91151E-01 -4.91340E-01 -5.80256E-01 -7.27519E-01 -8.97735E-01
  -1.05648E+00 -1.15909E+00 -1.15995E+00 -1.06260E+00 -9.17182E-01 -7.76627E-01 -6.70949E-01 -6.09635E-01 -5.94846E-01 -6.17193E-01
  -6.50813E-01 -6.72409E-01 -6.75242E-01 -6.63121E-01 -6.44831E-01 -6.31078E-01 -6.29782E-01 -6.44090E-01 -6.73184E-01 -7.09836E-01
  -7.43832E-01 -7.61671E-01 -7.52250E-01 -7.16028E-01 -6.68378E-01 -6.27753E-01 -6.05501E-01 -6.04396E-01 -6.21729E-01 -6.46855E-01
  -6.50181E-01 -5.88391E-01 -4.45735E-01 -2.22404E-01  5.64015E-02  3.52521E-01  6.49215E-01  9.87144E-01  1.44412E+00  1.90603E+00
   2.08914E+00  1.85753E+00  1.35375E+00  7.85091E-01  2.61953E-01 -1.69174E-01 -4.48569E-01 -5.73408E-01 -6.26317E-01 -6.54730E-01
  -6.67431E-01 -6.67120E-01 -6.57817E-01 -6.44525E-01 -6.34129E-01 -6.31591E-01 -6.37192E-01 -6.47689E-01 -6.59899E-01 -6.71232E-01
  -6.79131E-01 -6.82037E-01 -6.80902E-01 -6.78194E-01 -6.75668E-01 -6.74107E-01 -6.74087E-01 -6.75596E-01 -6.77695E-01 -6.78901E-01
  -6.78171E-01 -6.75722E-01 -6.72643E-01 -6.70183E-01 -6.69012E-01 -6.69048E-01 -6.70229E-01 -6.72262E-01 -6.74006E-01 -6.74459E-01
  -6.73468E-01 -6.71433E-01 -6.68842E-01 -6.66044E-01 -6.63332E-01 -6.60925E-01 -6.58696E-01 -6.56416E-01 -6.53937E-01 -6.51155E-01
  -6.47994E-01 -6.44404E-01 -6.40308E-01 -6.35583E-01 -6.30042E-01 -6.23437E-01 -6.15416E-01 -6.05457E-01 -5.92719E-01 -5.75794E-01
  -5.52001E-01 -5.15111E-01 -4.53471E-01 -3.71668E-01 -2.87651E-01 -2.39600E-01 -2.90959E-01 -4.68489E-01 -7.20523E-01 -9.64818E-01
  -1.14236E+00 -1.22916E+00 -1.20581E+00 -1.04120E+00 -7.69103E-01 -4.91467E-01 -2.95540E-01 -2.03085E-01 -1.84565E-01 -2.05629E-01
  -2.41500E-01 -2.53205E-01 -1.97495E-01 -7.50740E-02  7.99024E-02  2.13648E-01  2.20627E-01  2.75017E-02 -3.09150E-01 -6.49015E-01
  -8.68278E-01 -9.18958E-01 -7.76855E-01 -4.07986E-01  1.07985E-01  5.75606E-01  8.51657E-01  9.16440E-01  8.27423E-01  6.41824E-01
   4.02897E-01  1.70397E-01 -1.81552E-02 -1.67626E-01 -2.87202E-01 -3.81028E-01 -4.52308E-01 -5.04606E-01 -5.41733E-01 -5.67354E-01
  -5.84660E-01 -5.96208E-01 -6.03916E-01 -6.09139E-01 -6.12785E-01 -6.15431E-01 -6.17421E-01 -6.18960E-01 -6.20172E-01 -6.21139E-01
  -6.21916E-01 -6.22537E-01 -6.23019E-01 -6.23377E-01 -6.23629E-01 -6.23792E-01 -6.23878E-01 -6.23896E-01 -6.23847E-01 -6.23737E-01
  -6.23576E-01 -6.23371E-01 -6.23128E-01 -6.22848E-01 -6.22530E-01 -6.22179E-01 -6.21800E-01 -6.21399E-01 -6.20975E-01 -6.20528E-01
  -6.20058E-01 -6.19569E-01 -6.19064E-01 -6.18547E-01 -6.18014E-01 -6.17467E-01 -6.16904E-01 -6.16330E-01 -6.15748E-01 -6.15156E-01
  -6.14554E-01 -6.13941E-01 -6.13319E-01 -6.12690E-01 -6.12055E-01 -6.11414E-01 -6.10763E-01 -6.10106E-01 -6.09442E-01 -6.08775E-01
  -6.08104E-01 -6.07427E-01 -6.06744E-01 -6.06057E-01 -6.05365E-01 -6.04672E-01 -6.03974E-01 -6.03271E-01 -6.02565E-01 -6.01855E-01
  -6.01143E-01 -6.00430E-01 -5.99713E-01 -5.98992E-01 -5.98267E-01 -5.97542E-01 -5.96814E-01 -5.96085E-01 -5.95353E-01 -5.94618E-01
  -5.93880E-01 -5.93142E-01 -5.92402E-01 -5.91660E-01 -5.90915E-01 -5.90169E-01 -5.89421E-01 -5.88673E-01 -5.87923E-01 -5.87171E-01
  -5.86417E-01 -5.85662E-01 -5.84907E-01 -5.84151E-01 -5.83393E-01 -5.82633E-01 -5.81871E-01 -5.81109E-01 -5.80346E-01 -5.79583E-01
  -5.78818E-01 -5.78051E-01 -5.77284E-01 -5.76517E-01 -5.75749E-01 -5.74979E-01 -5.74208E-01 -5.73437E-01 -5.72665E-01 -5.71893E-01
  -5.71120E-01 -5.70346E-01 -5.69570E-01 -5.68794E-01 -5.68017E-01 -5.67240E-01 -5.66461E-01 -5.65681E-01 -5.64900E-01 -5.64119E-01
  -5.63338E-01 -5.62556E-01 -5.61773E-01 -5.60988E-01 -5.60203E-01 -5.59418E-01 -5.58631E-01 -5.57844E-01 -5.57054E-01 -5.56264E-01
  -5.55473E-01 -5.54682E-01 -5.53889E-01 -5.53094E-01 -5.52296E-01 -5.51498E-01 -5.50698E-01 -5.49897E-01
 NY background values follow
    -9.623E-01   -9.615E-01   -9.607E-01   -9.598E-01   -9.590E-01   -9.582E-01   -9.574E-01   -9.565E-01   -9.557E-01   -9.549E-01
    -9.541E-01   -9.532E-01   -9.524E-01   -9.516E-01   -9.508E-01   -9.500E-01   -9.491E-01   -9.483E-01   -9.475E-01   -9.467E-01
    -9.458E-01   -9.450E-01   -9.442E-01   -9.434E-01   -9.425E-01   -9.417E-01   -9.409E-01   -9.401E-01   -9.392E-01   -9.384E-01
    -9.376E-01   -9.368E-01   -9.359E-01   -9.351E-01   -9.343E-01   -9.335E-01   -9.327E-01   -9.318E-01   -9.310E-01   -9.302E-01
    -9.294E-01   -9.285E-01   -9.277E-01   -9.269E-01   -9.261E-01   -9.252E-01   -9.244E-01   -9.236E-01   -9.228E-01   -9.219E-01
    -9.211E-01   -9.203E-01   -9.195E-01   -9.187E-01   -9.178E-01   -9.170E-01   -9.162E-01   -9.154E-01   -9.145E-01   -9.137E-01
    -9.129E-01   -9.121E-01   -9.112E-01   -9.104E-01   -9.096E-01   -9.088E-01   -9.079E-01   -9.071E-01   -9.063E-01   -9.055E-01
    -9.047E-01   -9.038E-01   -9.030E-01   -9.022E-01   -9.014E-01   -9.005E-01   -8.997E-01   -8.989E-01   -8.981E-01   -8.972E-01
    -8.964E-01   -8.956E-01   -8.948E-01   -8.939E-01   -8.931E-01   -8.923E-01   -8.915E-01   -8.907E-01   -8.898E-01   -8.890E-01
    -8.882E-01   -8.874E-01   -8.865E-01   -8.857E-01   -8.849E-01   -8.841E-01   -8.832E-01   -8.824E-01   -8.816E-01   -8.808E-01
    -8.799E-01   -8.791E-01   -8.783E-01   -8.775E-01   -8.767E-01   -8.758E-01   -8.750E-01   -8.742E-01   -8.734E-01   -8.725E-01
    -8.717E-01   -8.709E-01   -8.701E-01   -8.692E-01   -8.684E-01   -8.676E-01   -8.668E-01   -8.659E-01   -8.651E-01   -8.643E-01
    -8.635E-01   -8.627E-01   -8.618E-01   -8.610E-01   -8.602E-01   -8.594E-01   -8.585E-01   -8.577E-01   -8.569E-01   -8.561E-01
    -8.552E-01   -8.544E-01   -8.536E-01   -8.528E-01   -8.519E-01   -8.511E-01   -8.503E-01   -8.495E-01   -8.487E-01   -8.478E-01
    -8.470E-01   -8.462E-01   -8.454E-01   -8.445E-01   -8.437E-01   -8.429E-01   -8.421E-01   -8.412E-01   -8.404E-01   -8.396E-01
    -8.388E-01   -8.379E-01   -8.371E-01   -8.363E-01   -8.355E-01   -8.347E-01   -8.338E-01   -8.330E-01   -8.322E-01   -8.314E-01
    -8.305E-01   -8.297E-01   -8.289E-01   -8.281E-01   -8.272E-01   -8.264E-01   -8.256E-01   -8.248E-01   -8.240E-01   -8.231E-01
    -8.223E-01   -8.215E-01   -8.207E-01   -8.198E-01   -8.190E-01   -8.182E-01   -8.174E-01   -8.165E-01   -8.157E-01   -8.149E-01
    -8.141E-01   -8.132E-01   -8.124E-01   -8.116E-01   -8.108E-01   -8.100E-01   -8.091E-01   -8.083E-01   -8.075E-01   -8.067E-01
    -8.058E-01   -8.050E-01   -8.042E-01   -8.034E-01   -8.025E-01   -8.017E-01   -8.009E-01   -8.001E-01   -7.993E-01   -7.984E-01
    -7.976E-01   -7.968E-01   -7.960E-01   -7.951E-01   -7.943E-01   -7.935E-01   -7.927E-01   -7.918E-01   -7.910E-01   -7.902E-01
    -7.894E-01   -7.886E-01   -7.877E-01   -7.869E-01   -7.861E-01   -7.853E-01   -7.844E-01   -7.836E-01   -7.828E-01   -7.820E-01
    -7.811E-01   -7.803E-01   -7.795E-01   -7.787E-01   -7.779E-01   -7.770E-01   -7.762E-01   -7.754E-01   -7.746E-01   -7.737E-01
    -7.729E-01   -7.721E-01   -7.713E-01   -7.704E-01   -7.696E-01   -7.688E-01   -7.680E-01   -7.672E-01   -7.663E-01   -7.655E-01
    -7.647E-01   -7.639E-01   -7.630E-01   -7.622E-01   -7.614E-01   -7.606E-01   -7.597E-01   -7.589E-01   -7.581E-01   -7.573E-01
    -7.565E-01   -7.556E-01   -7.548E-01   -7.540E-01   -7.532E-01   -7.523E-01   -7.515E-01   -7.507E-01   -7.499E-01   -7.490E-01
    -7.482E-01   -7.474E-01   -7.466E-01   -7.458E-01   -7.449E-01   -7.441E-01   -7.433E-01   -7.425E-01   -7.416E-01   -7.408E-01
    -7.400E-01   -7.392E-01   -7.383E-01   -7.375E-01   -7.367E-01   -7.359E-01   -7.351E-01   -7.342E-01   -7.334E-01   -7.326E-01
    -7.318E-01   -7.309E-01   -7.301E-01   -7.293E-01   -7.285E-01   -7.277E-01   -7.268E-01   -7.260E-01   -7.252E-01   -7.244E-01
    -7.235E-01   -7.227E-01   -7.219E-01   -7.211E-01   -7.202E-01   -7.194E-01   -7.186E-01   -7.178E-01   -7.170E-01   -7.161E-01
    -7.153E-01   -7.145E-01   -7.137E-01   -7.128E-01   -7.120E-01   -7.112E-01   -7.104E-01   -7.096E-01   -7.087E-01   -7.079E-01
    -7.071E-01   -7.063E-01   -7.054E-01   -7.046E-01   -7.038E-01   -7.030E-01   -7.021E-01   -7.013E-01   -7.005E-01   -6.997E-01
    -6.989E-01   -6.980E-01   -6.972E-01   -6.964E-01   -6.956E-01   -6.947E-01   -6.939E-01   -6.931E-01   -6.923E-01   -6.915E-01
    -6.906E-01   -6.898E-01   -6.890E-01   -6.882E-01   -6.873E-01   -6.865E-01   -6.857E-01   -6.849E-01   -6.840E-01   -6.832E-01
    -6.824E-01   -6.816E-01   -6.808E-01   -6.799E-01   -6.791E-01   -6.783E-01   -6.775E-01   -6.766E-01   -6.758E-01   -6.750E-01
    -6.742E-01   -6.734E-01   -6.725E-01   -6.717E-01   -6.709E-01   -6.701E-01   -6.692E-01   -6.684E-01   -6.676E-01   -6.668E-01
    -6.660E-01   -6.651E-01   -6.643E-01   -6.635E-01   -6.627E-01   -6.618E-01   -6.610E-01   -6.602E-01   -6.594E-01   -6.585E-01
    -6.577E-01   -6.569E-01   -6.561E-01   -6.553E-01   -6.544E-01   -6.536E-01   -6.528E-01   -6.520E-01   -6.511E-01   -6.503E-01
    -6.495E-01   -6.487E-01   -6.479E-01   -6.470E-01   -6.462E-01   -6.454E-01   -6.446E-01   -6.437E-01   -6.429E-01   -6.421E-01
    -6.413E-01   -6.404E-01   -6.396E-01   -6.388E-01   -6.380E-01   -6.372E-01   -6.363E-01   -6.355E-01   -6.347E-01   -6.339E-01
    -6.330E-01   -6.322E-01   -6.314E-01   -6.306E-01   -6.298E-01   -6.289E-01   -6.281E-01   -6.273E-01   -6.265E-01   -6.256E-01
    -6.248E-01   -6.240E-01   -6.232E-01   -6.224E-01   -6.215E-01   -6.207E-01   -6.199E-01   -6.191E-01   -6.182E-01   -6.174E-01
    -6.166E-01   -6.158E-01   -6.149E-01   -6.141E-01   -6.133E-01   -6.125E-01   -6.117E-01   -6.108E-01   -6.100E-01   -6.092E-01
    -6.084E-01   -6.075E-01   -6.067E-01   -6.059E-01   -6.051E-01   -6.043E-01   -6.034E-01   -6.026E-01   -6.018E-01   -6.010E-01
    -6.001E-01   -5.993E-01   -5.985E-01   -5.977E-01   -5.969E-01   -5.960E-01   -5.952E-01   -5.944E-01   -5.936E-01   -5.927E-01
    -5.919E-01   -5.911E-01   -5.903E-01   -5.894E-01   -5.886E-01   -5.878E-01   -5.870E-01   -5.862E-01   -5.853E-01   -5.845E-01
    -5.837E-01   -5.829E-01   -5.820E-01   -5.812E-01   -5.804E-01   -5.796E-01   -5.788E-01   -5.779E-01   -5.771E-01   -5.763E-01
    -5.755E-01   -5.746E-01   -5.738E-01   -5.730E-01   -5.722E-01   -5.714E-01   -5.705E-01   -5.697E-01   -5.689E-01   -5.681E-01
    -5.672E-01   -5.664E-01   -5.656E-01   -5.648E-01   -5.639E-01   -5.631E-01   -5.623E-01   -5.615E-01   -5.607E-01   -5.598E-01
    -5.590E-01   -5.582E-01   -5.574E-01   -5.565E-01   -5.557E-01   -5.549E-01   -5.541E-01   -5.533E-01
 Ala      Conc. = 3.32E+01
