 LCModel (Version 6.3-1L) Copyright: S.W. Provencher.          Ref.: Magn. Reson. Med. 30:672-679 (1993).                
 Slice#1 Row#7 Col#11  PD_05_press_1_raw_act
 36 lines in following concentration table = NCONC+1
    Conc.  %SD /Cr+PCr  Metabolite                                         
   19.819 281% 4.2E-02 Ala                                                 
    0.000 999%   0.000 Asp                                                 
  124.531  83%   0.262 Cr                                                  
  350.736  31%   0.738 PCr                                                 
   25.243 296% 5.3E-02 GABA                                                
   77.877 101%   0.164 Glc                                                 
  242.020  46%   0.509 Gln                                                 
  806.164  17%   1.696 Glu                                                 
  157.717   8%   0.332 GPC                                                 
    0.000 999%   0.000 PCh                                                 
  122.632  34%   0.258 GSH                                                 
  405.085  33%   0.852 Ins                                                 
   27.326 217% 5.7E-02 Lac                                                 
 1.41E+03   6%   2.965 NAA                                                 
  448.115  15%   0.943 NAAG                                                
   40.831  37% 8.6E-02 Scyllo                                              
  294.753  34%   0.620 Tau                                                 
  265.061  23%   0.558 -CrCH2                                              
  157.717   8%   0.332 GPC+PCh                                             
 1.86E+03   3%   3.907 NAA+NAAG                                            
  475.267   8%   1.000 Cr+PCr                                              
 1.05E+03  17%   2.205 Glu+Gln                                             
  675.030  46%   1.420 Lip13a                                              
    0.000 999%   0.000 Lip13b                                              
   79.288 178%   0.167 Lip09                                               
 1.03E+03  17%   2.168 MM09                                                
  134.812  70%   0.284 Lip20                                               
 2.14E+03  12%   4.496 MM20                                                
  365.479  32%   0.769 MM12                                                
  838.153  27%   1.764 MM14                                                
  461.696  28%   0.971 MM17                                                
  675.030  46%   1.420 Lip13a+Lip13b                                       
 1.88E+03  11%   3.953 MM14+Lip13a+Lip13b+MM12                             
 1.11E+03  11%   2.335 MM09+Lip09                                          
 2.27E+03  10%   4.780 MM20+Lip20                                          
   6 lines in following misc. output table
  FWHM = 0.038 ppm    S/N =  14                                            
  Data shift = 0.008 ppm                                                   
  Ph: -34 deg      -4.6 deg/ppm                                            
  alphaB,S = 8.5E+01,   2.4E+01                                            
   14 spline knots.   Ns = 6(1)                                            
   2 inflections.     1 extrema                                            
  498 points on ppm-axis = NY
      4.000000     3.992357     3.984714     3.977070     3.969427     3.961784     3.954141     3.946497     3.938854     3.931211
      3.923568     3.915925     3.908281     3.900638     3.892995     3.885352     3.877708     3.870065     3.862422     3.854779
      3.847136     3.839492     3.831849     3.824206     3.816563     3.808919     3.801276     3.793633     3.785990     3.778347
      3.770703     3.763060     3.755417     3.747774     3.740130     3.732487     3.724844     3.717201     3.709558     3.701914
      3.694271     3.686628     3.678985     3.671341     3.663698     3.656055     3.648412     3.640769     3.633125     3.625482
      3.617839     3.610196     3.602552     3.594909     3.587266     3.579623     3.571980     3.564336     3.556693     3.549050
      3.541407     3.533763     3.526120     3.518477     3.510834     3.503191     3.495547     3.487904     3.480261     3.472618
      3.464974     3.457331     3.449688     3.442045     3.434402     3.426758     3.419115     3.411472     3.403829     3.396185
      3.388542     3.380899     3.373256     3.365613     3.357969     3.350326     3.342683     3.335040     3.327396     3.319753
      3.312110     3.304467     3.296824     3.289180     3.281537     3.273894     3.266251     3.258607     3.250964     3.243321
      3.235678     3.228034     3.220391     3.212748     3.205105     3.197462     3.189818     3.182175     3.174532     3.166889
      3.159245     3.151602     3.143959     3.136316     3.128673     3.121029     3.113386     3.105743     3.098100     3.090456
      3.082813     3.075170     3.067527     3.059884     3.052240     3.044597     3.036954     3.029311     3.021667     3.014024
      3.006381     2.998738     2.991095     2.983451     2.975808     2.968165     2.960522     2.952878     2.945235     2.937592
      2.929949     2.922306     2.914662     2.907019     2.899376     2.891733     2.884089     2.876446     2.868803     2.861160
      2.853517     2.845873     2.838230     2.830587     2.822944     2.815300     2.807657     2.800014     2.792371     2.784728
      2.777084     2.769441     2.761798     2.754155     2.746511     2.738868     2.731225     2.723582     2.715939     2.708295
      2.700652     2.693009     2.685366     2.677722     2.670079     2.662436     2.654793     2.647150     2.639506     2.631863
      2.624220     2.616577     2.608933     2.601290     2.593647     2.586004     2.578361     2.570717     2.563074     2.555431
      2.547788     2.540144     2.532501     2.524858     2.517215     2.509572     2.501928     2.494285     2.486642     2.478999
      2.471355     2.463712     2.456069     2.448426     2.440783     2.433139     2.425496     2.417853     2.410210     2.402566
      2.394923     2.387280     2.379637     2.371994     2.364350     2.356707     2.349064     2.341421     2.333777     2.326134
      2.318491     2.310848     2.303205     2.295561     2.287918     2.280275     2.272632     2.264988     2.257345     2.249702
      2.242059     2.234416     2.226772     2.219129     2.211486     2.203843     2.196199     2.188556     2.180913     2.173270
      2.165627     2.157983     2.150340     2.142697     2.135054     2.127410     2.119767     2.112124     2.104481     2.096838
      2.089194     2.081551     2.073908     2.066265     2.058621     2.050978     2.043335     2.035692     2.028049     2.020405
      2.012762     2.005119     1.997476     1.989833     1.982190     1.974546     1.966903     1.959260     1.951617     1.943974
      1.936331     1.928688     1.921045     1.913402     1.905759     1.898115     1.890472     1.882829     1.875186     1.867543
      1.859900     1.852257     1.844614     1.836971     1.829327     1.821684     1.814041     1.806398     1.798755     1.791112
      1.783469     1.775826     1.768183     1.760540     1.752896     1.745253     1.737610     1.729967     1.722324     1.714681
      1.707038     1.699395     1.691752     1.684108     1.676465     1.668822     1.661179     1.653536     1.645893     1.638250
      1.630607     1.622964     1.615321     1.607677     1.600034     1.592391     1.584748     1.577105     1.569462     1.561819
      1.554176     1.546533     1.538890     1.531246     1.523603     1.515960     1.508317     1.500674     1.493031     1.485388
      1.477745     1.470102     1.462458     1.454815     1.447172     1.439529     1.431886     1.424243     1.416600     1.408957
      1.401314     1.393671     1.386027     1.378384     1.370741     1.363098     1.355455     1.347812     1.340169     1.332526
      1.324883     1.317240     1.309596     1.301953     1.294310     1.286667     1.279024     1.271381     1.263738     1.256095
      1.248452     1.240808     1.233165     1.225522     1.217879     1.210236     1.202593     1.194950     1.187307     1.179664
      1.172021     1.164377     1.156734     1.149091     1.141448     1.133805     1.126162     1.118519     1.110876     1.103233
      1.095590     1.087946     1.080303     1.072660     1.065017     1.057374     1.049731     1.042088     1.034445     1.026802
      1.019158     1.011515     1.003872     0.996229     0.988586     0.980943     0.973300     0.965657     0.958014     0.950371
      0.942727     0.935084     0.927441     0.919798     0.912155     0.904512     0.896869     0.889226     0.881583     0.873940
      0.866296     0.858653     0.851010     0.843367     0.835724     0.828081     0.820438     0.812795     0.805152     0.797508
      0.789865     0.782222     0.774579     0.766936     0.759293     0.751650     0.744007     0.736364     0.728721     0.721077
      0.713434     0.705791     0.698148     0.690505     0.682862     0.675219     0.667576     0.659933     0.652290     0.644646
      0.637003     0.629360     0.621717     0.614074     0.606431     0.598788     0.591145     0.583502     0.575858     0.568215
      0.560572     0.552929     0.545286     0.537643     0.530000     0.522357     0.514714     0.507071     0.499427     0.491784
      0.484141     0.476498     0.468855     0.461212     0.453569     0.445925     0.438282     0.430639     0.422996     0.415353
      0.407710     0.400067     0.392424     0.384780     0.377137     0.369494     0.361851     0.354208     0.346565     0.338922
      0.331278     0.323635     0.315992     0.308349     0.300706     0.293063     0.285420     0.277777     0.270133     0.262490
      0.254847     0.247204     0.239561     0.231918     0.224275     0.216631     0.208988     0.201345
 NY phased data points follow
   2.90357E+00  3.60941E+00  4.95756E+00  2.23546E+00  3.16097E+00  4.85845E+00  2.87505E+00  3.92634E+00  9.49602E+00  6.12849E+00
   6.86629E+00  8.81142E+00  8.25895E+00  6.33851E+00  3.88771E+00  7.08680E+00  1.37700E+00  3.48008E+00  1.68316E+00  3.94630E+00
   1.59216E+00  1.76866E-01  2.05569E+00  1.83036E+00  3.42178E+00  2.28209E+00  4.18374E+00  5.12419E+00  5.11745E+00  1.83464E+00
   7.29049E+00  4.13047E+00  5.95107E+00  3.34917E+00  4.47388E+00  3.04898E+00  3.81074E+00  5.24276E-01  2.45656E+00  6.28912E+00
   1.99837E+00  1.88253E+00  9.30562E+00  9.05500E+00  8.44067E+00  8.26726E+00  7.48559E+00  6.75761E+00  4.46895E+00  7.34690E+00
   5.78673E+00  2.77667E+00  3.44477E+00  4.80837E+00  3.22754E+00  3.43628E+00  2.78741E+00  3.91932E+00  4.37703E+00  5.03874E+00
   3.96710E+00  5.14379E+00  3.84259E+00 -1.06001E+00 -9.96663E-01  5.26331E+00  3.42911E+00 -3.91736E-01  1.96080E+00  1.68205E+00
   1.03326E+00  4.87407E+00  4.29643E+00  7.53242E+00  2.44165E+00  5.82066E+00  6.67030E+00  4.35312E+00  5.12133E+00  3.31601E+00
   1.34628E+00  3.84808E+00  4.50811E+00 -3.00078E-01  1.71065E+00  6.04513E+00  2.71544E+00  6.99490E+00  4.61383E+00  5.03031E+00
   3.73153E+00  5.50184E+00  1.69935E+00  6.86539E+00  5.84575E+00  8.36828E+00  5.15812E+00  7.11413E+00  6.58393E+00  7.84653E+00
   1.23565E+01  1.96271E+01  2.01885E+01  2.35165E+01  2.04189E+01  1.03744E+01  8.23691E+00  9.70531E+00  7.28020E+00  7.90418E+00
   5.18300E+00  6.15989E+00  8.66213E+00  7.34650E+00  5.32502E+00  3.84721E+00  6.19382E+00  3.77190E+00  4.68227E+00  5.84074E+00
   4.95558E+00  4.23782E+00  3.82863E+00  5.39172E+00  1.50660E+01  1.80236E+01  2.68959E+01  2.04145E+01  2.69433E+01  1.62232E+01
   1.12689E+01  9.87303E+00  6.90165E+00  4.85962E+00  4.83632E+00  6.70499E+00  4.96595E+00  5.88839E+00  4.79965E+00  5.82758E+00
   4.05032E+00  4.22141E+00  4.01240E+00  2.74164E+00  5.03491E+00  4.35462E+00  4.19153E+00  6.72214E+00  7.17513E+00  4.02322E+00
   4.21131E+00  3.92767E+00  5.40876E+00  4.76790E+00  5.27365E+00  4.69512E+00  7.06847E+00  6.26018E+00  2.70884E+00  4.37736E+00
   1.74956E+00  2.60574E+00  3.53649E+00  2.08952E+00  2.41284E+00  5.67890E+00 -2.01940E+00 -3.50123E+00 -1.29990E+00 -6.31719E+00
  -1.95842E+00 -4.10494E+00 -2.94180E+00 -6.25396E+00 -8.13237E+00 -6.58206E+00 -6.41012E+00 -6.30329E+00 -4.08805E+00 -6.69677E+00
  -4.15829E+00 -4.79981E+00 -2.81800E+00 -4.49655E+00 -1.16612E+00 -1.45530E+00 -7.46577E-01 -3.44078E+00 -2.37793E+00  2.37156E+00
   1.58823E+00  9.60669E-01  2.04780E+00  3.62891E+00 -7.21274E-01  2.48981E-01 -4.14103E+00 -8.72563E+00 -7.27263E+00 -5.63757E+00
  -3.93554E+00 -1.39201E+00 -5.55523E-01  5.70884E+00  4.87296E+00  1.51571E+00  5.55112E+00  5.03897E+00  1.04197E+00 -4.02342E+00
   3.77581E+00  4.85858E+00  7.50430E+00  9.87152E+00  1.04085E+01  1.46783E+01  1.32035E+01  1.40824E+01  7.42921E+00  5.75417E+00
  -2.22851E+00  3.70165E-01  1.38358E-01 -5.43649E-01  1.57489E+00  6.48393E+00  7.74909E+00  7.04647E+00  6.12803E+00  4.04646E+00
   6.83861E+00  5.78519E+00  4.35808E+00  7.43494E+00  7.48140E+00  4.10897E+00  8.12585E+00  7.94467E+00  8.30827E+00  6.32530E+00
   9.11943E+00  3.86253E+00  5.52487E+00  3.48070E+00  3.12591E+00  7.29399E+00  1.22343E+01  1.30870E+01  1.07860E+01  1.33200E+01
   1.08324E+01  1.66029E+01  1.99540E+01  2.54443E+01  3.08860E+01  3.64383E+01  4.37507E+01  4.44652E+01  5.62101E+01  6.94605E+01
   7.97930E+01  7.24066E+01  5.23482E+01  3.19849E+01  1.92312E+01  1.61305E+01  1.00442E+01  1.05342E+01  5.77231E+00  9.26240E+00
   4.48097E+00  8.33319E+00  7.82149E+00  5.80644E+00  2.21565E+00  1.29496E+00  5.21529E+00  3.41909E+00  5.43421E+00  3.03138E+00
   3.06178E+00  2.62494E+00  3.00024E+00  2.61839E+00  1.40409E+00  3.36545E+00  4.57753E+00  9.17121E-01  2.87401E+00  5.75625E-01
   1.75154E+00  1.41981E+00  1.73972E+00  1.59228E+00  2.52188E+00  2.10646E+00  4.26461E+00  1.02474E+00  6.19174E+00  3.86381E+00
   4.38579E+00  2.55721E+00  5.05398E+00  4.96360E+00  6.18743E+00  5.41486E+00  3.89189E+00  6.92240E+00  3.81505E+00  3.83860E+00
   6.03602E+00  9.53075E+00  3.56868E+00  5.02357E+00  5.10891E+00  3.89555E+00  4.81356E+00  4.47198E+00  6.65355E+00  5.81675E+00
   4.78607E+00  2.37542E+00  8.35504E-01  4.32700E+00  2.39183E+00  5.17950E+00  2.45968E+00  4.56805E+00  2.87321E+00  2.20475E+00
   5.13089E+00  4.00508E+00  5.99759E+00  8.35480E+00  6.82711E+00  7.94087E+00  6.44262E+00  9.29689E+00  7.93779E+00  7.88019E+00
   6.68600E+00  7.82152E+00  2.66294E+00  9.65360E+00  7.64044E+00  9.47388E+00  4.58222E+00  6.04891E+00  8.08442E+00  6.31851E+00
   4.36458E+00  5.83141E+00  4.27797E+00  7.52193E+00  6.22901E+00  5.60837E+00  6.67150E+00  3.49551E+00  5.36907E+00  4.11217E+00
   5.24621E+00  5.04013E+00  4.82755E+00  3.29319E+00  6.01155E+00  8.01007E+00  7.35477E+00  8.09140E+00  7.61456E+00  7.61092E+00
   3.82973E+00  9.41544E+00  5.02904E+00  3.48769E+00  7.33338E+00  4.84790E+00  1.76132E+00  4.22570E+00  3.29819E+00  4.55873E+00
   3.46053E+00  2.61771E+00  1.84749E+00  2.72963E+00 -6.76030E-01 -6.48869E-01  4.88367E-01  2.62027E+00  9.15636E-01  2.22830E+00
   1.97117E+00  3.24541E+00  5.93063E+00  4.47763E+00  4.83516E+00  8.26674E+00  5.41137E+00  9.33652E+00  6.92091E+00  7.18601E+00
   8.87760E+00  5.90256E+00  6.98764E+00  6.78269E+00  8.98808E+00  8.15937E+00  8.86535E+00  9.08768E+00  1.00546E+01  6.84534E+00
   8.38454E+00  3.81884E+00  6.38396E+00  3.59696E+00  6.27597E+00  6.02492E+00  2.97665E+00  2.78510E+00  5.06457E+00  3.42804E+00
   2.54070E+00  3.04132E+00  3.17611E+00  1.39256E+00  1.20100E+00  4.25142E+00  1.75819E+00  2.74897E+00  1.65114E+00  2.58183E+00
  -1.60998E+00 -2.90731E+00  2.75620E+00  5.89467E-01 -3.92420E-01  3.44310E-01 -1.15063E+00  1.14904E+00  1.30742E+00  1.70104E+00
  -2.38875E-01  3.61185E+00  1.99725E+00  1.22489E+00  7.84574E-01 -2.89761E+00  5.44582E-01 -5.04779E-01 -7.43664E-01 -4.29438E+00
  -1.66970E+00 -1.61434E+00 -5.51412E-01 -5.08395E-01  1.98801E-01 -2.89923E+00 -7.89782E-01  1.58532E+00 -2.25360E+00 -8.25862E-01
   5.52665E-01 -1.84425E+00 -2.46701E-01  1.16136E+00  1.96475E-01  5.13930E-01 -2.81824E+00  3.31973E+00 -1.34824E+00 -1.29616E-01
  -1.28598E+00 -4.19193E-01 -1.24135E+00  4.35724E-01  1.64346E+00  9.20036E-01  3.41687E+00 -1.04062E+00 -1.28486E+00 -9.33081E-01
  -2.65147E+00 -1.99087E+00  3.33598E-01 -9.93531E-01  6.89588E-01  2.86638E+00 -9.42685E-01  1.37969E+00 -2.01854E-01 -2.56727E+00
   6.66223E-02 -4.80345E+00 -1.11073E+00 -1.92424E+00  4.65242E-02 -2.37048E-01  5.20501E-01  2.01740E-01
 NY points of the fit to the data follow
   2.60346E+00  2.55660E+00  2.60419E+00  2.75760E+00  3.07365E+00  3.57791E+00  4.33605E+00  5.36216E+00  6.59167E+00  7.83161E+00
   8.67033E+00  8.68330E+00  7.84009E+00  6.51070E+00  5.31481E+00  4.60111E+00  4.26531E+00  3.99508E+00  3.76784E+00  3.62923E+00
   3.65013E+00  3.74721E+00  3.78668E+00  3.72936E+00  3.64860E+00  3.53743E+00  3.37853E+00  3.47187E+00  4.13263E+00  5.41915E+00
   6.93750E+00  8.00246E+00  8.24670E+00  7.82423E+00  6.84136E+00  5.36887E+00  3.77518E+00  2.53943E+00  2.03733E+00  2.20814E+00
   2.78715E+00  3.53673E+00  4.15426E+00  4.66466E+00  5.32626E+00  6.25853E+00  7.17581E+00  7.47882E+00  6.79872E+00  5.47847E+00
   4.22395E+00  3.45079E+00  3.08645E+00  2.94301E+00  2.92655E+00  3.01389E+00  3.21292E+00  3.51445E+00  3.89369E+00  4.23174E+00
   4.31919E+00  4.06847E+00  3.62571E+00  3.27252E+00  3.17231E+00  3.28818E+00  3.47620E+00  3.58616E+00  3.55223E+00  3.50809E+00
   3.59757E+00  3.82786E+00  4.21131E+00  4.71537E+00  5.12830E+00  5.24459E+00  4.80923E+00  3.84450E+00  2.82512E+00  2.30131E+00
   2.40011E+00  2.92300E+00  3.54585E+00  4.06842E+00  4.56957E+00  5.03363E+00  5.23212E+00  4.89843E+00  4.07772E+00  3.27484E+00
   2.90951E+00  2.77737E+00  2.47230E+00  2.01976E+00  1.66958E+00  1.79242E+00  2.57145E+00  4.06535E+00  6.08353E+00  8.81497E+00
   1.30008E+01  1.82638E+01  2.25030E+01  2.30806E+01  1.91205E+01  1.31677E+01  8.76565E+00  6.82284E+00  5.87750E+00  5.07716E+00
   4.18814E+00  3.63966E+00  3.40381E+00  3.26366E+00  3.16628E+00  3.08377E+00  3.02526E+00  2.97837E+00  2.94286E+00  2.95399E+00
   3.13689E+00  3.88733E+00  5.46569E+00  8.11430E+00  1.25501E+01  1.85275E+01  2.38321E+01  2.56055E+01  2.24504E+01  1.62779E+01
   1.10045E+01  8.46868E+00  7.36580E+00  6.38866E+00  5.13648E+00  3.98477E+00  3.33963E+00  3.16817E+00  3.36167E+00  3.72933E+00
   4.07104E+00  4.22453E+00  4.15782E+00  3.93459E+00  3.66515E+00  3.44769E+00  3.29788E+00  3.17497E+00  3.05101E+00  2.89905E+00
   2.71789E+00  2.49218E+00  2.24761E+00  2.06720E+00  2.03747E+00  2.17923E+00  2.38593E+00  2.43510E+00  2.09851E+00  1.38954E+00
   6.09007E-01  2.07036E-01  5.03532E-01  1.26942E+00  1.80211E+00  1.61273E+00  7.89357E-01 -1.78766E-01 -7.62494E-01 -8.44899E-01
  -7.22709E-01 -6.67184E-01 -8.75739E-01 -1.41957E+00 -2.10498E+00 -2.52657E+00 -2.36799E+00 -1.68428E+00 -1.01405E+00 -9.47137E-01
  -1.43249E+00 -1.82503E+00 -1.61742E+00 -9.73048E-01 -4.59891E-01 -3.68852E-01 -2.08289E-01  5.52659E-01  1.91657E+00  3.36443E+00
   4.21272E+00  4.24020E+00  3.73308E+00  3.05689E+00  2.52657E+00  2.27585E+00  2.19531E+00  2.21392E+00  2.38034E+00  2.80699E+00
   3.50401E+00  4.34253E+00  5.10105E+00  5.60027E+00  5.50446E+00  4.57161E+00  2.90853E+00  9.29372E-01 -7.89916E-01 -1.75951E+00
  -1.75694E+00 -8.39653E-01  7.95854E-01  3.00045E+00  5.58572E+00  7.83594E+00  8.52810E+00  7.10716E+00  4.23216E+00  1.20865E+00
  -1.14253E+00 -2.64624E+00 -2.95666E+00 -1.59246E+00  1.12313E+00  4.06983E+00  5.97874E+00  6.65327E+00  6.64519E+00  6.34503E+00
   5.91241E+00  5.59994E+00  5.68413E+00  6.20486E+00  6.88957E+00  7.46531E+00  7.86963E+00  8.10355E+00  8.06412E+00  7.64692E+00
   6.97006E+00  6.41116E+00  6.36978E+00  7.06696E+00  8.31539E+00  9.59844E+00  1.04531E+01  1.07897E+01  1.08985E+01  1.12302E+01
   1.23184E+01  1.44250E+01  1.81189E+01  2.38298E+01  3.08356E+01  3.75449E+01  4.22064E+01  4.70214E+01  5.68032E+01  7.01040E+01
   7.80086E+01  7.19377E+01  5.29180E+01  3.23065E+01  2.02919E+01  1.55764E+01  1.27334E+01  1.01620E+01  7.72652E+00  6.64692E+00
   6.13416E+00  5.83557E+00  5.66793E+00  5.55922E+00  5.38715E+00  5.07663E+00  4.64625E+00  4.22729E+00  3.91623E+00  3.70187E+00
   3.53929E+00  3.42121E+00  3.35191E+00  3.30313E+00  3.21877E+00  3.09087E+00  2.96348E+00  2.86056E+00  2.79138E+00  2.78252E+00
   2.84985E+00  2.98332E+00  3.13549E+00  3.25640E+00  3.34173E+00  3.41900E+00  3.50166E+00  3.59530E+00  3.71071E+00  3.86073E+00
   4.04778E+00  4.24737E+00  4.42981E+00  4.58549E+00  4.71569E+00  4.81859E+00  4.89409E+00  4.94075E+00  4.96085E+00  4.95599E+00
   4.92726E+00  4.87736E+00  4.81036E+00  4.73198E+00  4.64831E+00  4.56577E+00  4.48975E+00  4.42568E+00  4.37888E+00  4.35510E+00
   4.35985E+00  4.39939E+00  4.47186E+00  4.57418E+00  4.70286E+00  4.82774E+00  4.90120E+00  4.90352E+00  4.86696E+00  4.87303E+00
   4.98107E+00  5.16912E+00  5.39808E+00  5.67423E+00  5.99044E+00  6.29938E+00  6.52482E+00  6.62967E+00  6.66297E+00  6.69448E+00
   6.74252E+00  6.80073E+00  6.85899E+00  6.91300E+00  6.96839E+00  6.98952E+00  6.91132E+00  6.70232E+00  6.40474E+00  6.13832E+00
   6.00332E+00  5.99235E+00  6.05912E+00  6.19571E+00  6.37649E+00  6.52740E+00  6.55685E+00  6.44241E+00  6.26841E+00  6.11337E+00
   5.97681E+00  5.83933E+00  5.68742E+00  5.52705E+00  5.36417E+00  5.19611E+00  5.02209E+00  4.84324E+00  4.66124E+00  4.47863E+00
   4.29753E+00  4.12034E+00  3.94910E+00  3.78649E+00  3.63499E+00  3.49731E+00  3.37539E+00  3.27123E+00  3.18647E+00  3.12326E+00
   3.08341E+00  3.06885E+00  3.08074E+00  3.12047E+00  3.18913E+00  3.28830E+00  3.41893E+00  3.58180E+00  3.77669E+00  4.00327E+00
   4.26043E+00  4.54676E+00  4.85941E+00  5.19460E+00  5.54694E+00  5.91047E+00  6.27801E+00  6.64184E+00  6.99292E+00  7.32192E+00
   7.61900E+00  7.87524E+00  8.08218E+00  8.23275E+00  8.32079E+00  8.34213E+00  8.29443E+00  8.17805E+00  7.99525E+00  7.75049E+00
   7.44945E+00  7.09968E+00  6.70965E+00  6.28903E+00  5.84737E+00  5.39418E+00  4.93792E+00  4.48667E+00  4.04730E+00  3.62592E+00
   3.22690E+00  2.85351E+00  2.50743E+00  2.18980E+00  1.90069E+00  1.63976E+00  1.40556E+00  1.19645E+00  1.01017E+00  8.44928E-01
   6.98626E-01  5.69476E-01  4.55244E-01  3.54096E-01  2.64146E-01  1.84210E-01  1.12962E-01  4.94259E-02 -7.73231E-03 -5.93541E-02
  -1.06323E-01 -1.48935E-01 -1.87793E-01 -2.23268E-01 -2.56103E-01 -2.86548E-01 -3.14956E-01 -3.41242E-01 -3.65753E-01 -3.88645E-01
  -4.10394E-01 -4.30968E-01 -4.50501E-01 -4.68806E-01 -4.86189E-01 -5.02726E-01 -5.18753E-01 -5.34091E-01 -5.48803E-01 -5.62719E-01
  -5.76160E-01 -5.89149E-01 -6.01909E-01 -6.14174E-01 -6.26004E-01 -6.37280E-01 -6.48343E-01 -6.59159E-01 -6.69861E-01 -6.80145E-01
  -6.90111E-01 -6.99696E-01 -7.09227E-01 -7.18599E-01 -7.27869E-01 -7.36746E-01 -7.45394E-01 -7.53796E-01 -7.62242E-01 -7.70547E-01
  -7.78732E-01 -7.86543E-01 -7.94208E-01 -8.01720E-01 -8.09304E-01 -8.16710E-01 -8.23955E-01 -8.30847E-01 -8.37662E-01 -8.44372E-01
  -8.51128E-01 -8.57632E-01 -8.63926E-01 -8.69884E-01 -8.75799E-01 -8.81587E-01 -8.87322E-01 -8.92685E-01
 NY background values follow
     2.490E+00    2.484E+00    2.478E+00    2.472E+00    2.466E+00    2.460E+00    2.454E+00    2.448E+00    2.442E+00    2.436E+00
     2.430E+00    2.424E+00    2.418E+00    2.413E+00    2.407E+00    2.401E+00    2.395E+00    2.389E+00    2.383E+00    2.377E+00
     2.371E+00    2.365E+00    2.359E+00    2.353E+00    2.347E+00    2.341E+00    2.335E+00    2.329E+00    2.323E+00    2.317E+00
     2.311E+00    2.305E+00    2.299E+00    2.293E+00    2.287E+00    2.280E+00    2.274E+00    2.268E+00    2.262E+00    2.256E+00
     2.250E+00    2.244E+00    2.238E+00    2.232E+00    2.226E+00    2.220E+00    2.214E+00    2.208E+00    2.202E+00    2.196E+00
     2.190E+00    2.184E+00    2.178E+00    2.172E+00    2.165E+00    2.159E+00    2.153E+00    2.147E+00    2.141E+00    2.135E+00
     2.129E+00    2.123E+00    2.117E+00    2.111E+00    2.105E+00    2.099E+00    2.092E+00    2.086E+00    2.080E+00    2.074E+00
     2.068E+00    2.062E+00    2.056E+00    2.050E+00    2.044E+00    2.037E+00    2.031E+00    2.025E+00    2.019E+00    2.013E+00
     2.007E+00    2.001E+00    1.995E+00    1.988E+00    1.982E+00    1.976E+00    1.970E+00    1.964E+00    1.958E+00    1.952E+00
     1.945E+00    1.939E+00    1.933E+00    1.927E+00    1.921E+00    1.915E+00    1.908E+00    1.902E+00    1.896E+00    1.890E+00
     1.884E+00    1.878E+00    1.871E+00    1.865E+00    1.859E+00    1.853E+00    1.847E+00    1.841E+00    1.834E+00    1.828E+00
     1.822E+00    1.816E+00    1.810E+00    1.803E+00    1.797E+00    1.791E+00    1.785E+00    1.779E+00    1.772E+00    1.766E+00
     1.760E+00    1.754E+00    1.748E+00    1.741E+00    1.735E+00    1.729E+00    1.723E+00    1.717E+00    1.710E+00    1.704E+00
     1.698E+00    1.692E+00    1.685E+00    1.679E+00    1.673E+00    1.667E+00    1.661E+00    1.654E+00    1.648E+00    1.642E+00
     1.636E+00    1.629E+00    1.623E+00    1.617E+00    1.611E+00    1.604E+00    1.598E+00    1.592E+00    1.586E+00    1.579E+00
     1.573E+00    1.567E+00    1.561E+00    1.554E+00    1.548E+00    1.542E+00    1.536E+00    1.529E+00    1.523E+00    1.517E+00
     1.511E+00    1.504E+00    1.498E+00    1.492E+00    1.485E+00    1.479E+00    1.473E+00    1.467E+00    1.460E+00    1.454E+00
     1.448E+00    1.442E+00    1.435E+00    1.429E+00    1.423E+00    1.416E+00    1.410E+00    1.404E+00    1.398E+00    1.391E+00
     1.385E+00    1.379E+00    1.372E+00    1.366E+00    1.360E+00    1.353E+00    1.347E+00    1.341E+00    1.335E+00    1.328E+00
     1.322E+00    1.316E+00    1.309E+00    1.303E+00    1.297E+00    1.290E+00    1.284E+00    1.278E+00    1.272E+00    1.265E+00
     1.259E+00    1.253E+00    1.246E+00    1.240E+00    1.234E+00    1.227E+00    1.221E+00    1.215E+00    1.208E+00    1.202E+00
     1.196E+00    1.189E+00    1.183E+00    1.177E+00    1.170E+00    1.164E+00    1.158E+00    1.151E+00    1.145E+00    1.139E+00
     1.132E+00    1.126E+00    1.120E+00    1.114E+00    1.107E+00    1.101E+00    1.095E+00    1.088E+00    1.082E+00    1.076E+00
     1.069E+00    1.063E+00    1.056E+00    1.050E+00    1.044E+00    1.037E+00    1.031E+00    1.025E+00    1.018E+00    1.012E+00
     1.006E+00    9.994E-01    9.931E-01    9.868E-01    9.804E-01    9.741E-01    9.677E-01    9.614E-01    9.550E-01    9.487E-01
     9.423E-01    9.360E-01    9.296E-01    9.233E-01    9.169E-01    9.106E-01    9.042E-01    8.979E-01    8.915E-01    8.852E-01
     8.788E-01    8.725E-01    8.661E-01    8.598E-01    8.534E-01    8.471E-01    8.407E-01    8.344E-01    8.280E-01    8.217E-01
     8.153E-01    8.090E-01    8.026E-01    7.962E-01    7.899E-01    7.835E-01    7.772E-01    7.708E-01    7.645E-01    7.581E-01
     7.517E-01    7.454E-01    7.390E-01    7.327E-01    7.263E-01    7.200E-01    7.136E-01    7.072E-01    7.009E-01    6.945E-01
     6.882E-01    6.818E-01    6.754E-01    6.691E-01    6.627E-01    6.564E-01    6.500E-01    6.436E-01    6.373E-01    6.309E-01
     6.246E-01    6.182E-01    6.119E-01    6.055E-01    5.991E-01    5.928E-01    5.864E-01    5.801E-01    5.737E-01    5.673E-01
     5.610E-01    5.546E-01    5.483E-01    5.419E-01    5.355E-01    5.292E-01    5.228E-01    5.165E-01    5.101E-01    5.037E-01
     4.974E-01    4.910E-01    4.847E-01    4.783E-01    4.720E-01    4.656E-01    4.592E-01    4.529E-01    4.465E-01    4.402E-01
     4.338E-01    4.275E-01    4.211E-01    4.147E-01    4.084E-01    4.020E-01    3.957E-01    3.893E-01    3.830E-01    3.766E-01
     3.703E-01    3.639E-01    3.576E-01    3.512E-01    3.449E-01    3.385E-01    3.322E-01    3.258E-01    3.195E-01    3.131E-01
     3.068E-01    3.004E-01    2.941E-01    2.877E-01    2.814E-01    2.750E-01    2.687E-01    2.623E-01    2.560E-01    2.496E-01
     2.433E-01    2.369E-01    2.306E-01    2.243E-01    2.179E-01    2.116E-01    2.052E-01    1.989E-01    1.925E-01    1.862E-01
     1.799E-01    1.735E-01    1.672E-01    1.609E-01    1.545E-01    1.482E-01    1.418E-01    1.355E-01    1.292E-01    1.228E-01
     1.165E-01    1.102E-01    1.038E-01    9.752E-02    9.119E-02    8.486E-02    7.853E-02    7.220E-02    6.588E-02    5.955E-02
     5.323E-02    4.690E-02    4.058E-02    3.426E-02    2.793E-02    2.161E-02    1.529E-02    8.974E-03    2.656E-03   -3.662E-03
    -9.979E-03   -1.629E-02   -2.261E-02   -2.892E-02   -3.524E-02   -4.155E-02   -4.786E-02   -5.417E-02   -6.048E-02   -6.679E-02
    -7.310E-02   -7.940E-02   -8.571E-02   -9.201E-02   -9.832E-02   -1.046E-01   -1.109E-01   -1.172E-01   -1.235E-01   -1.298E-01
    -1.361E-01   -1.424E-01   -1.487E-01   -1.550E-01   -1.613E-01   -1.676E-01   -1.739E-01   -1.802E-01   -1.865E-01   -1.927E-01
    -1.990E-01   -2.053E-01   -2.116E-01   -2.179E-01   -2.242E-01   -2.304E-01   -2.367E-01   -2.430E-01   -2.493E-01   -2.556E-01
    -2.618E-01   -2.681E-01   -2.744E-01   -2.806E-01   -2.869E-01   -2.932E-01   -2.994E-01   -3.057E-01   -3.120E-01   -3.182E-01
    -3.245E-01   -3.308E-01   -3.370E-01   -3.433E-01   -3.495E-01   -3.558E-01   -3.620E-01   -3.683E-01   -3.745E-01   -3.808E-01
    -3.870E-01   -3.933E-01   -3.995E-01   -4.058E-01   -4.120E-01   -4.183E-01   -4.245E-01   -4.307E-01   -4.370E-01   -4.432E-01
    -4.494E-01   -4.557E-01   -4.619E-01   -4.681E-01   -4.744E-01   -4.806E-01   -4.868E-01   -4.930E-01   -4.993E-01   -5.055E-01
    -5.117E-01   -5.179E-01   -5.241E-01   -5.303E-01   -5.365E-01   -5.428E-01   -5.490E-01   -5.552E-01   -5.614E-01   -5.676E-01
    -5.738E-01   -5.800E-01   -5.862E-01   -5.924E-01   -5.986E-01   -6.048E-01   -6.109E-01   -6.171E-01
 Ala      Conc. = 1.98E+01
