 LCModel (Version 6.3-1L) Copyright: S.W. Provencher.          Ref.: Magn. Reson. Med. 30:672-679 (1993).                
 Slice#1 Row#9 Col#2  PD_05_press_1_raw_act
 36 lines in following concentration table = NCONC+1
    Conc.  %SD /Cr+PCr  Metabolite                                         
   11.251 362% 7.9E-02 Ala                                                 
   16.248 172%   0.114 Asp                                                 
    0.000 999%   0.000 Cr                                                  
  142.816  14%   1.000 PCr                                                 
   15.985 106%   0.112 GABA                                                
   16.162 105%   0.113 Glc                                                 
  141.484  60%   0.991 Gln                                                 
   72.207 130%   0.506 Glu                                                 
    0.000 999%   0.000 GPC                                                 
   37.282  19%   0.261 PCh                                                 
   43.787  61%   0.307 GSH                                                 
  330.282  28%   2.313 Ins                                                 
   36.916 121%   0.258 Lac                                                 
  259.747   8%   1.819 NAA                                                 
    0.000 999%   0.000 NAAG                                                
    8.149  62% 5.7E-02 Scyllo                                              
   41.233  67%   0.289 Tau                                                 
  179.361  18%   1.256 -CrCH2                                              
   37.282  19%   0.261 GPC+PCh                                             
  259.747   8%   1.819 NAA+NAAG                                            
  142.816  14%   1.000 Cr+PCr                                              
  213.691  63%   1.496 Glu+Gln                                             
    0.000 999%   0.000 Lip13a                                              
  101.475  35%   0.711 Lip13b                                              
   22.056  65%   0.154 Lip09                                               
  103.259  51%   0.723 MM09                                                
   16.059  57%   0.112 Lip20                                               
  154.922  51%   1.085 MM20                                                
   30.977  51%   0.217 MM12                                                
   77.495  51%   0.543 MM14                                                
   38.708  51%   0.271 MM17                                                
  101.475  35%   0.711 Lip13a+Lip13b                                       
  209.946  31%   1.470 MM14+Lip13a+Lip13b+MM12                             
  125.315  42%   0.877 MM09+Lip09                                          
  170.981  46%   1.197 MM20+Lip20                                          
   6 lines in following misc. output table
  FWHM = 0.054 ppm    S/N =   3                                            
  Data shift =-0.015 ppm                                                   
  Ph: -33 deg     -15.1 deg/ppm                                            
  alphaB,S = 1.1E+00,   2.6E+01                                            
   14 spline knots.   Ns = 6(1)                                            
  ( 9) 5 infls.   (11) 1 extrs.                                            
  498 points on ppm-axis = NY
      4.000000     3.992357     3.984714     3.977070     3.969427     3.961784     3.954141     3.946497     3.938854     3.931211
      3.923568     3.915925     3.908281     3.900638     3.892995     3.885352     3.877708     3.870065     3.862422     3.854779
      3.847136     3.839492     3.831849     3.824206     3.816563     3.808919     3.801276     3.793633     3.785990     3.778347
      3.770703     3.763060     3.755417     3.747774     3.740130     3.732487     3.724844     3.717201     3.709558     3.701914
      3.694271     3.686628     3.678985     3.671341     3.663698     3.656055     3.648412     3.640769     3.633125     3.625482
      3.617839     3.610196     3.602552     3.594909     3.587266     3.579623     3.571980     3.564336     3.556693     3.549050
      3.541407     3.533763     3.526120     3.518477     3.510834     3.503191     3.495547     3.487904     3.480261     3.472618
      3.464974     3.457331     3.449688     3.442045     3.434402     3.426758     3.419115     3.411472     3.403829     3.396185
      3.388542     3.380899     3.373256     3.365613     3.357969     3.350326     3.342683     3.335040     3.327396     3.319753
      3.312110     3.304467     3.296824     3.289180     3.281537     3.273894     3.266251     3.258607     3.250964     3.243321
      3.235678     3.228034     3.220391     3.212748     3.205105     3.197462     3.189818     3.182175     3.174532     3.166889
      3.159245     3.151602     3.143959     3.136316     3.128673     3.121029     3.113386     3.105743     3.098100     3.090456
      3.082813     3.075170     3.067527     3.059884     3.052240     3.044597     3.036954     3.029311     3.021667     3.014024
      3.006381     2.998738     2.991095     2.983451     2.975808     2.968165     2.960522     2.952878     2.945235     2.937592
      2.929949     2.922306     2.914662     2.907019     2.899376     2.891733     2.884089     2.876446     2.868803     2.861160
      2.853517     2.845873     2.838230     2.830587     2.822944     2.815300     2.807657     2.800014     2.792371     2.784728
      2.777084     2.769441     2.761798     2.754155     2.746511     2.738868     2.731225     2.723582     2.715939     2.708295
      2.700652     2.693009     2.685366     2.677722     2.670079     2.662436     2.654793     2.647150     2.639506     2.631863
      2.624220     2.616577     2.608933     2.601290     2.593647     2.586004     2.578361     2.570717     2.563074     2.555431
      2.547788     2.540144     2.532501     2.524858     2.517215     2.509572     2.501928     2.494285     2.486642     2.478999
      2.471355     2.463712     2.456069     2.448426     2.440783     2.433139     2.425496     2.417853     2.410210     2.402566
      2.394923     2.387280     2.379637     2.371994     2.364350     2.356707     2.349064     2.341421     2.333777     2.326134
      2.318491     2.310848     2.303205     2.295561     2.287918     2.280275     2.272632     2.264988     2.257345     2.249702
      2.242059     2.234416     2.226772     2.219129     2.211486     2.203843     2.196199     2.188556     2.180913     2.173270
      2.165627     2.157983     2.150340     2.142697     2.135054     2.127410     2.119767     2.112124     2.104481     2.096838
      2.089194     2.081551     2.073908     2.066265     2.058621     2.050978     2.043335     2.035692     2.028049     2.020405
      2.012762     2.005119     1.997476     1.989833     1.982190     1.974546     1.966903     1.959260     1.951617     1.943974
      1.936331     1.928688     1.921045     1.913402     1.905759     1.898115     1.890472     1.882829     1.875186     1.867543
      1.859900     1.852257     1.844614     1.836971     1.829327     1.821684     1.814041     1.806398     1.798755     1.791112
      1.783469     1.775826     1.768183     1.760540     1.752896     1.745253     1.737610     1.729967     1.722324     1.714681
      1.707038     1.699395     1.691752     1.684108     1.676465     1.668822     1.661179     1.653536     1.645893     1.638250
      1.630607     1.622964     1.615321     1.607677     1.600034     1.592391     1.584748     1.577105     1.569462     1.561819
      1.554176     1.546533     1.538890     1.531246     1.523603     1.515960     1.508317     1.500674     1.493031     1.485388
      1.477745     1.470102     1.462458     1.454815     1.447172     1.439529     1.431886     1.424243     1.416600     1.408957
      1.401314     1.393671     1.386027     1.378384     1.370741     1.363098     1.355455     1.347812     1.340169     1.332526
      1.324883     1.317240     1.309596     1.301953     1.294310     1.286667     1.279024     1.271381     1.263738     1.256095
      1.248452     1.240808     1.233165     1.225522     1.217879     1.210236     1.202593     1.194950     1.187307     1.179664
      1.172021     1.164377     1.156734     1.149091     1.141448     1.133805     1.126162     1.118519     1.110876     1.103233
      1.095590     1.087946     1.080303     1.072660     1.065017     1.057374     1.049731     1.042088     1.034445     1.026802
      1.019158     1.011515     1.003872     0.996229     0.988586     0.980943     0.973300     0.965657     0.958014     0.950371
      0.942727     0.935084     0.927441     0.919798     0.912155     0.904512     0.896869     0.889226     0.881583     0.873940
      0.866296     0.858653     0.851010     0.843367     0.835724     0.828081     0.820438     0.812795     0.805152     0.797508
      0.789865     0.782222     0.774579     0.766936     0.759293     0.751650     0.744007     0.736364     0.728721     0.721077
      0.713434     0.705791     0.698148     0.690505     0.682862     0.675219     0.667576     0.659933     0.652290     0.644646
      0.637003     0.629360     0.621717     0.614074     0.606431     0.598788     0.591145     0.583502     0.575858     0.568215
      0.560572     0.552929     0.545286     0.537643     0.530000     0.522357     0.514714     0.507071     0.499427     0.491784
      0.484141     0.476498     0.468855     0.461212     0.453569     0.445925     0.438282     0.430639     0.422996     0.415353
      0.407710     0.400067     0.392424     0.384780     0.377137     0.369494     0.361851     0.354208     0.346565     0.338922
      0.331278     0.323635     0.315992     0.308349     0.300706     0.293063     0.285420     0.277777     0.270133     0.262490
      0.254847     0.247204     0.239561     0.231918     0.224275     0.216631     0.208988     0.201345
 NY phased data points follow
  -2.08617E+01 -2.29658E+01 -2.37015E+01 -2.40045E+01 -2.23381E+01 -2.22130E+01 -2.15828E+01 -2.02128E+01 -1.91722E+01 -1.72031E+01
  -2.03055E+01 -1.79871E+01 -1.87337E+01 -1.87013E+01 -1.81966E+01 -1.87602E+01 -1.90587E+01 -1.85602E+01 -1.92482E+01 -1.91395E+01
  -1.83734E+01 -1.53547E+01 -1.79532E+01 -1.94226E+01 -1.85527E+01 -1.48114E+01 -1.68174E+01 -1.46869E+01 -1.52823E+01 -1.76700E+01
  -1.43661E+01 -1.57856E+01 -1.38624E+01 -1.38811E+01 -1.45616E+01 -1.41391E+01 -1.32072E+01 -1.26394E+01 -1.37380E+01 -1.42914E+01
  -1.46082E+01 -1.41856E+01 -1.26827E+01 -1.26726E+01 -1.14270E+01 -1.24127E+01 -1.23553E+01 -1.16316E+01 -1.31758E+01 -1.17073E+01
  -1.24340E+01 -1.42680E+01 -1.31591E+01 -1.23163E+01 -1.27707E+01 -1.17016E+01 -1.24036E+01 -1.02590E+01 -1.27313E+01 -1.31413E+01
  -1.34127E+01 -1.14575E+01 -1.22541E+01 -1.05777E+01 -1.27773E+01 -1.02270E+01 -1.10617E+01 -1.07121E+01 -1.24054E+01 -1.20518E+01
  -9.68302E+00 -9.30726E+00 -9.83335E+00 -8.03728E+00 -1.09051E+01 -1.14817E+01 -9.15508E+00 -9.39946E+00 -1.01167E+01 -8.89459E+00
  -8.78512E+00 -9.93145E+00 -1.02728E+01 -8.54744E+00 -9.95100E+00 -1.00340E+01 -8.34450E+00 -1.00325E+01 -9.86778E+00 -9.37674E+00
  -8.84085E+00 -9.64555E+00 -8.28846E+00 -6.44947E+00 -8.08890E+00 -8.15546E+00 -7.43837E+00 -7.89099E+00 -7.64252E+00 -6.32781E+00
  -6.24376E+00 -5.22666E+00 -6.07484E+00 -3.62390E+00 -5.33115E+00 -6.23350E+00 -6.76751E+00 -6.47045E+00 -8.90512E+00 -7.01519E+00
  -8.31861E+00 -7.29497E+00 -5.37788E+00 -7.64401E+00 -7.80968E+00 -5.80957E+00 -3.24471E+00 -5.40405E+00 -5.32186E+00 -5.40752E+00
  -4.82114E+00 -5.28829E+00 -6.42785E+00 -4.18602E+00 -4.21014E+00 -2.17643E-01 -1.96544E+00 -2.37314E+00 -3.53133E+00 -1.83936E-01
  -3.07500E+00 -2.94214E+00 -2.90009E+00 -2.80210E+00 -5.03730E+00 -5.69052E+00 -2.80257E+00 -6.01133E+00 -5.17684E+00 -6.05124E+00
  -4.09418E+00 -5.25001E+00 -3.08256E+00 -5.12897E+00 -3.35612E+00 -4.23419E+00 -3.43553E+00 -4.34835E+00 -4.67630E+00 -5.35121E+00
  -6.94447E+00 -4.60639E+00 -3.54536E+00 -3.47038E+00 -4.70315E+00 -4.44052E+00 -3.90403E+00 -4.90455E+00 -2.40092E+00 -3.69661E+00
  -4.38565E+00 -9.01030E-01 -4.33917E+00 -2.77124E+00 -5.33858E+00 -6.56510E+00 -4.32997E+00 -3.93172E+00 -3.46610E+00 -5.35339E+00
  -5.81663E+00 -4.55631E+00 -2.49669E+00 -5.24278E+00 -4.99538E+00 -3.43826E+00 -5.29406E+00 -3.82603E+00 -4.64043E+00 -4.13895E+00
  -1.96528E+00 -3.84533E+00 -2.61984E+00 -3.79213E+00 -2.14933E+00 -4.09831E+00 -2.48115E+00 -3.59926E+00 -5.09373E+00 -2.42369E+00
  -2.92466E+00 -3.59047E+00 -3.32361E+00 -4.60978E+00 -4.37108E+00 -1.28835E+00 -4.99264E+00 -5.25785E+00 -1.14214E+00 -2.73153E+00
  -3.88640E+00 -3.90795E+00 -1.41467E+00  1.08399E-01 -2.46501E+00 -2.85112E+00 -2.37674E+00 -5.14895E+00 -3.31246E+00 -2.80807E+00
  -1.64351E+00 -4.62579E+00 -1.31103E-01 -1.70672E+00 -1.82087E+00 -2.24441E+00 -1.27982E+00 -5.90201E-01 -1.08999E+00 -1.50947E+00
  -2.47154E+00 -1.32168E+00 -8.17256E-01 -8.60876E-01 -7.93316E-01 -5.05002E-01  1.19947E-01 -1.23561E+00 -1.58646E+00 -4.29058E-02
   1.68365E+00 -1.31070E+00 -1.75791E+00  3.70884E-01 -6.08023E-01  3.10749E-01  1.02726E+00 -1.21461E+00 -8.45654E-01  4.48524E-01
  -5.17699E-01 -1.67851E-01 -9.73137E-01 -1.65328E+00 -2.33274E-01 -2.95442E-01  2.55190E+00  1.23892E+00 -5.48975E-01  2.71955E+00
   1.79873E+00  9.78640E-01  5.74742E-01 -1.29553E-01  6.01120E-01  5.78040E+00  2.76584E+00  5.10104E+00  7.93894E+00  7.35828E+00
   9.64839E+00  9.73931E+00  5.91557E+00  6.59839E+00  3.53681E+00  2.07024E+00  1.60150E+00  2.08266E+00  2.18831E+00  1.79300E+00
  -2.82939E-02 -1.12239E+00  1.91481E+00  7.66325E-01  3.56665E-01  1.05420E+00  1.73285E+00  2.57068E+00  3.97526E-01  2.85546E-01
   9.05264E-01  8.08180E-02  1.74292E+00  2.03657E+00  7.21471E-01  1.14488E+00  1.17954E+00 -1.89573E-01  8.16921E-01  3.98254E-01
   1.28345E+00  2.17935E+00  6.45095E-01  2.00922E+00  3.93833E-01  1.60932E-01 -1.22432E+00 -2.31734E+00  6.19453E-02 -8.78068E-01
   4.89503E-01  3.55806E+00  1.62516E+00 -5.99404E-01 -3.75994E-01 -3.39424E-01 -9.32708E-01 -1.60305E+00  1.19124E+00  2.06224E+00
  -1.32274E+00 -1.59260E-01  1.33772E+00  9.68078E-01  2.22833E+00  2.05243E+00  1.86377E-01  3.27652E-01  3.13734E+00  2.53507E+00
   1.93964E+00  2.48728E+00  3.13525E+00 -4.28333E-01  4.79706E+00  3.06747E-01  5.12641E-01  3.60970E+00  3.21136E+00  1.35853E+00
   7.18529E-01  2.56889E+00  2.56736E+00  1.40732E+00  1.61586E+00  1.95418E+00  1.34175E+00  1.51768E+00 -3.25456E-02  2.78064E+00
  -3.57215E-01  2.69579E+00  3.15239E+00  2.18314E+00  8.90493E-01  2.57318E+00  5.97566E-01  4.48459E-01  1.69586E+00  2.13860E+00
   1.50778E+00  2.33435E+00  3.83986E+00  1.91132E+00  2.67317E+00  4.34663E+00  3.40194E+00  3.66200E+00  2.01654E+00  1.72775E+00
   1.43235E+00  5.53289E-01  1.67438E+00  1.06908E+00  6.90149E-01  1.26322E+00  6.44020E-01  6.27124E-01 -1.63675E+00  1.17747E+00
   1.38868E+00  4.12477E-01  4.24181E-01  1.51994E+00  2.49821E+00  1.16520E+00  2.30944E+00  2.88837E-01  1.55640E+00 -6.24959E-01
   1.40601E+00  3.16641E+00  3.31233E+00  8.28928E-01 -2.61251E-01  2.28682E+00  2.86643E+00 -4.08263E-02  9.85673E-01  1.36234E+00
   4.00225E+00  7.87350E-01  1.58591E+00  1.36286E+00  3.04864E+00  1.95915E+00  3.12922E+00  1.56753E+00  1.39546E+00  1.06140E+00
   1.63220E+00  7.67622E-01  1.23527E+00  1.32142E+00  2.69502E+00 -7.18431E-01  1.50794E+00  1.27312E+00  2.20220E-01 -6.17081E-01
  -1.18145E-01  7.51332E-01  2.76204E+00 -5.55532E-01  3.13002E+00  1.33820E+00  2.14433E+00 -3.82950E-02  2.21815E+00  1.40944E-01
   1.80966E+00 -1.10637E-01  4.47639E-01  1.21704E+00 -5.92656E-01  1.19761E+00  2.09710E+00  6.85166E-01  1.19263E+00  1.34601E+00
   2.05939E+00  1.37638E+00  3.26312E-01 -3.08251E-01  1.11449E+00  2.48100E+00  2.42269E+00 -2.73357E-01 -9.65488E-03  8.96982E-01
  -6.14845E-01  2.55945E+00  2.09409E+00 -2.49706E-01  1.52285E+00  2.01930E+00 -1.99585E-01  6.18568E-01  2.18704E+00  3.23370E+00
   1.58849E+00  3.55467E+00  1.89673E+00  4.52990E-01  2.56778E+00  1.76544E+00  3.86334E-01  1.32345E+00  5.16836E-01  6.78898E-01
   2.24113E+00  1.13899E+00  2.46530E+00  1.13882E+00  1.24559E+00  1.00187E+00 -6.04608E-01  5.64124E-01  1.19038E+00  1.78079E+00
   9.90793E-01  1.75170E+00  1.79013E+00  2.46641E+00  1.68513E+00  2.41161E+00  2.51156E+00  1.81038E+00  2.14159E+00  2.26054E+00
   4.87192E-01  1.51991E+00  2.18996E+00  1.03365E+00 -2.51642E-01  2.28279E+00  1.56497E+00  2.17213E+00  2.63536E+00 -1.19509E+00
   1.94351E+00  1.29041E+00  1.22419E+00  2.64671E+00  3.24822E+00  1.00555E+00  1.07845E+00 -5.73280E-02
 NY points of the fit to the data follow
  -1.96965E+01 -1.98132E+01 -2.02973E+01 -2.07755E+01 -2.08138E+01 -2.08034E+01 -2.06462E+01 -2.02175E+01 -1.97192E+01 -1.92167E+01
  -1.86891E+01 -1.81916E+01 -1.79264E+01 -1.79359E+01 -1.79340E+01 -1.77449E+01 -1.76433E+01 -1.76644E+01 -1.75666E+01 -1.74005E+01
  -1.72422E+01 -1.71201E+01 -1.70272E+01 -1.69424E+01 -1.67608E+01 -1.64784E+01 -1.61165E+01 -1.56897E+01 -1.52656E+01 -1.48975E+01
  -1.46252E+01 -1.44674E+01 -1.44322E+01 -1.45273E+01 -1.46779E+01 -1.48118E+01 -1.49221E+01 -1.50162E+01 -1.50504E+01 -1.50168E+01
  -1.48578E+01 -1.44453E+01 -1.38351E+01 -1.32113E+01 -1.26728E+01 -1.22716E+01 -1.20618E+01 -1.20647E+01 -1.22408E+01 -1.25409E+01
  -1.28928E+01 -1.31912E+01 -1.33185E+01 -1.32466E+01 -1.30780E+01 -1.28263E+01 -1.24791E+01 -1.21334E+01 -1.18667E+01 -1.17079E+01
  -1.16401E+01 -1.16242E+01 -1.16550E+01 -1.16751E+01 -1.16490E+01 -1.15543E+01 -1.13826E+01 -1.11808E+01 -1.09721E+01 -1.07493E+01
  -1.05310E+01 -1.03577E+01 -1.02260E+01 -1.01334E+01 -1.00947E+01 -1.00899E+01 -1.00839E+01 -1.00569E+01 -1.00282E+01 -9.98415E+00
  -9.88400E+00 -9.78792E+00 -9.75476E+00 -9.76228E+00 -9.79094E+00 -9.83744E+00 -9.86483E+00 -9.84951E+00 -9.79142E+00 -9.69329E+00
  -9.52509E+00 -9.32811E+00 -9.15104E+00 -9.00161E+00 -8.88228E+00 -8.77340E+00 -8.59386E+00 -8.08274E+00 -7.37027E+00 -6.71041E+00
  -6.04489E+00 -5.49858E+00 -5.20500E+00 -5.15179E+00 -5.30106E+00 -5.65041E+00 -6.15124E+00 -6.61194E+00 -6.89130E+00 -7.06996E+00
  -7.26907E+00 -7.37439E+00 -7.34553E+00 -7.28345E+00 -7.21750E+00 -7.15320E+00 -7.08249E+00 -7.00888E+00 -6.92371E+00 -6.80951E+00
  -6.61363E+00 -6.06309E+00 -5.04961E+00 -4.06820E+00 -3.13941E+00 -2.30813E+00 -1.82164E+00 -1.68414E+00 -1.83881E+00 -2.29203E+00
  -3.00466E+00 -3.78815E+00 -4.38981E+00 -4.79905E+00 -5.18430E+00 -5.51112E+00 -5.58345E+00 -5.54329E+00 -5.45463E+00 -5.33554E+00
  -5.21512E+00 -5.11077E+00 -5.02157E+00 -4.95191E+00 -4.90156E+00 -4.86453E+00 -4.83419E+00 -4.80755E+00 -4.78005E+00 -4.75406E+00
  -4.71879E+00 -4.67481E+00 -4.62619E+00 -4.57440E+00 -4.52253E+00 -4.49323E+00 -4.48440E+00 -4.47321E+00 -4.45583E+00 -4.41243E+00
  -4.34945E+00 -4.28594E+00 -4.21365E+00 -4.14247E+00 -4.08108E+00 -4.03412E+00 -4.00913E+00 -4.00045E+00 -3.99329E+00 -3.98663E+00
  -3.99255E+00 -4.01373E+00 -4.01488E+00 -3.99104E+00 -3.94936E+00 -3.90439E+00 -3.86010E+00 -3.80151E+00 -3.73304E+00 -3.66234E+00
  -3.60071E+00 -3.56939E+00 -3.54304E+00 -3.47131E+00 -3.36159E+00 -3.22961E+00 -3.06969E+00 -2.89922E+00 -2.73569E+00 -2.58985E+00
  -2.49598E+00 -2.45709E+00 -2.48036E+00 -2.53403E+00 -2.56845E+00 -2.56346E+00 -2.50062E+00 -2.36816E+00 -2.16829E+00 -1.92044E+00
  -1.67615E+00 -1.47925E+00 -1.36907E+00 -1.39765E+00 -1.61268E+00 -1.87613E+00 -2.11610E+00 -2.35660E+00 -2.51277E+00 -2.51157E+00
  -2.35940E+00 -2.12028E+00 -1.83073E+00 -1.52468E+00 -1.29088E+00 -1.16845E+00 -1.12317E+00 -1.12486E+00 -1.18496E+00 -1.25529E+00
  -1.27307E+00 -1.22630E+00 -1.14191E+00 -1.03998E+00 -9.18428E-01 -8.10621E-01 -7.50131E-01 -7.26040E-01 -7.19204E-01 -7.28202E-01
  -7.68669E-01 -7.82412E-01 -7.37634E-01 -6.55073E-01 -5.25795E-01 -3.46652E-01 -1.89950E-01 -1.11244E-01 -6.34469E-02 -6.08342E-02
  -1.35262E-01 -2.44844E-01 -3.24351E-01 -3.60359E-01 -3.70905E-01 -3.22330E-01 -2.04570E-01 -5.56169E-02  9.69447E-02  2.60297E-01
   4.27159E-01  5.72071E-01  7.16334E-01  9.46746E-01  1.74238E+00  3.37067E+00  4.94437E+00  6.40031E+00  7.69728E+00  8.38220E+00
   8.41561E+00  7.90881E+00  6.90257E+00  5.47059E+00  3.93614E+00  2.78788E+00  2.04102E+00  1.33608E+00  7.00868E-01  4.78509E-01
   4.26187E-01  4.14401E-01  4.21452E-01  4.37092E-01  4.52512E-01  4.62780E-01  4.67443E-01  4.66563E-01  4.60830E-01  4.54256E-01
   4.49949E-01  4.49421E-01  4.54717E-01  4.65263E-01  4.80693E-01  4.99580E-01  5.20523E-01  5.42390E-01  5.63988E-01  5.84262E-01
   6.04369E-01  6.24560E-01  6.44699E-01  6.64698E-01  6.85770E-01  7.07769E-01  7.30346E-01  7.53214E-01  7.76639E-01  7.99767E-01
   8.22453E-01  8.44418E-01  8.65520E-01  8.85355E-01  9.04075E-01  9.21342E-01  9.37383E-01  9.52011E-01  9.65622E-01  9.78144E-01
   9.90036E-01  1.00132E+00  1.01253E+00  1.02374E+00  1.03562E+00  1.04830E+00  1.06247E+00  1.07837E+00  1.09701E+00  1.11948E+00
   1.14930E+00  1.19053E+00  1.22629E+00  1.24607E+00  1.25664E+00  1.25289E+00  1.23424E+00  1.20665E+00  1.17381E+00  1.15325E+00
   1.15955E+00  1.18734E+00  1.23693E+00  1.29677E+00  1.35304E+00  1.40829E+00  1.45917E+00  1.49737E+00  1.52305E+00  1.54607E+00
   1.59137E+00  1.67915E+00  1.74430E+00  1.76264E+00  1.76714E+00  1.74169E+00  1.68839E+00  1.62975E+00  1.59025E+00  1.63918E+00
   1.77185E+00  1.97421E+00  2.23686E+00  2.48754E+00  2.67390E+00  2.80192E+00  2.85109E+00  2.79439E+00  2.64038E+00  2.43289E+00
   2.22001E+00  2.01284E+00  1.80498E+00  1.62839E+00  1.49469E+00  1.39507E+00  1.32352E+00  1.27412E+00  1.24175E+00  1.22145E+00
   1.20971E+00  1.20349E+00  1.20114E+00  1.20124E+00  1.20341E+00  1.20716E+00  1.21270E+00  1.21988E+00  1.22910E+00  1.24035E+00
   1.25409E+00  1.27031E+00  1.28946E+00  1.31145E+00  1.33662E+00  1.36481E+00  1.39624E+00  1.43057E+00  1.46782E+00  1.50741E+00
   1.54911E+00  1.59213E+00  1.63599E+00  1.67967E+00  1.72248E+00  1.76324E+00  1.80118E+00  1.83511E+00  1.86435E+00  1.88786E+00
   1.90517E+00  1.91556E+00  1.91893E+00  1.91500E+00  1.90411E+00  1.88639E+00  1.86259E+00  1.83318E+00  1.79923E+00  1.76144E+00
   1.72099E+00  1.67862E+00  1.63546E+00  1.59216E+00  1.54973E+00  1.50860E+00  1.46953E+00  1.43271E+00  1.39864E+00  1.36730E+00
   1.33900E+00  1.31354E+00  1.29104E+00  1.27116E+00  1.25398E+00  1.23909E+00  1.22653E+00  1.21588E+00  1.20714E+00  1.19991E+00
   1.19424E+00  1.18975E+00  1.18650E+00  1.18416E+00  1.18280E+00  1.18212E+00  1.18222E+00  1.18284E+00  1.18410E+00  1.18574E+00
   1.18790E+00  1.19033E+00  1.19320E+00  1.19629E+00  1.19976E+00  1.20336E+00  1.20729E+00  1.21131E+00  1.21563E+00  1.22002E+00
   1.22467E+00  1.22935E+00  1.23425E+00  1.23918E+00  1.24433E+00  1.24948E+00  1.25482E+00  1.26015E+00  1.26565E+00  1.27114E+00
   1.27681E+00  1.28244E+00  1.28824E+00  1.29399E+00  1.29989E+00  1.30576E+00  1.31178E+00  1.31774E+00  1.32384E+00  1.32988E+00
   1.33605E+00  1.34218E+00  1.34843E+00  1.35462E+00  1.36093E+00  1.36716E+00  1.37353E+00  1.37983E+00  1.38625E+00  1.39258E+00
   1.39903E+00  1.40540E+00  1.41190E+00  1.41831E+00  1.42484E+00  1.43127E+00  1.43782E+00  1.44428E+00  1.45087E+00  1.45736E+00
   1.46396E+00  1.47047E+00  1.47709E+00  1.48363E+00  1.49029E+00  1.49686E+00  1.50354E+00  1.51014E+00
 NY background values follow
    -2.020E+01   -2.008E+01   -1.995E+01   -1.982E+01   -1.970E+01   -1.957E+01   -1.944E+01   -1.932E+01   -1.919E+01   -1.906E+01
    -1.893E+01   -1.881E+01   -1.868E+01   -1.855E+01   -1.843E+01   -1.830E+01   -1.818E+01   -1.805E+01   -1.792E+01   -1.780E+01
    -1.767E+01   -1.754E+01   -1.742E+01   -1.729E+01   -1.717E+01   -1.704E+01   -1.692E+01   -1.679E+01   -1.667E+01   -1.654E+01
    -1.642E+01   -1.629E+01   -1.617E+01   -1.605E+01   -1.592E+01   -1.580E+01   -1.568E+01   -1.555E+01   -1.543E+01   -1.531E+01
    -1.519E+01   -1.506E+01   -1.494E+01   -1.482E+01   -1.470E+01   -1.458E+01   -1.446E+01   -1.434E+01   -1.422E+01   -1.410E+01
    -1.398E+01   -1.387E+01   -1.375E+01   -1.363E+01   -1.351E+01   -1.340E+01   -1.328E+01   -1.316E+01   -1.305E+01   -1.293E+01
    -1.282E+01   -1.270E+01   -1.259E+01   -1.248E+01   -1.236E+01   -1.225E+01   -1.214E+01   -1.203E+01   -1.191E+01   -1.180E+01
    -1.169E+01   -1.158E+01   -1.147E+01   -1.137E+01   -1.126E+01   -1.115E+01   -1.104E+01   -1.094E+01   -1.083E+01   -1.072E+01
    -1.062E+01   -1.052E+01   -1.041E+01   -1.031E+01   -1.021E+01   -1.010E+01   -1.000E+01   -9.900E+00   -9.800E+00   -9.700E+00
    -9.601E+00   -9.502E+00   -9.404E+00   -9.307E+00   -9.210E+00   -9.114E+00   -9.019E+00   -8.924E+00   -8.830E+00   -8.736E+00
    -8.643E+00   -8.551E+00   -8.459E+00   -8.368E+00   -8.278E+00   -8.188E+00   -8.099E+00   -8.010E+00   -7.923E+00   -7.835E+00
    -7.749E+00   -7.663E+00   -7.577E+00   -7.493E+00   -7.409E+00   -7.325E+00   -7.243E+00   -7.160E+00   -7.079E+00   -6.998E+00
    -6.918E+00   -6.838E+00   -6.759E+00   -6.681E+00   -6.604E+00   -6.527E+00   -6.450E+00   -6.375E+00   -6.300E+00   -6.225E+00
    -6.152E+00   -6.079E+00   -6.006E+00   -5.935E+00   -5.864E+00   -5.793E+00   -5.723E+00   -5.654E+00   -5.586E+00   -5.518E+00
    -5.451E+00   -5.384E+00   -5.319E+00   -5.253E+00   -5.188E+00   -5.124E+00   -5.061E+00   -4.998E+00   -4.935E+00   -4.874E+00
    -4.812E+00   -4.752E+00   -4.691E+00   -4.632E+00   -4.572E+00   -4.514E+00   -4.456E+00   -4.398E+00   -4.341E+00   -4.284E+00
    -4.228E+00   -4.172E+00   -4.117E+00   -4.062E+00   -4.007E+00   -3.953E+00   -3.900E+00   -3.847E+00   -3.794E+00   -3.741E+00
    -3.690E+00   -3.638E+00   -3.587E+00   -3.536E+00   -3.485E+00   -3.435E+00   -3.385E+00   -3.336E+00   -3.287E+00   -3.238E+00
    -3.189E+00   -3.141E+00   -3.093E+00   -3.045E+00   -2.998E+00   -2.951E+00   -2.904E+00   -2.857E+00   -2.811E+00   -2.765E+00
    -2.720E+00   -2.674E+00   -2.629E+00   -2.584E+00   -2.540E+00   -2.496E+00   -2.452E+00   -2.408E+00   -2.365E+00   -2.322E+00
    -2.279E+00   -2.236E+00   -2.194E+00   -2.152E+00   -2.111E+00   -2.069E+00   -2.028E+00   -1.987E+00   -1.947E+00   -1.906E+00
    -1.866E+00   -1.827E+00   -1.787E+00   -1.748E+00   -1.709E+00   -1.670E+00   -1.632E+00   -1.594E+00   -1.556E+00   -1.518E+00
    -1.481E+00   -1.444E+00   -1.407E+00   -1.371E+00   -1.335E+00   -1.299E+00   -1.263E+00   -1.227E+00   -1.192E+00   -1.157E+00
    -1.123E+00   -1.088E+00   -1.054E+00   -1.021E+00   -9.870E-01   -9.538E-01   -9.208E-01   -8.881E-01   -8.557E-01   -8.236E-01
    -7.917E-01   -7.602E-01   -7.289E-01   -6.980E-01   -6.673E-01   -6.369E-01   -6.069E-01   -5.771E-01   -5.476E-01   -5.184E-01
    -4.895E-01   -4.610E-01   -4.327E-01   -4.048E-01   -3.771E-01   -3.498E-01   -3.228E-01   -2.960E-01   -2.697E-01   -2.436E-01
    -2.178E-01   -1.924E-01   -1.673E-01   -1.425E-01   -1.181E-01   -9.395E-02   -7.016E-02   -4.669E-02   -2.356E-02   -7.680E-04
     2.169E-02    4.381E-02    6.559E-02    8.703E-02    1.081E-01    1.289E-01    1.494E-01    1.695E-01    1.893E-01    2.087E-01
     2.279E-01    2.467E-01    2.652E-01    2.834E-01    3.012E-01    3.188E-01    3.360E-01    3.530E-01    3.696E-01    3.860E-01
     4.020E-01    4.177E-01    4.332E-01    4.483E-01    4.632E-01    4.778E-01    4.921E-01    5.061E-01    5.198E-01    5.332E-01
     5.464E-01    5.593E-01    5.719E-01    5.842E-01    5.963E-01    6.081E-01    6.197E-01    6.309E-01    6.420E-01    6.527E-01
     6.632E-01    6.735E-01    6.835E-01    6.933E-01    7.028E-01    7.120E-01    7.211E-01    7.298E-01    7.384E-01    7.467E-01
     7.548E-01    7.627E-01    7.703E-01    7.777E-01    7.849E-01    7.919E-01    7.987E-01    8.053E-01    8.117E-01    8.179E-01
     8.239E-01    8.297E-01    8.354E-01    8.408E-01    8.461E-01    8.512E-01    8.562E-01    8.609E-01    8.655E-01    8.700E-01
     8.743E-01    8.784E-01    8.824E-01    8.863E-01    8.900E-01    8.936E-01    8.970E-01    9.004E-01    9.036E-01    9.066E-01
     9.096E-01    9.125E-01    9.152E-01    9.178E-01    9.204E-01    9.228E-01    9.251E-01    9.274E-01    9.296E-01    9.316E-01
     9.336E-01    9.356E-01    9.374E-01    9.392E-01    9.409E-01    9.426E-01    9.442E-01    9.457E-01    9.473E-01    9.487E-01
     9.501E-01    9.515E-01    9.529E-01    9.542E-01    9.555E-01    9.568E-01    9.581E-01    9.594E-01    9.606E-01    9.619E-01
     9.631E-01    9.644E-01    9.657E-01    9.669E-01    9.682E-01    9.696E-01    9.709E-01    9.723E-01    9.737E-01    9.752E-01
     9.767E-01    9.782E-01    9.798E-01    9.815E-01    9.832E-01    9.850E-01    9.868E-01    9.887E-01    9.907E-01    9.928E-01
     9.949E-01    9.972E-01    9.995E-01    1.002E+00    1.004E+00    1.007E+00    1.010E+00    1.013E+00    1.016E+00    1.019E+00
     1.022E+00    1.025E+00    1.029E+00    1.032E+00    1.036E+00    1.039E+00    1.043E+00    1.047E+00    1.051E+00    1.055E+00
     1.059E+00    1.064E+00    1.068E+00    1.073E+00    1.077E+00    1.082E+00    1.086E+00    1.091E+00    1.096E+00    1.101E+00
     1.106E+00    1.111E+00    1.116E+00    1.121E+00    1.127E+00    1.132E+00    1.137E+00    1.143E+00    1.148E+00    1.154E+00
     1.160E+00    1.165E+00    1.171E+00    1.177E+00    1.183E+00    1.189E+00    1.194E+00    1.200E+00    1.206E+00    1.212E+00
     1.218E+00    1.225E+00    1.231E+00    1.237E+00    1.243E+00    1.249E+00    1.256E+00    1.262E+00    1.268E+00    1.274E+00
     1.281E+00    1.287E+00    1.293E+00    1.300E+00    1.306E+00    1.313E+00    1.319E+00    1.326E+00    1.332E+00    1.339E+00
     1.345E+00    1.352E+00    1.358E+00    1.365E+00    1.371E+00    1.378E+00    1.384E+00    1.391E+00    1.398E+00    1.404E+00
     1.411E+00    1.417E+00    1.424E+00    1.431E+00    1.437E+00    1.444E+00    1.450E+00    1.457E+00    1.463E+00    1.470E+00
     1.477E+00    1.483E+00    1.490E+00    1.496E+00    1.503E+00    1.509E+00    1.516E+00    1.522E+00
 Ala      Conc. = 1.13E+01
