 LCModel (Version 6.3-1L) Copyright: S.W. Provencher.          Ref.: Magn. Reson. Med. 30:672-679 (1993).                
 Slice#3 Row#10 Col#3  PD_05_press_1_raw_act
 36 lines in following concentration table = NCONC+1
    Conc.  %SD /Cr+PCr  Metabolite                                         
   32.924 153%   0.212 Ala                                                 
    1.868 999% 1.2E-02 Asp                                                 
    0.000 999%   0.000 Cr                                                  
  155.094  15%   1.000 PCr                                                 
    0.000 999%   0.000 GABA                                                
   15.987 137%   0.103 Glc                                                 
  487.308  23%   3.142 Gln                                                 
    0.000 999%   0.000 Glu                                                 
   44.967  19%   0.290 GPC                                                 
    0.000 999%   0.000 PCh                                                 
  166.328  21%   1.072 GSH                                                 
  118.066 107%   0.761 Ins                                                 
    0.000 999%   0.000 Lac                                                 
  241.566  10%   1.558 NAA                                                 
    0.000 999%   0.000 NAAG                                                
   10.353  64% 6.7E-02 Scyllo                                              
   24.101 151%   0.155 Tau                                                 
   11.159 332% 7.2E-02 -CrCH2                                              
   44.967  19%   0.290 GPC+PCh                                             
  241.566  10%   1.558 NAA+NAAG                                            
  155.094  15%   1.000 Cr+PCr                                              
  487.308  23%   3.142 Glu+Gln                                             
    0.000 999%   0.000 Lip13a                                              
    0.000 999%   0.000 Lip13b                                              
 1.62E-02 999% 1.0E-04 Lip09                                               
    0.259 999% 1.7E-03 MM09                                                
    0.000 999%   0.000 Lip20                                               
    0.000 999%   0.000 MM20                                                
 3.97E-02 999% 2.6E-04 MM12                                                
    0.000 999%   0.000 MM14                                                
    1.120 338% 7.2E-03 MM17                                                
    0.000 999%   0.000 Lip13a+Lip13b                                       
 3.97E-02 999% 2.6E-04 MM14+Lip13a+Lip13b+MM12                             
    0.276 999% 1.8E-03 MM09+Lip09                                          
    0.000 999%   0.000 MM20+Lip20                                          
   6 lines in following misc. output table
  FWHM = 0.076 ppm    S/N =   2                                            
  Data shift =-0.023 ppm                                                   
  Ph: -30 deg     -36.6 deg/ppm                                            
  alphaB,S = 2.8E-01,   5.4E+01                                            
   14 spline knots.   Ns = 6(1)                                            
  ( 9) 2 infls.   ( 5) 1 extrs.                                            
  498 points on ppm-axis = NY
      4.000000     3.992357     3.984714     3.977070     3.969427     3.961784     3.954141     3.946497     3.938854     3.931211
      3.923568     3.915925     3.908281     3.900638     3.892995     3.885352     3.877708     3.870065     3.862422     3.854779
      3.847136     3.839492     3.831849     3.824206     3.816563     3.808919     3.801276     3.793633     3.785990     3.778347
      3.770703     3.763060     3.755417     3.747774     3.740130     3.732487     3.724844     3.717201     3.709558     3.701914
      3.694271     3.686628     3.678985     3.671341     3.663698     3.656055     3.648412     3.640769     3.633125     3.625482
      3.617839     3.610196     3.602552     3.594909     3.587266     3.579623     3.571980     3.564336     3.556693     3.549050
      3.541407     3.533763     3.526120     3.518477     3.510834     3.503191     3.495547     3.487904     3.480261     3.472618
      3.464974     3.457331     3.449688     3.442045     3.434402     3.426758     3.419115     3.411472     3.403829     3.396185
      3.388542     3.380899     3.373256     3.365613     3.357969     3.350326     3.342683     3.335040     3.327396     3.319753
      3.312110     3.304467     3.296824     3.289180     3.281537     3.273894     3.266251     3.258607     3.250964     3.243321
      3.235678     3.228034     3.220391     3.212748     3.205105     3.197462     3.189818     3.182175     3.174532     3.166889
      3.159245     3.151602     3.143959     3.136316     3.128673     3.121029     3.113386     3.105743     3.098100     3.090456
      3.082813     3.075170     3.067527     3.059884     3.052240     3.044597     3.036954     3.029311     3.021667     3.014024
      3.006381     2.998738     2.991095     2.983451     2.975808     2.968165     2.960522     2.952878     2.945235     2.937592
      2.929949     2.922306     2.914662     2.907019     2.899376     2.891733     2.884089     2.876446     2.868803     2.861160
      2.853517     2.845873     2.838230     2.830587     2.822944     2.815300     2.807657     2.800014     2.792371     2.784728
      2.777084     2.769441     2.761798     2.754155     2.746511     2.738868     2.731225     2.723582     2.715939     2.708295
      2.700652     2.693009     2.685366     2.677722     2.670079     2.662436     2.654793     2.647150     2.639506     2.631863
      2.624220     2.616577     2.608933     2.601290     2.593647     2.586004     2.578361     2.570717     2.563074     2.555431
      2.547788     2.540144     2.532501     2.524858     2.517215     2.509572     2.501928     2.494285     2.486642     2.478999
      2.471355     2.463712     2.456069     2.448426     2.440783     2.433139     2.425496     2.417853     2.410210     2.402566
      2.394923     2.387280     2.379637     2.371994     2.364350     2.356707     2.349064     2.341421     2.333777     2.326134
      2.318491     2.310848     2.303205     2.295561     2.287918     2.280275     2.272632     2.264988     2.257345     2.249702
      2.242059     2.234416     2.226772     2.219129     2.211486     2.203843     2.196199     2.188556     2.180913     2.173270
      2.165627     2.157983     2.150340     2.142697     2.135054     2.127410     2.119767     2.112124     2.104481     2.096838
      2.089194     2.081551     2.073908     2.066265     2.058621     2.050978     2.043335     2.035692     2.028049     2.020405
      2.012762     2.005119     1.997476     1.989833     1.982190     1.974546     1.966903     1.959260     1.951617     1.943974
      1.936331     1.928688     1.921045     1.913402     1.905759     1.898115     1.890472     1.882829     1.875186     1.867543
      1.859900     1.852257     1.844614     1.836971     1.829327     1.821684     1.814041     1.806398     1.798755     1.791112
      1.783469     1.775826     1.768183     1.760540     1.752896     1.745253     1.737610     1.729967     1.722324     1.714681
      1.707038     1.699395     1.691752     1.684108     1.676465     1.668822     1.661179     1.653536     1.645893     1.638250
      1.630607     1.622964     1.615321     1.607677     1.600034     1.592391     1.584748     1.577105     1.569462     1.561819
      1.554176     1.546533     1.538890     1.531246     1.523603     1.515960     1.508317     1.500674     1.493031     1.485388
      1.477745     1.470102     1.462458     1.454815     1.447172     1.439529     1.431886     1.424243     1.416600     1.408957
      1.401314     1.393671     1.386027     1.378384     1.370741     1.363098     1.355455     1.347812     1.340169     1.332526
      1.324883     1.317240     1.309596     1.301953     1.294310     1.286667     1.279024     1.271381     1.263738     1.256095
      1.248452     1.240808     1.233165     1.225522     1.217879     1.210236     1.202593     1.194950     1.187307     1.179664
      1.172021     1.164377     1.156734     1.149091     1.141448     1.133805     1.126162     1.118519     1.110876     1.103233
      1.095590     1.087946     1.080303     1.072660     1.065017     1.057374     1.049731     1.042088     1.034445     1.026802
      1.019158     1.011515     1.003872     0.996229     0.988586     0.980943     0.973300     0.965657     0.958014     0.950371
      0.942727     0.935084     0.927441     0.919798     0.912155     0.904512     0.896869     0.889226     0.881583     0.873940
      0.866296     0.858653     0.851010     0.843367     0.835724     0.828081     0.820438     0.812795     0.805152     0.797508
      0.789865     0.782222     0.774579     0.766936     0.759293     0.751650     0.744007     0.736364     0.728721     0.721077
      0.713434     0.705791     0.698148     0.690505     0.682862     0.675219     0.667576     0.659933     0.652290     0.644646
      0.637003     0.629360     0.621717     0.614074     0.606431     0.598788     0.591145     0.583502     0.575858     0.568215
      0.560572     0.552929     0.545286     0.537643     0.530000     0.522357     0.514714     0.507071     0.499427     0.491784
      0.484141     0.476498     0.468855     0.461212     0.453569     0.445925     0.438282     0.430639     0.422996     0.415353
      0.407710     0.400067     0.392424     0.384780     0.377137     0.369494     0.361851     0.354208     0.346565     0.338922
      0.331278     0.323635     0.315992     0.308349     0.300706     0.293063     0.285420     0.277777     0.270133     0.262490
      0.254847     0.247204     0.239561     0.231918     0.224275     0.216631     0.208988     0.201345
 NY phased data points follow
  -4.17300E+01 -4.02268E+01 -4.14439E+01 -3.90376E+01 -3.79446E+01 -3.54450E+01 -3.53067E+01 -3.43163E+01 -3.26194E+01 -3.15190E+01
  -3.30315E+01 -2.93091E+01 -3.10186E+01 -3.06179E+01 -2.89319E+01 -3.20496E+01 -3.03208E+01 -2.98571E+01 -2.98509E+01 -2.86038E+01
  -2.72660E+01 -2.66397E+01 -2.64627E+01 -2.55484E+01 -2.39643E+01 -2.16060E+01 -2.33431E+01 -2.23280E+01 -2.18458E+01 -2.09770E+01
  -1.98178E+01 -1.91930E+01 -1.88549E+01 -1.99434E+01 -1.89464E+01 -1.73834E+01 -1.61243E+01 -1.75424E+01 -1.69602E+01 -1.71485E+01
  -1.55023E+01 -1.35317E+01 -1.27834E+01 -1.55222E+01 -1.42227E+01 -1.55030E+01 -1.31199E+01 -1.20568E+01 -1.10724E+01 -1.09715E+01
  -1.18281E+01 -1.05550E+01 -1.04747E+01 -9.45133E+00 -1.07129E+01 -9.94696E+00 -1.23625E+01 -8.33765E+00 -1.02158E+01 -8.63621E+00
  -7.80198E+00 -7.63687E+00 -9.36252E+00 -7.57674E+00 -7.90655E+00 -6.02661E+00 -4.81040E+00 -5.10161E+00 -7.01190E+00 -7.00331E+00
  -5.62309E+00 -2.23170E+00 -2.44026E+00 -2.67098E+00 -4.25037E+00 -1.83321E+00 -7.12252E-01  1.33681E-02 -5.38662E-01  4.78279E-01
   9.51235E-01 -2.18385E+00 -4.87838E-01  8.30813E-01  1.60327E+00  1.75846E+00  2.41562E+00  1.93760E+00  3.84357E+00  3.85389E+00
   4.93627E+00  2.18159E+00  4.49689E+00  2.13449E+00  3.96341E+00  4.34487E+00  5.85501E+00  6.37192E+00  8.03933E+00  8.98183E+00
   7.20732E+00  8.68753E+00  9.14553E+00  1.04357E+01  1.09188E+01  1.12852E+01  1.03860E+01  1.14076E+01  1.27932E+01  1.05152E+01
   1.02727E+01  8.40683E+00  9.01151E+00  1.08847E+01  1.11347E+01  9.27991E+00  9.98189E+00  1.04269E+01  1.07793E+01  1.17079E+01
   1.20309E+01  1.32505E+01  1.36987E+01  1.59145E+01  1.70910E+01  1.90683E+01  1.77493E+01  1.92336E+01  1.96881E+01  1.82204E+01
   2.02588E+01  1.85535E+01  1.92605E+01  1.80604E+01  1.58747E+01  1.70935E+01  1.69947E+01  1.68682E+01  1.77747E+01  1.76423E+01
   1.80827E+01  1.98173E+01  1.98840E+01  2.12747E+01  1.99971E+01  2.19485E+01  2.03482E+01  2.11491E+01  2.07325E+01  2.21513E+01
   2.30434E+01  2.23581E+01  2.26338E+01  2.28347E+01  2.22176E+01  2.32267E+01  2.21035E+01  2.32996E+01  2.41805E+01  2.39090E+01
   2.34373E+01  2.37197E+01  2.62103E+01  2.47258E+01  2.51054E+01  2.52226E+01  2.53143E+01  2.63611E+01  2.68727E+01  2.51827E+01
   2.77549E+01  2.57630E+01  2.67533E+01  2.74551E+01  2.66078E+01  2.67448E+01  2.81899E+01  2.81217E+01  2.77766E+01  2.75552E+01
   2.95258E+01  2.82963E+01  2.88095E+01  2.96136E+01  2.96745E+01  3.07052E+01  3.15074E+01  3.14388E+01  3.31736E+01  3.43881E+01
   3.40122E+01  3.34824E+01  3.53921E+01  3.56771E+01  3.66968E+01  3.56689E+01  3.72041E+01  3.74200E+01  3.74361E+01  3.75174E+01
   3.83531E+01  3.69478E+01  4.05658E+01  4.07457E+01  4.02988E+01  4.02309E+01  4.34706E+01  4.20787E+01  4.33823E+01  4.42028E+01
   4.49945E+01  4.54374E+01  4.54549E+01  4.64903E+01  4.78933E+01  4.96920E+01  5.13313E+01  5.09234E+01  5.10419E+01  5.18712E+01
   5.38407E+01  5.28476E+01  5.21842E+01  5.23891E+01  5.43455E+01  5.39906E+01  5.41997E+01  5.53166E+01  5.60313E+01  5.45334E+01
   5.55863E+01  5.52196E+01  5.40132E+01  5.40696E+01  5.41310E+01  5.54052E+01  5.32917E+01  5.44298E+01  5.52754E+01  5.29281E+01
   5.31509E+01  5.36251E+01  5.28475E+01  5.34401E+01  5.36347E+01  5.37606E+01  5.35256E+01  5.36283E+01  5.49282E+01  5.38191E+01
   5.40684E+01  5.39526E+01  5.35708E+01  5.58076E+01  5.62356E+01  5.60783E+01  5.87445E+01  5.91377E+01  6.02116E+01  6.24221E+01
   6.48896E+01  6.60937E+01  6.62777E+01  6.67463E+01  6.52962E+01  6.55616E+01  6.37422E+01  6.10992E+01  5.79638E+01  5.83981E+01
   6.07644E+01  5.98950E+01  6.05879E+01  5.92395E+01  6.01017E+01  6.02340E+01  6.04264E+01  6.08083E+01  6.16559E+01  6.21253E+01
   5.98329E+01  5.89283E+01  6.11210E+01  6.17183E+01  6.16772E+01  6.16235E+01  6.30758E+01  6.01380E+01  6.22828E+01  6.13219E+01
   6.27677E+01  6.16392E+01  5.93773E+01  6.12270E+01  6.09811E+01  6.13093E+01  6.28608E+01  6.30589E+01  6.15111E+01  6.23211E+01
   5.98836E+01  6.27830E+01  6.23471E+01  6.22224E+01  6.15755E+01  6.26534E+01  6.27311E+01  6.12418E+01  6.17694E+01  6.10064E+01
   6.07258E+01  5.85910E+01  6.05116E+01  6.07161E+01  5.99102E+01  6.14769E+01  5.85967E+01  6.03251E+01  5.79146E+01  5.80690E+01
   5.60948E+01  5.58354E+01  5.73002E+01  5.41783E+01  5.65458E+01  5.37069E+01  5.32211E+01  5.44513E+01  5.23392E+01  5.07157E+01
   5.06030E+01  4.90893E+01  4.97625E+01  4.93757E+01  4.86952E+01  4.82646E+01  4.85355E+01  4.71821E+01  4.69609E+01  4.60776E+01
   4.37281E+01  4.31009E+01  4.47090E+01  3.96913E+01  4.29470E+01  4.10595E+01  4.12263E+01  3.84940E+01  4.06391E+01  3.85899E+01
   3.75416E+01  3.72061E+01  3.72236E+01  3.48006E+01  3.56928E+01  3.55935E+01  3.55113E+01  3.62850E+01  3.33379E+01  3.35667E+01
   3.33953E+01  3.25027E+01  3.46227E+01  3.40007E+01  3.42530E+01  3.05017E+01  3.28223E+01  3.34766E+01  3.21422E+01  3.17177E+01
   3.13258E+01  3.13047E+01  3.13289E+01  3.11843E+01  3.16117E+01  2.99259E+01  2.96621E+01  2.78046E+01  2.91295E+01  2.93730E+01
   2.93656E+01  2.73508E+01  2.89428E+01  3.01122E+01  2.77252E+01  2.98929E+01  2.80455E+01  2.72062E+01  2.77335E+01  2.94436E+01
   2.72704E+01  2.60786E+01  2.75876E+01  2.66778E+01  2.77993E+01  2.73075E+01  2.72859E+01  2.55911E+01  2.76567E+01  2.85066E+01
   2.51713E+01  2.65575E+01  2.50180E+01  2.51215E+01  2.59589E+01  2.70493E+01  2.49166E+01  2.57285E+01  2.87917E+01  2.60366E+01
   2.64975E+01  2.58816E+01  2.56634E+01  2.53236E+01  2.55487E+01  2.50827E+01  2.41115E+01  2.53202E+01  2.50627E+01  2.55335E+01
   2.37992E+01  2.45715E+01  2.62253E+01  2.58131E+01  2.50273E+01  2.53006E+01  2.34732E+01  2.38935E+01  2.33692E+01  2.37721E+01
   2.33495E+01  2.39237E+01  2.39089E+01  2.34562E+01  2.32115E+01  2.43090E+01  2.34653E+01  2.41292E+01  2.23394E+01  2.25294E+01
   2.34693E+01  2.29970E+01  2.17823E+01  2.26947E+01  2.25420E+01  2.19513E+01  2.27252E+01  2.28259E+01  2.06627E+01  2.08955E+01
   2.24766E+01  2.30709E+01  2.21216E+01  2.25716E+01  2.26595E+01  2.10939E+01  2.11857E+01  2.27791E+01  2.02955E+01  2.18515E+01
   2.00734E+01  2.02906E+01  2.28650E+01  2.08388E+01  1.93477E+01  2.11958E+01  2.27165E+01  2.11115E+01  2.00684E+01  1.88628E+01
   1.87387E+01  1.86265E+01  1.92844E+01  1.97285E+01  1.84072E+01  1.94250E+01  2.10658E+01  2.05298E+01  1.84084E+01  1.79900E+01
   2.03202E+01  1.90499E+01  1.86972E+01  1.81748E+01  1.96839E+01  1.76672E+01  1.85520E+01  1.75358E+01  1.82610E+01  1.70482E+01
   1.85831E+01  1.94782E+01  1.94947E+01  1.93410E+01  1.86830E+01  1.77243E+01  1.64258E+01  1.68563E+01
 NY points of the fit to the data follow
  -4.04608E+01 -3.98678E+01 -3.91756E+01 -3.82502E+01 -3.71767E+01 -3.61015E+01 -3.50659E+01 -3.40658E+01 -3.31224E+01 -3.22770E+01
  -3.15603E+01 -3.09704E+01 -3.05107E+01 -3.02162E+01 -3.01214E+01 -3.01448E+01 -3.00309E+01 -2.95925E+01 -2.90107E+01 -2.84046E+01
  -2.78551E+01 -2.73892E+01 -2.69671E+01 -2.64621E+01 -2.56709E+01 -2.46534E+01 -2.35118E+01 -2.23485E+01 -2.12283E+01 -2.01863E+01
  -1.92598E+01 -1.84720E+01 -1.78044E+01 -1.72636E+01 -1.70207E+01 -1.71843E+01 -1.76557E+01 -1.80909E+01 -1.81586E+01 -1.79026E+01
  -1.73602E+01 -1.66468E+01 -1.58586E+01 -1.50957E+01 -1.44480E+01 -1.39239E+01 -1.34484E+01 -1.29581E+01 -1.24871E+01 -1.20637E+01
  -1.16734E+01 -1.13090E+01 -1.09951E+01 -1.07303E+01 -1.04609E+01 -1.01291E+01 -9.71794E+00 -9.26325E+00 -8.80015E+00 -8.34750E+00
  -7.91198E+00 -7.49539E+00 -7.09728E+00 -6.71021E+00 -6.33455E+00 -5.97818E+00 -5.63284E+00 -5.27738E+00 -4.89978E+00 -4.49579E+00
  -4.06583E+00 -3.63127E+00 -3.21081E+00 -2.81297E+00 -2.43753E+00 -2.07835E+00 -1.73076E+00 -1.39204E+00 -1.06628E+00 -7.42434E-01
  -3.80973E-01  9.53569E-03  3.90216E-01  7.57694E-01  1.12504E+00  1.48988E+00  1.84374E+00  2.17516E+00  2.47867E+00  2.75978E+00
   3.02563E+00  3.27019E+00  3.49473E+00  3.74048E+00  4.05501E+00  4.42460E+00  4.87831E+00  5.60297E+00  6.52241E+00  7.44415E+00
   8.30836E+00  9.12149E+00  9.86920E+00  1.05001E+01  1.09682E+01  1.12695E+01  1.14101E+01  1.13492E+01  1.10086E+01  1.04481E+01
   9.98244E+00  9.92926E+00  1.01232E+01  1.03738E+01  1.06381E+01  1.09057E+01  1.11785E+01  1.14554E+01  1.17421E+01  1.20643E+01
   1.25595E+01  1.34198E+01  1.44558E+01  1.54660E+01  1.64134E+01  1.73167E+01  1.81575E+01  1.88916E+01  1.94616E+01  1.98031E+01
   1.98685E+01  1.95962E+01  1.89392E+01  1.80765E+01  1.74486E+01  1.73255E+01  1.74340E+01  1.76019E+01  1.77804E+01  1.79722E+01
   1.82314E+01  1.86201E+01  1.91075E+01  1.95875E+01  1.99968E+01  2.03029E+01  2.04986E+01  2.06282E+01  2.07403E+01  2.08821E+01
   2.10770E+01  2.13025E+01  2.15451E+01  2.17976E+01  2.20562E+01  2.23119E+01  2.25624E+01  2.28215E+01  2.30938E+01  2.33855E+01
   2.36928E+01  2.39960E+01  2.42874E+01  2.45724E+01  2.48620E+01  2.51596E+01  2.54692E+01  2.57974E+01  2.61356E+01  2.64530E+01
   2.67312E+01  2.69821E+01  2.72459E+01  2.75544E+01  2.78951E+01  2.82348E+01  2.85666E+01  2.89074E+01  2.92662E+01  2.96288E+01
   2.99944E+01  3.03715E+01  3.07649E+01  3.11883E+01  3.16460E+01  3.21472E+01  3.27200E+01  3.33431E+01  3.39608E+01  3.45387E+01
   3.50392E+01  3.54616E+01  3.58091E+01  3.61077E+01  3.63899E+01  3.66924E+01  3.70529E+01  3.75130E+01  3.81227E+01  3.89372E+01
   3.99068E+01  4.09129E+01  4.18473E+01  4.25775E+01  4.29380E+01  4.30289E+01  4.29810E+01  4.28481E+01  4.26896E+01  4.26440E+01
   4.27945E+01  4.31488E+01  4.37232E+01  4.45379E+01  4.55564E+01  4.67193E+01  4.78562E+01  4.87038E+01  4.91944E+01  4.95842E+01
   4.99859E+01  5.03656E+01  5.07120E+01  5.10486E+01  5.13767E+01  5.16686E+01  5.19067E+01  5.21226E+01  5.23372E+01  5.25031E+01
   5.25796E+01  5.26769E+01  5.28776E+01  5.31492E+01  5.34768E+01  5.38990E+01  5.43657E+01  5.47960E+01  5.51406E+01  5.53630E+01
   5.54899E+01  5.55879E+01  5.56242E+01  5.54862E+01  5.52181E+01  5.50373E+01  5.50007E+01  5.50972E+01  5.54015E+01  5.59291E+01
   5.65032E+01  5.69964E+01  5.73943E+01  5.77202E+01  5.81890E+01  5.91695E+01  6.03843E+01  6.14950E+01  6.24898E+01  6.34414E+01
   6.43074E+01  6.49788E+01  6.53715E+01  6.54809E+01  6.52869E+01  6.46786E+01  6.35192E+01  6.19873E+01  6.07609E+01  6.03383E+01
   6.02716E+01  6.02831E+01  6.03234E+01  6.03788E+01  6.04423E+01  6.05104E+01  6.05807E+01  6.06517E+01  6.07226E+01  6.07926E+01
   6.08609E+01  6.09262E+01  6.09873E+01  6.10438E+01  6.10956E+01  6.11422E+01  6.11828E+01  6.12171E+01  6.12449E+01  6.12654E+01
   6.12778E+01  6.12817E+01  6.12766E+01  6.12622E+01  6.12381E+01  6.12037E+01  6.11588E+01  6.11032E+01  6.10365E+01  6.09582E+01
   6.08681E+01  6.07660E+01  6.06514E+01  6.05238E+01  6.03828E+01  6.02280E+01  6.00591E+01  5.98757E+01  5.96773E+01  5.94636E+01
   5.92343E+01  5.89890E+01  5.87272E+01  5.84489E+01  5.81538E+01  5.78419E+01  5.75131E+01  5.71677E+01  5.68074E+01  5.64353E+01
   5.60581E+01  5.56877E+01  5.53054E+01  5.48830E+01  5.44197E+01  5.39228E+01  5.33929E+01  5.28248E+01  5.22148E+01  5.15884E+01
   5.09791E+01  5.03819E+01  4.97866E+01  4.92068E+01  4.86769E+01  4.82113E+01  4.77659E+01  4.73024E+01  4.68212E+01  4.63222E+01
   4.57924E+01  4.52103E+01  4.45762E+01  4.39353E+01  4.33220E+01  4.27260E+01  4.21406E+01  4.15634E+01  4.09936E+01  4.04312E+01
   3.98765E+01  3.93299E+01  3.87918E+01  3.82629E+01  3.77439E+01  3.72354E+01  3.67380E+01  3.62527E+01  3.57799E+01  3.53205E+01
   3.48753E+01  3.44448E+01  3.40300E+01  3.36309E+01  3.32471E+01  3.28783E+01  3.25241E+01  3.21841E+01  3.18579E+01  3.15451E+01
   3.12455E+01  3.09585E+01  3.06838E+01  3.04211E+01  3.01700E+01  2.99301E+01  2.97009E+01  2.94823E+01  2.92737E+01  2.90748E+01
   2.88852E+01  2.87046E+01  2.85326E+01  2.83688E+01  2.82128E+01  2.80643E+01  2.79229E+01  2.77882E+01  2.76599E+01  2.75375E+01
   2.74208E+01  2.73092E+01  2.72026E+01  2.71004E+01  2.70023E+01  2.69080E+01  2.68171E+01  2.67291E+01  2.66438E+01  2.65607E+01
   2.64794E+01  2.63997E+01  2.63210E+01  2.62432E+01  2.61656E+01  2.60881E+01  2.60102E+01  2.59316E+01  2.58520E+01  2.57715E+01
   2.56900E+01  2.56077E+01  2.55244E+01  2.54404E+01  2.53555E+01  2.52699E+01  2.51835E+01  2.50964E+01  2.50085E+01  2.49200E+01
   2.48309E+01  2.47411E+01  2.46507E+01  2.45597E+01  2.44682E+01  2.43762E+01  2.42837E+01  2.41907E+01  2.40973E+01  2.40034E+01
   2.39091E+01  2.38145E+01  2.37195E+01  2.36241E+01  2.35285E+01  2.34326E+01  2.33364E+01  2.32400E+01  2.31434E+01  2.30466E+01
   2.29497E+01  2.28527E+01  2.27555E+01  2.26583E+01  2.25610E+01  2.24636E+01  2.23663E+01  2.22690E+01  2.21717E+01  2.20745E+01
   2.19774E+01  2.18804E+01  2.17836E+01  2.16869E+01  2.15904E+01  2.14941E+01  2.13979E+01  2.13018E+01  2.12060E+01  2.11103E+01
   2.10147E+01  2.09193E+01  2.08241E+01  2.07290E+01  2.06340E+01  2.05392E+01  2.04446E+01  2.03501E+01  2.02557E+01  2.01616E+01
   2.00675E+01  1.99736E+01  1.98798E+01  1.97862E+01  1.96927E+01  1.95993E+01  1.95061E+01  1.94130E+01  1.93200E+01  1.92272E+01
   1.91345E+01  1.90419E+01  1.89495E+01  1.88572E+01  1.87650E+01  1.86729E+01  1.85809E+01  1.84891E+01  1.83974E+01  1.83058E+01
   1.82143E+01  1.81229E+01  1.80317E+01  1.79405E+01  1.78494E+01  1.77585E+01  1.76676E+01  1.75769E+01
 NY background values follow
    -4.080E+01   -4.018E+01   -3.957E+01   -3.895E+01   -3.833E+01   -3.772E+01   -3.710E+01   -3.649E+01   -3.588E+01   -3.527E+01
    -3.466E+01   -3.405E+01   -3.345E+01   -3.285E+01   -3.225E+01   -3.165E+01   -3.105E+01   -3.046E+01   -2.987E+01   -2.928E+01
    -2.869E+01   -2.811E+01   -2.753E+01   -2.695E+01   -2.638E+01   -2.580E+01   -2.524E+01   -2.467E+01   -2.411E+01   -2.355E+01
    -2.300E+01   -2.245E+01   -2.190E+01   -2.136E+01   -2.082E+01   -2.028E+01   -1.975E+01   -1.923E+01   -1.871E+01   -1.819E+01
    -1.768E+01   -1.717E+01   -1.666E+01   -1.617E+01   -1.567E+01   -1.519E+01   -1.470E+01   -1.423E+01   -1.375E+01   -1.329E+01
    -1.282E+01   -1.237E+01   -1.191E+01   -1.146E+01   -1.102E+01   -1.058E+01   -1.015E+01   -9.715E+00   -9.288E+00   -8.866E+00
    -8.447E+00   -8.033E+00   -7.622E+00   -7.215E+00   -6.812E+00   -6.412E+00   -6.016E+00   -5.623E+00   -5.234E+00   -4.848E+00
    -4.464E+00   -4.084E+00   -3.707E+00   -3.333E+00   -2.961E+00   -2.592E+00   -2.226E+00   -1.862E+00   -1.501E+00   -1.142E+00
    -7.852E-01   -4.305E-01   -7.797E-02    2.726E-01    6.213E-01    9.682E-01    1.313E+00    1.657E+00    1.999E+00    2.340E+00
     2.679E+00    3.017E+00    3.354E+00    3.689E+00    4.023E+00    4.356E+00    4.688E+00    5.019E+00    5.348E+00    5.676E+00
     6.003E+00    6.328E+00    6.652E+00    6.975E+00    7.297E+00    7.618E+00    7.937E+00    8.254E+00    8.571E+00    8.886E+00
     9.200E+00    9.513E+00    9.824E+00    1.013E+01    1.044E+01    1.075E+01    1.106E+01    1.136E+01    1.167E+01    1.197E+01
     1.227E+01    1.257E+01    1.287E+01    1.316E+01    1.346E+01    1.375E+01    1.405E+01    1.434E+01    1.463E+01    1.492E+01
     1.520E+01    1.549E+01    1.578E+01    1.606E+01    1.634E+01    1.662E+01    1.690E+01    1.718E+01    1.746E+01    1.773E+01
     1.801E+01    1.828E+01    1.856E+01    1.883E+01    1.911E+01    1.938E+01    1.966E+01    1.993E+01    2.021E+01    2.048E+01
     2.076E+01    2.104E+01    2.133E+01    2.161E+01    2.189E+01    2.218E+01    2.247E+01    2.276E+01    2.306E+01    2.336E+01
     2.366E+01    2.396E+01    2.427E+01    2.458E+01    2.490E+01    2.521E+01    2.554E+01    2.587E+01    2.620E+01    2.654E+01
     2.688E+01    2.722E+01    2.758E+01    2.794E+01    2.830E+01    2.867E+01    2.905E+01    2.943E+01    2.982E+01    3.021E+01
     3.061E+01    3.102E+01    3.144E+01    3.186E+01    3.229E+01    3.273E+01    3.317E+01    3.362E+01    3.407E+01    3.452E+01
     3.498E+01    3.545E+01    3.591E+01    3.638E+01    3.686E+01    3.733E+01    3.781E+01    3.828E+01    3.876E+01    3.924E+01
     3.972E+01    4.020E+01    4.068E+01    4.116E+01    4.164E+01    4.211E+01    4.259E+01    4.306E+01    4.353E+01    4.399E+01
     4.445E+01    4.491E+01    4.537E+01    4.582E+01    4.626E+01    4.670E+01    4.713E+01    4.756E+01    4.798E+01    4.839E+01
     4.880E+01    4.920E+01    4.959E+01    4.997E+01    5.035E+01    5.071E+01    5.107E+01    5.141E+01    5.175E+01    5.208E+01
     5.239E+01    5.270E+01    5.300E+01    5.329E+01    5.357E+01    5.385E+01    5.411E+01    5.437E+01    5.462E+01    5.486E+01
     5.510E+01    5.533E+01    5.555E+01    5.576E+01    5.597E+01    5.617E+01    5.637E+01    5.656E+01    5.674E+01    5.692E+01
     5.709E+01    5.726E+01    5.742E+01    5.758E+01    5.773E+01    5.788E+01    5.802E+01    5.816E+01    5.830E+01    5.843E+01
     5.856E+01    5.869E+01    5.881E+01    5.893E+01    5.905E+01    5.916E+01    5.927E+01    5.938E+01    5.949E+01    5.960E+01
     5.970E+01    5.981E+01    5.991E+01    6.001E+01    6.011E+01    6.020E+01    6.030E+01    6.039E+01    6.048E+01    6.056E+01
     6.064E+01    6.071E+01    6.078E+01    6.084E+01    6.090E+01    6.095E+01    6.100E+01    6.104E+01    6.107E+01    6.109E+01
     6.111E+01    6.111E+01    6.111E+01    6.110E+01    6.108E+01    6.105E+01    6.100E+01    6.095E+01    6.089E+01    6.081E+01
     6.072E+01    6.062E+01    6.051E+01    6.038E+01    6.024E+01    6.009E+01    5.992E+01    5.974E+01    5.954E+01    5.932E+01
     5.910E+01    5.885E+01    5.859E+01    5.831E+01    5.801E+01    5.769E+01    5.736E+01    5.701E+01    5.664E+01    5.625E+01
     5.584E+01    5.542E+01    5.499E+01    5.454E+01    5.407E+01    5.360E+01    5.311E+01    5.261E+01    5.210E+01    5.158E+01
     5.105E+01    5.051E+01    4.997E+01    4.942E+01    4.886E+01    4.830E+01    4.773E+01    4.716E+01    4.658E+01    4.601E+01
     4.543E+01    4.485E+01    4.428E+01    4.370E+01    4.312E+01    4.255E+01    4.198E+01    4.142E+01    4.086E+01    4.030E+01
     3.975E+01    3.921E+01    3.868E+01    3.815E+01    3.764E+01    3.713E+01    3.664E+01    3.615E+01    3.568E+01    3.523E+01
     3.478E+01    3.435E+01    3.394E+01    3.354E+01    3.316E+01    3.279E+01    3.244E+01    3.210E+01    3.177E+01    3.146E+01
     3.116E+01    3.088E+01    3.060E+01    3.034E+01    3.009E+01    2.985E+01    2.962E+01    2.941E+01    2.920E+01    2.900E+01
     2.881E+01    2.863E+01    2.846E+01    2.830E+01    2.814E+01    2.799E+01    2.785E+01    2.772E+01    2.759E+01    2.747E+01
     2.735E+01    2.724E+01    2.713E+01    2.703E+01    2.694E+01    2.684E+01    2.675E+01    2.666E+01    2.658E+01    2.650E+01
     2.641E+01    2.633E+01    2.626E+01    2.618E+01    2.610E+01    2.602E+01    2.595E+01    2.587E+01    2.579E+01    2.571E+01
     2.563E+01    2.555E+01    2.546E+01    2.538E+01    2.530E+01    2.521E+01    2.513E+01    2.504E+01    2.495E+01    2.486E+01
     2.477E+01    2.468E+01    2.459E+01    2.450E+01    2.441E+01    2.432E+01    2.423E+01    2.414E+01    2.404E+01    2.395E+01
     2.386E+01    2.376E+01    2.367E+01    2.357E+01    2.348E+01    2.338E+01    2.329E+01    2.319E+01    2.309E+01    2.300E+01
     2.290E+01    2.280E+01    2.271E+01    2.261E+01    2.251E+01    2.242E+01    2.232E+01    2.222E+01    2.212E+01    2.203E+01
     2.193E+01    2.183E+01    2.174E+01    2.164E+01    2.154E+01    2.145E+01    2.135E+01    2.126E+01    2.116E+01    2.107E+01
     2.097E+01    2.088E+01    2.078E+01    2.069E+01    2.059E+01    2.050E+01    2.040E+01    2.031E+01    2.021E+01    2.012E+01
     2.003E+01    1.993E+01    1.984E+01    1.975E+01    1.965E+01    1.956E+01    1.947E+01    1.937E+01    1.928E+01    1.919E+01
     1.910E+01    1.900E+01    1.891E+01    1.882E+01    1.873E+01    1.864E+01    1.855E+01    1.845E+01    1.836E+01    1.827E+01
     1.818E+01    1.809E+01    1.800E+01    1.791E+01    1.782E+01    1.773E+01    1.764E+01    1.755E+01
 Ala      Conc. = 3.29E+01
