 LCModel (Version 6.3-1L) Copyright: S.W. Provencher.          Ref.: Magn. Reson. Med. 30:672-679 (1993).                
 Slice#1 Row#1 Col#6  PD_05_press_1_raw_act
 36 lines in following concentration table = NCONC+1
    Conc.  %SD /Cr+PCr  Metabolite                                         
   44.630  97%   0.526 Ala                                                 
   11.572  56%   0.136 Asp                                                 
   56.887 120%   0.670 Cr                                                  
   27.970 247%   0.330 PCr                                                 
    6.955  56% 8.2E-02 GABA                                                
    6.922  56% 8.2E-02 Glc                                                 
    0.000 999%   0.000 Gln                                                 
   38.237 234%   0.451 Glu                                                 
   30.605  30%   0.361 GPC                                                 
    0.000 999%   0.000 PCh                                                 
   25.072 122%   0.295 GSH                                                 
  115.615  84%   1.362 Ins                                                 
    0.000 999%   0.000 Lac                                                 
   57.612  45%   0.679 NAA                                                 
    0.000 999%   0.000 NAAG                                                
    2.439  53% 2.9E-02 Scyllo                                              
   10.986  59%   0.129 Tau                                                 
    7.864 123% 9.3E-02 -CrCH2                                              
   30.605  30%   0.361 GPC+PCh                                             
   57.612  45%   0.679 NAA+NAAG                                            
   84.857  28%   1.000 Cr+PCr                                              
   38.237 234%   0.451 Glu+Gln                                             
 3.98E+03   7%  46.865 Lip13a                                              
    0.000 999%   0.000 Lip13b                                              
    0.000 999%   0.000-Lip09                                               
    0.000 999%   0.000 MM09                                                
  317.744  41%   3.744 Lip20                                               
    0.000 999%   0.000 MM20                                                
 1.70E-03 999% 2.0E-05 MM12                                                
 2.84E-02 999% 3.3E-04 MM14                                                
 2.78E-02 999% 3.3E-04 MM17                                                
 3.98E+03   7%  46.865 Lip13a+Lip13b                                       
 3.98E+03   7%  46.865 MM14+Lip13a+Lip13b+MM12                             
    0.000 999%   0.000 MM09+Lip09                                          
  317.744  41%   3.744 MM20+Lip20                                          
   6 lines in following misc. output table
  FWHM = 0.046 ppm    S/N =   3                                            
  Data shift =-0.031 ppm                                                   
  Ph: 105 deg     -23.4 deg/ppm                                            
  alphaB,S = 8.5E+01,   2.6E+01                                            
   14 spline knots.   Ns = 5(1)                                            
   2 inflections.     1 extrema                                            
  498 points on ppm-axis = NY
      4.000000     3.992357     3.984714     3.977070     3.969427     3.961784     3.954141     3.946497     3.938854     3.931211
      3.923568     3.915925     3.908281     3.900638     3.892995     3.885352     3.877708     3.870065     3.862422     3.854779
      3.847136     3.839492     3.831849     3.824206     3.816563     3.808919     3.801276     3.793633     3.785990     3.778347
      3.770703     3.763060     3.755417     3.747774     3.740130     3.732487     3.724844     3.717201     3.709558     3.701914
      3.694271     3.686628     3.678985     3.671341     3.663698     3.656055     3.648412     3.640769     3.633125     3.625482
      3.617839     3.610196     3.602552     3.594909     3.587266     3.579623     3.571980     3.564336     3.556693     3.549050
      3.541407     3.533763     3.526120     3.518477     3.510834     3.503191     3.495547     3.487904     3.480261     3.472618
      3.464974     3.457331     3.449688     3.442045     3.434402     3.426758     3.419115     3.411472     3.403829     3.396185
      3.388542     3.380899     3.373256     3.365613     3.357969     3.350326     3.342683     3.335040     3.327396     3.319753
      3.312110     3.304467     3.296824     3.289180     3.281537     3.273894     3.266251     3.258607     3.250964     3.243321
      3.235678     3.228034     3.220391     3.212748     3.205105     3.197462     3.189818     3.182175     3.174532     3.166889
      3.159245     3.151602     3.143959     3.136316     3.128673     3.121029     3.113386     3.105743     3.098100     3.090456
      3.082813     3.075170     3.067527     3.059884     3.052240     3.044597     3.036954     3.029311     3.021667     3.014024
      3.006381     2.998738     2.991095     2.983451     2.975808     2.968165     2.960522     2.952878     2.945235     2.937592
      2.929949     2.922306     2.914662     2.907019     2.899376     2.891733     2.884089     2.876446     2.868803     2.861160
      2.853517     2.845873     2.838230     2.830587     2.822944     2.815300     2.807657     2.800014     2.792371     2.784728
      2.777084     2.769441     2.761798     2.754155     2.746511     2.738868     2.731225     2.723582     2.715939     2.708295
      2.700652     2.693009     2.685366     2.677722     2.670079     2.662436     2.654793     2.647150     2.639506     2.631863
      2.624220     2.616577     2.608933     2.601290     2.593647     2.586004     2.578361     2.570717     2.563074     2.555431
      2.547788     2.540144     2.532501     2.524858     2.517215     2.509572     2.501928     2.494285     2.486642     2.478999
      2.471355     2.463712     2.456069     2.448426     2.440783     2.433139     2.425496     2.417853     2.410210     2.402566
      2.394923     2.387280     2.379637     2.371994     2.364350     2.356707     2.349064     2.341421     2.333777     2.326134
      2.318491     2.310848     2.303205     2.295561     2.287918     2.280275     2.272632     2.264988     2.257345     2.249702
      2.242059     2.234416     2.226772     2.219129     2.211486     2.203843     2.196199     2.188556     2.180913     2.173270
      2.165627     2.157983     2.150340     2.142697     2.135054     2.127410     2.119767     2.112124     2.104481     2.096838
      2.089194     2.081551     2.073908     2.066265     2.058621     2.050978     2.043335     2.035692     2.028049     2.020405
      2.012762     2.005119     1.997476     1.989833     1.982190     1.974546     1.966903     1.959260     1.951617     1.943974
      1.936331     1.928688     1.921045     1.913402     1.905759     1.898115     1.890472     1.882829     1.875186     1.867543
      1.859900     1.852257     1.844614     1.836971     1.829327     1.821684     1.814041     1.806398     1.798755     1.791112
      1.783469     1.775826     1.768183     1.760540     1.752896     1.745253     1.737610     1.729967     1.722324     1.714681
      1.707038     1.699395     1.691752     1.684108     1.676465     1.668822     1.661179     1.653536     1.645893     1.638250
      1.630607     1.622964     1.615321     1.607677     1.600034     1.592391     1.584748     1.577105     1.569462     1.561819
      1.554176     1.546533     1.538890     1.531246     1.523603     1.515960     1.508317     1.500674     1.493031     1.485388
      1.477745     1.470102     1.462458     1.454815     1.447172     1.439529     1.431886     1.424243     1.416600     1.408957
      1.401314     1.393671     1.386027     1.378384     1.370741     1.363098     1.355455     1.347812     1.340169     1.332526
      1.324883     1.317240     1.309596     1.301953     1.294310     1.286667     1.279024     1.271381     1.263738     1.256095
      1.248452     1.240808     1.233165     1.225522     1.217879     1.210236     1.202593     1.194950     1.187307     1.179664
      1.172021     1.164377     1.156734     1.149091     1.141448     1.133805     1.126162     1.118519     1.110876     1.103233
      1.095590     1.087946     1.080303     1.072660     1.065017     1.057374     1.049731     1.042088     1.034445     1.026802
      1.019158     1.011515     1.003872     0.996229     0.988586     0.980943     0.973300     0.965657     0.958014     0.950371
      0.942727     0.935084     0.927441     0.919798     0.912155     0.904512     0.896869     0.889226     0.881583     0.873940
      0.866296     0.858653     0.851010     0.843367     0.835724     0.828081     0.820438     0.812795     0.805152     0.797508
      0.789865     0.782222     0.774579     0.766936     0.759293     0.751650     0.744007     0.736364     0.728721     0.721077
      0.713434     0.705791     0.698148     0.690505     0.682862     0.675219     0.667576     0.659933     0.652290     0.644646
      0.637003     0.629360     0.621717     0.614074     0.606431     0.598788     0.591145     0.583502     0.575858     0.568215
      0.560572     0.552929     0.545286     0.537643     0.530000     0.522357     0.514714     0.507071     0.499427     0.491784
      0.484141     0.476498     0.468855     0.461212     0.453569     0.445925     0.438282     0.430639     0.422996     0.415353
      0.407710     0.400067     0.392424     0.384780     0.377137     0.369494     0.361851     0.354208     0.346565     0.338922
      0.331278     0.323635     0.315992     0.308349     0.300706     0.293063     0.285420     0.277777     0.270133     0.262490
      0.254847     0.247204     0.239561     0.231918     0.224275     0.216631     0.208988     0.201345
 NY phased data points follow
   8.83821E-01 -8.31712E-01  7.97559E-01 -2.38107E+00 -5.59060E-01 -5.45711E+00 -3.51510E+00 -1.48731E+00 -5.82872E-01  8.02291E-01
   3.11747E+00  1.67638E-01  1.98440E+00  2.86888E+00  2.75972E+00  1.95367E-01 -2.49459E+00 -2.77059E-01  1.66540E+00 -1.09884E+00
   5.45931E-01  4.28201E+00 -4.70334E-01  1.06313E+00 -4.63850E-01 -3.03781E+00 -9.28987E-02 -1.06292E+00 -8.93449E-01 -5.91045E-01
   4.95226E-01  1.38174E+00 -1.97425E+00  1.62669E+00  1.37005E-01 -1.93468E+00 -1.46480E+00  1.40860E-03 -1.97198E+00 -8.36456E-01
   7.74843E-01 -9.49336E-01  1.48826E+00 -1.01316E+00  8.73033E-01  1.16976E+00  3.46289E+00  5.04344E-01 -5.22811E-01  7.33027E-01
   1.34917E+00 -3.38508E+00  1.80827E+00  1.91059E-01 -1.95615E-01  2.93527E+00 -8.25643E-02  6.16627E-02 -1.96011E+00  2.26480E+00
   6.49575E-01  3.78472E+00 -1.91879E+00  1.01626E+00 -4.28055E+00  2.35593E+00 -2.32944E+00 -3.13902E+00  2.01742E-01  7.99338E-01
   1.50609E+00  1.61205E+00 -2.60950E+00  5.89375E-01  6.70311E-01  1.25544E+00 -1.93725E-01 -4.61636E+00  7.51678E-01 -1.24438E+00
  -7.84653E-01  1.11657E+00  1.33612E+00  6.71725E-01  1.82246E+00  6.86005E-02  7.37787E-01  1.47488E+00  2.67513E-01  2.24036E+00
  -3.08780E+00 -2.30118E+00 -5.75819E-01  3.58733E-01 -1.24389E+00 -2.66826E-01 -6.85369E-01  3.07138E-01 -3.65995E+00 -9.71411E-01
  -4.54490E-01  6.92776E-01 -1.98875E+00  3.46756E+00  2.11989E+00  6.20199E+00  4.58355E+00  2.46909E+00 -1.00164E+00 -2.63696E+00
  -1.02472E+00 -3.93459E+00 -1.11789E+00 -3.06417E+00  2.15710E+00 -1.44889E+00 -3.57021E-01  1.85197E+00 -4.93892E-02 -3.60146E+00
  -2.71923E+00 -4.15986E+00 -1.41376E+00  2.88912E-02 -8.05884E-01  2.98138E+00  1.38683E+00  3.74280E+00  6.22896E-02  3.97832E+00
   3.29155E+00  3.24550E+00  1.42109E+00  2.85649E+00  2.07401E+00 -9.83166E-01  2.69732E-01 -1.02887E+00 -8.54776E-01 -4.84909E-01
   1.64084E-01 -1.52464E+00 -3.86613E-01 -2.68853E+00 -1.55681E+00 -5.63477E-01  8.15590E-01 -3.64135E-01 -1.48813E+00 -1.71503E+00
   7.20946E-01 -2.87995E-01 -2.80031E-01 -1.76458E+00  3.20572E-01 -3.53090E+00 -2.82405E-01 -1.53026E-01  2.66102E-01 -1.58644E+00
   3.10508E+00  2.24303E+00 -3.26030E+00  3.29239E+00  7.76293E-01  2.47084E-01 -4.74511E-01  8.49958E-01 -2.14574E-01  7.31767E-01
  -1.37750E+00  1.07499E+00  4.00414E+00  3.85943E+00 -3.24865E+00 -4.42789E-01  3.22483E-01  1.82798E+00  9.50049E-01  4.68036E-01
  -8.04706E-01  1.17612E+00  3.67880E+00  5.26929E-01  5.49973E-01 -7.02790E-01 -7.24055E-01  2.14086E-01  1.33697E+00 -1.54116E+00
   2.98616E+00  2.17675E+00 -3.67765E+00 -2.30794E-01  3.32399E+00  2.51677E+00  2.54580E-01  2.93240E+00  2.28984E+00  1.29071E+00
   1.00262E+00  3.51409E-01  1.87898E+00  2.28086E+00  2.13747E+00  3.77582E+00  1.71879E+00  2.73031E+00  1.69498E+00  1.49999E-01
   1.68656E+00  4.22764E+00 -5.44115E-01 -6.72917E-01 -1.19549E+00 -1.39904E+00  1.35198E+00  8.18130E-01 -2.70131E+00  1.84628E+00
  -3.65523E+00  1.27238E+00 -1.18540E+00  7.81357E-01  4.91989E-01  7.51599E-01 -4.27963E-01  1.74575E+00  2.72293E+00  2.98376E+00
   2.21283E+00 -8.04338E-01  3.12404E+00  3.30738E+00  1.28308E-01  2.76388E+00  1.94421E-02  1.32991E+00  3.55247E+00  3.72979E-01
   1.17826E+00 -8.89498E-01  1.50602E+00 -1.60442E+00  9.36971E-01  7.70354E-01  2.27431E-01  2.68927E-01 -1.17761E+00 -2.40423E+00
   3.12807E+00  2.20308E+00  2.90831E+00  2.14132E+00  3.69293E-01 -2.25249E+00 -2.79080E+00  4.24740E-01  5.90520E+00  4.26841E+00
   8.57655E-01  1.44140E+00  2.22188E+00  4.95373E+00  5.43315E+00  3.71038E+00 -9.50765E-01 -4.17132E-01  1.60101E+00 -2.89867E+00
  -4.72012E-01 -7.06750E-01  1.90785E+00  4.41119E+00  8.66087E-01 -8.27816E-01  1.31776E+00 -2.90169E-01  1.06687E+00  2.47253E+00
  -4.46887E-01 -7.86698E-01  1.27150E+00  4.15683E+00 -6.17970E-02 -1.49395E-01  1.14585E+00  1.84114E+00  1.39430E+00  2.13483E+00
   4.69245E+00  2.31168E+00 -1.13808E-01  2.19396E+00  1.44630E+00  2.11170E+00  1.51460E+00  1.31815E-01  2.15097E+00  2.60727E+00
   3.74889E+00  1.16935E+00  3.93776E+00  2.19898E-01  5.13588E-01  2.46777E+00  7.17953E-01  7.95363E-01  2.64822E+00  3.06804E+00
   6.45826E-02  1.57741E+00  5.06010E+00 -4.50759E-01  3.15759E+00  1.17764E+00  3.06724E+00  4.62814E+00  3.90189E+00  3.52134E+00
   2.13286E+00  6.04893E-01  1.48924E+00  4.45843E+00  2.83025E+00  4.42462E+00  3.79509E+00  7.37624E+00  5.40030E+00  1.49477E+00
   4.46592E+00  3.32177E+00  3.81323E+00  2.32104E+00  6.50655E+00  5.89266E+00  2.15091E+00  7.80476E+00  5.65691E+00  6.64946E+00
   5.70823E+00  7.31223E+00  8.38969E+00  8.16209E+00  8.14210E+00  9.59516E+00  7.63552E+00  9.15276E+00  8.98156E+00  8.76397E+00
   1.08873E+01  1.11595E+01  1.10453E+01  1.30987E+01  1.37067E+01  1.40830E+01  1.25657E+01  8.28233E+00  1.15974E+01  8.97270E+00
   8.18582E+00  1.00200E+01  1.27770E+01  1.10455E+01  1.13542E+01  1.32179E+01  1.16865E+01  1.20422E+01  1.00277E+01  1.13496E+01
   1.40290E+01  1.41561E+01  1.60431E+01  9.73821E+00  1.16953E+01  1.08302E+01  1.40386E+01  1.50073E+01  1.36926E+01  7.86887E+00
   1.30033E+01  8.57717E+00  8.18232E+00  6.43920E+00  6.18052E+00  5.37907E+00  4.45613E+00  3.46661E+00  2.36013E+00  4.74193E+00
   2.66141E+00 -4.87675E-01  1.66645E+00  1.09502E+00 -1.33603E+00  4.27540E+00 -2.59103E+00 -1.50409E+00 -1.18453E+00  7.33109E-01
   3.51767E+00 -2.34190E-01 -1.28210E+00 -2.58367E+00  4.34883E+00  1.73990E+00  1.13264E+00  1.45981E+00  6.65909E-01  2.79055E+00
   1.47696E-01  2.67453E+00  3.28512E+00  1.31026E+00  9.44703E-01  2.38408E+00  2.54003E+00  2.85865E+00  4.47022E-01  5.49370E+00
   7.19408E-01  1.40117E+00 -1.68358E-01  2.18249E+00  6.90624E-01  1.96713E+00  3.58985E+00  1.47176E+00  6.58454E-01  3.56647E-01
   4.24974E+00  4.08069E+00  1.90520E+00  1.92152E+00  2.31187E+00  4.05765E+00  1.56550E+00  2.20171E-01  1.60862E+00 -6.82697E-01
  -2.01991E-01  2.53938E+00  3.30775E+00  1.12635E+00  2.65576E+00  7.26638E-01  1.47219E+00 -1.57033E+00  8.43117E-01  4.25652E+00
   1.48642E+00 -1.45307E-01 -1.29673E-01  2.72921E+00  1.16111E+00 -5.52470E-01  1.83632E+00  1.67407E-01 -1.83110E+00 -2.71192E+00
  -1.64114E+00  1.97204E-01  7.82053E-02  1.98057E+00  2.22671E+00  1.98227E+00  3.22838E+00  5.75219E-01  1.64582E+00 -4.88458E-01
   1.54252E+00  2.59514E+00  2.19559E+00  4.35778E-01  1.74777E+00  2.99400E-02  1.87497E+00 -1.05173E+00  1.06444E+00  1.63889E+00
  -2.12066E-01 -2.71611E+00  3.07396E+00  3.31391E+00 -1.83751E+00  1.68774E+00 -1.87142E+00  1.76700E-01  1.61125E+00 -1.36396E-01
   9.80289E-01 -1.46037E+00 -2.73172E-01  1.19609E+00 -2.49249E+00 -3.27355E-01  5.18330E+00 -4.82463E-01
 NY points of the fit to the data follow
  -3.70247E-01 -4.66566E-01 -5.29969E-01 -5.47260E-01 -5.49149E-01 -5.26687E-01 -4.73778E-01 -3.17636E-01  3.50746E-02  5.19857E-01
   1.00352E+00  1.38931E+00  1.61774E+00  1.63555E+00  1.39226E+00  9.16519E-01  3.61896E-01 -8.89739E-02 -3.19354E-01 -3.84985E-01
  -4.08973E-01 -4.08454E-01 -3.77841E-01 -3.32872E-01 -3.17054E-01 -3.70308E-01 -4.19290E-01 -3.93701E-01 -3.19808E-01 -2.27655E-01
  -9.85163E-02  7.18666E-02  2.27882E-01  2.89172E-01  2.41410E-01  1.33640E-01  4.17569E-02 -1.53258E-02 -9.44711E-02 -1.98570E-01
  -2.87402E-01 -3.75810E-01 -4.81605E-01 -5.28283E-01 -4.08383E-01 -1.31640E-01  1.92861E-01  4.72746E-01  6.63647E-01  7.42184E-01
   6.64131E-01  4.05059E-01  3.97831E-02 -2.83522E-01 -4.68402E-01 -5.16764E-01 -4.76367E-01 -3.81527E-01 -2.52882E-01 -1.20718E-01
  -1.31071E-02  5.17543E-02  5.79810E-02 -5.21608E-04 -1.18013E-01 -2.52754E-01 -3.51625E-01 -3.92292E-01 -3.64778E-01 -2.83658E-01
  -1.91122E-01 -1.16215E-01 -6.23146E-02 -2.44609E-02 -2.37742E-03 -3.65565E-03 -2.92468E-02 -7.49112E-02 -1.22984E-01 -1.61255E-01
  -1.96843E-01 -2.28112E-01 -2.29720E-01 -1.99744E-01 -1.73002E-01 -1.81550E-01 -2.30279E-01 -3.07785E-01 -3.97505E-01 -4.83827E-01
  -5.44933E-01 -5.58338E-01 -5.04547E-01 -3.97964E-01 -2.93818E-01 -2.27462E-01 -2.06782E-01 -2.57800E-01 -4.30223E-01 -3.87232E-01
   1.26545E-01  9.57072E-01  1.84755E+00  2.65132E+00  3.26072E+00  3.50543E+00  3.18858E+00  2.30393E+00  1.17559E+00  2.85762E-01
  -9.03189E-02 -1.79574E-01 -2.07941E-01 -2.18234E-01 -2.20766E-01 -2.17574E-01 -2.15145E-01 -2.16492E-01 -2.19193E-01 -2.22158E-01
  -2.28716E-01 -2.64715E-01 -3.86747E-01 -3.14890E-01  2.05202E-01  1.03695E+00  1.92388E+00  2.71341E+00  3.30927E+00  3.56779E+00
   3.32347E+00  2.55777E+00  1.53717E+00  6.92844E-01  2.92627E-01  1.50287E-01  4.96162E-02 -4.04016E-02 -9.88806E-02 -1.03220E-01
  -4.52138E-02  5.60822E-02  1.63941E-01  2.50731E-01  2.99301E-01  3.09056E-01  2.98101E-01  2.84825E-01  2.77221E-01  2.76388E-01
   2.75741E-01  2.73947E-01  2.72446E-01  2.73659E-01  2.77628E-01  2.84880E-01  2.95926E-01  3.02966E-01  2.99575E-01  2.86557E-01
   2.66207E-01  2.46513E-01  2.32157E-01  2.25753E-01  2.30221E-01  2.44407E-01  2.59943E-01  2.64522E-01  2.51015E-01  2.25572E-01
   1.99263E-01  1.79701E-01  1.63484E-01  1.37465E-01  1.05902E-01  7.87559E-02  6.03609E-02  4.52255E-02  2.92353E-02  1.70016E-02
   1.57320E-02  2.11998E-02  2.04994E-02  3.05786E-03 -2.34175E-02 -3.96019E-02 -3.90270E-02 -2.18944E-02  1.30917E-02  6.92799E-02
   1.43719E-01  2.23039E-01  2.86155E-01  3.15773E-01  2.92033E-01  2.25075E-01  1.49968E-01  9.53829E-02  6.97414E-02  6.84907E-02
   9.40688E-02  1.49793E-01  2.28427E-01  3.06378E-01  3.61829E-01  3.92193E-01  4.06891E-01  4.05246E-01  3.85487E-01  3.48804E-01
   3.07579E-01  2.77348E-01  2.86111E-01  3.43037E-01  4.29758E-01  5.27182E-01  6.21889E-01  6.95877E-01  7.17093E-01  6.55187E-01
   5.29844E-01  4.08462E-01  3.42505E-01  3.48652E-01  4.11431E-01  5.21781E-01  6.67919E-01  8.08247E-01  8.88054E-01  8.91491E-01
   8.50772E-01  8.06866E-01  7.78297E-01  7.77443E-01  8.28446E-01  9.29160E-01  1.04265E+00  1.12437E+00  1.15083E+00  1.12007E+00
   1.04357E+00  9.41608E-01  8.55214E-01  8.22933E-01  8.62795E-01  9.62218E-01  1.08521E+00  1.19969E+00  1.28261E+00  1.32207E+00
   1.31896E+00  1.29315E+00  1.26868E+00  1.26117E+00  1.25912E+00  1.20848E+00  1.19380E+00  1.44663E+00  1.94756E+00  2.52815E+00
   3.06750E+00  3.50599E+00  3.75684E+00  3.68978E+00  3.23283E+00  2.50844E+00  1.80610E+00  1.38599E+00  1.22943E+00  1.14723E+00
   1.08784E+00  1.04417E+00  1.01198E+00  9.91636E-01  9.84219E-01  9.85386E-01  9.88754E-01  9.88234E-01  9.81032E-01  9.67432E-01
   9.50299E-01  9.33081E-01  9.19001E-01  9.11057E-01  9.10012E-01  9.14646E-01  9.23933E-01  9.36700E-01  9.51190E-01  9.66386E-01
   9.81461E-01  9.96303E-01  1.01173E+00  1.02839E+00  1.04629E+00  1.06552E+00  1.08649E+00  1.10947E+00  1.13436E+00  1.16119E+00
   1.19001E+00  1.22067E+00  1.25319E+00  1.28766E+00  1.32417E+00  1.36283E+00  1.40379E+00  1.44718E+00  1.49318E+00  1.54202E+00
   1.59397E+00  1.64929E+00  1.70825E+00  1.77118E+00  1.83842E+00  1.91042E+00  1.98768E+00  2.07082E+00  2.16057E+00  2.25769E+00
   2.36266E+00  2.47401E+00  2.59694E+00  2.79687E+00  3.07780E+00  3.35077E+00  3.55054E+00  3.66593E+00  3.70021E+00  3.64397E+00
   3.46364E+00  3.23349E+00  3.15747E+00  3.35992E+00  3.80691E+00  4.36433E+00  4.96172E+00  5.57932E+00  6.15611E+00  6.61102E+00
   6.91492E+00  7.12997E+00  7.37512E+00  7.69713E+00  8.06306E+00  8.45387E+00  8.86012E+00  9.27525E+00  9.69359E+00  1.01097E+01
   1.05182E+01  1.09135E+01  1.12901E+01  1.16426E+01  1.19654E+01  1.22536E+01  1.25022E+01  1.27073E+01  1.28651E+01  1.29730E+01
   1.30289E+01  1.30319E+01  1.29820E+01  1.28800E+01  1.27278E+01  1.25279E+01  1.22840E+01  1.20000E+01  1.16805E+01  1.13306E+01
   1.09554E+01  1.05603E+01  1.01504E+01  9.73076E+00  9.30624E+00  8.88120E+00  8.45960E+00  8.04492E+00  7.64014E+00  7.24775E+00
   6.86971E+00  6.50754E+00  6.16229E+00  5.83463E+00  5.52488E+00  5.23310E+00  4.95904E+00  4.70230E+00  4.46228E+00  4.23829E+00
   4.02956E+00  3.83527E+00  3.65455E+00  3.48654E+00  3.33039E+00  3.18527E+00  3.05038E+00  2.92499E+00  2.80835E+00  2.69980E+00
   2.59871E+00  2.50451E+00  2.41666E+00  2.33468E+00  2.25809E+00  2.18648E+00  2.11947E+00  2.05672E+00  1.99790E+00  1.94272E+00
   1.89091E+00  1.84221E+00  1.79641E+00  1.75331E+00  1.71272E+00  1.67445E+00  1.63835E+00  1.60427E+00  1.57208E+00  1.54166E+00
   1.51290E+00  1.48568E+00  1.45990E+00  1.43548E+00  1.41235E+00  1.39042E+00  1.36961E+00  1.34987E+00  1.33112E+00  1.31332E+00
   1.29641E+00  1.28035E+00  1.26508E+00  1.25055E+00  1.23674E+00  1.22361E+00  1.21112E+00  1.19924E+00  1.18792E+00  1.17716E+00
   1.16691E+00  1.15716E+00  1.14789E+00  1.13906E+00  1.13066E+00  1.12265E+00  1.11504E+00  1.10781E+00  1.10093E+00  1.09439E+00
   1.08816E+00  1.08224E+00  1.07663E+00  1.07130E+00  1.06624E+00  1.06143E+00  1.05687E+00  1.05255E+00  1.04847E+00  1.04461E+00
   1.04095E+00  1.03749E+00  1.03423E+00  1.03116E+00  1.02827E+00  1.02556E+00  1.02301E+00  1.02061E+00  1.01837E+00  1.01629E+00
   1.01435E+00  1.01255E+00  1.01088E+00  1.00933E+00  1.00791E+00  1.00662E+00  1.00545E+00  1.00438E+00  1.00341E+00  1.00256E+00
   1.00181E+00  1.00116E+00  1.00060E+00  1.00013E+00  9.99743E-01  9.99449E-01  9.99244E-01  9.99121E-01  9.99072E-01  9.99094E-01
   9.99191E-01  9.99365E-01  9.99613E-01  9.99928E-01  1.00030E+00  1.00074E+00  1.00124E+00  1.00181E+00
 NY background values follow
    -7.928E-01   -7.895E-01   -7.863E-01   -7.831E-01   -7.798E-01   -7.766E-01   -7.734E-01   -7.701E-01   -7.669E-01   -7.637E-01
    -7.604E-01   -7.572E-01   -7.540E-01   -7.507E-01   -7.475E-01   -7.443E-01   -7.410E-01   -7.378E-01   -7.345E-01   -7.313E-01
    -7.281E-01   -7.248E-01   -7.216E-01   -7.184E-01   -7.151E-01   -7.119E-01   -7.087E-01   -7.054E-01   -7.022E-01   -6.990E-01
    -6.957E-01   -6.925E-01   -6.893E-01   -6.860E-01   -6.828E-01   -6.796E-01   -6.763E-01   -6.731E-01   -6.699E-01   -6.666E-01
    -6.634E-01   -6.602E-01   -6.569E-01   -6.537E-01   -6.505E-01   -6.472E-01   -6.440E-01   -6.407E-01   -6.375E-01   -6.343E-01
    -6.310E-01   -6.278E-01   -6.246E-01   -6.213E-01   -6.181E-01   -6.149E-01   -6.116E-01   -6.084E-01   -6.052E-01   -6.019E-01
    -5.987E-01   -5.955E-01   -5.922E-01   -5.890E-01   -5.858E-01   -5.825E-01   -5.793E-01   -5.761E-01   -5.728E-01   -5.696E-01
    -5.664E-01   -5.631E-01   -5.599E-01   -5.567E-01   -5.534E-01   -5.502E-01   -5.470E-01   -5.437E-01   -5.405E-01   -5.372E-01
    -5.340E-01   -5.308E-01   -5.275E-01   -5.243E-01   -5.211E-01   -5.178E-01   -5.146E-01   -5.114E-01   -5.081E-01   -5.049E-01
    -5.017E-01   -4.984E-01   -4.952E-01   -4.920E-01   -4.887E-01   -4.855E-01   -4.823E-01   -4.790E-01   -4.758E-01   -4.726E-01
    -4.693E-01   -4.661E-01   -4.629E-01   -4.596E-01   -4.564E-01   -4.532E-01   -4.499E-01   -4.467E-01   -4.435E-01   -4.402E-01
    -4.370E-01   -4.338E-01   -4.305E-01   -4.273E-01   -4.240E-01   -4.208E-01   -4.176E-01   -4.143E-01   -4.111E-01   -4.079E-01
    -4.046E-01   -4.014E-01   -3.982E-01   -3.949E-01   -3.917E-01   -3.885E-01   -3.852E-01   -3.820E-01   -3.788E-01   -3.755E-01
    -3.723E-01   -3.691E-01   -3.658E-01   -3.626E-01   -3.594E-01   -3.561E-01   -3.529E-01   -3.497E-01   -3.464E-01   -3.432E-01
    -3.400E-01   -3.367E-01   -3.335E-01   -3.303E-01   -3.270E-01   -3.238E-01   -3.205E-01   -3.173E-01   -3.141E-01   -3.108E-01
    -3.076E-01   -3.044E-01   -3.011E-01   -2.979E-01   -2.947E-01   -2.914E-01   -2.882E-01   -2.850E-01   -2.817E-01   -2.785E-01
    -2.753E-01   -2.720E-01   -2.688E-01   -2.656E-01   -2.623E-01   -2.591E-01   -2.559E-01   -2.526E-01   -2.494E-01   -2.462E-01
    -2.429E-01   -2.397E-01   -2.365E-01   -2.332E-01   -2.300E-01   -2.268E-01   -2.235E-01   -2.203E-01   -2.171E-01   -2.138E-01
    -2.106E-01   -2.073E-01   -2.041E-01   -2.009E-01   -1.976E-01   -1.944E-01   -1.912E-01   -1.879E-01   -1.847E-01   -1.815E-01
    -1.782E-01   -1.750E-01   -1.718E-01   -1.685E-01   -1.653E-01   -1.621E-01   -1.588E-01   -1.556E-01   -1.524E-01   -1.491E-01
    -1.459E-01   -1.427E-01   -1.394E-01   -1.362E-01   -1.330E-01   -1.297E-01   -1.265E-01   -1.233E-01   -1.200E-01   -1.168E-01
    -1.136E-01   -1.103E-01   -1.071E-01   -1.039E-01   -1.006E-01   -9.739E-02   -9.415E-02   -9.092E-02   -8.769E-02   -8.445E-02
    -8.122E-02   -7.798E-02   -7.475E-02   -7.152E-02   -6.828E-02   -6.505E-02   -6.181E-02   -5.858E-02   -5.535E-02   -5.211E-02
    -4.888E-02   -4.565E-02   -4.241E-02   -3.918E-02   -3.594E-02   -3.271E-02   -2.948E-02   -2.624E-02   -2.301E-02   -1.977E-02
    -1.654E-02   -1.331E-02   -1.007E-02   -6.839E-03   -3.605E-03   -3.713E-04    2.863E-03    6.096E-03    9.330E-03    1.256E-02
     1.580E-02    1.903E-02    2.227E-02    2.550E-02    2.873E-02    3.197E-02    3.520E-02    3.843E-02    4.167E-02    4.490E-02
     4.813E-02    5.137E-02    5.460E-02    5.784E-02    6.107E-02    6.430E-02    6.754E-02    7.077E-02    7.400E-02    7.724E-02
     8.047E-02    8.371E-02    8.694E-02    9.017E-02    9.341E-02    9.664E-02    9.987E-02    1.031E-01    1.063E-01    1.096E-01
     1.128E-01    1.160E-01    1.193E-01    1.225E-01    1.257E-01    1.290E-01    1.322E-01    1.354E-01    1.387E-01    1.419E-01
     1.451E-01    1.484E-01    1.516E-01    1.548E-01    1.581E-01    1.613E-01    1.645E-01    1.678E-01    1.710E-01    1.742E-01
     1.775E-01    1.807E-01    1.839E-01    1.872E-01    1.904E-01    1.936E-01    1.969E-01    2.001E-01    2.033E-01    2.066E-01
     2.098E-01    2.130E-01    2.163E-01    2.195E-01    2.227E-01    2.260E-01    2.292E-01    2.324E-01    2.357E-01    2.389E-01
     2.421E-01    2.454E-01    2.486E-01    2.518E-01    2.551E-01    2.583E-01    2.615E-01    2.648E-01    2.680E-01    2.712E-01
     2.745E-01    2.777E-01    2.809E-01    2.842E-01    2.874E-01    2.906E-01    2.939E-01    2.971E-01    3.003E-01    3.036E-01
     3.068E-01    3.100E-01    3.133E-01    3.165E-01    3.197E-01    3.230E-01    3.262E-01    3.294E-01    3.327E-01    3.359E-01
     3.391E-01    3.424E-01    3.456E-01    3.488E-01    3.521E-01    3.553E-01    3.585E-01    3.618E-01    3.650E-01    3.682E-01
     3.715E-01    3.747E-01    3.779E-01    3.812E-01    3.844E-01    3.876E-01    3.909E-01    3.941E-01    3.973E-01    4.006E-01
     4.038E-01    4.070E-01    4.103E-01    4.135E-01    4.167E-01    4.200E-01    4.232E-01    4.264E-01    4.297E-01    4.329E-01
     4.361E-01    4.394E-01    4.426E-01    4.458E-01    4.491E-01    4.523E-01    4.555E-01    4.588E-01    4.620E-01    4.652E-01
     4.685E-01    4.717E-01    4.749E-01    4.782E-01    4.814E-01    4.846E-01    4.878E-01    4.911E-01    4.943E-01    4.975E-01
     5.008E-01    5.040E-01    5.072E-01    5.105E-01    5.137E-01    5.169E-01    5.202E-01    5.234E-01    5.266E-01    5.299E-01
     5.331E-01    5.363E-01    5.396E-01    5.428E-01    5.460E-01    5.493E-01    5.525E-01    5.557E-01    5.590E-01    5.622E-01
     5.654E-01    5.687E-01    5.719E-01    5.751E-01    5.784E-01    5.816E-01    5.848E-01    5.881E-01    5.913E-01    5.945E-01
     5.978E-01    6.010E-01    6.042E-01    6.075E-01    6.107E-01    6.139E-01    6.172E-01    6.204E-01    6.236E-01    6.269E-01
     6.301E-01    6.333E-01    6.366E-01    6.398E-01    6.430E-01    6.463E-01    6.495E-01    6.527E-01    6.559E-01    6.592E-01
     6.624E-01    6.656E-01    6.689E-01    6.721E-01    6.753E-01    6.786E-01    6.818E-01    6.850E-01    6.883E-01    6.915E-01
     6.947E-01    6.980E-01    7.012E-01    7.044E-01    7.077E-01    7.109E-01    7.141E-01    7.174E-01    7.206E-01    7.238E-01
     7.271E-01    7.303E-01    7.335E-01    7.368E-01    7.400E-01    7.432E-01    7.465E-01    7.497E-01    7.529E-01    7.562E-01
     7.594E-01    7.626E-01    7.659E-01    7.691E-01    7.723E-01    7.756E-01    7.788E-01    7.820E-01    7.853E-01    7.885E-01
     7.917E-01    7.950E-01    7.982E-01    8.014E-01    8.047E-01    8.079E-01    8.111E-01    8.143E-01
 Ala      Conc. = 4.46E+01
