 LCModel (Version 6.3-1L) Copyright: S.W. Provencher.          Ref.: Magn. Reson. Med. 30:672-679 (1993).                
 Slice#3 Row#7 Col#12  PD_05_press_1_raw_act
 36 lines in following concentration table = NCONC+1
    Conc.  %SD /Cr+PCr  Metabolite                                         
   51.121  81%   0.222 Ala                                                 
   60.758  98%   0.264 Asp                                                 
    0.000 999%   0.000 Cr                                                  
  230.530  10%   1.000 PCr                                                 
    2.473 999% 1.1E-02 GABA                                                
   36.486 103%   0.158 Glc                                                 
  276.675  30%   1.200 Gln                                                 
  535.324  19%   2.322 Glu                                                 
   51.270  15%   0.222 GPC                                                 
    0.000 999%   0.000 PCh                                                 
   20.658 136% 9.0E-02 GSH                                                 
  100.776  97%   0.437 Ins                                                 
  184.225  32%   0.799 Lac                                                 
  717.677   4%   3.113 NAA                                                 
    0.000 999%   0.000 NAAG                                                
   24.512  37%   0.106 Scyllo                                              
   68.116  88%   0.295 Tau                                                 
  193.784  19%   0.841 -CrCH2                                              
   51.270  15%   0.222 GPC+PCh                                             
  717.677   4%   3.113 NAA+NAAG                                            
  230.530  10%   1.000 Cr+PCr                                              
  811.999  17%   3.522 Glu+Gln                                             
 2.62E+04   6% 113.535 Lip13a                                              
  430.848  20%   1.869 Lip13b                                              
  723.178  32%   3.137 Lip09                                               
    0.000 999%   0.000 MM09                                                
    0.000 999%   0.000 Lip20                                               
    0.000 999%   0.000 MM20                                                
   10.601 696% 4.6E-02 MM12                                                
  697.693  32%   3.026 MM14                                                
    0.000 999%   0.000 MM17                                                
 2.66E+04   6% 115.404 Lip13a+Lip13b                                       
 2.73E+04   6% 118.476 MM14+Lip13a+Lip13b+MM12                             
  723.178  32%   3.137 MM09+Lip09                                          
    0.000 999%   0.000 MM20+Lip20                                          
   6 lines in following misc. output table
  FWHM = 0.046 ppm    S/N =  17                                            
  Data shift =-0.008 ppm                                                   
  Ph:-107 deg     -63.3 deg/ppm                                            
  alphaB,S = 1.2E+00,   3.4E+01                                            
   14 spline knots.   Ns = 9(1)                                            
  ( 8) 2 infls.   ( 6) 1 extrs.                                            
  498 points on ppm-axis = NY
      4.000000     3.992357     3.984714     3.977070     3.969427     3.961784     3.954141     3.946497     3.938854     3.931211
      3.923568     3.915925     3.908281     3.900638     3.892995     3.885352     3.877708     3.870065     3.862422     3.854779
      3.847136     3.839492     3.831849     3.824206     3.816563     3.808919     3.801276     3.793633     3.785990     3.778347
      3.770703     3.763060     3.755417     3.747774     3.740130     3.732487     3.724844     3.717201     3.709558     3.701914
      3.694271     3.686628     3.678985     3.671341     3.663698     3.656055     3.648412     3.640769     3.633125     3.625482
      3.617839     3.610196     3.602552     3.594909     3.587266     3.579623     3.571980     3.564336     3.556693     3.549050
      3.541407     3.533763     3.526120     3.518477     3.510834     3.503191     3.495547     3.487904     3.480261     3.472618
      3.464974     3.457331     3.449688     3.442045     3.434402     3.426758     3.419115     3.411472     3.403829     3.396185
      3.388542     3.380899     3.373256     3.365613     3.357969     3.350326     3.342683     3.335040     3.327396     3.319753
      3.312110     3.304467     3.296824     3.289180     3.281537     3.273894     3.266251     3.258607     3.250964     3.243321
      3.235678     3.228034     3.220391     3.212748     3.205105     3.197462     3.189818     3.182175     3.174532     3.166889
      3.159245     3.151602     3.143959     3.136316     3.128673     3.121029     3.113386     3.105743     3.098100     3.090456
      3.082813     3.075170     3.067527     3.059884     3.052240     3.044597     3.036954     3.029311     3.021667     3.014024
      3.006381     2.998738     2.991095     2.983451     2.975808     2.968165     2.960522     2.952878     2.945235     2.937592
      2.929949     2.922306     2.914662     2.907019     2.899376     2.891733     2.884089     2.876446     2.868803     2.861160
      2.853517     2.845873     2.838230     2.830587     2.822944     2.815300     2.807657     2.800014     2.792371     2.784728
      2.777084     2.769441     2.761798     2.754155     2.746511     2.738868     2.731225     2.723582     2.715939     2.708295
      2.700652     2.693009     2.685366     2.677722     2.670079     2.662436     2.654793     2.647150     2.639506     2.631863
      2.624220     2.616577     2.608933     2.601290     2.593647     2.586004     2.578361     2.570717     2.563074     2.555431
      2.547788     2.540144     2.532501     2.524858     2.517215     2.509572     2.501928     2.494285     2.486642     2.478999
      2.471355     2.463712     2.456069     2.448426     2.440783     2.433139     2.425496     2.417853     2.410210     2.402566
      2.394923     2.387280     2.379637     2.371994     2.364350     2.356707     2.349064     2.341421     2.333777     2.326134
      2.318491     2.310848     2.303205     2.295561     2.287918     2.280275     2.272632     2.264988     2.257345     2.249702
      2.242059     2.234416     2.226772     2.219129     2.211486     2.203843     2.196199     2.188556     2.180913     2.173270
      2.165627     2.157983     2.150340     2.142697     2.135054     2.127410     2.119767     2.112124     2.104481     2.096838
      2.089194     2.081551     2.073908     2.066265     2.058621     2.050978     2.043335     2.035692     2.028049     2.020405
      2.012762     2.005119     1.997476     1.989833     1.982190     1.974546     1.966903     1.959260     1.951617     1.943974
      1.936331     1.928688     1.921045     1.913402     1.905759     1.898115     1.890472     1.882829     1.875186     1.867543
      1.859900     1.852257     1.844614     1.836971     1.829327     1.821684     1.814041     1.806398     1.798755     1.791112
      1.783469     1.775826     1.768183     1.760540     1.752896     1.745253     1.737610     1.729967     1.722324     1.714681
      1.707038     1.699395     1.691752     1.684108     1.676465     1.668822     1.661179     1.653536     1.645893     1.638250
      1.630607     1.622964     1.615321     1.607677     1.600034     1.592391     1.584748     1.577105     1.569462     1.561819
      1.554176     1.546533     1.538890     1.531246     1.523603     1.515960     1.508317     1.500674     1.493031     1.485388
      1.477745     1.470102     1.462458     1.454815     1.447172     1.439529     1.431886     1.424243     1.416600     1.408957
      1.401314     1.393671     1.386027     1.378384     1.370741     1.363098     1.355455     1.347812     1.340169     1.332526
      1.324883     1.317240     1.309596     1.301953     1.294310     1.286667     1.279024     1.271381     1.263738     1.256095
      1.248452     1.240808     1.233165     1.225522     1.217879     1.210236     1.202593     1.194950     1.187307     1.179664
      1.172021     1.164377     1.156734     1.149091     1.141448     1.133805     1.126162     1.118519     1.110876     1.103233
      1.095590     1.087946     1.080303     1.072660     1.065017     1.057374     1.049731     1.042088     1.034445     1.026802
      1.019158     1.011515     1.003872     0.996229     0.988586     0.980943     0.973300     0.965657     0.958014     0.950371
      0.942727     0.935084     0.927441     0.919798     0.912155     0.904512     0.896869     0.889226     0.881583     0.873940
      0.866296     0.858653     0.851010     0.843367     0.835724     0.828081     0.820438     0.812795     0.805152     0.797508
      0.789865     0.782222     0.774579     0.766936     0.759293     0.751650     0.744007     0.736364     0.728721     0.721077
      0.713434     0.705791     0.698148     0.690505     0.682862     0.675219     0.667576     0.659933     0.652290     0.644646
      0.637003     0.629360     0.621717     0.614074     0.606431     0.598788     0.591145     0.583502     0.575858     0.568215
      0.560572     0.552929     0.545286     0.537643     0.530000     0.522357     0.514714     0.507071     0.499427     0.491784
      0.484141     0.476498     0.468855     0.461212     0.453569     0.445925     0.438282     0.430639     0.422996     0.415353
      0.407710     0.400067     0.392424     0.384780     0.377137     0.369494     0.361851     0.354208     0.346565     0.338922
      0.331278     0.323635     0.315992     0.308349     0.300706     0.293063     0.285420     0.277777     0.270133     0.262490
      0.254847     0.247204     0.239561     0.231918     0.224275     0.216631     0.208988     0.201345
 NY phased data points follow
   1.34902E+01  1.66493E+01  1.62650E+01  1.57530E+01  1.55089E+01  1.55480E+01  1.57322E+01  1.68093E+01  1.57810E+01  1.55222E+01
   1.59996E+01  1.52203E+01  1.74831E+01  1.53128E+01  1.63299E+01  1.64221E+01  1.52919E+01  1.36131E+01  1.39466E+01  1.71025E+01
   1.53907E+01  1.76902E+01  1.62401E+01  1.68390E+01  1.69602E+01  1.78272E+01  1.65160E+01  1.77986E+01  1.70596E+01  1.88905E+01
   1.88259E+01  1.61552E+01  1.70953E+01  1.85341E+01  1.76296E+01  1.76606E+01  1.77160E+01  1.76304E+01  1.99066E+01  1.96456E+01
   1.79172E+01  1.90957E+01  1.87057E+01  2.16511E+01  1.78757E+01  1.73294E+01  2.00391E+01  1.95792E+01  1.89760E+01  1.98108E+01
   1.91866E+01  1.85328E+01  2.00045E+01  2.01976E+01  1.83772E+01  1.77993E+01  1.91056E+01  1.91720E+01  2.08758E+01  1.77646E+01
   1.99364E+01  2.12901E+01  1.87733E+01  1.89078E+01  1.82819E+01  1.89332E+01  1.96252E+01  1.90262E+01  2.03486E+01  1.92366E+01
   2.05180E+01  1.98208E+01  1.94027E+01  2.13190E+01  2.07034E+01  2.10969E+01  1.98135E+01  2.03738E+01  1.90993E+01  2.08372E+01
   2.03030E+01  1.94647E+01  1.91894E+01  2.19470E+01  2.02065E+01  2.02045E+01  2.21131E+01  2.43342E+01  2.15439E+01  2.17974E+01
   2.15888E+01  2.17640E+01  2.21141E+01  2.24913E+01  2.33494E+01  2.25298E+01  2.20416E+01  2.34672E+01  2.18238E+01  2.11324E+01
   2.39501E+01  2.58356E+01  2.52761E+01  2.59234E+01  2.69923E+01  2.68519E+01  2.60093E+01  2.44196E+01  2.17547E+01  2.15515E+01
   2.10588E+01  2.09407E+01  1.97989E+01  2.13584E+01  2.34167E+01  2.40003E+01  2.34391E+01  2.45254E+01  2.25784E+01  2.12816E+01
   2.29516E+01  2.39320E+01  2.42680E+01  2.34357E+01  2.46963E+01  2.68934E+01  2.76690E+01  3.12338E+01  3.19859E+01  3.11027E+01
   2.99735E+01  2.69225E+01  2.47191E+01  2.37347E+01  2.19462E+01  2.13013E+01  2.22102E+01  2.14567E+01  2.25068E+01  2.19553E+01
   2.29634E+01  2.22684E+01  2.23644E+01  2.36931E+01  2.16489E+01  2.51043E+01  2.56056E+01  2.42970E+01  2.34875E+01  2.46494E+01
   2.14445E+01  2.38232E+01  2.37040E+01  2.30608E+01  2.55373E+01  2.26486E+01  2.40886E+01  2.44421E+01  2.57651E+01  2.64193E+01
   2.70094E+01  2.60373E+01  2.48677E+01  2.48050E+01  2.44612E+01  2.57452E+01  2.41349E+01  2.27749E+01  2.51639E+01  2.59508E+01
   2.49505E+01  2.49547E+01  2.64447E+01  2.68727E+01  2.64772E+01  2.41072E+01  2.55348E+01  2.44113E+01  2.65353E+01  2.50449E+01
   2.55964E+01  2.64484E+01  2.69914E+01  2.77036E+01  2.80544E+01  2.78077E+01  2.93448E+01  2.73797E+01  2.76686E+01  2.84257E+01
   2.83693E+01  3.19582E+01  3.09435E+01  2.97776E+01  2.95357E+01  3.04705E+01  3.12905E+01  3.09452E+01  3.09157E+01  3.05644E+01
   3.19435E+01  3.23058E+01  3.34575E+01  3.18579E+01  3.50802E+01  3.48932E+01  3.48982E+01  3.65879E+01  3.47875E+01  3.36109E+01
   3.22532E+01  3.48958E+01  3.33224E+01  3.48869E+01  3.78956E+01  4.03497E+01  4.01689E+01  4.07180E+01  4.10794E+01  4.02846E+01
   3.97489E+01  3.91120E+01  3.69938E+01  3.71808E+01  3.80830E+01  3.64027E+01  3.70609E+01  3.88959E+01  4.05433E+01  4.19686E+01
   4.15625E+01  4.14913E+01  4.27761E+01  4.37281E+01  4.15414E+01  4.23554E+01  4.34635E+01  4.20992E+01  4.34137E+01  4.13878E+01
   4.04769E+01  4.24338E+01  4.28314E+01  4.09617E+01  4.18455E+01  4.15049E+01  4.17183E+01  4.38575E+01  4.24990E+01  4.39650E+01
   4.56382E+01  4.38533E+01  4.66922E+01  4.43551E+01  4.55993E+01  4.68644E+01  4.83620E+01  5.15262E+01  5.30765E+01  6.07223E+01
   6.52963E+01  6.98756E+01  7.39603E+01  7.35878E+01  7.12991E+01  6.64077E+01  6.23517E+01  5.76827E+01  5.67559E+01  5.28117E+01
   5.22538E+01  5.30572E+01  5.42115E+01  5.28210E+01  5.44260E+01  5.33584E+01  5.46293E+01  5.58029E+01  5.41463E+01  5.44033E+01
   5.57636E+01  5.28484E+01  5.44998E+01  5.37748E+01  5.28105E+01  5.38374E+01  5.54270E+01  5.59049E+01  5.48736E+01  5.40350E+01
   5.70278E+01  5.46630E+01  5.62484E+01  5.70328E+01  5.74645E+01  5.74011E+01  5.66162E+01  5.81446E+01  5.89523E+01  6.00233E+01
   5.90928E+01  5.95896E+01  5.93061E+01  6.02373E+01  6.11967E+01  6.39466E+01  6.18892E+01  6.29021E+01  6.22657E+01  6.54962E+01
   6.42987E+01  6.61921E+01  6.76996E+01  6.60382E+01  6.77976E+01  6.81020E+01  7.03564E+01  6.98629E+01  7.17747E+01  7.38007E+01
   7.30661E+01  7.62293E+01  7.56530E+01  7.69411E+01  7.60135E+01  7.79665E+01  7.94066E+01  7.76750E+01  7.91411E+01  8.05903E+01
   8.02937E+01  8.12921E+01  8.18503E+01  8.18312E+01  8.33921E+01  8.27344E+01  8.42225E+01  8.40017E+01  8.44398E+01  8.63808E+01
   8.74939E+01  8.77072E+01  9.00955E+01  8.92169E+01  9.22388E+01  9.33701E+01  9.44338E+01  9.56743E+01  9.68234E+01  9.81891E+01
   9.64071E+01  9.37337E+01  9.41441E+01  9.54520E+01  9.54179E+01  9.74737E+01  9.56546E+01  9.40383E+01  9.65526E+01  9.25122E+01
   9.23467E+01  9.21845E+01  9.06873E+01  8.86517E+01  8.71782E+01  8.72243E+01  8.72246E+01  8.58547E+01  8.36903E+01  8.32113E+01
   8.11102E+01  8.19740E+01  7.98510E+01  7.85361E+01  7.69089E+01  7.89481E+01  7.58600E+01  7.39929E+01  7.20017E+01  7.10915E+01
   7.12246E+01  7.08310E+01  7.08727E+01  6.62208E+01  6.82212E+01  6.57157E+01  6.61238E+01  6.80599E+01  6.25415E+01  6.22872E+01
   6.15892E+01  6.11330E+01  5.99894E+01  5.85536E+01  5.84612E+01  5.84824E+01  5.65420E+01  5.54689E+01  5.48053E+01  5.60051E+01
   5.61480E+01  5.51576E+01  5.38559E+01  5.44053E+01  5.22701E+01  5.31966E+01  5.31275E+01  5.24563E+01  5.11425E+01  5.28644E+01
   5.21538E+01  5.00308E+01  5.12368E+01  4.88040E+01  4.84088E+01  4.91528E+01  4.71933E+01  4.85191E+01  4.57231E+01  4.74153E+01
   4.61645E+01  4.46836E+01  4.31648E+01  4.20415E+01  4.51080E+01  4.05774E+01  4.05098E+01  4.21535E+01  4.23669E+01  3.98760E+01
   4.02712E+01  4.06189E+01  3.84800E+01  3.73532E+01  3.76296E+01  3.89416E+01  3.65572E+01  3.57692E+01  3.74721E+01  3.67972E+01
   3.73798E+01  3.53533E+01  3.39190E+01  3.60605E+01  3.48443E+01  3.27427E+01  3.31934E+01  3.23748E+01  3.13763E+01  3.33998E+01
   3.14983E+01  3.14848E+01  3.04460E+01  3.24685E+01  3.02628E+01  2.79738E+01  3.09567E+01  3.01340E+01  2.91557E+01  2.75971E+01
   2.96151E+01  2.83236E+01  2.73903E+01  2.73696E+01  2.88619E+01  2.74505E+01  2.78887E+01  2.50776E+01  2.41984E+01  2.39801E+01
   2.52866E+01  2.41542E+01  2.27746E+01  2.45481E+01  2.32480E+01  2.44625E+01  2.39337E+01  2.23495E+01  2.15528E+01  2.06412E+01
   2.50567E+01  2.26374E+01  2.23664E+01  2.14763E+01  2.07301E+01  2.13882E+01  2.09702E+01  2.21872E+01  2.11167E+01  2.02293E+01
   2.03008E+01  1.90483E+01  1.92897E+01  1.93272E+01  1.83407E+01  1.85865E+01  1.86400E+01  1.94113E+01
 NY points of the fit to the data follow
   1.46855E+01  1.46733E+01  1.48539E+01  1.50427E+01  1.52146E+01  1.55369E+01  1.60386E+01  1.64483E+01  1.66523E+01  1.67365E+01
   1.66646E+01  1.64045E+01  1.60922E+01  1.59106E+01  1.59336E+01  1.60504E+01  1.60938E+01  1.61179E+01  1.62109E+01  1.63408E+01
   1.64930E+01  1.66804E+01  1.68809E+01  1.70730E+01  1.72114E+01  1.72745E+01  1.72004E+01  1.70089E+01  1.68622E+01  1.68648E+01
   1.70686E+01  1.75178E+01  1.81744E+01  1.88476E+01  1.92944E+01  1.93790E+01  1.91364E+01  1.86569E+01  1.81134E+01  1.77104E+01
   1.75438E+01  1.76250E+01  1.78795E+01  1.81986E+01  1.85073E+01  1.87799E+01  1.90256E+01  1.92483E+01  1.94203E+01  1.95078E+01
   1.94963E+01  1.93878E+01  1.92233E+01  1.90619E+01  1.89509E+01  1.89007E+01  1.88943E+01  1.89265E+01  1.89993E+01  1.91021E+01
   1.92238E+01  1.93371E+01  1.94253E+01  1.94831E+01  1.95047E+01  1.95122E+01  1.95370E+01  1.95797E+01  1.96234E+01  1.96847E+01
   1.97731E+01  1.98668E+01  1.99649E+01  2.00966E+01  2.02527E+01  2.03929E+01  2.05008E+01  2.05573E+01  2.05226E+01  2.04277E+01
   2.03871E+01  2.04188E+01  2.04977E+01  2.06606E+01  2.09652E+01  2.13647E+01  2.17280E+01  2.19942E+01  2.21247E+01  2.20777E+01
   2.18613E+01  2.15546E+01  2.12910E+01  2.11155E+01  2.08742E+01  2.06981E+01  2.08297E+01  2.11473E+01  2.15259E+01  2.21504E+01
   2.32173E+01  2.44643E+01  2.55414E+01  2.63284E+01  2.66511E+01  2.63404E+01  2.54825E+01  2.44164E+01  2.35264E+01  2.29373E+01
   2.24771E+01  2.20931E+01  2.18503E+01  2.17562E+01  2.17472E+01  2.17626E+01  2.17857E+01  2.17919E+01  2.16327E+01  2.15423E+01
   2.18283E+01  2.22850E+01  2.27568E+01  2.35713E+01  2.50948E+01  2.69853E+01  2.86899E+01  2.99888E+01  3.05881E+01  3.01895E+01
   2.89029E+01  2.72656E+01  2.58742E+01  2.49360E+01  2.42059E+01  2.35926E+01  2.31879E+01  2.30155E+01  2.29954E+01  2.30386E+01
   2.31189E+01  2.32131E+01  2.33103E+01  2.34107E+01  2.35150E+01  2.36194E+01  2.37214E+01  2.38195E+01  2.39057E+01  2.39759E+01
   2.40401E+01  2.41125E+01  2.42003E+01  2.43116E+01  2.44365E+01  2.45412E+01  2.46296E+01  2.47095E+01  2.47739E+01  2.48092E+01
   2.47991E+01  2.47765E+01  2.47982E+01  2.49188E+01  2.51416E+01  2.54198E+01  2.57040E+01  2.59252E+01  2.60399E+01  2.60774E+01
   2.60629E+01  2.60451E+01  2.60741E+01  2.61249E+01  2.61475E+01  2.61347E+01  2.61724E+01  2.63087E+01  2.65188E+01  2.67755E+01
   2.70496E+01  2.72962E+01  2.75060E+01  2.77042E+01  2.79235E+01  2.81829E+01  2.84693E+01  2.87849E+01  2.91328E+01  2.95300E+01
   3.00041E+01  3.05088E+01  3.09376E+01  3.12118E+01  3.13765E+01  3.15560E+01  3.17616E+01  3.19735E+01  3.22702E+01  3.26780E+01
   3.31624E+01  3.37043E+01  3.43368E+01  3.49289E+01  3.53655E+01  3.56142E+01  3.55783E+01  3.51514E+01  3.43990E+01  3.36355E+01
   3.31747E+01  3.30800E+01  3.33971E+01  3.42281E+01  3.55502E+01  3.70674E+01  3.83397E+01  3.91727E+01  3.95582E+01  3.93363E+01
   3.84431E+01  3.71858E+01  3.61125E+01  3.55602E+01  3.55427E+01  3.60395E+01  3.70611E+01  3.84040E+01  3.96959E+01  4.06020E+01
   4.11344E+01  4.14732E+01  4.16514E+01  4.16447E+01  4.15965E+01  4.16759E+01  4.18873E+01  4.22078E+01  4.26516E+01  4.31590E+01
   4.35556E+01  4.37071E+01  4.36457E+01  4.35034E+01  4.33955E+01  4.33841E+01  4.35475E+01  4.39010E+01  4.43493E+01  4.47722E+01
   4.51681E+01  4.55868E+01  4.57857E+01  4.55500E+01  4.60624E+01  4.75810E+01  4.92196E+01  5.10804E+01  5.44939E+01  5.98325E+01
   6.54361E+01  7.01286E+01  7.32922E+01  7.38638E+01  7.13532E+01  6.66973E+01  6.17753E+01  5.80426E+01  5.54993E+01  5.33767E+01
   5.18201E+01  5.10160E+01  5.08839E+01  5.10422E+01  5.13077E+01  5.16271E+01  5.19693E+01  5.23017E+01  5.26031E+01  5.28684E+01
   5.31157E+01  5.33610E+01  5.36073E+01  5.38589E+01  5.41249E+01  5.44092E+01  5.47071E+01  5.50111E+01  5.53190E+01  5.56324E+01
   5.59509E+01  5.62747E+01  5.66049E+01  5.69435E+01  5.72917E+01  5.76501E+01  5.80197E+01  5.84020E+01  5.87979E+01  5.92079E+01
   5.96333E+01  6.00756E+01  6.05364E+01  6.10172E+01  6.15193E+01  6.20441E+01  6.25927E+01  6.31661E+01  6.37653E+01  6.43914E+01
   6.50449E+01  6.57263E+01  6.64349E+01  6.71701E+01  6.79305E+01  6.87142E+01  6.95187E+01  7.03410E+01  7.11767E+01  7.20171E+01
   7.28788E+01  7.37814E+01  7.46871E+01  7.55750E+01  7.64700E+01  7.73803E+01  7.82486E+01  7.89997E+01  7.96170E+01  8.01451E+01
   8.06122E+01  8.10430E+01  8.15046E+01  8.20956E+01  8.28494E+01  8.36934E+01  8.45842E+01  8.55123E+01  8.64175E+01  8.72185E+01
   8.79910E+01  8.88678E+01  8.97915E+01  9.07441E+01  9.18367E+01  9.31164E+01  9.43588E+01  9.52461E+01  9.57733E+01  9.60340E+01
   9.59737E+01  9.56228E+01  9.52575E+01  9.52091E+01  9.54321E+01  9.56288E+01  9.57072E+01  9.56377E+01  9.52501E+01  9.44183E+01
   9.32078E+01  9.18614E+01  9.05736E+01  8.93370E+01  8.81214E+01  8.69564E+01  8.58658E+01  8.48325E+01  8.38177E+01  8.28022E+01
   8.17768E+01  8.07383E+01  7.96863E+01  7.86228E+01  7.75509E+01  7.64740E+01  7.53961E+01  7.43207E+01  7.32515E+01  7.21920E+01
   7.11453E+01  7.01144E+01  6.91019E+01  6.81102E+01  6.71414E+01  6.61973E+01  6.52797E+01  6.43901E+01  6.35295E+01  6.26989E+01
   6.18991E+01  6.11307E+01  6.03940E+01  5.96890E+01  5.90155E+01  5.83729E+01  5.77603E+01  5.71765E+01  5.66200E+01  5.60886E+01
   5.55800E+01  5.50913E+01  5.46194E+01  5.41609E+01  5.37120E+01  5.32690E+01  5.28278E+01  5.23847E+01  5.19361E+01  5.14787E+01
   5.10095E+01  5.05264E+01  5.00276E+01  4.95122E+01  4.89798E+01  4.84310E+01  4.78668E+01  4.72889E+01  4.66995E+01  4.61013E+01
   4.54972E+01  4.48900E+01  4.42830E+01  4.36788E+01  4.30804E+01  4.24901E+01  4.19101E+01  4.13420E+01  4.07872E+01  4.02467E+01
   3.97210E+01  3.92105E+01  3.87151E+01  3.82345E+01  3.77684E+01  3.73160E+01  3.68767E+01  3.64497E+01  3.60342E+01  3.56293E+01
   3.52342E+01  3.48482E+01  3.44706E+01  3.41005E+01  3.37374E+01  3.33807E+01  3.30298E+01  3.26841E+01  3.23434E+01  3.20071E+01
   3.16750E+01  3.13466E+01  3.10216E+01  3.06999E+01  3.03811E+01  3.00652E+01  2.97518E+01  2.94408E+01  2.91321E+01  2.88256E+01
   2.85211E+01  2.82184E+01  2.79176E+01  2.76185E+01  2.73211E+01  2.70252E+01  2.67309E+01  2.64379E+01  2.61464E+01  2.58562E+01
   2.55673E+01  2.52796E+01  2.49931E+01  2.47079E+01  2.44237E+01  2.41407E+01  2.38588E+01  2.35780E+01  2.32983E+01  2.30196E+01
   2.27419E+01  2.24652E+01  2.21896E+01  2.19150E+01  2.16414E+01  2.13687E+01  2.10971E+01  2.08264E+01  2.05568E+01  2.02881E+01
   2.00205E+01  1.97538E+01  1.94881E+01  1.92235E+01  1.89599E+01  1.86973E+01  1.84358E+01  1.81753E+01
 NY background values follow
     1.425E+01    1.432E+01    1.439E+01    1.446E+01    1.452E+01    1.459E+01    1.466E+01    1.473E+01    1.480E+01    1.487E+01
     1.494E+01    1.501E+01    1.508E+01    1.515E+01    1.522E+01    1.529E+01    1.536E+01    1.543E+01    1.550E+01    1.557E+01
     1.564E+01    1.571E+01    1.578E+01    1.585E+01    1.592E+01    1.598E+01    1.605E+01    1.612E+01    1.619E+01    1.626E+01
     1.633E+01    1.640E+01    1.647E+01    1.653E+01    1.660E+01    1.667E+01    1.674E+01    1.680E+01    1.687E+01    1.694E+01
     1.700E+01    1.707E+01    1.714E+01    1.720E+01    1.727E+01    1.733E+01    1.740E+01    1.746E+01    1.752E+01    1.759E+01
     1.765E+01    1.771E+01    1.778E+01    1.784E+01    1.790E+01    1.796E+01    1.802E+01    1.808E+01    1.814E+01    1.820E+01
     1.826E+01    1.832E+01    1.838E+01    1.843E+01    1.849E+01    1.855E+01    1.860E+01    1.866E+01    1.871E+01    1.877E+01
     1.882E+01    1.888E+01    1.893E+01    1.898E+01    1.903E+01    1.909E+01    1.914E+01    1.919E+01    1.924E+01    1.929E+01
     1.934E+01    1.938E+01    1.943E+01    1.948E+01    1.952E+01    1.957E+01    1.962E+01    1.966E+01    1.970E+01    1.975E+01
     1.979E+01    1.983E+01    1.987E+01    1.991E+01    1.995E+01    1.999E+01    2.003E+01    2.007E+01    2.011E+01    2.015E+01
     2.019E+01    2.022E+01    2.026E+01    2.030E+01    2.034E+01    2.037E+01    2.041E+01    2.045E+01    2.049E+01    2.053E+01
     2.056E+01    2.060E+01    2.064E+01    2.068E+01    2.072E+01    2.076E+01    2.080E+01    2.084E+01    2.089E+01    2.093E+01
     2.097E+01    2.102E+01    2.106E+01    2.111E+01    2.116E+01    2.121E+01    2.126E+01    2.131E+01    2.136E+01    2.141E+01
     2.147E+01    2.152E+01    2.158E+01    2.164E+01    2.170E+01    2.176E+01    2.182E+01    2.188E+01    2.195E+01    2.202E+01
     2.209E+01    2.216E+01    2.223E+01    2.230E+01    2.238E+01    2.246E+01    2.254E+01    2.262E+01    2.270E+01    2.279E+01
     2.288E+01    2.297E+01    2.306E+01    2.315E+01    2.325E+01    2.335E+01    2.345E+01    2.355E+01    2.365E+01    2.376E+01
     2.387E+01    2.398E+01    2.409E+01    2.421E+01    2.433E+01    2.445E+01    2.457E+01    2.469E+01    2.482E+01    2.495E+01
     2.508E+01    2.522E+01    2.536E+01    2.550E+01    2.564E+01    2.579E+01    2.594E+01    2.609E+01    2.624E+01    2.640E+01
     2.656E+01    2.672E+01    2.689E+01    2.705E+01    2.722E+01    2.740E+01    2.757E+01    2.775E+01    2.793E+01    2.812E+01
     2.830E+01    2.849E+01    2.868E+01    2.887E+01    2.906E+01    2.926E+01    2.945E+01    2.965E+01    2.985E+01    3.005E+01
     3.025E+01    3.046E+01    3.066E+01    3.087E+01    3.108E+01    3.129E+01    3.149E+01    3.170E+01    3.191E+01    3.213E+01
     3.234E+01    3.255E+01    3.276E+01    3.297E+01    3.319E+01    3.340E+01    3.361E+01    3.383E+01    3.404E+01    3.425E+01
     3.447E+01    3.468E+01    3.489E+01    3.510E+01    3.531E+01    3.552E+01    3.573E+01    3.594E+01    3.615E+01    3.636E+01
     3.656E+01    3.677E+01    3.697E+01    3.717E+01    3.737E+01    3.757E+01    3.777E+01    3.797E+01    3.817E+01    3.836E+01
     3.856E+01    3.875E+01    3.894E+01    3.913E+01    3.931E+01    3.950E+01    3.968E+01    3.987E+01    4.005E+01    4.022E+01
     4.040E+01    4.057E+01    4.075E+01    4.092E+01    4.109E+01    4.125E+01    4.142E+01    4.158E+01    4.174E+01    4.189E+01
     4.205E+01    4.220E+01    4.235E+01    4.250E+01    4.264E+01    4.278E+01    4.292E+01    4.306E+01    4.319E+01    4.332E+01
     4.345E+01    4.358E+01    4.370E+01    4.382E+01    4.394E+01    4.405E+01    4.416E+01    4.427E+01    4.437E+01    4.447E+01
     4.457E+01    4.467E+01    4.476E+01    4.485E+01    4.494E+01    4.502E+01    4.511E+01    4.518E+01    4.526E+01    4.533E+01
     4.540E+01    4.547E+01    4.554E+01    4.560E+01    4.566E+01    4.571E+01    4.576E+01    4.581E+01    4.586E+01    4.591E+01
     4.595E+01    4.599E+01    4.602E+01    4.606E+01    4.609E+01    4.612E+01    4.614E+01    4.616E+01    4.618E+01    4.620E+01
     4.621E+01    4.623E+01    4.623E+01    4.624E+01    4.624E+01    4.624E+01    4.624E+01    4.624E+01    4.623E+01    4.622E+01
     4.621E+01    4.619E+01    4.617E+01    4.615E+01    4.613E+01    4.610E+01    4.607E+01    4.604E+01    4.601E+01    4.597E+01
     4.594E+01    4.590E+01    4.585E+01    4.581E+01    4.576E+01    4.571E+01    4.566E+01    4.560E+01    4.554E+01    4.548E+01
     4.542E+01    4.536E+01    4.529E+01    4.522E+01    4.515E+01    4.508E+01    4.501E+01    4.493E+01    4.485E+01    4.477E+01
     4.469E+01    4.460E+01    4.452E+01    4.443E+01    4.434E+01    4.424E+01    4.415E+01    4.405E+01    4.395E+01    4.385E+01
     4.375E+01    4.365E+01    4.354E+01    4.343E+01    4.332E+01    4.321E+01    4.310E+01    4.298E+01    4.287E+01    4.275E+01
     4.263E+01    4.251E+01    4.238E+01    4.226E+01    4.213E+01    4.200E+01    4.187E+01    4.174E+01    4.161E+01    4.147E+01
     4.133E+01    4.120E+01    4.106E+01    4.091E+01    4.077E+01    4.063E+01    4.048E+01    4.033E+01    4.018E+01    4.003E+01
     3.988E+01    3.972E+01    3.957E+01    3.941E+01    3.925E+01    3.909E+01    3.893E+01    3.877E+01    3.860E+01    3.844E+01
     3.827E+01    3.810E+01    3.793E+01    3.776E+01    3.758E+01    3.741E+01    3.723E+01    3.705E+01    3.687E+01    3.669E+01
     3.651E+01    3.633E+01    3.614E+01    3.596E+01    3.577E+01    3.558E+01    3.539E+01    3.520E+01    3.501E+01    3.481E+01
     3.462E+01    3.442E+01    3.423E+01    3.403E+01    3.383E+01    3.363E+01    3.342E+01    3.322E+01    3.302E+01    3.281E+01
     3.261E+01    3.240E+01    3.219E+01    3.198E+01    3.177E+01    3.156E+01    3.134E+01    3.113E+01    3.092E+01    3.070E+01
     3.048E+01    3.027E+01    3.005E+01    2.983E+01    2.961E+01    2.938E+01    2.916E+01    2.894E+01    2.872E+01    2.849E+01
     2.826E+01    2.804E+01    2.781E+01    2.758E+01    2.735E+01    2.712E+01    2.689E+01    2.666E+01    2.643E+01    2.620E+01
     2.597E+01    2.573E+01    2.550E+01    2.526E+01    2.503E+01    2.479E+01    2.456E+01    2.432E+01    2.408E+01    2.385E+01
     2.361E+01    2.337E+01    2.313E+01    2.290E+01    2.266E+01    2.242E+01    2.218E+01    2.194E+01    2.170E+01    2.146E+01
     2.122E+01    2.098E+01    2.074E+01    2.050E+01    2.027E+01    2.003E+01    1.979E+01    1.955E+01    1.931E+01    1.907E+01
     1.883E+01    1.859E+01    1.836E+01    1.812E+01    1.788E+01    1.764E+01    1.741E+01    1.717E+01
 Ala      Conc. = 5.11E+01
