 LCModel (Version 6.3-1L) Copyright: S.W. Provencher.          Ref.: Magn. Reson. Med. 30:672-679 (1993).                
 Slice#2 Row#1 Col#10  PD_05_press_1_raw_act
 36 lines in following concentration table = NCONC+1
    Conc.  %SD /Cr+PCr  Metabolite                                         
    1.679 999% 1.8E-02 Ala                                                 
    7.830 104% 8.4E-02 Asp                                                 
    0.000 999%   0.000 Cr                                                  
   93.070  23%   1.000 PCr                                                 
    4.747 103% 5.1E-02 GABA                                                
    4.887 100% 5.3E-02 Glc                                                 
    0.000 999%   0.000 Gln                                                 
    0.000 999%   0.000 Glu                                                 
    0.000 999%   0.000 GPC                                                 
   22.536  35%   0.242 PCh                                                 
   27.692 113%   0.298 GSH                                                 
  376.374  25%   4.044 Ins                                                 
  185.600  34%   1.994 Lac                                                 
    0.000 999%   0.000 NAA                                                 
    0.000 999%   0.000 NAAG                                                
    1.627 100% 1.7E-02 Scyllo                                              
    8.254  98% 8.9E-02 Tau                                                 
    1.028 999% 1.1E-02 -CrCH2                                              
   22.536  35%   0.242 GPC+PCh                                             
    0.000 999%   0.000 NAA+NAAG                                            
   93.070  23%   1.000 Cr+PCr                                              
    0.000 999%   0.000 Glu+Gln                                             
    0.000 999%   0.000 Lip13a                                              
  260.536  16%   2.799 Lip13b                                              
   70.716  28%   0.760 Lip09                                               
   14.646 204%   0.157 MM09                                                
   31.665  42%   0.340 Lip20                                               
    0.000 999%   0.000 MM20                                                
    0.000 999%   0.000 MM12                                                
   79.288  84%   0.852 MM14                                                
    0.000 999%   0.000 MM17                                                
  260.536  16%   2.799 Lip13a+Lip13b                                       
  339.825  20%   3.651 MM14+Lip13a+Lip13b+MM12                             
   85.363  39%   0.917 MM09+Lip09                                          
   31.665  42%   0.340 MM20+Lip20                                          
   6 lines in following misc. output table
  FWHM = 0.061 ppm    S/N =   1                                            
  Data shift =-0.008 ppm                                                   
  Ph: 123 deg     -28.2 deg/ppm                                            
  alphaB,S = 8.5E+01,   5.1E+01                                            
   14 spline knots.   Ns = 6(1)                                            
   2 inflections.     1 extrema                                            
  498 points on ppm-axis = NY
      4.000000     3.992357     3.984714     3.977070     3.969427     3.961784     3.954141     3.946497     3.938854     3.931211
      3.923568     3.915925     3.908281     3.900638     3.892995     3.885352     3.877708     3.870065     3.862422     3.854779
      3.847136     3.839492     3.831849     3.824206     3.816563     3.808919     3.801276     3.793633     3.785990     3.778347
      3.770703     3.763060     3.755417     3.747774     3.740130     3.732487     3.724844     3.717201     3.709558     3.701914
      3.694271     3.686628     3.678985     3.671341     3.663698     3.656055     3.648412     3.640769     3.633125     3.625482
      3.617839     3.610196     3.602552     3.594909     3.587266     3.579623     3.571980     3.564336     3.556693     3.549050
      3.541407     3.533763     3.526120     3.518477     3.510834     3.503191     3.495547     3.487904     3.480261     3.472618
      3.464974     3.457331     3.449688     3.442045     3.434402     3.426758     3.419115     3.411472     3.403829     3.396185
      3.388542     3.380899     3.373256     3.365613     3.357969     3.350326     3.342683     3.335040     3.327396     3.319753
      3.312110     3.304467     3.296824     3.289180     3.281537     3.273894     3.266251     3.258607     3.250964     3.243321
      3.235678     3.228034     3.220391     3.212748     3.205105     3.197462     3.189818     3.182175     3.174532     3.166889
      3.159245     3.151602     3.143959     3.136316     3.128673     3.121029     3.113386     3.105743     3.098100     3.090456
      3.082813     3.075170     3.067527     3.059884     3.052240     3.044597     3.036954     3.029311     3.021667     3.014024
      3.006381     2.998738     2.991095     2.983451     2.975808     2.968165     2.960522     2.952878     2.945235     2.937592
      2.929949     2.922306     2.914662     2.907019     2.899376     2.891733     2.884089     2.876446     2.868803     2.861160
      2.853517     2.845873     2.838230     2.830587     2.822944     2.815300     2.807657     2.800014     2.792371     2.784728
      2.777084     2.769441     2.761798     2.754155     2.746511     2.738868     2.731225     2.723582     2.715939     2.708295
      2.700652     2.693009     2.685366     2.677722     2.670079     2.662436     2.654793     2.647150     2.639506     2.631863
      2.624220     2.616577     2.608933     2.601290     2.593647     2.586004     2.578361     2.570717     2.563074     2.555431
      2.547788     2.540144     2.532501     2.524858     2.517215     2.509572     2.501928     2.494285     2.486642     2.478999
      2.471355     2.463712     2.456069     2.448426     2.440783     2.433139     2.425496     2.417853     2.410210     2.402566
      2.394923     2.387280     2.379637     2.371994     2.364350     2.356707     2.349064     2.341421     2.333777     2.326134
      2.318491     2.310848     2.303205     2.295561     2.287918     2.280275     2.272632     2.264988     2.257345     2.249702
      2.242059     2.234416     2.226772     2.219129     2.211486     2.203843     2.196199     2.188556     2.180913     2.173270
      2.165627     2.157983     2.150340     2.142697     2.135054     2.127410     2.119767     2.112124     2.104481     2.096838
      2.089194     2.081551     2.073908     2.066265     2.058621     2.050978     2.043335     2.035692     2.028049     2.020405
      2.012762     2.005119     1.997476     1.989833     1.982190     1.974546     1.966903     1.959260     1.951617     1.943974
      1.936331     1.928688     1.921045     1.913402     1.905759     1.898115     1.890472     1.882829     1.875186     1.867543
      1.859900     1.852257     1.844614     1.836971     1.829327     1.821684     1.814041     1.806398     1.798755     1.791112
      1.783469     1.775826     1.768183     1.760540     1.752896     1.745253     1.737610     1.729967     1.722324     1.714681
      1.707038     1.699395     1.691752     1.684108     1.676465     1.668822     1.661179     1.653536     1.645893     1.638250
      1.630607     1.622964     1.615321     1.607677     1.600034     1.592391     1.584748     1.577105     1.569462     1.561819
      1.554176     1.546533     1.538890     1.531246     1.523603     1.515960     1.508317     1.500674     1.493031     1.485388
      1.477745     1.470102     1.462458     1.454815     1.447172     1.439529     1.431886     1.424243     1.416600     1.408957
      1.401314     1.393671     1.386027     1.378384     1.370741     1.363098     1.355455     1.347812     1.340169     1.332526
      1.324883     1.317240     1.309596     1.301953     1.294310     1.286667     1.279024     1.271381     1.263738     1.256095
      1.248452     1.240808     1.233165     1.225522     1.217879     1.210236     1.202593     1.194950     1.187307     1.179664
      1.172021     1.164377     1.156734     1.149091     1.141448     1.133805     1.126162     1.118519     1.110876     1.103233
      1.095590     1.087946     1.080303     1.072660     1.065017     1.057374     1.049731     1.042088     1.034445     1.026802
      1.019158     1.011515     1.003872     0.996229     0.988586     0.980943     0.973300     0.965657     0.958014     0.950371
      0.942727     0.935084     0.927441     0.919798     0.912155     0.904512     0.896869     0.889226     0.881583     0.873940
      0.866296     0.858653     0.851010     0.843367     0.835724     0.828081     0.820438     0.812795     0.805152     0.797508
      0.789865     0.782222     0.774579     0.766936     0.759293     0.751650     0.744007     0.736364     0.728721     0.721077
      0.713434     0.705791     0.698148     0.690505     0.682862     0.675219     0.667576     0.659933     0.652290     0.644646
      0.637003     0.629360     0.621717     0.614074     0.606431     0.598788     0.591145     0.583502     0.575858     0.568215
      0.560572     0.552929     0.545286     0.537643     0.530000     0.522357     0.514714     0.507071     0.499427     0.491784
      0.484141     0.476498     0.468855     0.461212     0.453569     0.445925     0.438282     0.430639     0.422996     0.415353
      0.407710     0.400067     0.392424     0.384780     0.377137     0.369494     0.361851     0.354208     0.346565     0.338922
      0.331278     0.323635     0.315992     0.308349     0.300706     0.293063     0.285420     0.277777     0.270133     0.262490
      0.254847     0.247204     0.239561     0.231918     0.224275     0.216631     0.208988     0.201345
 NY phased data points follow
  -9.16376E-01 -2.30011E-01 -2.32810E+00 -1.60073E+00  9.81907E-01 -1.78380E+00 -2.00629E+00  6.29988E-01  1.80574E+00  6.25275E-01
  -4.01527E-01  5.48447E-01  1.28015E+00 -3.90511E-01 -1.37604E+00 -1.84120E+00 -6.07911E-01 -2.14783E+00 -2.59351E+00 -9.57152E-01
  -2.20907E+00  3.76239E-01 -3.31520E+00 -2.07108E+00 -1.72214E+00  1.10502E-01 -9.24217E-01 -3.48490E+00 -7.21367E-01 -5.79544E-01
  -1.19203E+00 -1.54591E-01  2.33850E-02 -1.83344E+00 -1.35206E+00 -2.10265E+00  5.18441E-01 -5.81637E-01 -8.12955E-01  3.87259E-01
  -9.78574E-01 -1.77151E+00 -1.51134E+00 -1.81685E+00 -7.66294E-02  7.36308E-01 -8.10119E-01 -1.18223E+00  4.49967E-01 -2.52056E-01
   9.82831E-01 -1.25151E+00 -6.66942E-01 -2.55243E+00  3.44402E+00 -2.06121E+00  7.11119E-01 -5.24873E-01  1.79312E+00  3.86833E-01
   1.18682E+00  2.77844E-01 -1.70779E+00 -7.58252E-01 -1.94322E+00  1.82778E+00 -7.53680E-01 -1.24713E+00  1.27211E+00 -1.57079E+00
  -1.52499E+00 -1.98745E+00  1.05266E+00 -3.05652E+00 -1.76603E+00 -2.12813E+00  1.17000E+00 -2.71484E+00 -4.46112E-01 -1.56427E-01
  -1.58161E-01 -3.33124E-01 -1.38810E+00 -4.97412E+00 -1.54483E+00 -1.06557E+00 -3.29259E+00 -1.12507E+00 -1.60387E+00 -1.13852E+00
  -1.52460E+00  2.57663E-02 -3.01024E+00 -2.44724E+00  6.56305E-01 -1.43158E+00  1.49957E+00 -4.25546E-01 -3.32751E+00 -1.55273E+00
  -1.34306E+00  2.50419E-01 -2.50939E+00 -2.05885E+00  1.37421E+00 -3.88323E-01  1.00694E+00  6.41509E-01 -3.31255E-01  1.04993E+00
  -1.52557E+00  1.43163E+00 -1.51444E+00 -2.58157E+00  1.00533E-01 -3.85003E+00 -1.32407E+00 -1.98974E+00  9.41799E-02 -3.29756E+00
  -9.07405E-01 -9.22065E-01 -2.64228E+00 -2.01705E+00 -9.21465E-02  2.81358E+00  1.99064E+00 -1.89775E+00  5.18254E-01  2.56549E+00
   7.96049E-01 -5.60643E-01 -2.90645E-01  7.17111E-01 -1.14910E+00 -1.51681E+00  2.92510E-01  6.78764E-01 -1.16472E+00 -4.65065E-01
  -3.03404E+00 -3.57247E+00 -2.91570E+00 -3.57624E-01 -4.18754E+00 -5.11540E-01 -1.29730E-01  2.91428E-01  6.67025E-01 -7.62500E-01
  -2.12428E+00  6.56268E-01  6.44095E-01 -1.47549E+00 -2.11766E+00 -5.11553E+00 -2.40800E+00 -3.47795E+00  1.38593E+00  1.41224E+00
   9.93158E-01 -9.49843E-01 -1.95923E+00 -2.36468E-01 -2.27541E+00 -3.96022E+00 -2.26099E-01 -1.76493E+00  4.62711E-01 -8.78987E-01
  -1.19956E+00 -1.07073E+00 -2.90831E-01  2.34010E+00 -4.13895E-01 -2.87038E+00 -2.76739E+00 -1.66969E+00 -1.98588E+00 -1.13523E+00
  -2.61954E+00 -1.36407E+00 -1.59600E+00 -6.79928E-01 -2.69782E+00 -1.85281E+00 -2.13318E+00 -1.90575E+00 -4.72030E-01 -2.02762E+00
  -3.01043E+00 -2.02008E-01 -1.39158E+00 -6.90302E-01 -4.02652E+00 -1.24305E+00 -1.17014E+00 -2.71929E+00 -1.93884E+00 -2.83336E+00
  -1.64817E+00 -7.19469E-01 -2.97234E+00 -2.68698E+00  8.69665E-01  1.07922E+00 -4.17681E+00 -1.18979E+00 -2.24778E+00  1.81241E+00
   5.51779E-02 -2.83913E+00 -6.24816E-01 -2.27032E+00 -1.76450E+00 -1.69180E+00 -5.24542E+00 -3.80870E+00 -2.44564E+00 -1.42627E+00
  -1.65442E+00 -2.16337E+00 -2.68621E+00 -9.98801E-01 -8.50413E-01 -1.26500E+00 -1.88978E+00 -2.33818E+00  4.07823E-01 -2.22920E+00
  -3.43605E+00  4.93810E-01 -2.18292E+00 -2.78759E+00 -1.04721E+00 -2.23871E+00 -1.70796E+00 -7.33585E-01 -1.88704E+00 -4.77155E-01
  -7.28593E-01 -7.50275E-01 -1.97337E+00 -7.69274E-01 -1.78177E+00 -2.44879E+00 -1.92981E+00 -3.31959E+00 -2.47483E+00 -2.04663E+00
  -1.39787E+00 -3.60443E+00 -1.20509E+00 -5.45169E+00 -3.13847E+00 -2.48040E+00 -3.33933E+00 -4.91227E+00 -5.57390E+00 -2.12375E+00
  -2.61894E+00 -2.08022E+00  9.50332E-02  8.91457E-01 -5.71096E-01  1.00794E-01 -3.72390E+00  8.49241E-01 -1.66896E+00  1.74901E-02
   4.78584E-01 -1.53736E+00 -1.27966E+00 -2.68133E+00  2.48422E-01  1.38301E+00 -9.22418E-01 -3.00795E-01 -1.51159E+00 -2.05747E-01
  -2.26448E+00 -1.63923E+00  7.12118E-02  3.36320E+00 -3.76458E-01 -6.31720E-01 -9.40985E-01 -1.16989E+00 -8.96518E-01  2.38737E+00
   5.86130E-02 -2.78368E+00 -1.94358E+00 -8.23506E-01 -1.01537E+00 -1.47204E+00  5.95668E-01 -5.11579E-01 -6.53868E-01  1.17954E+00
  -2.12052E+00 -3.39068E+00 -6.81838E-01 -1.49417E+00 -1.20502E+00  2.20490E+00 -4.91047E-01  4.93058E-01 -9.59019E-01 -1.08411E+00
   8.52065E-01 -1.91430E+00 -1.75399E+00  9.31386E-01 -4.31743E+00 -9.14221E-01 -2.59112E+00 -2.97799E+00  3.91925E-01 -2.02754E+00
  -1.63291E-01  1.80409E+00 -1.26906E+00 -3.46834E-02 -5.97956E-01 -1.62306E+00  5.62909E-01 -1.21599E+00  2.83363E-01 -1.44542E+00
   2.65001E-01  2.17237E-01  8.85444E-01  2.59797E+00 -1.49508E+00  5.40807E-01  3.13358E+00 -5.10786E-01 -3.28237E-01  1.90704E+00
   1.96783E+00  1.88424E+00  4.75636E+00 -8.97321E-01  1.71581E+00  2.81680E+00  4.58753E+00  9.00445E-01  4.43499E+00  2.54447E+00
   1.53288E+00  2.27034E+00  1.54683E-01  3.35986E+00  4.06300E+00  1.83388E+00  1.87431E+00  3.09109E+00  4.31970E+00  1.65591E+00
   2.46381E+00  2.68693E+00  3.58395E+00  1.25546E+00  3.68723E+00 -9.76630E-02  9.26410E-01  2.57761E-01 -3.18424E+00 -5.30449E+00
  -3.21479E+00 -2.68859E+00 -8.14916E-01 -3.10395E+00 -2.51146E+00 -2.54880E+00 -3.58507E+00 -3.01560E+00 -7.20944E-01  8.43773E-03
  -6.72184E-01  1.03574E+00 -4.62128E-01  1.83938E-01  4.11339E-01  1.31654E+00  6.22644E-01  2.07532E+00 -2.19281E+00  3.81734E-02
  -5.45162E-01 -1.19554E-01  1.04004E+00  1.01233E+00  3.97134E-01  2.99190E-01  1.85794E-01  1.30281E+00 -7.54213E-01 -9.78288E-03
  -2.77143E-01 -1.28127E-02 -4.43999E-01  1.12800E+00  1.20547E+00  8.10098E-02  8.94227E-01  8.82019E-01  7.09880E-01  3.46646E-01
  -1.31452E-01  1.45395E+00  1.90424E+00  1.00513E+00  9.04348E-01  8.39281E-01 -1.71585E+00  2.08688E+00 -4.11552E-02  2.22228E-01
  -6.08880E-02  3.30890E+00 -2.05549E+00  2.04653E-01  3.54284E-02 -3.29033E-01 -3.70019E+00 -1.10443E+00  9.99849E-01 -2.14857E+00
  -1.50398E+00  1.32014E+00 -1.85692E-01  1.26217E+00 -1.35437E-01 -1.23852E+00  4.45506E-01  2.37272E-01  2.19881E+00  3.02946E+00
   7.84087E-01  1.04822E+00  2.89915E+00  3.54654E-01  1.34265E+00  4.57135E-01  2.05566E+00  2.36197E+00  1.44750E+00  1.20699E-01
  -1.59741E+00 -3.11329E-01  4.74732E-02  1.52424E+00 -6.05314E-01 -7.16094E-01  1.27185E+00  6.08114E-01  1.46862E+00  1.77315E+00
   9.22548E-01  3.61900E+00  3.24782E-01  3.44161E+00 -8.56566E-01  2.10692E+00  2.75643E-01  2.88187E+00  1.61084E-01  1.38678E+00
  -3.79107E-02 -9.15250E-01 -2.37081E+00  2.42177E+00  2.75037E+00  1.88609E+00  9.24853E-01  1.20005E+00  1.04063E+00  1.32522E+00
   9.11314E-02  1.33745E+00  1.76980E+00  1.27996E-01  6.64562E-01  4.42350E-01 -9.90479E-01  6.33591E-03 -1.80479E+00 -2.89899E+00
   1.18441E+00 -6.07036E-01 -9.19124E-01  9.89505E-01  4.02139E-01  8.13858E-01  2.09968E+00 -5.00504E-01
 NY points of the fit to the data follow
  -1.19868E+00 -1.42275E+00 -1.57158E+00 -1.58027E+00 -1.39394E+00 -1.09346E+00 -7.60029E-01 -4.58081E-01 -2.37176E-01 -1.00320E-01
  -2.79538E-02 -3.73983E-02 -1.60899E-01 -3.98210E-01 -7.20259E-01 -1.09329E+00 -1.45076E+00 -1.65777E+00 -1.70856E+00 -1.71870E+00
  -1.71937E+00 -1.71659E+00 -1.70983E+00 -1.69158E+00 -1.63811E+00 -1.54236E+00 -1.41931E+00 -1.28227E+00 -1.15191E+00 -1.04444E+00
  -9.54759E-01 -8.68123E-01 -7.90679E-01 -7.54544E-01 -7.77934E-01 -8.62763E-01 -1.00730E+00 -1.18025E+00 -1.31307E+00 -1.40064E+00
  -1.46101E+00 -1.42650E+00 -1.23341E+00 -8.98926E-01 -4.89024E-01 -7.57587E-02  2.60145E-01  4.50769E-01  5.00707E-01  4.22052E-01
   1.96357E-01 -1.79294E-01 -6.57702E-01 -1.15024E+00 -1.53163E+00 -1.64257E+00 -1.46013E+00 -1.14972E+00 -8.70095E-01 -6.77885E-01
  -5.75316E-01 -5.48000E-01 -5.87577E-01 -6.77642E-01 -7.98403E-01 -9.36753E-01 -1.05813E+00 -1.10511E+00 -1.05739E+00 -9.34465E-01
  -7.78703E-01 -6.45970E-01 -5.57552E-01 -5.21814E-01 -5.40411E-01 -5.97530E-01 -6.78653E-01 -7.67418E-01 -8.63387E-01 -9.47822E-01
  -1.00277E+00 -1.06474E+00 -1.16345E+00 -1.30671E+00 -1.48207E+00 -1.66786E+00 -1.83761E+00 -1.97106E+00 -2.05812E+00 -2.09228E+00
  -2.05837E+00 -1.95847E+00 -1.81182E+00 -1.64013E+00 -1.47982E+00 -1.37874E+00 -1.34370E+00 -1.30849E+00 -1.19587E+00 -1.01745E+00
  -7.88541E-01 -5.45745E-01 -3.39844E-01 -1.85244E-01 -5.35948E-02  2.38414E-02 -1.28385E-02 -1.79345E-01 -4.50881E-01 -7.93484E-01
  -1.15000E+00 -1.38725E+00 -1.45281E+00 -1.46542E+00 -1.46712E+00 -1.46889E+00 -1.47117E+00 -1.47402E+00 -1.47387E+00 -1.46232E+00
  -1.40927E+00 -1.21437E+00 -8.50915E-01 -3.77817E-01  1.43163E-01  6.15120E-01  9.58212E-01  1.18040E+00  1.30633E+00  1.29743E+00
   1.10377E+00  7.28492E-01  2.14691E-01 -3.81224E-01 -9.33828E-01 -1.23449E+00 -1.32480E+00 -1.36152E+00 -1.37857E+00 -1.38148E+00
  -1.37077E+00 -1.34316E+00 -1.29926E+00 -1.25540E+00 -1.22550E+00 -1.21369E+00 -1.22010E+00 -1.23818E+00 -1.25856E+00 -1.27748E+00
  -1.28899E+00 -1.29607E+00 -1.30077E+00 -1.30327E+00 -1.30358E+00 -1.30278E+00 -1.30155E+00 -1.29871E+00 -1.29449E+00 -1.29005E+00
  -1.28618E+00 -1.28262E+00 -1.27900E+00 -1.27524E+00 -1.27032E+00 -1.26358E+00 -1.25576E+00 -1.24751E+00 -1.23935E+00 -1.23110E+00
  -1.22334E+00 -1.21707E+00 -1.21326E+00 -1.21228E+00 -1.21355E+00 -1.21557E+00 -1.21801E+00 -1.22118E+00 -1.22432E+00 -1.22748E+00
  -1.23108E+00 -1.23429E+00 -1.23677E+00 -1.23799E+00 -1.23524E+00 -1.22522E+00 -1.20681E+00 -1.18155E+00 -1.15313E+00 -1.12609E+00
  -1.10481E+00 -1.09302E+00 -1.09326E+00 -1.10541E+00 -1.12719E+00 -1.15312E+00 -1.17703E+00 -1.19420E+00 -1.20113E+00 -1.19428E+00
  -1.17191E+00 -1.13811E+00 -1.10013E+00 -1.06310E+00 -1.03140E+00 -1.01143E+00 -1.00708E+00 -1.00820E+00 -1.00721E+00 -1.00481E+00
  -1.00216E+00 -9.99922E-01 -9.98399E-01 -9.97287E-01 -9.96228E-01 -9.95028E-01 -9.92800E-01 -9.87905E-01 -9.79467E-01 -9.67530E-01
  -9.52829E-01 -9.36593E-01 -9.20850E-01 -9.07757E-01 -8.98339E-01 -8.95068E-01 -9.00740E-01 -9.13485E-01 -9.29451E-01 -9.43819E-01
  -9.50782E-01 -9.45423E-01 -9.25753E-01 -8.96505E-01 -8.64054E-01 -8.34236E-01 -8.13168E-01 -8.03732E-01 -8.06088E-01 -8.22255E-01
  -8.51023E-01 -8.82438E-01 -9.06374E-01 -9.17341E-01 -9.13428E-01 -8.91952E-01 -8.53047E-01 -8.10320E-01 -7.76108E-01 -7.54028E-01
  -7.43608E-01 -7.43817E-01 -7.53477E-01 -7.66675E-01 -7.75092E-01 -7.77822E-01 -7.76321E-01 -7.71476E-01 -7.63831E-01 -7.54488E-01
  -7.45655E-01 -7.38514E-01 -7.33335E-01 -7.29534E-01 -7.27000E-01 -7.25663E-01 -7.25506E-01 -7.26431E-01 -7.28019E-01 -7.29663E-01
  -7.30674E-01 -7.30378E-01 -7.28363E-01 -7.24798E-01 -7.20172E-01 -7.15087E-01 -7.09936E-01 -7.05438E-01 -7.02384E-01 -7.00552E-01
  -6.99459E-01 -6.98615E-01 -6.97471E-01 -6.95622E-01 -6.92521E-01 -6.87966E-01 -6.82398E-01 -6.76148E-01 -6.69423E-01 -6.62647E-01
  -6.56102E-01 -6.49942E-01 -6.44290E-01 -6.38887E-01 -6.33363E-01 -6.27670E-01 -6.21835E-01 -6.15729E-01 -6.09254E-01 -6.02449E-01
  -5.95317E-01 -5.87810E-01 -5.80000E-01 -5.71870E-01 -5.63377E-01 -5.54459E-01 -5.45055E-01 -5.35108E-01 -5.24562E-01 -5.13348E-01
  -5.01381E-01 -4.88573E-01 -4.74839E-01 -4.60104E-01 -4.44290E-01 -4.27317E-01 -4.09088E-01 -3.89507E-01 -3.68486E-01 -3.45914E-01
  -3.21550E-01 -2.94991E-01 -2.66816E-01 -2.38073E-01 -2.09467E-01 -1.81692E-01 -1.54955E-01 -1.28853E-01 -1.03233E-01 -7.76546E-02
  -5.10410E-02 -2.24173E-02  9.29506E-03  4.47828E-02  8.47543E-02  1.30612E-01  1.82965E-01  2.43897E-01  3.19345E-01  4.20398E-01
   5.70342E-01  8.21986E-01  1.19058E+00  1.56957E+00  1.89167E+00  2.09675E+00  2.14549E+00  2.07274E+00  1.92641E+00  1.75262E+00
   1.62440E+00  1.58186E+00  1.68021E+00  1.91761E+00  2.24682E+00  2.69730E+00  3.22134E+00  3.57067E+00  3.67884E+00  3.54565E+00
   3.19520E+00  2.64662E+00  1.93334E+00  1.25515E+00  7.98513E-01  4.93539E-01  2.83760E-01  1.40144E-01  4.32053E-02 -2.12843E-02
  -6.37057E-02 -9.14106E-02 -1.09393E-01 -1.20882E-01 -1.27878E-01 -1.31585E-01 -1.32742E-01 -1.31805E-01 -1.29045E-01 -1.24595E-01
  -1.18499E-01 -1.10756E-01 -1.01353E-01 -9.02644E-02 -7.74334E-02 -6.27740E-02 -4.61921E-02 -2.76106E-02 -6.98529E-03  1.57014E-02
   4.04422E-02  6.71951E-02  9.58553E-02  1.26236E-01  1.58064E-01  1.90991E-01  2.24601E-01  2.58410E-01  2.91859E-01  3.24328E-01
   3.55162E-01  3.83709E-01  4.09349E-01  4.31509E-01  4.49681E-01  4.63451E-01  4.72529E-01  4.76770E-01  4.76176E-01  4.70891E-01
   4.61180E-01  4.47429E-01  4.30128E-01  4.09851E-01  3.87222E-01  3.62876E-01  3.37435E-01  3.11494E-01  2.85601E-01  2.60249E-01
   2.35849E-01  2.12729E-01  1.91128E-01  1.71217E-01  1.53099E-01  1.36823E-01  1.22378E-01  1.09704E-01  9.87128E-02  8.92991E-02
   8.13493E-02  7.47420E-02  6.93477E-02  6.50368E-02  6.16882E-02  5.91962E-02  5.74659E-02  5.64087E-02  5.59392E-02  5.59813E-02
   5.64715E-02  5.73606E-02  5.86045E-02  6.01610E-02  6.19885E-02  6.40532E-02  6.63303E-02  6.88017E-02  7.14487E-02  7.42506E-02
   7.71868E-02  8.02434E-02  8.34121E-02  8.66869E-02  9.00578E-02  9.35125E-02  9.70399E-02  1.00636E-01  1.04298E-01  1.08025E-01
   1.11808E-01  1.15639E-01  1.19514E-01  1.23431E-01  1.27391E-01  1.31393E-01  1.35429E-01  1.39494E-01  1.43586E-01  1.47709E-01
   1.51861E-01  1.56041E-01  1.60242E-01  1.64462E-01  1.68701E-01  1.72963E-01  1.77246E-01  1.81547E-01  1.85862E-01  1.90189E-01
   1.94533E-01  1.98894E-01  2.03271E-01  2.07659E-01  2.12056E-01  2.16465E-01  2.20887E-01  2.25323E-01  2.29771E-01  2.34226E-01
   2.38689E-01  2.43163E-01  2.47650E-01  2.52150E-01  2.56658E-01  2.61173E-01  2.65697E-01  2.70235E-01
 NY background values follow
    -2.074E+00   -2.069E+00   -2.064E+00   -2.060E+00   -2.055E+00   -2.050E+00   -2.045E+00   -2.041E+00   -2.036E+00   -2.031E+00
    -2.027E+00   -2.022E+00   -2.017E+00   -2.013E+00   -2.008E+00   -2.003E+00   -1.999E+00   -1.994E+00   -1.989E+00   -1.984E+00
    -1.980E+00   -1.975E+00   -1.970E+00   -1.966E+00   -1.961E+00   -1.956E+00   -1.952E+00   -1.947E+00   -1.942E+00   -1.938E+00
    -1.933E+00   -1.928E+00   -1.923E+00   -1.919E+00   -1.914E+00   -1.909E+00   -1.905E+00   -1.900E+00   -1.895E+00   -1.891E+00
    -1.886E+00   -1.881E+00   -1.877E+00   -1.872E+00   -1.867E+00   -1.862E+00   -1.858E+00   -1.853E+00   -1.848E+00   -1.844E+00
    -1.839E+00   -1.834E+00   -1.830E+00   -1.825E+00   -1.820E+00   -1.816E+00   -1.811E+00   -1.806E+00   -1.801E+00   -1.797E+00
    -1.792E+00   -1.787E+00   -1.783E+00   -1.778E+00   -1.773E+00   -1.769E+00   -1.764E+00   -1.759E+00   -1.755E+00   -1.750E+00
    -1.745E+00   -1.740E+00   -1.736E+00   -1.731E+00   -1.726E+00   -1.722E+00   -1.717E+00   -1.712E+00   -1.708E+00   -1.703E+00
    -1.698E+00   -1.694E+00   -1.689E+00   -1.684E+00   -1.679E+00   -1.675E+00   -1.670E+00   -1.665E+00   -1.661E+00   -1.656E+00
    -1.651E+00   -1.647E+00   -1.642E+00   -1.637E+00   -1.633E+00   -1.628E+00   -1.623E+00   -1.618E+00   -1.614E+00   -1.609E+00
    -1.604E+00   -1.600E+00   -1.595E+00   -1.590E+00   -1.586E+00   -1.581E+00   -1.576E+00   -1.572E+00   -1.567E+00   -1.562E+00
    -1.557E+00   -1.553E+00   -1.548E+00   -1.543E+00   -1.539E+00   -1.534E+00   -1.529E+00   -1.525E+00   -1.520E+00   -1.515E+00
    -1.511E+00   -1.506E+00   -1.501E+00   -1.496E+00   -1.492E+00   -1.487E+00   -1.482E+00   -1.478E+00   -1.473E+00   -1.468E+00
    -1.464E+00   -1.459E+00   -1.454E+00   -1.450E+00   -1.445E+00   -1.440E+00   -1.435E+00   -1.431E+00   -1.426E+00   -1.421E+00
    -1.417E+00   -1.412E+00   -1.407E+00   -1.403E+00   -1.398E+00   -1.393E+00   -1.389E+00   -1.384E+00   -1.379E+00   -1.374E+00
    -1.370E+00   -1.365E+00   -1.360E+00   -1.356E+00   -1.351E+00   -1.346E+00   -1.342E+00   -1.337E+00   -1.332E+00   -1.328E+00
    -1.323E+00   -1.318E+00   -1.313E+00   -1.309E+00   -1.304E+00   -1.299E+00   -1.295E+00   -1.290E+00   -1.285E+00   -1.281E+00
    -1.276E+00   -1.271E+00   -1.266E+00   -1.262E+00   -1.257E+00   -1.252E+00   -1.248E+00   -1.243E+00   -1.238E+00   -1.234E+00
    -1.229E+00   -1.224E+00   -1.220E+00   -1.215E+00   -1.210E+00   -1.205E+00   -1.201E+00   -1.196E+00   -1.191E+00   -1.187E+00
    -1.182E+00   -1.177E+00   -1.173E+00   -1.168E+00   -1.163E+00   -1.159E+00   -1.154E+00   -1.149E+00   -1.144E+00   -1.140E+00
    -1.135E+00   -1.130E+00   -1.126E+00   -1.121E+00   -1.116E+00   -1.112E+00   -1.107E+00   -1.102E+00   -1.098E+00   -1.093E+00
    -1.088E+00   -1.083E+00   -1.079E+00   -1.074E+00   -1.069E+00   -1.065E+00   -1.060E+00   -1.055E+00   -1.051E+00   -1.046E+00
    -1.041E+00   -1.037E+00   -1.032E+00   -1.027E+00   -1.022E+00   -1.018E+00   -1.013E+00   -1.008E+00   -1.004E+00   -9.990E-01
    -9.943E-01   -9.896E-01   -9.849E-01   -9.802E-01   -9.755E-01   -9.708E-01   -9.661E-01   -9.614E-01   -9.567E-01   -9.520E-01
    -9.473E-01   -9.426E-01   -9.380E-01   -9.333E-01   -9.286E-01   -9.239E-01   -9.192E-01   -9.145E-01   -9.098E-01   -9.051E-01
    -9.004E-01   -8.957E-01   -8.910E-01   -8.863E-01   -8.816E-01   -8.769E-01   -8.722E-01   -8.675E-01   -8.629E-01   -8.582E-01
    -8.535E-01   -8.488E-01   -8.441E-01   -8.394E-01   -8.347E-01   -8.300E-01   -8.253E-01   -8.206E-01   -8.159E-01   -8.112E-01
    -8.065E-01   -8.018E-01   -7.971E-01   -7.924E-01   -7.878E-01   -7.831E-01   -7.784E-01   -7.737E-01   -7.690E-01   -7.643E-01
    -7.596E-01   -7.549E-01   -7.502E-01   -7.455E-01   -7.408E-01   -7.361E-01   -7.314E-01   -7.267E-01   -7.220E-01   -7.173E-01
    -7.126E-01   -7.080E-01   -7.033E-01   -6.986E-01   -6.939E-01   -6.892E-01   -6.845E-01   -6.798E-01   -6.751E-01   -6.704E-01
    -6.657E-01   -6.610E-01   -6.563E-01   -6.516E-01   -6.469E-01   -6.422E-01   -6.375E-01   -6.328E-01   -6.281E-01   -6.235E-01
    -6.188E-01   -6.141E-01   -6.094E-01   -6.047E-01   -6.000E-01   -5.953E-01   -5.906E-01   -5.859E-01   -5.812E-01   -5.765E-01
    -5.718E-01   -5.671E-01   -5.624E-01   -5.577E-01   -5.530E-01   -5.483E-01   -5.437E-01   -5.390E-01   -5.343E-01   -5.296E-01
    -5.249E-01   -5.202E-01   -5.155E-01   -5.108E-01   -5.061E-01   -5.014E-01   -4.967E-01   -4.920E-01   -4.873E-01   -4.826E-01
    -4.779E-01   -4.732E-01   -4.685E-01   -4.638E-01   -4.591E-01   -4.545E-01   -4.498E-01   -4.451E-01   -4.404E-01   -4.357E-01
    -4.310E-01   -4.263E-01   -4.216E-01   -4.169E-01   -4.122E-01   -4.075E-01   -4.028E-01   -3.981E-01   -3.934E-01   -3.887E-01
    -3.840E-01   -3.793E-01   -3.746E-01   -3.700E-01   -3.653E-01   -3.606E-01   -3.559E-01   -3.512E-01   -3.465E-01   -3.418E-01
    -3.371E-01   -3.324E-01   -3.277E-01   -3.230E-01   -3.183E-01   -3.136E-01   -3.089E-01   -3.042E-01   -2.995E-01   -2.948E-01
    -2.901E-01   -2.854E-01   -2.808E-01   -2.761E-01   -2.714E-01   -2.667E-01   -2.620E-01   -2.573E-01   -2.526E-01   -2.479E-01
    -2.432E-01   -2.385E-01   -2.338E-01   -2.291E-01   -2.244E-01   -2.197E-01   -2.150E-01   -2.103E-01   -2.056E-01   -2.009E-01
    -1.962E-01   -1.916E-01   -1.869E-01   -1.822E-01   -1.775E-01   -1.728E-01   -1.681E-01   -1.634E-01   -1.587E-01   -1.540E-01
    -1.493E-01   -1.446E-01   -1.399E-01   -1.352E-01   -1.305E-01   -1.258E-01   -1.211E-01   -1.164E-01   -1.117E-01   -1.070E-01
    -1.023E-01   -9.765E-02   -9.296E-02   -8.826E-02   -8.357E-02   -7.887E-02   -7.418E-02   -6.948E-02   -6.479E-02   -6.009E-02
    -5.540E-02   -5.070E-02   -4.601E-02   -4.131E-02   -3.662E-02   -3.192E-02   -2.723E-02   -2.253E-02   -1.784E-02   -1.314E-02
    -8.450E-03   -3.755E-03    9.400E-04    5.635E-03    1.033E-02    1.502E-02    1.972E-02    2.441E-02    2.911E-02    3.380E-02
     3.850E-02    4.319E-02    4.789E-02    5.258E-02    5.728E-02    6.197E-02    6.667E-02    7.136E-02    7.606E-02    8.075E-02
     8.545E-02    9.014E-02    9.484E-02    9.953E-02    1.042E-01    1.089E-01    1.136E-01    1.183E-01    1.230E-01    1.277E-01
     1.324E-01    1.371E-01    1.418E-01    1.465E-01    1.512E-01    1.559E-01    1.606E-01    1.653E-01    1.700E-01    1.747E-01
     1.793E-01    1.840E-01    1.887E-01    1.934E-01    1.981E-01    2.028E-01    2.075E-01    2.122E-01    2.169E-01    2.216E-01
     2.263E-01    2.310E-01    2.357E-01    2.404E-01    2.451E-01    2.498E-01    2.545E-01    2.592E-01
 Ala      Conc. = 1.68E+00
