 LCModel (Version 6.3-1L) Copyright: S.W. Provencher.          Ref.: Magn. Reson. Med. 30:672-679 (1993).                
 Slice#2 Row#1 Col#2  PD_05_press_1_raw_act
 36 lines in following concentration table = NCONC+1
    Conc.  %SD /Cr+PCr  Metabolite                                         
    0.000 999%   0.000 Ala                                                 
    2.037  78% 7.9E-02 Asp                                                 
   25.790  48%   1.000 Cr                                                  
    0.000 999%   0.000 PCr                                                 
    1.238  77% 4.8E-02 GABA                                                
    1.249  77% 4.8E-02 Glc                                                 
    0.000 999%   0.000 Gln                                                 
    0.000 999%   0.000 Glu                                                 
    5.269  89%   0.204 GPC                                                 
    0.000 999%   0.000 PCh                                                 
   10.159 172%   0.394 GSH                                                 
   55.777  96%   2.163 Ins                                                 
    0.000 999%   0.000 Lac                                                 
    0.000 999%   0.000 NAA                                                 
    0.000 999%   0.000 NAAG                                                
    0.425  75% 1.6E-02 Scyllo                                              
    2.112  75% 8.2E-02 Tau                                                 
 8.71E-02 999% 3.4E-03 -CrCH2                                              
    5.269  89%   0.204 GPC+PCh                                             
    0.000 999%   0.000 NAA+NAAG                                            
   25.790  48%   1.000 Cr+PCr                                              
    0.000 999%   0.000 Glu+Gln                                             
    0.000 999%   0.000 Lip13a                                              
  193.224  14%   7.492 Lip13b                                              
    0.000 999%   0.000 Lip09                                               
    0.000 999%   0.000 MM09                                                
   31.369  80%   1.216 Lip20                                               
    0.000 999%   0.000 MM20                                                
    0.000 999%   0.000 MM12                                                
    0.000 999%   0.000 MM14                                                
    0.000 999%   0.000 MM17                                                
  193.224  14%   7.492 Lip13a+Lip13b                                       
  193.224  14%   7.492 MM14+Lip13a+Lip13b+MM12                             
    0.000 999%   0.000 MM09+Lip09                                          
   31.369  80%   1.216 MM20+Lip20                                          
   6 lines in following misc. output table
  FWHM = 0.054 ppm    S/N =   1                                            
  Data shift = 0.023 ppm                                                   
  Ph: 111 deg      38.3 deg/ppm                                            
  alphaB,S = 8.5E+01,   2.2E+01                                            
   14 spline knots.   Ns = 5(1)                                            
   2 inflections.     1 extrema                                            
  498 points on ppm-axis = NY
      4.000000     3.992357     3.984714     3.977070     3.969427     3.961784     3.954141     3.946497     3.938854     3.931211
      3.923568     3.915925     3.908281     3.900638     3.892995     3.885352     3.877708     3.870065     3.862422     3.854779
      3.847136     3.839492     3.831849     3.824206     3.816563     3.808919     3.801276     3.793633     3.785990     3.778347
      3.770703     3.763060     3.755417     3.747774     3.740130     3.732487     3.724844     3.717201     3.709558     3.701914
      3.694271     3.686628     3.678985     3.671341     3.663698     3.656055     3.648412     3.640769     3.633125     3.625482
      3.617839     3.610196     3.602552     3.594909     3.587266     3.579623     3.571980     3.564336     3.556693     3.549050
      3.541407     3.533763     3.526120     3.518477     3.510834     3.503191     3.495547     3.487904     3.480261     3.472618
      3.464974     3.457331     3.449688     3.442045     3.434402     3.426758     3.419115     3.411472     3.403829     3.396185
      3.388542     3.380899     3.373256     3.365613     3.357969     3.350326     3.342683     3.335040     3.327396     3.319753
      3.312110     3.304467     3.296824     3.289180     3.281537     3.273894     3.266251     3.258607     3.250964     3.243321
      3.235678     3.228034     3.220391     3.212748     3.205105     3.197462     3.189818     3.182175     3.174532     3.166889
      3.159245     3.151602     3.143959     3.136316     3.128673     3.121029     3.113386     3.105743     3.098100     3.090456
      3.082813     3.075170     3.067527     3.059884     3.052240     3.044597     3.036954     3.029311     3.021667     3.014024
      3.006381     2.998738     2.991095     2.983451     2.975808     2.968165     2.960522     2.952878     2.945235     2.937592
      2.929949     2.922306     2.914662     2.907019     2.899376     2.891733     2.884089     2.876446     2.868803     2.861160
      2.853517     2.845873     2.838230     2.830587     2.822944     2.815300     2.807657     2.800014     2.792371     2.784728
      2.777084     2.769441     2.761798     2.754155     2.746511     2.738868     2.731225     2.723582     2.715939     2.708295
      2.700652     2.693009     2.685366     2.677722     2.670079     2.662436     2.654793     2.647150     2.639506     2.631863
      2.624220     2.616577     2.608933     2.601290     2.593647     2.586004     2.578361     2.570717     2.563074     2.555431
      2.547788     2.540144     2.532501     2.524858     2.517215     2.509572     2.501928     2.494285     2.486642     2.478999
      2.471355     2.463712     2.456069     2.448426     2.440783     2.433139     2.425496     2.417853     2.410210     2.402566
      2.394923     2.387280     2.379637     2.371994     2.364350     2.356707     2.349064     2.341421     2.333777     2.326134
      2.318491     2.310848     2.303205     2.295561     2.287918     2.280275     2.272632     2.264988     2.257345     2.249702
      2.242059     2.234416     2.226772     2.219129     2.211486     2.203843     2.196199     2.188556     2.180913     2.173270
      2.165627     2.157983     2.150340     2.142697     2.135054     2.127410     2.119767     2.112124     2.104481     2.096838
      2.089194     2.081551     2.073908     2.066265     2.058621     2.050978     2.043335     2.035692     2.028049     2.020405
      2.012762     2.005119     1.997476     1.989833     1.982190     1.974546     1.966903     1.959260     1.951617     1.943974
      1.936331     1.928688     1.921045     1.913402     1.905759     1.898115     1.890472     1.882829     1.875186     1.867543
      1.859900     1.852257     1.844614     1.836971     1.829327     1.821684     1.814041     1.806398     1.798755     1.791112
      1.783469     1.775826     1.768183     1.760540     1.752896     1.745253     1.737610     1.729967     1.722324     1.714681
      1.707038     1.699395     1.691752     1.684108     1.676465     1.668822     1.661179     1.653536     1.645893     1.638250
      1.630607     1.622964     1.615321     1.607677     1.600034     1.592391     1.584748     1.577105     1.569462     1.561819
      1.554176     1.546533     1.538890     1.531246     1.523603     1.515960     1.508317     1.500674     1.493031     1.485388
      1.477745     1.470102     1.462458     1.454815     1.447172     1.439529     1.431886     1.424243     1.416600     1.408957
      1.401314     1.393671     1.386027     1.378384     1.370741     1.363098     1.355455     1.347812     1.340169     1.332526
      1.324883     1.317240     1.309596     1.301953     1.294310     1.286667     1.279024     1.271381     1.263738     1.256095
      1.248452     1.240808     1.233165     1.225522     1.217879     1.210236     1.202593     1.194950     1.187307     1.179664
      1.172021     1.164377     1.156734     1.149091     1.141448     1.133805     1.126162     1.118519     1.110876     1.103233
      1.095590     1.087946     1.080303     1.072660     1.065017     1.057374     1.049731     1.042088     1.034445     1.026802
      1.019158     1.011515     1.003872     0.996229     0.988586     0.980943     0.973300     0.965657     0.958014     0.950371
      0.942727     0.935084     0.927441     0.919798     0.912155     0.904512     0.896869     0.889226     0.881583     0.873940
      0.866296     0.858653     0.851010     0.843367     0.835724     0.828081     0.820438     0.812795     0.805152     0.797508
      0.789865     0.782222     0.774579     0.766936     0.759293     0.751650     0.744007     0.736364     0.728721     0.721077
      0.713434     0.705791     0.698148     0.690505     0.682862     0.675219     0.667576     0.659933     0.652290     0.644646
      0.637003     0.629360     0.621717     0.614074     0.606431     0.598788     0.591145     0.583502     0.575858     0.568215
      0.560572     0.552929     0.545286     0.537643     0.530000     0.522357     0.514714     0.507071     0.499427     0.491784
      0.484141     0.476498     0.468855     0.461212     0.453569     0.445925     0.438282     0.430639     0.422996     0.415353
      0.407710     0.400067     0.392424     0.384780     0.377137     0.369494     0.361851     0.354208     0.346565     0.338922
      0.331278     0.323635     0.315992     0.308349     0.300706     0.293063     0.285420     0.277777     0.270133     0.262490
      0.254847     0.247204     0.239561     0.231918     0.224275     0.216631     0.208988     0.201345
 NY phased data points follow
   1.90514E+00  1.37680E+00  3.26631E+00  1.62897E+00  1.80670E+00  3.44515E+00  1.26179E+00  3.03323E+00  2.81186E+00  3.46307E+00
   3.32569E+00  3.66579E+00  3.65845E+00  2.34467E+00  2.14085E+00  1.64119E+00  3.98519E+00  1.24915E+00  1.65571E+00  1.29031E+00
   1.80291E+00  5.94566E-01  1.47278E+00  3.20046E+00 -7.60906E-01  2.28774E+00  1.38787E+00  7.31996E-01  2.60777E+00  2.11496E+00
   1.62403E+00  8.28871E-01  1.41587E+00  1.74624E+00  2.41712E+00  1.25221E+00  9.52462E-01  2.32073E+00  1.60852E+00  3.52746E+00
   5.46728E-01  2.43491E+00  3.60405E-01  1.84820E+00  2.95325E+00  7.05392E-01  2.31405E+00  9.10213E-01  7.62772E-01  3.42290E-01
   2.62936E-01  1.83470E+00  1.86496E+00  6.24331E-01  1.84780E+00  1.37819E+00  2.18742E+00  2.95730E+00  1.65680E+00  8.97514E-01
   1.28375E+00  1.46556E+00  2.07673E+00  1.54734E+00  1.54988E+00  1.49753E+00  5.57480E-01  6.49674E-01  2.15289E+00  6.30558E-01
   2.47596E+00  1.25553E+00  1.88838E+00  2.54993E+00  1.88996E+00  1.19821E+00  1.45914E+00  1.01590E+00  5.10918E-01  4.90772E-01
  -4.36076E-01  1.91606E+00  3.66986E-01  1.38541E+00  4.96407E-01  1.17064E+00  3.03319E+00  8.36317E-01  2.63317E+00 -5.95044E-02
   2.50177E+00  6.63025E-01  5.51574E-01  1.53899E+00  1.08770E+00  1.31705E+00  1.74725E+00 -8.46623E-03  2.27551E+00  1.65465E+00
   1.57422E+00  5.09956E-01  1.09602E+00  1.75202E+00  1.33610E+00  1.17443E+00  1.16716E-02  1.09859E+00  2.83258E-01  2.39008E+00
   9.92486E-01  6.83775E-01  4.08261E-01  5.98494E-01  9.62390E-01  2.03212E+00  1.49837E+00 -5.47991E-01 -2.51552E-01  1.55498E-01
   8.60410E-01  6.43832E-01  1.11245E-02  9.51933E-01  1.29241E+00 -8.73903E-01  2.09941E+00  1.75296E+00  5.27639E-01  1.84431E+00
   2.21169E-01  5.12738E-01 -2.82366E-01  5.55260E-01  1.31975E+00  4.70425E-01  1.21302E+00  1.06162E+00  1.71828E+00 -2.18679E-01
   2.51033E+00  5.88308E-01  1.22605E+00  4.76186E-01  7.44565E-01  2.08626E-01  1.13460E+00  9.82227E-01  2.19776E-01  1.27513E-01
   1.05051E+00  1.21783E+00  1.38667E+00 -5.25464E-02  6.47246E-01  7.75832E-01  1.31456E+00  3.00464E+00  1.23044E+00  1.69158E+00
   4.78713E-01  1.43845E+00  1.13150E+00  1.63854E+00  1.71913E+00  1.15345E+00  1.07176E+00  9.40358E-02  7.51829E-01 -1.38894E+00
   7.78338E-01  8.76462E-01  8.22954E-01  6.97500E-01  5.56309E-01  9.14683E-01  1.13649E+00  1.96807E+00 -1.37236E-01  1.76191E+00
   4.31630E-01  3.57213E-01  6.07640E-01 -8.24484E-01  6.54323E-01  6.39286E-01  4.71962E-01  1.76213E+00  5.28665E-01  4.83668E-01
   2.78682E+00  4.66855E-01  1.92597E+00  1.23239E+00  9.92133E-01  6.53484E-01  8.57050E-01 -4.27826E-01  8.34727E-01  1.54087E+00
   7.00615E-01  1.61278E+00  1.06059E+00 -5.34467E-01  1.19264E+00 -1.49128E+00  3.33779E-02  1.93520E+00 -1.04371E+00  1.12331E+00
   8.21796E-01  1.77068E+00  1.54126E+00  1.16877E+00 -7.17535E-01  1.39564E+00  1.50898E+00  1.77519E+00  1.21958E-01  4.69506E-01
   5.69982E-01  4.46654E-01 -1.68390E-01  1.87236E+00  3.65916E-01  1.04955E+00  5.14085E-01  2.48380E-01 -8.00791E-01  1.37216E+00
   1.21304E+00  4.65093E-01 -8.62358E-01  1.60988E+00  1.86177E+00 -3.12925E-02 -1.32293E+00 -2.32316E-02  1.76318E+00 -2.66021E-01
  -7.48071E-01  2.39009E+00  2.52519E-03  2.05103E-01  7.99704E-01  1.11011E-01  6.85896E-01  5.93466E-01  7.00525E-02  5.07937E-02
   5.93678E-01  1.59842E+00  1.38406E+00 -6.59037E-01 -7.57049E-01 -4.94994E-01 -1.03090E+00  1.11501E+00  1.28272E+00  1.32586E+00
  -5.81678E-01  6.86029E-01 -1.18290E+00 -7.84058E-01 -2.21535E-01 -8.61980E-01  9.08864E-01 -1.43661E+00 -8.05365E-01 -1.98188E-01
  -3.67186E-01 -1.45328E-01  1.15670E-01 -1.22539E+00 -5.38331E-01  3.88708E-01  1.69315E-01 -4.70772E-01 -3.12772E-01 -1.45480E+00
   6.48003E-01 -1.01555E+00 -8.25265E-01  1.43159E+00 -6.43273E-01 -1.54342E+00  3.89661E-01 -7.04670E-01  1.97286E+00 -2.67640E+00
  -1.83786E+00  1.81569E+00 -1.45448E+00 -2.02080E+00 -1.54005E+00 -3.04058E+00  1.23282E+00 -4.44647E-01 -7.49715E-01 -1.36087E+00
  -5.85013E-01 -1.74493E+00 -1.76147E+00 -2.85583E-02 -1.07644E+00 -1.70332E+00 -1.03993E+00 -1.00986E+00 -1.60987E+00 -9.49647E-01
  -7.86591E-01  3.86015E-02  8.30139E-02 -9.95047E-01  3.04867E-01  1.52798E+00 -2.06347E+00 -7.29276E-01 -1.48209E+00  5.36172E-01
   3.53992E-01 -8.04502E-01 -2.01009E+00 -1.14079E-01 -1.40253E+00 -2.94386E-01  9.44333E-01 -3.15469E+00 -5.77629E-01  1.27606E-01
  -5.96266E-01  5.21930E-01  7.61169E-01  1.69954E-01  4.53660E-01 -5.93200E-01  1.55018E+00 -6.62415E-01 -6.01547E-01 -2.82959E-01
  -1.24740E+00 -5.78477E-01 -5.26435E-01  2.61321E-01 -1.25204E+00  1.84539E+00  7.56880E-01  2.34957E+00  1.24148E+00  1.54293E+00
   2.68251E+00  2.65471E+00  3.05027E+00  2.08528E+00  3.63464E+00  3.28236E+00 -1.10564E-01  1.84000E+00  6.15071E-01 -1.99209E-02
  -6.01424E-01 -1.05742E+00 -9.85592E-01 -3.65657E-01 -1.16550E+00 -1.75672E-01 -2.49654E-01 -1.27130E-01  1.16752E+00  8.68984E-01
   1.34039E+00  1.33772E+00  7.78283E-01 -9.28109E-01  5.28809E-01  8.85611E-01 -2.04952E+00 -8.40961E-01 -2.27724E+00 -1.59301E+00
   6.37683E-01 -1.01251E+00 -2.60890E-01 -1.64033E+00 -2.08419E+00  3.67182E-01 -2.51735E+00 -6.69923E-01 -1.58591E+00 -2.36553E-01
  -2.06842E+00 -1.09595E+00 -2.46784E+00 -1.74349E+00 -1.83413E+00 -3.45253E+00  5.71882E-01 -8.96129E-01 -1.28732E+00 -7.67041E-01
  -2.36931E+00 -2.13262E+00 -1.01724E+00 -1.35710E+00 -3.08466E+00 -1.81600E+00 -2.50806E+00 -8.94424E-01 -4.22018E-01 -1.28117E+00
  -1.05805E+00  3.02861E-02 -7.73555E-01  4.72076E-01 -1.79987E+00 -2.62215E-01 -1.00517E+00  3.62633E-01  1.64237E+00 -1.80227E+00
   9.41521E-02 -3.54617E-01 -2.34652E+00 -1.39497E+00 -2.75564E-01 -2.96964E-01  2.48674E-01 -1.07126E-01 -1.01542E+00 -6.57989E-01
   1.37759E+00  1.06306E+00  4.28605E-01  1.03548E+00  3.34281E-01 -8.72784E-03  6.31995E-01 -1.73967E+00 -1.21867E+00  1.56677E-01
   1.34686E+00  1.09228E+00 -1.42946E+00 -9.27255E-01 -1.37242E+00  7.95507E-01 -1.81280E+00 -7.33277E-01 -9.76938E-01  5.63636E-01
  -1.69576E+00 -8.22687E-01  7.81088E-01 -5.15659E-01 -1.25324E+00 -9.26680E-01  8.33753E-02 -7.22309E-01 -2.03947E+00 -1.43582E+00
   2.04930E-01  5.34444E-01  1.00861E+00 -7.74037E-01  5.82339E-03 -1.30980E+00 -1.00920E+00 -8.14363E-01 -1.88146E+00 -2.48411E-01
   1.89741E-01 -1.01527E+00  4.38779E-01 -1.43587E+00 -1.52963E+00 -1.48023E-01 -3.81300E-01  9.01809E-01 -8.41216E-01 -1.07648E+00
   9.03190E-01 -5.11328E-01 -2.22119E+00 -6.62390E-01 -9.31440E-01  6.98767E-01 -1.28702E+00 -2.13560E+00 -1.58469E-01 -1.70652E-01
   2.59209E-01 -1.87397E-01 -1.13803E+00  3.84457E-01  3.21415E-02  1.52477E+00 -1.65683E+00  2.24721E-01
 NY points of the fit to the data follow
   1.60572E+00  1.58234E+00  1.56859E+00  1.56426E+00  1.56696E+00  1.58448E+00  1.66187E+00  1.80806E+00  1.96198E+00  2.07808E+00
   2.13736E+00  2.13055E+00  2.06007E+00  1.94588E+00  1.81749E+00  1.69909E+00  1.60213E+00  1.53218E+00  1.49445E+00  1.47647E+00
   1.46149E+00  1.44702E+00  1.43430E+00  1.42571E+00  1.43064E+00  1.47364E+00  1.54723E+00  1.62012E+00  1.67312E+00  1.69778E+00
   1.68940E+00  1.65110E+00  1.60068E+00  1.55797E+00  1.52421E+00  1.49102E+00  1.45651E+00  1.42502E+00  1.39529E+00  1.36568E+00
   1.34134E+00  1.33722E+00  1.38000E+00  1.47888E+00  1.60175E+00  1.70265E+00  1.75233E+00  1.74127E+00  1.67370E+00  1.56798E+00
   1.45211E+00  1.35181E+00  1.27955E+00  1.23783E+00  1.23389E+00  1.26672E+00  1.31884E+00  1.37242E+00  1.41146E+00  1.42617E+00
   1.41329E+00  1.37679E+00  1.32931E+00  1.28426E+00  1.25171E+00  1.23456E+00  1.23392E+00  1.25140E+00  1.27814E+00  1.30265E+00
   1.31822E+00  1.32373E+00  1.31861E+00  1.30388E+00  1.28341E+00  1.26083E+00  1.23887E+00  1.21898E+00  1.20239E+00  1.19000E+00
   1.18048E+00  1.17158E+00  1.15471E+00  1.12341E+00  1.07901E+00  1.03062E+00  9.88079E-01  9.59281E-01  9.49235E-01  9.59091E-01
   9.83246E-01  1.01557E+00  1.04752E+00  1.06857E+00  1.07339E+00  1.06347E+00  1.04700E+00  1.05135E+00  1.12566E+00  1.24580E+00
   1.36052E+00  1.44223E+00  1.47543E+00  1.45218E+00  1.37864E+00  1.27655E+00  1.17167E+00  1.08083E+00  1.01016E+00  9.64555E-01
   9.45316E-01  9.37295E-01  9.31506E-01  9.26248E-01  9.20611E-01  9.13856E-01  9.06354E-01  8.99359E-01  8.93960E-01  8.92136E-01
   8.98909E-01  9.35174E-01  1.07294E+00  1.30674E+00  1.54232E+00  1.71717E+00  1.80441E+00  1.79058E+00  1.68519E+00  1.52430E+00
   1.34610E+00  1.17782E+00  1.03222E+00  9.17233E-01  8.44948E-01  8.06239E-01  7.86077E-01  7.83588E-01  7.93788E-01  8.09735E-01
   8.25800E-01  8.37515E-01  8.41081E-01  8.36479E-01  8.26747E-01  8.14517E-01  8.01924E-01  7.90284E-01  7.79969E-01  7.70922E-01
   7.62074E-01  7.53796E-01  7.46861E-01  7.41286E-01  7.36516E-01  7.31894E-01  7.27262E-01  7.22387E-01  7.17008E-01  7.10996E-01
   7.04411E-01  6.97409E-01  6.90620E-01  6.84539E-01  6.79100E-01  6.74022E-01  6.69022E-01  6.63854E-01  6.58527E-01  6.52981E-01
   6.46846E-01  6.39745E-01  6.31622E-01  6.22678E-01  6.13265E-01  6.03650E-01  5.94040E-01  5.84671E-01  5.75619E-01  5.67398E-01
   5.59013E-01  5.49655E-01  5.39980E-01  5.30771E-01  5.23404E-01  5.20758E-01  5.24992E-01  5.35119E-01  5.46606E-01  5.54223E-01
   5.54676E-01  5.46060E-01  5.26385E-01  4.96394E-01  4.65885E-01  4.43714E-01  4.32542E-01  4.31853E-01  4.39521E-01  4.51412E-01
   4.62545E-01  4.69585E-01  4.71794E-01  4.70083E-01  4.65595E-01  4.59543E-01  4.53895E-01  4.49183E-01  4.44905E-01  4.40290E-01
   4.34687E-01  4.28366E-01  4.21867E-01  4.15619E-01  4.10088E-01  4.05658E-01  4.02448E-01  4.00332E-01  3.99303E-01  3.99377E-01
   4.00147E-01  4.00676E-01  4.00195E-01  3.98362E-01  3.94868E-01  3.88938E-01  3.78253E-01  3.61937E-01  3.44697E-01  3.31517E-01
   3.24965E-01  3.26637E-01  3.38129E-01  3.57701E-01  3.74982E-01  3.80779E-01  3.72887E-01  3.53210E-01  3.24887E-01  2.93052E-01
   2.66582E-01  2.53257E-01  2.53432E-01  2.63096E-01  2.77948E-01  2.93407E-01  3.04285E-01  3.07594E-01  3.03749E-01  2.94922E-01
   2.83781E-01  2.72431E-01  2.62759E-01  2.55721E-01  2.50696E-01  2.46639E-01  2.42718E-01  2.38485E-01  2.33693E-01  2.28217E-01
   2.22065E-01  2.15207E-01  2.07683E-01  1.99505E-01  1.90527E-01  1.80583E-01  1.69940E-01  1.59017E-01  1.48187E-01  1.37809E-01
   1.28117E-01  1.19281E-01  1.11271E-01  1.03703E-01  9.61773E-02  8.85179E-02  8.05385E-02  7.21457E-02  6.34827E-02  5.47423E-02
   4.62020E-02  3.81576E-02  3.07151E-02  2.38512E-02  1.74985E-02  1.15115E-02  5.70189E-03 -7.19280E-05 -5.87991E-03 -1.17684E-02
  -1.77433E-02 -2.37816E-02 -2.98231E-02 -3.58155E-02 -4.17448E-02 -4.76069E-02 -5.33906E-02 -5.90994E-02 -6.47538E-02 -7.03675E-02
  -7.59474E-02 -8.15068E-02 -8.70513E-02 -9.25815E-02 -9.80965E-02 -1.03596E-01 -1.09080E-01 -1.14548E-01 -1.20000E-01 -1.25439E-01
  -1.30869E-01 -1.36292E-01 -1.41708E-01 -1.47117E-01 -1.52519E-01 -1.57916E-01 -1.63307E-01 -1.68693E-01 -1.74075E-01 -1.79451E-01
  -1.84822E-01 -1.90189E-01 -1.95554E-01 -2.00915E-01 -2.06271E-01 -2.11623E-01 -2.16971E-01 -2.22315E-01 -2.27653E-01 -2.32977E-01
  -2.38271E-01 -2.43500E-01 -2.48587E-01 -2.53375E-01 -2.57548E-01 -2.60524E-01 -2.61267E-01 -2.58053E-01 -2.48159E-01 -2.27555E-01
  -1.90676E-01 -1.30423E-01 -3.85747E-02  9.32459E-02  2.71980E-01  5.01037E-01  7.78036E-01  1.09298E+00  1.42749E+00  1.75577E+00
   2.04737E+00  2.27161E+00  2.40275E+00  2.42472E+00  2.33425E+00  2.14150E+00  1.86806E+00  1.54290E+00  1.19718E+00  8.59420E-01
   5.51792E-01  2.88322E-01  7.48808E-02 -8.94229E-02 -2.10113E-01 -2.95113E-01 -3.52881E-01 -3.91137E-01 -4.16204E-01 -4.32832E-01
  -4.44338E-01 -4.52888E-01 -4.59815E-01 -4.65892E-01 -4.71545E-01 -4.76993E-01 -4.82349E-01 -4.87666E-01 -4.92966E-01 -4.98259E-01
  -5.03549E-01 -5.08836E-01 -5.14124E-01 -5.19412E-01 -5.24700E-01 -5.29987E-01 -5.35273E-01 -5.40558E-01 -5.45844E-01 -5.51131E-01
  -5.56417E-01 -5.61702E-01 -5.66987E-01 -5.72271E-01 -5.77556E-01 -5.82841E-01 -5.88126E-01 -5.93409E-01 -5.98692E-01 -6.03976E-01
  -6.09260E-01 -6.14544E-01 -6.19828E-01 -6.25110E-01 -6.30392E-01 -6.35675E-01 -6.40958E-01 -6.46241E-01 -6.51523E-01 -6.56805E-01
  -6.62086E-01 -6.67369E-01 -6.72651E-01 -6.77933E-01 -6.83214E-01 -6.88495E-01 -6.93776E-01 -6.99058E-01 -7.04339E-01 -7.09620E-01
  -7.14900E-01 -7.20180E-01 -7.25461E-01 -7.30742E-01 -7.36023E-01 -7.41303E-01 -7.46582E-01 -7.51863E-01 -7.57143E-01 -7.62424E-01
  -7.67704E-01 -7.72983E-01 -7.78262E-01 -7.83543E-01 -7.88823E-01 -7.94103E-01 -7.99382E-01 -8.04661E-01 -8.09940E-01 -8.15219E-01
  -8.20499E-01 -8.25778E-01 -8.31057E-01 -8.36335E-01 -8.41614E-01 -8.46894E-01 -8.52173E-01 -8.57452E-01 -8.62730E-01 -8.68008E-01
  -8.73287E-01 -8.78567E-01 -8.83846E-01 -8.89123E-01 -8.94401E-01 -8.99680E-01 -9.04959E-01 -9.10237E-01 -9.15515E-01 -9.20792E-01
  -9.26070E-01 -9.31349E-01 -9.36627E-01 -9.41905E-01 -9.47182E-01 -9.52460E-01 -9.57737E-01 -9.63016E-01 -9.68294E-01 -9.73571E-01
  -9.78848E-01 -9.84125E-01 -9.89403E-01 -9.94680E-01 -9.99958E-01 -1.00523E+00 -1.01051E+00 -1.01579E+00 -1.02106E+00 -1.02634E+00
  -1.03162E+00 -1.03689E+00 -1.04217E+00 -1.04745E+00 -1.05272E+00 -1.05800E+00 -1.06327E+00 -1.06855E+00 -1.07382E+00 -1.07910E+00
  -1.08437E+00 -1.08965E+00 -1.09492E+00 -1.10019E+00 -1.10547E+00 -1.11074E+00 -1.11601E+00 -1.12128E+00
 NY background values follow
     1.498E+00    1.493E+00    1.488E+00    1.483E+00    1.477E+00    1.472E+00    1.467E+00    1.462E+00    1.456E+00    1.451E+00
     1.446E+00    1.440E+00    1.435E+00    1.430E+00    1.425E+00    1.419E+00    1.414E+00    1.409E+00    1.404E+00    1.398E+00
     1.393E+00    1.388E+00    1.382E+00    1.377E+00    1.372E+00    1.367E+00    1.361E+00    1.356E+00    1.351E+00    1.346E+00
     1.340E+00    1.335E+00    1.330E+00    1.324E+00    1.319E+00    1.314E+00    1.309E+00    1.303E+00    1.298E+00    1.293E+00
     1.288E+00    1.282E+00    1.277E+00    1.272E+00    1.266E+00    1.261E+00    1.256E+00    1.251E+00    1.245E+00    1.240E+00
     1.235E+00    1.230E+00    1.224E+00    1.219E+00    1.214E+00    1.208E+00    1.203E+00    1.198E+00    1.193E+00    1.187E+00
     1.182E+00    1.177E+00    1.172E+00    1.166E+00    1.161E+00    1.156E+00    1.150E+00    1.145E+00    1.140E+00    1.135E+00
     1.129E+00    1.124E+00    1.119E+00    1.114E+00    1.108E+00    1.103E+00    1.098E+00    1.092E+00    1.087E+00    1.082E+00
     1.077E+00    1.071E+00    1.066E+00    1.061E+00    1.056E+00    1.050E+00    1.045E+00    1.040E+00    1.034E+00    1.029E+00
     1.024E+00    1.019E+00    1.013E+00    1.008E+00    1.003E+00    9.975E-01    9.922E-01    9.870E-01    9.817E-01    9.764E-01
     9.711E-01    9.659E-01    9.606E-01    9.553E-01    9.500E-01    9.448E-01    9.395E-01    9.342E-01    9.289E-01    9.237E-01
     9.184E-01    9.131E-01    9.079E-01    9.026E-01    8.973E-01    8.920E-01    8.868E-01    8.815E-01    8.762E-01    8.709E-01
     8.657E-01    8.604E-01    8.551E-01    8.498E-01    8.446E-01    8.393E-01    8.340E-01    8.288E-01    8.235E-01    8.182E-01
     8.129E-01    8.077E-01    8.024E-01    7.971E-01    7.918E-01    7.866E-01    7.813E-01    7.760E-01    7.707E-01    7.655E-01
     7.602E-01    7.549E-01    7.497E-01    7.444E-01    7.391E-01    7.338E-01    7.286E-01    7.233E-01    7.180E-01    7.127E-01
     7.075E-01    7.022E-01    6.969E-01    6.916E-01    6.864E-01    6.811E-01    6.758E-01    6.706E-01    6.653E-01    6.600E-01
     6.547E-01    6.495E-01    6.442E-01    6.389E-01    6.336E-01    6.284E-01    6.231E-01    6.178E-01    6.125E-01    6.073E-01
     6.020E-01    5.967E-01    5.915E-01    5.862E-01    5.809E-01    5.756E-01    5.704E-01    5.651E-01    5.598E-01    5.545E-01
     5.493E-01    5.440E-01    5.387E-01    5.334E-01    5.282E-01    5.229E-01    5.176E-01    5.124E-01    5.071E-01    5.018E-01
     4.965E-01    4.913E-01    4.860E-01    4.807E-01    4.754E-01    4.702E-01    4.649E-01    4.596E-01    4.544E-01    4.491E-01
     4.438E-01    4.385E-01    4.333E-01    4.280E-01    4.227E-01    4.174E-01    4.122E-01    4.069E-01    4.016E-01    3.963E-01
     3.911E-01    3.858E-01    3.805E-01    3.753E-01    3.700E-01    3.647E-01    3.594E-01    3.542E-01    3.489E-01    3.436E-01
     3.383E-01    3.331E-01    3.278E-01    3.225E-01    3.172E-01    3.120E-01    3.067E-01    3.014E-01    2.962E-01    2.909E-01
     2.856E-01    2.803E-01    2.751E-01    2.698E-01    2.645E-01    2.592E-01    2.540E-01    2.487E-01    2.434E-01    2.382E-01
     2.329E-01    2.276E-01    2.223E-01    2.171E-01    2.118E-01    2.065E-01    2.012E-01    1.960E-01    1.907E-01    1.854E-01
     1.802E-01    1.749E-01    1.696E-01    1.643E-01    1.591E-01    1.538E-01    1.485E-01    1.432E-01    1.380E-01    1.327E-01
     1.274E-01    1.221E-01    1.169E-01    1.116E-01    1.063E-01    1.011E-01    9.578E-02    9.051E-02    8.524E-02    7.996E-02
     7.469E-02    6.942E-02    6.415E-02    5.887E-02    5.360E-02    4.833E-02    4.305E-02    3.778E-02    3.251E-02    2.724E-02
     2.196E-02    1.669E-02    1.142E-02    6.145E-03    8.723E-04   -4.401E-03   -9.673E-03   -1.495E-02   -2.022E-02   -2.549E-02
    -3.076E-02   -3.604E-02   -4.131E-02   -4.658E-02   -5.186E-02   -5.713E-02   -6.240E-02   -6.767E-02   -7.295E-02   -7.822E-02
    -8.349E-02   -8.876E-02   -9.404E-02   -9.931E-02   -1.046E-01   -1.099E-01   -1.151E-01   -1.204E-01   -1.257E-01   -1.309E-01
    -1.362E-01   -1.415E-01   -1.468E-01   -1.520E-01   -1.573E-01   -1.626E-01   -1.679E-01   -1.731E-01   -1.784E-01   -1.837E-01
    -1.889E-01   -1.942E-01   -1.995E-01   -2.048E-01   -2.100E-01   -2.153E-01   -2.206E-01   -2.259E-01   -2.311E-01   -2.364E-01
    -2.417E-01   -2.469E-01   -2.522E-01   -2.575E-01   -2.628E-01   -2.680E-01   -2.733E-01   -2.786E-01   -2.839E-01   -2.891E-01
    -2.944E-01   -2.997E-01   -3.049E-01   -3.102E-01   -3.155E-01   -3.208E-01   -3.260E-01   -3.313E-01   -3.366E-01   -3.418E-01
    -3.471E-01   -3.524E-01   -3.577E-01   -3.629E-01   -3.682E-01   -3.735E-01   -3.788E-01   -3.840E-01   -3.893E-01   -3.946E-01
    -3.998E-01   -4.051E-01   -4.104E-01   -4.157E-01   -4.209E-01   -4.262E-01   -4.315E-01   -4.368E-01   -4.420E-01   -4.473E-01
    -4.526E-01   -4.578E-01   -4.631E-01   -4.684E-01   -4.737E-01   -4.789E-01   -4.842E-01   -4.895E-01   -4.947E-01   -5.000E-01
    -5.053E-01   -5.106E-01   -5.158E-01   -5.211E-01   -5.264E-01   -5.317E-01   -5.369E-01   -5.422E-01   -5.475E-01   -5.527E-01
    -5.580E-01   -5.633E-01   -5.686E-01   -5.738E-01   -5.791E-01   -5.844E-01   -5.896E-01   -5.949E-01   -6.002E-01   -6.055E-01
    -6.107E-01   -6.160E-01   -6.213E-01   -6.266E-01   -6.318E-01   -6.371E-01   -6.424E-01   -6.476E-01   -6.529E-01   -6.582E-01
    -6.635E-01   -6.687E-01   -6.740E-01   -6.793E-01   -6.845E-01   -6.898E-01   -6.951E-01   -7.004E-01   -7.056E-01   -7.109E-01
    -7.162E-01   -7.215E-01   -7.267E-01   -7.320E-01   -7.373E-01   -7.425E-01   -7.478E-01   -7.531E-01   -7.584E-01   -7.636E-01
    -7.689E-01   -7.742E-01   -7.794E-01   -7.847E-01   -7.900E-01   -7.953E-01   -8.005E-01   -8.058E-01   -8.111E-01   -8.163E-01
    -8.216E-01   -8.269E-01   -8.322E-01   -8.374E-01   -8.427E-01   -8.480E-01   -8.533E-01   -8.585E-01   -8.638E-01   -8.691E-01
    -8.743E-01   -8.796E-01   -8.849E-01   -8.902E-01   -8.954E-01   -9.007E-01   -9.060E-01   -9.112E-01   -9.165E-01   -9.218E-01
    -9.271E-01   -9.323E-01   -9.376E-01   -9.429E-01   -9.482E-01   -9.534E-01   -9.587E-01   -9.640E-01   -9.692E-01   -9.745E-01
    -9.798E-01   -9.851E-01   -9.903E-01   -9.956E-01   -1.001E+00   -1.006E+00   -1.011E+00   -1.017E+00   -1.022E+00   -1.027E+00
    -1.033E+00   -1.038E+00   -1.043E+00   -1.048E+00   -1.054E+00   -1.059E+00   -1.064E+00   -1.069E+00   -1.075E+00   -1.080E+00
    -1.085E+00   -1.090E+00   -1.096E+00   -1.101E+00   -1.106E+00   -1.112E+00   -1.117E+00   -1.122E+00
 Asp      Conc. = 2.04E+00
