 LCModel (Version 6.3-1L) Copyright: S.W. Provencher.          Ref.: Magn. Reson. Med. 30:672-679 (1993).                
 Slice#1 Row#13 Col#13  PD_05_press_1_raw_act
 36 lines in following concentration table = NCONC+1
    Conc.  %SD /Cr+PCr  Metabolite                                         
   24.729  80%   1.078 Ala                                                 
    2.634  63%   0.115 Asp                                                 
    3.103 829%   0.135 Cr                                                  
   19.846 135%   0.865 PCr                                                 
    1.585  63% 6.9E-02 GABA                                                
    1.584  63% 6.9E-02 Glc                                                 
    0.000 999%   0.000 Gln                                                 
   11.818 319%   0.515 Glu                                                 
    0.000 999%   0.000 GPC                                                 
    5.942  65%   0.259 PCh                                                 
   24.875  58%   1.084 GSH                                                 
   43.604  97%   1.900 Ins                                                 
    0.000 999%   0.000 Lac                                                 
   11.855  94%   0.517 NAA                                                 
    0.000 999%   0.000 NAAG                                                
    0.517  64% 2.3E-02 Scyllo                                              
    2.597  64%   0.113 Tau                                                 
    2.174 120% 9.5E-02 -CrCH2                                              
    5.942  65%   0.259 GPC+PCh                                             
   11.855  94%   0.517 NAA+NAAG                                            
   22.949  46%   1.000 Cr+PCr                                              
   11.818 319%   0.515 Glu+Gln                                             
 1.40E+03  11%  60.827 Lip13a                                              
    0.000 999%   0.000 Lip13b                                              
  521.598  12%  22.728 Lip09                                               
    0.000 999%   0.000 MM09                                                
  157.709  36%   6.872 Lip20                                               
    0.000 999%   0.000 MM20                                                
    0.000 999%   0.000 MM12                                                
    0.000 999%   0.000 MM14                                                
   67.527  73%   2.942 MM17                                                
 1.40E+03  11%  60.827 Lip13a+Lip13b                                       
 1.40E+03  11%  60.827 MM14+Lip13a+Lip13b+MM12                             
  521.598  12%  22.728 MM09+Lip09                                          
  157.709  36%   6.872 MM20+Lip20                                          
   6 lines in following misc. output table
  FWHM = 0.046 ppm    S/N =   2                                            
  Data shift = 0.015 ppm                                                   
  Ph:   4 deg     -30.3 deg/ppm                                            
  alphaB,S = 8.5E+01,   6.4E+00                                            
   14 spline knots.   Ns = 5(1)                                            
   2 inflections.     1 extrema                                            
  498 points on ppm-axis = NY
      4.000000     3.992357     3.984714     3.977070     3.969427     3.961784     3.954141     3.946497     3.938854     3.931211
      3.923568     3.915925     3.908281     3.900638     3.892995     3.885352     3.877708     3.870065     3.862422     3.854779
      3.847136     3.839492     3.831849     3.824206     3.816563     3.808919     3.801276     3.793633     3.785990     3.778347
      3.770703     3.763060     3.755417     3.747774     3.740130     3.732487     3.724844     3.717201     3.709558     3.701914
      3.694271     3.686628     3.678985     3.671341     3.663698     3.656055     3.648412     3.640769     3.633125     3.625482
      3.617839     3.610196     3.602552     3.594909     3.587266     3.579623     3.571980     3.564336     3.556693     3.549050
      3.541407     3.533763     3.526120     3.518477     3.510834     3.503191     3.495547     3.487904     3.480261     3.472618
      3.464974     3.457331     3.449688     3.442045     3.434402     3.426758     3.419115     3.411472     3.403829     3.396185
      3.388542     3.380899     3.373256     3.365613     3.357969     3.350326     3.342683     3.335040     3.327396     3.319753
      3.312110     3.304467     3.296824     3.289180     3.281537     3.273894     3.266251     3.258607     3.250964     3.243321
      3.235678     3.228034     3.220391     3.212748     3.205105     3.197462     3.189818     3.182175     3.174532     3.166889
      3.159245     3.151602     3.143959     3.136316     3.128673     3.121029     3.113386     3.105743     3.098100     3.090456
      3.082813     3.075170     3.067527     3.059884     3.052240     3.044597     3.036954     3.029311     3.021667     3.014024
      3.006381     2.998738     2.991095     2.983451     2.975808     2.968165     2.960522     2.952878     2.945235     2.937592
      2.929949     2.922306     2.914662     2.907019     2.899376     2.891733     2.884089     2.876446     2.868803     2.861160
      2.853517     2.845873     2.838230     2.830587     2.822944     2.815300     2.807657     2.800014     2.792371     2.784728
      2.777084     2.769441     2.761798     2.754155     2.746511     2.738868     2.731225     2.723582     2.715939     2.708295
      2.700652     2.693009     2.685366     2.677722     2.670079     2.662436     2.654793     2.647150     2.639506     2.631863
      2.624220     2.616577     2.608933     2.601290     2.593647     2.586004     2.578361     2.570717     2.563074     2.555431
      2.547788     2.540144     2.532501     2.524858     2.517215     2.509572     2.501928     2.494285     2.486642     2.478999
      2.471355     2.463712     2.456069     2.448426     2.440783     2.433139     2.425496     2.417853     2.410210     2.402566
      2.394923     2.387280     2.379637     2.371994     2.364350     2.356707     2.349064     2.341421     2.333777     2.326134
      2.318491     2.310848     2.303205     2.295561     2.287918     2.280275     2.272632     2.264988     2.257345     2.249702
      2.242059     2.234416     2.226772     2.219129     2.211486     2.203843     2.196199     2.188556     2.180913     2.173270
      2.165627     2.157983     2.150340     2.142697     2.135054     2.127410     2.119767     2.112124     2.104481     2.096838
      2.089194     2.081551     2.073908     2.066265     2.058621     2.050978     2.043335     2.035692     2.028049     2.020405
      2.012762     2.005119     1.997476     1.989833     1.982190     1.974546     1.966903     1.959260     1.951617     1.943974
      1.936331     1.928688     1.921045     1.913402     1.905759     1.898115     1.890472     1.882829     1.875186     1.867543
      1.859900     1.852257     1.844614     1.836971     1.829327     1.821684     1.814041     1.806398     1.798755     1.791112
      1.783469     1.775826     1.768183     1.760540     1.752896     1.745253     1.737610     1.729967     1.722324     1.714681
      1.707038     1.699395     1.691752     1.684108     1.676465     1.668822     1.661179     1.653536     1.645893     1.638250
      1.630607     1.622964     1.615321     1.607677     1.600034     1.592391     1.584748     1.577105     1.569462     1.561819
      1.554176     1.546533     1.538890     1.531246     1.523603     1.515960     1.508317     1.500674     1.493031     1.485388
      1.477745     1.470102     1.462458     1.454815     1.447172     1.439529     1.431886     1.424243     1.416600     1.408957
      1.401314     1.393671     1.386027     1.378384     1.370741     1.363098     1.355455     1.347812     1.340169     1.332526
      1.324883     1.317240     1.309596     1.301953     1.294310     1.286667     1.279024     1.271381     1.263738     1.256095
      1.248452     1.240808     1.233165     1.225522     1.217879     1.210236     1.202593     1.194950     1.187307     1.179664
      1.172021     1.164377     1.156734     1.149091     1.141448     1.133805     1.126162     1.118519     1.110876     1.103233
      1.095590     1.087946     1.080303     1.072660     1.065017     1.057374     1.049731     1.042088     1.034445     1.026802
      1.019158     1.011515     1.003872     0.996229     0.988586     0.980943     0.973300     0.965657     0.958014     0.950371
      0.942727     0.935084     0.927441     0.919798     0.912155     0.904512     0.896869     0.889226     0.881583     0.873940
      0.866296     0.858653     0.851010     0.843367     0.835724     0.828081     0.820438     0.812795     0.805152     0.797508
      0.789865     0.782222     0.774579     0.766936     0.759293     0.751650     0.744007     0.736364     0.728721     0.721077
      0.713434     0.705791     0.698148     0.690505     0.682862     0.675219     0.667576     0.659933     0.652290     0.644646
      0.637003     0.629360     0.621717     0.614074     0.606431     0.598788     0.591145     0.583502     0.575858     0.568215
      0.560572     0.552929     0.545286     0.537643     0.530000     0.522357     0.514714     0.507071     0.499427     0.491784
      0.484141     0.476498     0.468855     0.461212     0.453569     0.445925     0.438282     0.430639     0.422996     0.415353
      0.407710     0.400067     0.392424     0.384780     0.377137     0.369494     0.361851     0.354208     0.346565     0.338922
      0.331278     0.323635     0.315992     0.308349     0.300706     0.293063     0.285420     0.277777     0.270133     0.262490
      0.254847     0.247204     0.239561     0.231918     0.224275     0.216631     0.208988     0.201345
 NY phased data points follow
   4.63762E-02 -7.15809E-01  7.28564E-01 -2.61118E-01 -2.28789E-01  6.33105E-01  2.75049E-01  1.48847E+00 -3.47268E-01  1.70620E+00
   5.64088E-02  1.31844E-01  1.26199E-01 -5.44200E-02  2.10470E-01 -1.03006E+00 -1.07997E+00  1.05042E+00 -1.61678E-01  9.20106E-01
  -4.26169E-01  7.32190E-01 -5.39800E-01 -3.54938E-01  3.24774E-01  5.26674E-01  2.20467E-01  8.75798E-01  1.47429E+00  6.19241E-01
   8.46351E-01  2.31930E-02  2.98417E-01  1.63333E+00  1.51106E+00 -1.93600E+00 -8.90366E-01  1.47733E+00 -7.03934E-02 -7.20123E-01
  -1.14555E+00  9.40175E-01  5.68467E-01  3.66166E-01  1.61243E+00  3.71411E-02 -1.01463E+00 -4.05726E-01 -3.06988E-01  1.11744E-01
   6.82504E-01  5.06328E-01 -7.80873E-01 -8.00271E-01 -4.46041E-01  5.39735E-01 -6.54799E-01  8.70593E-01 -4.76074E-01 -3.50549E-01
   9.50092E-01 -4.49026E-01 -1.18482E-01 -5.21998E-02 -5.50609E-01  4.30621E-01 -7.21313E-01  2.02916E-02 -4.38573E-01  7.92410E-01
   3.45010E-01 -6.03525E-01  7.49726E-01  3.90202E-01 -1.57433E-01 -1.15371E-01  1.59292E-01 -5.58363E-01  2.18914E+00  4.74083E-01
   5.67784E-01  7.82574E-01  8.86437E-01 -5.73495E-01 -1.09647E+00 -1.67203E+00  1.44142E-01  5.34623E-01 -2.71614E-02 -5.27327E-01
   1.51288E+00 -4.34399E-01  8.97847E-01  7.04705E-02  1.64079E-01 -8.17748E-01  3.48200E-01  5.99049E-01 -7.21854E-01  1.06926E+00
   1.24918E+00 -3.43967E-01  1.33572E+00  5.20030E-01  7.74786E-01 -5.49634E-01 -7.35190E-01  4.06752E-01 -6.43994E-01 -5.62939E-04
  -6.60731E-01  5.01143E-01 -3.37602E-01  1.50385E+00 -1.24290E+00  1.11804E+00 -6.47559E-01 -1.15092E+00  1.01704E+00 -6.03163E-01
   9.88863E-03  2.14367E-01  6.80720E-01  5.50826E-01  1.29023E+00  4.28740E-01  1.28349E+00  1.11575E+00  4.72761E-01  8.33473E-01
   2.41759E-01 -2.02666E+00  6.19623E-01  1.69775E+00 -1.19013E+00 -2.26905E-01  2.45796E-01 -1.55206E+00  3.83061E-01  2.63644E+00
   1.23843E+00 -4.12774E-01  5.28114E-01  3.45230E-01  2.65469E-01 -4.54882E-01 -9.35480E-01 -3.53324E-01  1.06830E-01  1.20393E+00
   6.09250E-01 -1.72961E-01  6.44324E-01  8.66713E-02  1.33713E+00  7.90693E-01  5.61761E-01 -2.09324E-02 -7.84372E-02 -8.60239E-01
   4.80746E-01 -5.20411E-01 -1.91572E-01  6.26808E-01 -4.22836E-03 -6.31435E-01  4.30564E-01 -4.12088E-01  4.93902E-01 -7.61765E-01
   8.08293E-01  2.57280E-01  1.60959E+00 -9.96812E-02 -2.14263E-01 -1.69464E+00  1.13746E-01  3.31547E-01 -8.36146E-01  6.77564E-01
   1.37521E+00  1.69454E+00  1.95675E+00  6.67802E-01 -2.12427E-01  3.69474E-01 -1.04831E+00  1.33605E+00  2.28035E-02  4.80161E-01
   6.41315E-01  5.43495E-01  1.98417E+00 -4.03234E-02 -2.36296E-01  1.00939E+00  2.48236E-01  1.64832E-01  1.18745E+00  9.94483E-01
  -5.40568E-01  3.00042E-01  3.40125E-01 -1.70322E-01  9.59839E-01  9.12173E-01  7.60449E-01 -4.08690E-01  7.38183E-01  1.18319E+00
  -2.70146E-01 -2.60502E-01 -1.81599E-01  6.27062E-01  1.09624E+00  1.37157E-01  1.82970E-01 -4.15170E-01 -1.61540E-01  7.88256E-01
   9.72702E-01  1.35278E-01 -1.94247E-01  1.31518E+00 -2.98736E-01  1.23268E+00 -3.95943E-01 -9.29116E-01  4.34600E-01  1.40967E+00
  -3.34408E-02  4.11044E-01  5.17355E-01 -7.97688E-01 -5.98402E-02 -4.38089E-01  3.74973E-01  1.24250E+00 -1.83292E+00  8.72999E-01
   1.32060E-01  1.76272E+00  6.34308E-01  9.34582E-01  7.08231E-01  6.45190E-01  3.73133E-01  1.20746E-01 -2.87185E-01 -2.62098E-02
   7.48560E-01  5.68255E-01  5.72029E-01  9.97312E-01  3.74368E-01  7.08635E-01  8.18694E-01 -1.02779E+00  2.26743E+00  2.07766E+00
   9.30803E-01  1.64360E+00  1.51791E+00 -9.95652E-02  1.63007E+00  1.76522E+00 -1.30960E+00  7.14162E-01  7.89350E-02  2.32689E+00
   1.06166E+00  6.22482E-01 -2.37530E-01  1.73414E+00  4.83228E-01  4.09094E-01  8.88392E-01  2.78915E+00 -2.06577E-01  6.00919E-01
  -2.64309E-01  7.18742E-01  5.28927E-01  1.60185E+00  1.43963E+00  3.39868E-01  4.39981E-01  1.61143E+00  6.85546E-01  6.37913E-01
   6.77868E-01  1.12030E+00  9.99266E-01 -1.02708E-01  5.83256E-01  2.68670E+00 -9.09514E-01  1.68611E+00  9.02539E-01  1.05013E+00
   2.58611E-01  4.51057E-01  3.00355E-01  8.80790E-01  1.68705E+00  8.73733E-01 -5.25877E-01  1.33104E+00  1.85602E+00  2.28577E+00
   2.60992E+00 -9.14770E-02  1.20501E+00  7.34161E-01  1.70504E+00  3.90361E-01  1.01906E+00  2.63822E+00  2.49345E+00  1.44234E+00
   2.21728E+00  2.04558E+00  1.11935E+00  1.77844E+00  3.15915E-01  1.12113E+00  2.46460E+00  1.96855E+00  8.43844E-01 -9.50794E-03
   6.08466E-01  1.92373E+00  2.48670E+00  1.63523E+00  1.47660E+00  1.63431E+00  2.27661E+00  2.14610E+00  2.09528E+00  3.13509E+00
   2.47051E+00  2.69945E+00  3.81035E+00  2.74307E+00  3.92378E+00  2.34424E+00  3.88381E+00  3.94605E+00  3.62406E+00  3.50501E+00
   4.69774E+00  2.86531E+00  4.06693E+00  3.76791E+00  3.47001E+00  3.21850E+00  2.69746E+00  3.79337E+00  2.76456E+00  1.93523E+00
   2.49384E+00  3.45860E+00  2.73988E+00  2.36303E+00  2.47604E+00  3.47746E+00  3.44227E+00  3.73273E+00  4.11590E+00  2.94528E+00
   2.57550E+00  3.36265E+00  5.19056E+00  3.66385E+00  3.69427E+00  3.79784E+00  3.37643E+00  3.49889E+00  5.14644E+00  5.33994E+00
   6.17302E+00  5.13175E+00  3.57591E+00  4.00204E+00  4.39021E+00  2.22553E+00  3.88939E+00  5.04521E+00  5.42408E+00  2.28108E+00
   3.36317E+00  3.53567E+00  3.36131E+00  3.59178E+00  3.11927E+00  3.86524E+00  3.12177E+00  2.26925E+00  3.04561E+00  2.00261E+00
   4.66671E+00  2.24549E+00  3.59210E+00  3.84630E+00  2.46469E+00  2.37134E+00  2.54161E+00  3.78154E+00  3.46633E+00  2.79235E+00
   4.29018E+00  3.21602E+00  1.15310E+00  3.22436E+00  1.27606E+00  2.89311E+00  3.02849E+00  3.46853E+00  1.26461E+00  1.44038E+00
   1.97243E+00  2.55549E+00  2.07566E+00  1.07935E+00  3.49507E-01  9.57294E-01  2.10288E+00  5.25327E-01  1.16882E+00  1.12002E+00
  -4.84293E-01  1.99527E+00  1.52040E+00  1.99350E+00  1.26491E-02  9.93437E-01  1.47548E+00 -9.43577E-01  1.96228E-01  2.20493E+00
   2.34839E+00  1.32495E-01  1.49045E+00  4.01142E-01  1.24351E+00  8.98403E-01  9.84178E-03  1.40896E-01  3.61164E-02  2.54746E-01
   4.60501E-01 -3.86270E-01 -3.94643E-01 -1.77286E-03  7.12511E-01 -1.97682E-01  2.76137E-01  1.79213E-01  1.36272E-01  1.02958E+00
   1.80526E+00  1.76787E-01  2.04784E+00 -3.20806E-01  1.15959E+00 -1.53369E+00  1.60224E+00  3.12418E-03  1.93926E+00 -6.93511E-02
   1.29181E+00  2.79891E-01 -5.26354E-01  4.51395E-01  8.51420E-01  4.63102E-01 -1.44213E+00 -1.07122E-01  1.42862E-02  4.55271E-01
  -4.98218E-01  3.70737E-01  8.84707E-01 -1.01978E+00  3.80246E-01  5.12365E-01  2.37373E-01  8.39397E-01 -9.94610E-01  1.43866E-01
   5.04404E-01  5.37438E-01 -1.11062E-01 -4.22175E-02 -4.08384E-03 -1.37084E+00  2.37853E-01  6.92042E-01
 NY points of the fit to the data follow
  -7.98257E-03 -8.43114E-03  3.79944E-03  4.88166E-02  2.07124E-01  3.89209E-01  4.84100E-01  5.28597E-01  5.38218E-01  4.69156E-01
   3.17975E-01  1.69624E-01  7.64345E-02  4.11024E-03 -4.22859E-02 -4.18287E-02 -2.43646E-02  4.52238E-04  3.43759E-02  5.69844E-02
   7.75652E-02  7.74703E-02  4.61911E-02  1.06507E-02  6.10730E-02  3.23459E-01  5.63534E-01  6.34817E-01  6.83513E-01  7.34763E-01
   6.38155E-01  3.98665E-01  2.30604E-01  1.94734E-01  1.41554E-01  6.06801E-02  3.41991E-02  2.45805E-02 -1.12760E-02 -4.61617E-02
  -4.76717E-02 -6.34284E-03  1.07598E-01  2.72833E-01  3.88095E-01  4.11236E-01  3.81786E-01  3.11598E-01  1.85129E-01  4.07852E-02
  -4.81055E-02 -6.75950E-02 -5.76214E-02 -3.61618E-02  1.45856E-02  8.47316E-02  1.42355E-01  1.78306E-01  1.89931E-01  1.76858E-01
   1.35985E-01  7.98859E-02  3.74236E-02  1.58330E-02  1.76715E-02  3.58041E-02  6.30435E-02  1.04132E-01  1.36574E-01  1.46388E-01
   1.48467E-01  1.51279E-01  1.43409E-01  1.21965E-01  1.02626E-01  9.12670E-02  7.88777E-02  6.84636E-02  6.55729E-02  6.55566E-02
   6.71335E-02  7.04614E-02  5.50883E-02  1.51483E-02 -2.94166E-02 -6.11397E-02 -8.09694E-02 -8.59972E-02 -6.63456E-02 -2.56268E-02
   1.45859E-02  4.91071E-02  7.12605E-02  7.11768E-02  5.82580E-02  4.19320E-02  2.96324E-02  4.69294E-02  2.06439E-01  4.89051E-01
   6.52240E-01  6.93889E-01  7.08406E-01  6.53775E-01  4.67761E-01  2.44638E-01  1.18748E-01  6.82872E-02  2.85803E-02  2.08322E-02
   3.88165E-02  4.62639E-02  4.99268E-02  5.30479E-02  5.45978E-02  5.03788E-02  4.60817E-02  4.64494E-02  5.00586E-02  6.21856E-02
   1.00362E-01  2.28354E-01  5.79814E-01  9.13408E-01  1.03693E+00  1.06599E+00  1.05511E+00  9.11405E-01  6.57862E-01  4.69116E-01
   3.66832E-01  2.56285E-01  1.50485E-01  8.14923E-02  1.91838E-02 -8.41207E-03  3.41276E-02  1.30101E-01  2.22113E-01  2.95220E-01
   3.42768E-01  3.52406E-01  3.32671E-01  3.01743E-01  2.81219E-01  2.73284E-01  2.67000E-01  2.64028E-01  2.65873E-01  2.64235E-01
   2.58837E-01  2.59388E-01  2.67858E-01  2.76738E-01  2.84400E-01  2.91619E-01  2.93844E-01  2.90380E-01  2.85769E-01  2.82907E-01
   2.82696E-01  2.81808E-01  2.80980E-01  2.80331E-01  2.77020E-01  2.70519E-01  2.62651E-01  2.55899E-01  2.51137E-01  2.45165E-01
   2.34761E-01  2.19366E-01  2.01980E-01  1.89185E-01  1.78563E-01  1.67230E-01  1.55751E-01  1.47092E-01  1.40952E-01  1.34813E-01
   1.18081E-01  9.74573E-02  8.30058E-02  7.61255E-02  8.37369E-02  1.18678E-01  1.81255E-01  2.49556E-01  2.94922E-01  3.08351E-01
   2.92189E-01  2.42121E-01  1.54681E-01  5.22279E-02  6.83979E-03  2.10541E-02  5.17693E-02  9.45228E-02  1.61660E-01  2.30706E-01
   2.64122E-01  2.68602E-01  2.67902E-01  2.64283E-01  2.56923E-01  2.47582E-01  2.39223E-01  2.35785E-01  2.34867E-01  2.38195E-01
   2.52646E-01  2.90368E-01  3.26748E-01  3.43960E-01  3.53332E-01  3.55883E-01  3.37968E-01  2.97616E-01  2.62417E-01  2.60692E-01
   2.84815E-01  3.16528E-01  3.60075E-01  4.13080E-01  4.58243E-01  4.76539E-01  4.54871E-01  4.11593E-01  3.89364E-01  3.93284E-01
   4.13247E-01  4.60502E-01  5.52934E-01  6.55152E-01  6.83910E-01  6.42342E-01  5.80514E-01  5.04646E-01  4.08195E-01  3.31194E-01
   3.32097E-01  4.04948E-01  4.88400E-01  5.66048E-01  6.41673E-01  6.93089E-01  7.01938E-01  6.78950E-01  6.55499E-01  6.40695E-01
   6.33984E-01  6.40170E-01  6.59249E-01  6.82661E-01  7.22448E-01  8.50031E-01  1.05386E+00  1.16955E+00  1.19572E+00  1.20313E+00
   1.16084E+00  1.02230E+00  8.54447E-01  7.51773E-01  6.97815E-01  6.47939E-01  6.20611E-01  6.13602E-01  6.00501E-01  5.87772E-01
   5.78659E-01  5.71580E-01  5.65887E-01  5.60700E-01  5.54426E-01  5.46932E-01  5.39066E-01  5.32107E-01  5.26729E-01  5.23691E-01
   5.23723E-01  5.27043E-01  5.33276E-01  5.41635E-01  5.51986E-01  5.64566E-01  5.78824E-01  5.94450E-01  6.12122E-01  6.31970E-01
   6.53682E-01  6.77255E-01  7.02825E-01  7.30159E-01  7.58886E-01  7.88797E-01  8.19612E-01  8.50878E-01  8.82213E-01  9.13228E-01
   9.43463E-01  9.72522E-01  1.00008E+00  1.02587E+00  1.04972E+00  1.07152E+00  1.09130E+00  1.10918E+00  1.12539E+00  1.14024E+00
   1.15417E+00  1.16769E+00  1.18140E+00  1.19599E+00  1.21221E+00  1.23094E+00  1.25322E+00  1.28036E+00  1.31430E+00  1.35838E+00
   1.41982E+00  1.51895E+00  1.67355E+00  1.74207E+00  1.67076E+00  1.57343E+00  1.47954E+00  1.34273E+00  1.19077E+00  1.12000E+00
   1.24446E+00  1.51755E+00  1.78309E+00  2.02306E+00  2.25784E+00  2.45120E+00  2.53795E+00  2.54383E+00  2.56398E+00  2.61178E+00
   2.65982E+00  2.72794E+00  2.81755E+00  2.90825E+00  2.99881E+00  3.08900E+00  3.17797E+00  3.26479E+00  3.34854E+00  3.42833E+00
   3.50330E+00  3.57266E+00  3.63567E+00  3.69168E+00  3.74015E+00  3.78060E+00  3.81271E+00  3.83627E+00  3.85120E+00  3.85756E+00
   3.85555E+00  3.84550E+00  3.82787E+00  3.80324E+00  3.77230E+00  3.73585E+00  3.69474E+00  3.64990E+00  3.60231E+00  3.55298E+00
   3.50293E+00  3.45317E+00  3.40469E+00  3.35847E+00  3.31540E+00  3.27633E+00  3.24204E+00  3.21321E+00  3.19042E+00  3.17413E+00
   3.16468E+00  3.16226E+00  3.16692E+00  3.17855E+00  3.19686E+00  3.22138E+00  3.25146E+00  3.28628E+00  3.32484E+00  3.36597E+00
   3.40839E+00  3.45067E+00  3.49131E+00  3.52878E+00  3.56155E+00  3.58811E+00  3.60708E+00  3.61720E+00  3.61741E+00  3.60688E+00
   3.58501E+00  3.55149E+00  3.50629E+00  3.44965E+00  3.38211E+00  3.30440E+00  3.21749E+00  3.12253E+00  3.02077E+00  2.91355E+00
   2.80225E+00  2.68823E+00  2.57280E+00  2.45720E+00  2.34253E+00  2.22980E+00  2.11986E+00  2.01341E+00  1.91100E+00  1.81306E+00
   1.71988E+00  1.63162E+00  1.54837E+00  1.47009E+00  1.39671E+00  1.32807E+00  1.26399E+00  1.20426E+00  1.14863E+00  1.09686E+00
   1.04869E+00  1.00388E+00  9.62171E-01  9.23342E-01  8.87169E-01  8.53443E-01  8.21970E-01  7.92567E-01  7.65073E-01  7.39331E-01
   7.15205E-01  6.92562E-01  6.71290E-01  6.51279E-01  6.32435E-01  6.14668E-01  5.97899E-01  5.82052E-01  5.67063E-01  5.52868E-01
   5.39415E-01  5.26649E-01  5.14527E-01  5.03004E-01  4.92042E-01  4.81604E-01  4.71658E-01  4.62172E-01  4.53120E-01  4.44472E-01
   4.36208E-01  4.28303E-01  4.20740E-01  4.13496E-01  4.06556E-01  3.99900E-01  3.93518E-01  3.87391E-01  3.81508E-01  3.75855E-01
   3.70423E-01  3.65197E-01  3.60171E-01  3.55333E-01  3.50676E-01  3.46189E-01  3.41866E-01  3.37697E-01  3.33679E-01  3.29802E-01
   3.26062E-01  3.22451E-01  3.18965E-01  3.15597E-01  3.12346E-01  3.09203E-01  3.06166E-01  3.03228E-01  3.00389E-01  2.97642E-01
   2.94987E-01  2.92417E-01  2.89931E-01  2.87523E-01  2.85194E-01  2.82939E-01  2.80758E-01  2.78645E-01
 NY background values follow
    -8.596E-02   -8.553E-02   -8.511E-02   -8.468E-02   -8.425E-02   -8.382E-02   -8.339E-02   -8.296E-02   -8.254E-02   -8.211E-02
    -8.168E-02   -8.125E-02   -8.082E-02   -8.039E-02   -7.997E-02   -7.954E-02   -7.911E-02   -7.868E-02   -7.825E-02   -7.783E-02
    -7.740E-02   -7.697E-02   -7.654E-02   -7.611E-02   -7.568E-02   -7.526E-02   -7.483E-02   -7.440E-02   -7.397E-02   -7.354E-02
    -7.311E-02   -7.269E-02   -7.226E-02   -7.183E-02   -7.140E-02   -7.097E-02   -7.054E-02   -7.012E-02   -6.969E-02   -6.926E-02
    -6.883E-02   -6.840E-02   -6.797E-02   -6.755E-02   -6.712E-02   -6.669E-02   -6.626E-02   -6.583E-02   -6.540E-02   -6.498E-02
    -6.455E-02   -6.412E-02   -6.369E-02   -6.326E-02   -6.283E-02   -6.241E-02   -6.198E-02   -6.155E-02   -6.112E-02   -6.069E-02
    -6.027E-02   -5.984E-02   -5.941E-02   -5.898E-02   -5.855E-02   -5.812E-02   -5.770E-02   -5.727E-02   -5.684E-02   -5.641E-02
    -5.598E-02   -5.555E-02   -5.513E-02   -5.470E-02   -5.427E-02   -5.384E-02   -5.341E-02   -5.298E-02   -5.256E-02   -5.213E-02
    -5.170E-02   -5.127E-02   -5.084E-02   -5.041E-02   -4.999E-02   -4.956E-02   -4.913E-02   -4.870E-02   -4.827E-02   -4.784E-02
    -4.742E-02   -4.699E-02   -4.656E-02   -4.613E-02   -4.570E-02   -4.527E-02   -4.485E-02   -4.442E-02   -4.399E-02   -4.356E-02
    -4.313E-02   -4.271E-02   -4.228E-02   -4.185E-02   -4.142E-02   -4.099E-02   -4.056E-02   -4.014E-02   -3.971E-02   -3.928E-02
    -3.885E-02   -3.842E-02   -3.799E-02   -3.757E-02   -3.714E-02   -3.671E-02   -3.628E-02   -3.585E-02   -3.542E-02   -3.500E-02
    -3.457E-02   -3.414E-02   -3.371E-02   -3.328E-02   -3.285E-02   -3.243E-02   -3.200E-02   -3.157E-02   -3.114E-02   -3.071E-02
    -3.028E-02   -2.986E-02   -2.943E-02   -2.900E-02   -2.857E-02   -2.814E-02   -2.772E-02   -2.729E-02   -2.686E-02   -2.643E-02
    -2.600E-02   -2.557E-02   -2.515E-02   -2.472E-02   -2.429E-02   -2.386E-02   -2.343E-02   -2.300E-02   -2.258E-02   -2.215E-02
    -2.172E-02   -2.129E-02   -2.086E-02   -2.043E-02   -2.001E-02   -1.958E-02   -1.915E-02   -1.872E-02   -1.829E-02   -1.786E-02
    -1.744E-02   -1.701E-02   -1.658E-02   -1.615E-02   -1.572E-02   -1.530E-02   -1.487E-02   -1.444E-02   -1.401E-02   -1.358E-02
    -1.315E-02   -1.273E-02   -1.230E-02   -1.187E-02   -1.144E-02   -1.101E-02   -1.058E-02   -1.016E-02   -9.728E-03   -9.299E-03
    -8.871E-03   -8.443E-03   -8.015E-03   -7.586E-03   -7.158E-03   -6.730E-03   -6.301E-03   -5.873E-03   -5.445E-03   -5.017E-03
    -4.588E-03   -4.160E-03   -3.732E-03   -3.304E-03   -2.875E-03   -2.447E-03   -2.019E-03   -1.591E-03   -1.162E-03   -7.342E-04
    -3.059E-04    1.223E-04    5.505E-04    9.788E-04    1.407E-03    1.835E-03    2.264E-03    2.692E-03    3.120E-03    3.548E-03
     3.976E-03    4.405E-03    4.833E-03    5.261E-03    5.689E-03    6.118E-03    6.546E-03    6.974E-03    7.402E-03    7.831E-03
     8.259E-03    8.687E-03    9.115E-03    9.543E-03    9.972E-03    1.040E-02    1.083E-02    1.126E-02    1.168E-02    1.211E-02
     1.254E-02    1.297E-02    1.340E-02    1.383E-02    1.425E-02    1.468E-02    1.511E-02    1.554E-02    1.597E-02    1.639E-02
     1.682E-02    1.725E-02    1.768E-02    1.811E-02    1.854E-02    1.896E-02    1.939E-02    1.982E-02    2.025E-02    2.068E-02
     2.110E-02    2.153E-02    2.196E-02    2.239E-02    2.282E-02    2.325E-02    2.367E-02    2.410E-02    2.453E-02    2.496E-02
     2.539E-02    2.582E-02    2.624E-02    2.667E-02    2.710E-02    2.753E-02    2.796E-02    2.838E-02    2.881E-02    2.924E-02
     2.967E-02    3.010E-02    3.052E-02    3.095E-02    3.138E-02    3.181E-02    3.224E-02    3.267E-02    3.309E-02    3.352E-02
     3.395E-02    3.438E-02    3.481E-02    3.523E-02    3.566E-02    3.609E-02    3.652E-02    3.695E-02    3.738E-02    3.780E-02
     3.823E-02    3.866E-02    3.909E-02    3.952E-02    3.994E-02    4.037E-02    4.080E-02    4.123E-02    4.166E-02    4.208E-02
     4.251E-02    4.294E-02    4.337E-02    4.380E-02    4.423E-02    4.465E-02    4.508E-02    4.551E-02    4.594E-02    4.637E-02
     4.679E-02    4.722E-02    4.765E-02    4.808E-02    4.851E-02    4.893E-02    4.936E-02    4.979E-02    5.022E-02    5.065E-02
     5.108E-02    5.150E-02    5.193E-02    5.236E-02    5.279E-02    5.322E-02    5.364E-02    5.407E-02    5.450E-02    5.493E-02
     5.536E-02    5.578E-02    5.621E-02    5.664E-02    5.707E-02    5.750E-02    5.792E-02    5.835E-02    5.878E-02    5.921E-02
     5.964E-02    6.006E-02    6.049E-02    6.092E-02    6.135E-02    6.178E-02    6.221E-02    6.263E-02    6.306E-02    6.349E-02
     6.392E-02    6.435E-02    6.477E-02    6.520E-02    6.563E-02    6.606E-02    6.649E-02    6.691E-02    6.734E-02    6.777E-02
     6.820E-02    6.863E-02    6.905E-02    6.948E-02    6.991E-02    7.034E-02    7.077E-02    7.119E-02    7.162E-02    7.205E-02
     7.248E-02    7.291E-02    7.333E-02    7.376E-02    7.419E-02    7.462E-02    7.505E-02    7.547E-02    7.590E-02    7.633E-02
     7.676E-02    7.719E-02    7.761E-02    7.804E-02    7.847E-02    7.890E-02    7.933E-02    7.975E-02    8.018E-02    8.061E-02
     8.104E-02    8.147E-02    8.189E-02    8.232E-02    8.275E-02    8.318E-02    8.361E-02    8.403E-02    8.446E-02    8.489E-02
     8.532E-02    8.575E-02    8.617E-02    8.660E-02    8.703E-02    8.746E-02    8.789E-02    8.831E-02    8.874E-02    8.917E-02
     8.960E-02    9.003E-02    9.045E-02    9.088E-02    9.131E-02    9.174E-02    9.217E-02    9.259E-02    9.302E-02    9.345E-02
     9.388E-02    9.431E-02    9.473E-02    9.516E-02    9.559E-02    9.602E-02    9.645E-02    9.687E-02    9.730E-02    9.773E-02
     9.816E-02    9.859E-02    9.901E-02    9.944E-02    9.987E-02    1.003E-01    1.007E-01    1.012E-01    1.016E-01    1.020E-01
     1.024E-01    1.029E-01    1.033E-01    1.037E-01    1.041E-01    1.046E-01    1.050E-01    1.054E-01    1.059E-01    1.063E-01
     1.067E-01    1.071E-01    1.076E-01    1.080E-01    1.084E-01    1.089E-01    1.093E-01    1.097E-01    1.101E-01    1.106E-01
     1.110E-01    1.114E-01    1.119E-01    1.123E-01    1.127E-01    1.131E-01    1.136E-01    1.140E-01    1.144E-01    1.148E-01
     1.153E-01    1.157E-01    1.161E-01    1.166E-01    1.170E-01    1.174E-01    1.178E-01    1.183E-01    1.187E-01    1.191E-01
     1.196E-01    1.200E-01    1.204E-01    1.208E-01    1.213E-01    1.217E-01    1.221E-01    1.226E-01    1.230E-01    1.234E-01
     1.238E-01    1.243E-01    1.247E-01    1.251E-01    1.255E-01    1.260E-01    1.264E-01    1.268E-01
 Ala      Conc. = 2.47E+01
