 LCModel (Version 6.3-1L) Copyright: S.W. Provencher.          Ref.: Magn. Reson. Med. 30:672-679 (1993).                
 Slice#1 Row#9 Col#7  PD_05_press_1_raw_act
 36 lines in following concentration table = NCONC+1
    Conc.  %SD /Cr+PCr  Metabolite                                         
   88.856  84%   0.114 Ala                                                 
  127.588 111%   0.164 Asp                                                 
   98.051 132%   0.126 Cr                                                  
  679.431  20%   0.874 PCr                                                 
   37.200 242% 4.8E-02 GABA                                                
   15.851 580% 2.0E-02 Glc                                                 
  500.337  29%   0.644 Gln                                                 
 1.26E+03  14%   1.618 Glu                                                 
  296.255   5%   0.381 GPC                                                 
    0.000 999%   0.000 PCh                                                 
  214.962  24%   0.276 GSH                                                 
  924.392  17%   1.189 Ins                                                 
    0.000 999%   0.000 Lac                                                 
 1.61E+03   3%   2.075 NAA                                                 
    0.000 999%   0.000 NAAG                                                
   71.974  25% 9.3E-02 Scyllo                                              
  253.416  50%   0.326 Tau                                                 
   71.079  96% 9.1E-02 -CrCH2                                              
  296.255   5%   0.381 GPC+PCh                                             
 1.61E+03   3%   2.075 NAA+NAAG                                            
  777.482   5%   1.000 Cr+PCr                                              
 1.76E+03  13%   2.261 Glu+Gln                                             
    0.000 999%   0.000 Lip13a                                              
  255.247  31%   0.328 Lip13b                                              
   24.904 228% 3.2E-02 Lip09                                               
 1.09E+03  11%   1.396 MM09                                                
   41.316  94% 5.3E-02 Lip20                                               
 2.81E+03   8%   3.614 MM20                                                
  299.105  34%   0.385 MM12                                                
 1.49E+03  12%   1.913 MM14                                                
 1.21E+03  11%   1.556 MM17                                                
  255.247  31%   0.328 Lip13a+Lip13b                                       
 2.04E+03   9%   2.626 MM14+Lip13a+Lip13b+MM12                             
 1.11E+03  10%   1.428 MM09+Lip09                                          
 2.85E+03   8%   3.667 MM20+Lip20                                          
   6 lines in following misc. output table
  FWHM = 0.046 ppm    S/N =  12                                            
  Data shift = 0.015 ppm                                                   
  Ph: -53 deg     -14.6 deg/ppm                                            
  alphaB,S = 8.5E+01,   9.8E+01                                            
   14 spline knots.   Ns = 6(1)                                            
   4 inflections.     1 extrema                                            
  498 points on ppm-axis = NY
      4.000000     3.992357     3.984714     3.977070     3.969427     3.961784     3.954141     3.946497     3.938854     3.931211
      3.923568     3.915925     3.908281     3.900638     3.892995     3.885352     3.877708     3.870065     3.862422     3.854779
      3.847136     3.839492     3.831849     3.824206     3.816563     3.808919     3.801276     3.793633     3.785990     3.778347
      3.770703     3.763060     3.755417     3.747774     3.740130     3.732487     3.724844     3.717201     3.709558     3.701914
      3.694271     3.686628     3.678985     3.671341     3.663698     3.656055     3.648412     3.640769     3.633125     3.625482
      3.617839     3.610196     3.602552     3.594909     3.587266     3.579623     3.571980     3.564336     3.556693     3.549050
      3.541407     3.533763     3.526120     3.518477     3.510834     3.503191     3.495547     3.487904     3.480261     3.472618
      3.464974     3.457331     3.449688     3.442045     3.434402     3.426758     3.419115     3.411472     3.403829     3.396185
      3.388542     3.380899     3.373256     3.365613     3.357969     3.350326     3.342683     3.335040     3.327396     3.319753
      3.312110     3.304467     3.296824     3.289180     3.281537     3.273894     3.266251     3.258607     3.250964     3.243321
      3.235678     3.228034     3.220391     3.212748     3.205105     3.197462     3.189818     3.182175     3.174532     3.166889
      3.159245     3.151602     3.143959     3.136316     3.128673     3.121029     3.113386     3.105743     3.098100     3.090456
      3.082813     3.075170     3.067527     3.059884     3.052240     3.044597     3.036954     3.029311     3.021667     3.014024
      3.006381     2.998738     2.991095     2.983451     2.975808     2.968165     2.960522     2.952878     2.945235     2.937592
      2.929949     2.922306     2.914662     2.907019     2.899376     2.891733     2.884089     2.876446     2.868803     2.861160
      2.853517     2.845873     2.838230     2.830587     2.822944     2.815300     2.807657     2.800014     2.792371     2.784728
      2.777084     2.769441     2.761798     2.754155     2.746511     2.738868     2.731225     2.723582     2.715939     2.708295
      2.700652     2.693009     2.685366     2.677722     2.670079     2.662436     2.654793     2.647150     2.639506     2.631863
      2.624220     2.616577     2.608933     2.601290     2.593647     2.586004     2.578361     2.570717     2.563074     2.555431
      2.547788     2.540144     2.532501     2.524858     2.517215     2.509572     2.501928     2.494285     2.486642     2.478999
      2.471355     2.463712     2.456069     2.448426     2.440783     2.433139     2.425496     2.417853     2.410210     2.402566
      2.394923     2.387280     2.379637     2.371994     2.364350     2.356707     2.349064     2.341421     2.333777     2.326134
      2.318491     2.310848     2.303205     2.295561     2.287918     2.280275     2.272632     2.264988     2.257345     2.249702
      2.242059     2.234416     2.226772     2.219129     2.211486     2.203843     2.196199     2.188556     2.180913     2.173270
      2.165627     2.157983     2.150340     2.142697     2.135054     2.127410     2.119767     2.112124     2.104481     2.096838
      2.089194     2.081551     2.073908     2.066265     2.058621     2.050978     2.043335     2.035692     2.028049     2.020405
      2.012762     2.005119     1.997476     1.989833     1.982190     1.974546     1.966903     1.959260     1.951617     1.943974
      1.936331     1.928688     1.921045     1.913402     1.905759     1.898115     1.890472     1.882829     1.875186     1.867543
      1.859900     1.852257     1.844614     1.836971     1.829327     1.821684     1.814041     1.806398     1.798755     1.791112
      1.783469     1.775826     1.768183     1.760540     1.752896     1.745253     1.737610     1.729967     1.722324     1.714681
      1.707038     1.699395     1.691752     1.684108     1.676465     1.668822     1.661179     1.653536     1.645893     1.638250
      1.630607     1.622964     1.615321     1.607677     1.600034     1.592391     1.584748     1.577105     1.569462     1.561819
      1.554176     1.546533     1.538890     1.531246     1.523603     1.515960     1.508317     1.500674     1.493031     1.485388
      1.477745     1.470102     1.462458     1.454815     1.447172     1.439529     1.431886     1.424243     1.416600     1.408957
      1.401314     1.393671     1.386027     1.378384     1.370741     1.363098     1.355455     1.347812     1.340169     1.332526
      1.324883     1.317240     1.309596     1.301953     1.294310     1.286667     1.279024     1.271381     1.263738     1.256095
      1.248452     1.240808     1.233165     1.225522     1.217879     1.210236     1.202593     1.194950     1.187307     1.179664
      1.172021     1.164377     1.156734     1.149091     1.141448     1.133805     1.126162     1.118519     1.110876     1.103233
      1.095590     1.087946     1.080303     1.072660     1.065017     1.057374     1.049731     1.042088     1.034445     1.026802
      1.019158     1.011515     1.003872     0.996229     0.988586     0.980943     0.973300     0.965657     0.958014     0.950371
      0.942727     0.935084     0.927441     0.919798     0.912155     0.904512     0.896869     0.889226     0.881583     0.873940
      0.866296     0.858653     0.851010     0.843367     0.835724     0.828081     0.820438     0.812795     0.805152     0.797508
      0.789865     0.782222     0.774579     0.766936     0.759293     0.751650     0.744007     0.736364     0.728721     0.721077
      0.713434     0.705791     0.698148     0.690505     0.682862     0.675219     0.667576     0.659933     0.652290     0.644646
      0.637003     0.629360     0.621717     0.614074     0.606431     0.598788     0.591145     0.583502     0.575858     0.568215
      0.560572     0.552929     0.545286     0.537643     0.530000     0.522357     0.514714     0.507071     0.499427     0.491784
      0.484141     0.476498     0.468855     0.461212     0.453569     0.445925     0.438282     0.430639     0.422996     0.415353
      0.407710     0.400067     0.392424     0.384780     0.377137     0.369494     0.361851     0.354208     0.346565     0.338922
      0.331278     0.323635     0.315992     0.308349     0.300706     0.293063     0.285420     0.277777     0.270133     0.262490
      0.254847     0.247204     0.239561     0.231918     0.224275     0.216631     0.208988     0.201345
 NY phased data points follow
  -5.20556E+00  1.89398E+00 -8.63225E-02  9.14809E-01 -3.97851E-01  7.25313E+00  7.57617E+00  1.23190E+01  1.81915E+01  2.06180E+01
   1.87490E+01  1.57615E+01  1.25652E+01  1.43890E+01  1.07184E+01  7.55428E+00  5.51450E+00  6.10118E-01  3.19227E-01  4.36258E+00
   3.87290E+00  5.53088E+00  4.04958E-01  2.27187E+00  3.40693E+00  2.96460E+00  3.17415E+00  6.31825E+00  7.06736E+00  4.18680E+00
   5.89155E+00  7.88077E+00  9.15578E+00  7.82401E+00  1.77870E+00  3.17258E+00  6.18068E+00  4.07147E+00  4.04805E+00  6.63226E+00
   1.92083E+00  7.90726E+00  5.70216E+00  4.48142E+00  5.58835E+00  9.96189E+00  1.02586E+01  1.28549E+01  9.54588E+00  1.08444E+01
   5.34370E+00  5.12392E+00  2.40583E+00  5.55258E+00  5.60680E+00  6.11480E+00  4.66801E+00  7.70809E+00  4.84327E+00  6.62618E+00
   3.21549E+00  3.84462E+00  5.71151E+00  3.14988E+00 -9.64167E-01  4.28070E+00 -3.91249E-01  3.02724E+00  5.33203E+00  2.80934E+00
   4.87885E+00  6.44067E-01  6.19310E+00  1.56063E+00  3.69326E+00  6.64067E+00  5.91639E-01  4.07592E+00 -9.59017E-01  2.62836E+00
  -8.43057E-01  2.43709E-01  1.06385E+00  1.20772E+00  5.83437E+00  2.22121E+00  6.65745E+00  4.51559E+00  2.30841E+00  4.11881E+00
   3.75224E+00  7.62461E+00  3.63169E+00  9.99356E+00  6.98890E+00  3.50154E+00  3.60061E+00  5.81636E+00  7.11449E+00  1.53187E+01
   2.33138E+01  2.72073E+01  3.74447E+01  2.79473E+01  2.36404E+01  2.08947E+01  1.50755E+01  1.73901E+01  9.66331E+00  7.50444E+00
   5.45490E+00  6.34270E+00  4.21104E+00  2.05545E+00  5.99809E+00  5.70286E+00  5.74986E+00  7.86510E+00  6.10637E+00  1.61547E+00
   1.11404E+00 -1.97819E+00  5.96004E+00  1.08299E+01  1.60728E+01  2.63971E+01  3.29935E+01  3.39244E+01  2.86004E+01  2.20582E+01
   1.82131E+01  1.71262E+01  1.35841E+01  1.03516E+01  5.47669E+00  7.18334E+00  6.69650E+00  3.20608E+00  6.52049E+00  4.71185E+00
   5.43371E-01  3.36357E+00  2.45563E+00  2.95399E+00  3.66011E+00 -1.84378E+00  1.60027E+00  2.31312E+00  3.07199E+00  1.88229E+00
   2.34290E+00  4.55760E+00 -4.11595E+00  5.52295E-01  1.48083E+00  3.82608E+00  2.88343E+00  2.89870E+00  2.48886E+00 -3.28170E+00
  -1.98569E+00  1.25526E+00 -3.89024E-01  1.83441E+00  8.97797E-01  4.81045E-01  5.20695E-01 -9.47313E-01 -3.87640E+00 -7.29066E-01
  -3.64125E+00 -3.10650E+00 -3.43104E+00 -5.06416E+00 -4.85625E+00 -6.45479E+00 -8.75636E+00 -7.68499E+00 -8.11752E+00 -4.33718E+00
  -7.79897E+00 -5.01845E+00 -7.29431E+00 -3.81218E+00 -8.65156E-01  1.41011E+00 -1.68064E+00  4.26984E+00  4.07744E-01 -1.73404E+00
  -8.35166E-01  4.45531E+00  4.92806E+00 -8.55331E-01 -1.34355E+00 -4.69728E-01 -1.48212E+00 -1.29340E+00  4.74670E-01 -2.27510E+00
   7.94231E-01  4.45520E+00  4.03204E+00  8.56194E+00  4.21054E+00  5.05029E+00  3.05180E+00  3.04791E+00  1.75485E+00  3.12650E+00
  -4.97146E+00 -2.70549E+00  4.93918E+00  5.50852E+00  9.06690E+00  1.44935E+01  1.37355E+01  1.38031E+01  5.89110E+00  4.05726E+00
   1.50920E+00 -3.76268E+00  7.39666E-01  1.26629E+00  4.62205E+00  5.44823E+00  8.00014E+00  6.94847E+00  1.20942E+01  7.83502E+00
   8.41270E+00  7.94178E+00  1.11233E+01  9.92309E+00  8.06220E+00  9.54889E+00  1.11436E+01  7.91343E+00  8.02332E+00  1.12778E+01
   7.75028E+00  7.92704E+00  4.30568E+00  9.11848E+00  8.99455E+00  8.58596E+00  1.27487E+01  1.35303E+01  1.53961E+01  1.47685E+01
   1.74502E+01  1.07818E+01  1.33993E+01  1.17751E+01  1.51810E+01  2.04497E+01  2.24455E+01  2.91996E+01  4.94896E+01  6.92334E+01
   8.11517E+01  6.57743E+01  5.25822E+01  4.58572E+01  3.83985E+01  3.12482E+01  2.27847E+01  1.86062E+01  1.22296E+01  1.19261E+01
   6.76671E+00  7.86016E+00  9.21312E+00  9.65871E+00  9.04230E+00  2.95501E+00  8.21343E+00  4.87336E+00  6.96148E+00  6.23749E+00
   6.22769E+00  7.58746E+00  5.21204E+00  6.38272E+00  2.90423E+00 -1.52740E-01  6.65180E+00  3.53798E+00  1.11925E+01  7.65243E+00
   8.44810E+00  6.19009E+00  8.35093E+00  7.09817E+00  9.51986E+00  7.18413E+00  8.31877E+00  5.92150E+00  2.62840E+00  3.99995E+00
   7.55429E+00  6.19188E+00  7.38343E+00  6.54143E+00  9.56649E+00  9.18884E+00  8.76368E+00  1.30817E+01  1.17537E+01  1.40936E+01
   9.09057E+00  1.23756E+01  1.27708E+01  1.07782E+01  1.41060E+01  1.27072E+01  1.27176E+01  1.53075E+01  9.57916E+00  1.25210E+01
   1.03023E+01  8.79614E+00  7.95138E+00  1.39044E+01  1.20277E+01  1.04918E+01  1.12070E+01  8.51675E+00  7.13903E+00  5.97579E+00
   7.09065E+00  1.26845E+01  8.60638E+00  1.06464E+01  1.05394E+01  1.13429E+01  9.19874E+00  9.95239E+00  7.72332E+00  1.20657E+01
   1.11091E+01  6.84591E+00  6.62638E+00  9.11843E+00  1.03270E+01  7.72317E+00  7.83724E+00  1.20946E+01  1.30868E+01  7.00859E+00
   1.23693E+01  8.51244E+00  8.51125E+00  1.00239E+01  1.55618E+01  9.70509E+00  9.20801E+00  6.88788E+00  2.35359E+00  9.08564E+00
   4.35971E+00  4.77068E-01  7.96650E+00  5.77999E+00  3.75478E+00  5.32517E+00  5.39158E+00  2.44218E+00  7.14525E+00  4.99421E+00
   6.59407E+00  3.48521E+00  6.53468E+00  4.66228E+00  7.73747E+00  7.17674E+00  7.49014E+00 -2.49916E-01  2.33437E+00  1.35301E+00
   3.77524E+00  1.39673E+00  3.50598E+00 -1.70474E-01  1.72755E+00  4.84334E+00  4.98985E+00  3.34905E+00  3.39648E+00  2.33342E+00
   5.48599E+00  5.22911E+00  1.95919E+00  7.92000E+00  5.47097E+00  8.17604E+00  6.29180E+00  9.20984E+00  5.39016E+00  6.79144E+00
   4.03625E+00  4.02814E+00  7.39798E+00  1.14195E+01  8.86995E+00  7.52131E+00  9.09092E+00  1.22808E+01  7.75472E+00  1.19461E+01
   9.51881E+00  1.11026E+01  5.47829E+00  5.40613E+00  1.13782E+01  6.80272E+00  8.38324E+00  4.47235E+00  6.66966E+00  7.32151E+00
   5.06235E+00  1.20960E+01  5.81500E+00  3.35250E+00  7.14143E+00  1.29533E+00  4.29206E+00  3.29680E+00  3.67616E+00  6.22189E+00
   5.31701E+00  6.94302E+00  5.94393E+00  5.61892E+00  6.63686E+00  3.20090E+00  5.32580E+00  3.03148E+00  4.02505E+00  4.31111E+00
   2.80700E+00  1.69233E+00  1.06125E+00  2.22438E+00  6.48013E+00  2.07069E+00  4.82519E+00  4.94942E+00  1.21096E+00  4.67467E-01
   4.75447E+00  1.26931E+00 -4.77624E-01  4.22266E+00  2.52344E+00  1.64688E+00  6.23473E+00  1.33200E+00  4.89679E+00  1.83082E+00
   5.93890E+00  1.60853E+00  2.85454E+00  2.93357E+00  3.98216E+00  3.61345E+00  2.29869E+00  6.55099E+00  2.25454E+00  2.98889E+00
   1.23754E+00  4.95019E+00 -1.50956E+00  1.38050E-01  2.16808E+00 -4.81979E-01  5.28980E+00  1.21154E+00  8.90838E-01  2.26207E+00
   5.67634E+00  6.36028E+00  4.69690E+00 -2.13872E+00  5.99495E-01  3.71247E+00  4.91769E+00  2.15089E+00  4.08066E+00 -1.80140E+00
   3.90384E+00 -1.24478E-01 -2.68144E+00 -1.51260E+00  2.33292E+00  5.22339E+00  3.44298E+00  3.42899E+00
 NY points of the fit to the data follow
   1.91383E+00  1.72476E+00  1.72042E+00  2.09269E+00  3.20694E+00  5.42401E+00  9.03324E+00  1.36127E+01  1.76737E+01  1.95099E+01
   1.86723E+01  1.62726E+01  1.36892E+01  1.15501E+01  9.73627E+00  7.89082E+00  5.91650E+00  4.36836E+00  3.60824E+00  3.31051E+00
   3.31259E+00  3.40030E+00  3.44305E+00  3.40997E+00  3.31536E+00  3.22632E+00  3.40378E+00  4.11981E+00  5.30943E+00  6.64638E+00
   7.88508E+00  8.88152E+00  9.35469E+00  8.99996E+00  7.79337E+00  6.08874E+00  4.30868E+00  3.00227E+00  2.36434E+00  2.18987E+00
   2.39257E+00  2.88874E+00  3.69966E+00  5.04121E+00  6.98605E+00  9.14709E+00  1.06021E+01  1.06065E+01  9.30322E+00  7.45877E+00
   5.78755E+00  4.54002E+00  3.56258E+00  2.74352E+00  2.19164E+00  2.11869E+00  2.57217E+00  3.36427E+00  4.18050E+00  4.66763E+00
   4.62995E+00  4.14280E+00  3.48460E+00  2.95567E+00  2.70046E+00  2.65934E+00  2.71600E+00  2.83949E+00  3.02558E+00  3.29619E+00
   3.63604E+00  3.95267E+00  4.19174E+00  4.36090E+00  4.42916E+00  4.27908E+00  3.81371E+00  3.19035E+00  2.62732E+00  2.31179E+00
   2.31677E+00  2.56433E+00  2.95339E+00  3.51799E+00  4.26494E+00  4.87234E+00  4.94100E+00  4.40032E+00  3.63482E+00  3.08241E+00
   2.83451E+00  2.66859E+00  2.38357E+00  2.01762E+00  1.78709E+00  1.95782E+00  2.66269E+00  4.44252E+00  8.10998E+00  1.43549E+01
   2.25947E+01  3.00109E+01  3.31086E+01  3.08926E+01  2.57995E+01  2.07624E+01  1.68567E+01  1.36108E+01  1.02801E+01  6.81694E+00
   4.22576E+00  3.26868E+00  2.93647E+00  2.76320E+00  2.65522E+00  2.56534E+00  2.50194E+00  2.45965E+00  2.45757E+00  2.54564E+00
   2.84177E+00  3.77187E+00  6.06314E+00  1.05553E+01  1.75858E+01  2.56820E+01  3.15479E+01  3.24981E+01  2.90843E+01  2.42524E+01
   2.01544E+01  1.68712E+01  1.35365E+01  9.71124E+00  5.94579E+00  3.72469E+00  3.08757E+00  3.06610E+00  3.28537E+00  3.50939E+00
   3.61741E+00  3.62252E+00  3.56647E+00  3.48786E+00  3.39309E+00  3.22744E+00  2.96749E+00  2.67045E+00  2.38174E+00  2.15456E+00
   1.96713E+00  1.80284E+00  1.67232E+00  1.59001E+00  1.55823E+00  1.52764E+00  1.41696E+00  1.14920E+00  6.86016E-01  1.28277E-01
  -2.71031E-01 -2.68492E-01  1.37465E-01  6.52885E-01  9.21984E-01  8.05845E-01  4.66887E-01  1.63677E-01 -9.28503E-03 -1.71945E-01
  -4.35791E-01 -8.12908E-01 -1.28707E+00 -1.76747E+00 -2.15646E+00 -2.31013E+00 -2.11873E+00 -1.74969E+00 -1.55317E+00 -1.66588E+00
  -1.86227E+00 -1.86057E+00 -1.65121E+00 -1.45805E+00 -1.44241E+00 -1.43638E+00 -9.79974E-01  6.70417E-02  1.37260E+00  2.37076E+00
   2.76076E+00  2.68412E+00  2.39588E+00  2.10178E+00  1.87555E+00  1.68220E+00  1.56460E+00  1.66715E+00  2.05693E+00  2.78851E+00
   3.83289E+00  5.02678E+00  6.10795E+00  6.75080E+00  6.58954E+00  5.50659E+00  3.67954E+00  1.46852E+00 -5.77393E-01 -1.84459E+00
  -1.93374E+00 -8.36361E-01  1.32544E+00  4.30810E+00  7.39616E+00  9.43401E+00  9.59156E+00  7.98787E+00  5.23265E+00  2.11350E+00
  -7.51503E-01 -2.73696E+00 -3.11392E+00 -1.74021E+00  7.27749E-01  3.22888E+00  5.10125E+00  6.37146E+00  7.18966E+00  7.65439E+00
   7.80032E+00  7.75181E+00  7.74848E+00  7.90500E+00  8.17145E+00  8.59695E+00  9.15876E+00  9.64490E+00  9.85757E+00  9.70721E+00
   9.27513E+00  8.85164E+00  8.80221E+00  9.27990E+00  1.00332E+01  1.07664E+01  1.12871E+01  1.15938E+01  1.17696E+01  1.19405E+01
   1.22614E+01  1.27196E+01  1.33164E+01  1.39818E+01  1.50420E+01  1.78119E+01  2.42390E+01  3.60802E+01  5.23332E+01  6.71912E+01
   7.32754E+01  6.83439E+01  5.74108E+01  4.66932E+01  3.83974E+01  3.14442E+01  2.43528E+01  1.69661E+01  1.12344E+01  8.96610E+00
   8.01407E+00  7.47838E+00  7.23355E+00  7.14475E+00  7.03575E+00  6.86694E+00  6.64058E+00  6.37308E+00  6.07858E+00  5.77356E+00
   5.47191E+00  5.20604E+00  5.00333E+00  4.85936E+00  4.76001E+00  4.69757E+00  4.66678E+00  4.66665E+00  4.69675E+00  4.75180E+00
   4.83620E+00  4.95360E+00  5.10578E+00  5.29583E+00  5.52703E+00  5.80018E+00  6.11277E+00  6.46099E+00  6.84153E+00  7.24920E+00
   7.67783E+00  8.12120E+00  8.56975E+00  9.01222E+00  9.43740E+00  9.83565E+00  1.01988E+01  1.05192E+01  1.07899E+01  1.10055E+01
   1.11626E+01  1.12617E+01  1.13056E+01  1.12988E+01  1.12478E+01  1.11608E+01  1.10478E+01  1.09206E+01  1.07918E+01  1.06756E+01
   1.05904E+01  1.05621E+01  1.06071E+01  1.07132E+01  1.08113E+01  1.07648E+01  1.04602E+01  9.93407E+00  9.36996E+00  8.93738E+00
   8.68053E+00  8.59017E+00  8.70342E+00  9.05268E+00  9.55484E+00  1.00191E+01  1.02463E+01  1.02377E+01  1.01176E+01  9.95995E+00
   9.77019E+00  9.52887E+00  9.23789E+00  8.97901E+00  8.80922E+00  8.71827E+00  8.70401E+00  8.76494E+00  8.89234E+00  9.06741E+00
   9.26109E+00  9.43655E+00  9.55388E+00  9.57668E+00  9.47884E+00  9.24980E+00  8.89659E+00  8.44232E+00  7.92131E+00  7.37286E+00
   6.83465E+00  6.33752E+00  5.90210E+00  5.53801E+00  5.24501E+00  5.01596E+00  4.83995E+00  4.70514E+00  4.60053E+00  4.51698E+00
   4.44754E+00  4.38761E+00  4.33464E+00  4.28763E+00  4.24653E+00  4.21175E+00  4.18403E+00  4.16443E+00  4.15430E+00  4.15507E+00
   4.16806E+00  4.19446E+00  4.23545E+00  4.29236E+00  4.36659E+00  4.45949E+00  4.57220E+00  4.70568E+00  4.86078E+00  5.03836E+00
   5.23899E+00  5.46279E+00  5.70924E+00  5.97727E+00  6.26520E+00  6.57076E+00  6.89081E+00  7.22128E+00  7.55712E+00  7.89261E+00
   8.22149E+00  8.53706E+00  8.83230E+00  9.10004E+00  9.33330E+00  9.52581E+00  9.67222E+00  9.76830E+00  9.81103E+00  9.79874E+00
   9.73136E+00  9.61050E+00  9.43926E+00  9.22208E+00  8.96431E+00  8.67216E+00  8.35241E+00  8.01227E+00  7.65886E+00  7.29899E+00
   6.93877E+00  6.58372E+00  6.23859E+00  5.90741E+00  5.59321E+00  5.29813E+00  5.02340E+00  4.76964E+00  4.53697E+00  4.32506E+00
   4.13310E+00  3.95995E+00  3.80422E+00  3.66456E+00  3.53963E+00  3.42810E+00  3.32860E+00  3.23976E+00  3.16035E+00  3.08935E+00
   3.02587E+00  2.96909E+00  2.91817E+00  2.87236E+00  2.83103E+00  2.79376E+00  2.76014E+00  2.72979E+00  2.70226E+00  2.67719E+00
   2.65434E+00  2.63359E+00  2.61477E+00  2.59764E+00  2.58197E+00  2.56761E+00  2.55448E+00  2.54256E+00  2.53174E+00  2.52187E+00
   2.51279E+00  2.50447E+00  2.49691E+00  2.49014E+00  2.48402E+00  2.47847E+00  2.47337E+00  2.46877E+00  2.46470E+00  2.46114E+00
   2.45799E+00  2.45518E+00  2.45267E+00  2.45052E+00  2.44877E+00  2.44738E+00  2.44624E+00  2.44531E+00  2.44460E+00  2.44419E+00
   2.44408E+00  2.44421E+00  2.44450E+00  2.44493E+00  2.44556E+00  2.44646E+00  2.44759E+00  2.44889E+00  2.45028E+00  2.45182E+00
   2.45356E+00  2.45554E+00  2.45772E+00  2.46002E+00  2.46242E+00  2.46499E+00  2.46780E+00  2.47087E+00
 NY background values follow
    -5.805E-02   -5.305E-02   -4.805E-02   -4.305E-02   -3.805E-02   -3.306E-02   -2.806E-02   -2.306E-02   -1.806E-02   -1.306E-02
    -8.060E-03   -3.061E-03    1.939E-03    6.939E-03    1.194E-02    1.694E-02    2.194E-02    2.694E-02    3.194E-02    3.694E-02
     4.194E-02    4.694E-02    5.195E-02    5.695E-02    6.195E-02    6.695E-02    7.195E-02    7.695E-02    8.196E-02    8.696E-02
     9.196E-02    9.696E-02    1.020E-01    1.070E-01    1.120E-01    1.170E-01    1.220E-01    1.270E-01    1.320E-01    1.370E-01
     1.420E-01    1.470E-01    1.520E-01    1.570E-01    1.620E-01    1.670E-01    1.720E-01    1.770E-01    1.820E-01    1.870E-01
     1.920E-01    1.970E-01    2.021E-01    2.071E-01    2.121E-01    2.171E-01    2.221E-01    2.271E-01    2.321E-01    2.371E-01
     2.421E-01    2.471E-01    2.521E-01    2.571E-01    2.621E-01    2.671E-01    2.721E-01    2.771E-01    2.822E-01    2.872E-01
     2.922E-01    2.972E-01    3.022E-01    3.072E-01    3.122E-01    3.172E-01    3.222E-01    3.272E-01    3.322E-01    3.372E-01
     3.422E-01    3.473E-01    3.523E-01    3.573E-01    3.623E-01    3.673E-01    3.723E-01    3.773E-01    3.823E-01    3.873E-01
     3.923E-01    3.973E-01    4.024E-01    4.074E-01    4.124E-01    4.174E-01    4.224E-01    4.274E-01    4.324E-01    4.374E-01
     4.424E-01    4.474E-01    4.525E-01    4.575E-01    4.625E-01    4.675E-01    4.725E-01    4.775E-01    4.825E-01    4.875E-01
     4.925E-01    4.975E-01    5.026E-01    5.076E-01    5.126E-01    5.176E-01    5.226E-01    5.276E-01    5.326E-01    5.376E-01
     5.426E-01    5.477E-01    5.527E-01    5.577E-01    5.627E-01    5.677E-01    5.727E-01    5.777E-01    5.827E-01    5.877E-01
     5.928E-01    5.978E-01    6.028E-01    6.078E-01    6.128E-01    6.178E-01    6.228E-01    6.278E-01    6.329E-01    6.379E-01
     6.429E-01    6.479E-01    6.529E-01    6.579E-01    6.629E-01    6.679E-01    6.729E-01    6.780E-01    6.830E-01    6.880E-01
     6.930E-01    6.980E-01    7.030E-01    7.080E-01    7.130E-01    7.181E-01    7.231E-01    7.281E-01    7.331E-01    7.381E-01
     7.431E-01    7.481E-01    7.532E-01    7.582E-01    7.632E-01    7.682E-01    7.732E-01    7.782E-01    7.832E-01    7.882E-01
     7.933E-01    7.983E-01    8.033E-01    8.083E-01    8.133E-01    8.183E-01    8.233E-01    8.284E-01    8.334E-01    8.384E-01
     8.434E-01    8.484E-01    8.534E-01    8.584E-01    8.634E-01    8.685E-01    8.735E-01    8.785E-01    8.835E-01    8.885E-01
     8.935E-01    8.985E-01    9.036E-01    9.086E-01    9.136E-01    9.186E-01    9.236E-01    9.286E-01    9.336E-01    9.387E-01
     9.437E-01    9.487E-01    9.537E-01    9.587E-01    9.637E-01    9.687E-01    9.738E-01    9.788E-01    9.838E-01    9.888E-01
     9.938E-01    9.988E-01    1.004E+00    1.009E+00    1.014E+00    1.019E+00    1.024E+00    1.029E+00    1.034E+00    1.039E+00
     1.044E+00    1.049E+00    1.054E+00    1.059E+00    1.064E+00    1.069E+00    1.074E+00    1.079E+00    1.084E+00    1.089E+00
     1.094E+00    1.099E+00    1.104E+00    1.109E+00    1.114E+00    1.119E+00    1.124E+00    1.129E+00    1.134E+00    1.139E+00
     1.144E+00    1.149E+00    1.154E+00    1.159E+00    1.164E+00    1.169E+00    1.174E+00    1.179E+00    1.184E+00    1.189E+00
     1.194E+00    1.199E+00    1.204E+00    1.209E+00    1.214E+00    1.219E+00    1.224E+00    1.229E+00    1.234E+00    1.239E+00
     1.244E+00    1.249E+00    1.254E+00    1.259E+00    1.264E+00    1.269E+00    1.274E+00    1.279E+00    1.284E+00    1.289E+00
     1.295E+00    1.300E+00    1.305E+00    1.310E+00    1.315E+00    1.320E+00    1.325E+00    1.330E+00    1.335E+00    1.340E+00
     1.345E+00    1.350E+00    1.355E+00    1.360E+00    1.365E+00    1.370E+00    1.375E+00    1.380E+00    1.385E+00    1.390E+00
     1.395E+00    1.400E+00    1.405E+00    1.410E+00    1.415E+00    1.420E+00    1.425E+00    1.430E+00    1.435E+00    1.440E+00
     1.445E+00    1.450E+00    1.455E+00    1.460E+00    1.465E+00    1.470E+00    1.475E+00    1.480E+00    1.485E+00    1.490E+00
     1.495E+00    1.500E+00    1.505E+00    1.510E+00    1.515E+00    1.520E+00    1.525E+00    1.530E+00    1.535E+00    1.540E+00
     1.545E+00    1.550E+00    1.555E+00    1.560E+00    1.565E+00    1.570E+00    1.575E+00    1.580E+00    1.585E+00    1.590E+00
     1.595E+00    1.600E+00    1.605E+00    1.610E+00    1.615E+00    1.620E+00    1.625E+00    1.630E+00    1.635E+00    1.640E+00
     1.645E+00    1.650E+00    1.655E+00    1.660E+00    1.665E+00    1.670E+00    1.675E+00    1.680E+00    1.685E+00    1.690E+00
     1.695E+00    1.700E+00    1.705E+00    1.710E+00    1.715E+00    1.720E+00    1.725E+00    1.730E+00    1.735E+00    1.740E+00
     1.745E+00    1.750E+00    1.755E+00    1.760E+00    1.765E+00    1.770E+00    1.775E+00    1.780E+00    1.785E+00    1.790E+00
     1.795E+00    1.800E+00    1.805E+00    1.810E+00    1.815E+00    1.820E+00    1.825E+00    1.830E+00    1.835E+00    1.840E+00
     1.845E+00    1.850E+00    1.855E+00    1.860E+00    1.865E+00    1.870E+00    1.875E+00    1.880E+00    1.885E+00    1.890E+00
     1.895E+00    1.900E+00    1.904E+00    1.909E+00    1.914E+00    1.919E+00    1.924E+00    1.929E+00    1.934E+00    1.939E+00
     1.944E+00    1.949E+00    1.954E+00    1.959E+00    1.964E+00    1.969E+00    1.974E+00    1.979E+00    1.984E+00    1.989E+00
     1.994E+00    1.999E+00    2.004E+00    2.009E+00    2.014E+00    2.019E+00    2.024E+00    2.029E+00    2.034E+00    2.039E+00
     2.044E+00    2.049E+00    2.054E+00    2.059E+00    2.064E+00    2.069E+00    2.074E+00    2.079E+00    2.084E+00    2.089E+00
     2.094E+00    2.099E+00    2.104E+00    2.109E+00    2.114E+00    2.119E+00    2.124E+00    2.129E+00    2.134E+00    2.139E+00
     2.144E+00    2.149E+00    2.154E+00    2.159E+00    2.164E+00    2.169E+00    2.174E+00    2.179E+00    2.184E+00    2.189E+00
     2.194E+00    2.198E+00    2.203E+00    2.208E+00    2.213E+00    2.218E+00    2.223E+00    2.228E+00    2.233E+00    2.238E+00
     2.243E+00    2.248E+00    2.253E+00    2.258E+00    2.263E+00    2.268E+00    2.273E+00    2.278E+00    2.283E+00    2.288E+00
     2.293E+00    2.298E+00    2.303E+00    2.308E+00    2.313E+00    2.318E+00    2.323E+00    2.328E+00    2.333E+00    2.338E+00
     2.343E+00    2.348E+00    2.353E+00    2.358E+00    2.363E+00    2.368E+00    2.372E+00    2.377E+00    2.382E+00    2.387E+00
     2.392E+00    2.397E+00    2.402E+00    2.407E+00    2.412E+00    2.417E+00    2.422E+00    2.427E+00
 Ala      Conc. = 8.89E+01
