 LCModel (Version 6.3-1L) Copyright: S.W. Provencher.          Ref.: Magn. Reson. Med. 30:672-679 (1993).                
 Slice#1 Row#6 Col#14  PD_05_press_1_raw_act
 36 lines in following concentration table = NCONC+1
    Conc.  %SD /Cr+PCr  Metabolite                                         
    8.696 706%   0.440 Ala                                                 
    2.610 404%   0.132 Asp                                                 
   19.781 109%   1.000 Cr                                                  
    0.000 999%   0.000 PCr                                                 
    0.262 999% 1.3E-02 GABA                                                
    0.591 999% 3.0E-02 Glc                                                 
  102.937 122%   5.204 Gln                                                 
    0.000 999%   0.000 Glu                                                 
    2.792 295%   0.141 GPC                                                 
    0.000 999%   0.000 PCh                                                 
   33.861 102%   1.712 GSH                                                 
  478.988  28%  24.215 Ins                                                 
    0.000 999%   0.000 Lac                                                 
    0.000 999%   0.000 NAA                                                 
    0.000 999%   0.000 NAAG                                                
    0.665 319% 3.4E-02 Scyllo                                              
    1.981 532%   0.100 Tau                                                 
    3.140 355%   0.159 -CrCH2                                              
    2.792 295%   0.141 GPC+PCh                                             
    0.000 999%   0.000 NAA+NAAG                                            
   19.781 109%   1.000 Cr+PCr                                              
  102.937 122%   5.204 Glu+Gln                                             
 4.37E+03  11% 220.837 Lip13a                                              
    0.000 999%   0.000 Lip13b                                              
  570.281  19%  28.830 Lip09                                               
 1.09E+03  12%  54.981 MM09                                                
    0.000 999%   0.000 Lip20                                               
 1.20E+03  15%  60.645 MM20                                                
  343.109  21%  17.346 MM12                                                
  980.228  23%  49.555 MM14                                                
    0.000 999%   0.000 MM17                                                
 4.37E+03  11% 220.837 Lip13a+Lip13b                                       
 5.69E+03   9% 287.738 MM14+Lip13a+Lip13b+MM12                             
 1.66E+03  10%  83.811 MM09+Lip09                                          
 1.20E+03  15%  60.645 MM20+Lip20                                          
   6 lines in following misc. output table
  FWHM = 0.076 ppm    S/N =   7                                            
  Data shift = 0.008 ppm                                                   
  Ph: -98 deg     106.9 deg/ppm                                            
  alphaB,S = 2.8E-01,   1.6E+02                                            
   14 spline knots.   Ns = 8(1)                                            
  ( 9) 2 infls.   ( 8) 1 extrs.                                            
  498 points on ppm-axis = NY
      4.000000     3.992357     3.984714     3.977070     3.969427     3.961784     3.954141     3.946497     3.938854     3.931211
      3.923568     3.915925     3.908281     3.900638     3.892995     3.885352     3.877708     3.870065     3.862422     3.854779
      3.847136     3.839492     3.831849     3.824206     3.816563     3.808919     3.801276     3.793633     3.785990     3.778347
      3.770703     3.763060     3.755417     3.747774     3.740130     3.732487     3.724844     3.717201     3.709558     3.701914
      3.694271     3.686628     3.678985     3.671341     3.663698     3.656055     3.648412     3.640769     3.633125     3.625482
      3.617839     3.610196     3.602552     3.594909     3.587266     3.579623     3.571980     3.564336     3.556693     3.549050
      3.541407     3.533763     3.526120     3.518477     3.510834     3.503191     3.495547     3.487904     3.480261     3.472618
      3.464974     3.457331     3.449688     3.442045     3.434402     3.426758     3.419115     3.411472     3.403829     3.396185
      3.388542     3.380899     3.373256     3.365613     3.357969     3.350326     3.342683     3.335040     3.327396     3.319753
      3.312110     3.304467     3.296824     3.289180     3.281537     3.273894     3.266251     3.258607     3.250964     3.243321
      3.235678     3.228034     3.220391     3.212748     3.205105     3.197462     3.189818     3.182175     3.174532     3.166889
      3.159245     3.151602     3.143959     3.136316     3.128673     3.121029     3.113386     3.105743     3.098100     3.090456
      3.082813     3.075170     3.067527     3.059884     3.052240     3.044597     3.036954     3.029311     3.021667     3.014024
      3.006381     2.998738     2.991095     2.983451     2.975808     2.968165     2.960522     2.952878     2.945235     2.937592
      2.929949     2.922306     2.914662     2.907019     2.899376     2.891733     2.884089     2.876446     2.868803     2.861160
      2.853517     2.845873     2.838230     2.830587     2.822944     2.815300     2.807657     2.800014     2.792371     2.784728
      2.777084     2.769441     2.761798     2.754155     2.746511     2.738868     2.731225     2.723582     2.715939     2.708295
      2.700652     2.693009     2.685366     2.677722     2.670079     2.662436     2.654793     2.647150     2.639506     2.631863
      2.624220     2.616577     2.608933     2.601290     2.593647     2.586004     2.578361     2.570717     2.563074     2.555431
      2.547788     2.540144     2.532501     2.524858     2.517215     2.509572     2.501928     2.494285     2.486642     2.478999
      2.471355     2.463712     2.456069     2.448426     2.440783     2.433139     2.425496     2.417853     2.410210     2.402566
      2.394923     2.387280     2.379637     2.371994     2.364350     2.356707     2.349064     2.341421     2.333777     2.326134
      2.318491     2.310848     2.303205     2.295561     2.287918     2.280275     2.272632     2.264988     2.257345     2.249702
      2.242059     2.234416     2.226772     2.219129     2.211486     2.203843     2.196199     2.188556     2.180913     2.173270
      2.165627     2.157983     2.150340     2.142697     2.135054     2.127410     2.119767     2.112124     2.104481     2.096838
      2.089194     2.081551     2.073908     2.066265     2.058621     2.050978     2.043335     2.035692     2.028049     2.020405
      2.012762     2.005119     1.997476     1.989833     1.982190     1.974546     1.966903     1.959260     1.951617     1.943974
      1.936331     1.928688     1.921045     1.913402     1.905759     1.898115     1.890472     1.882829     1.875186     1.867543
      1.859900     1.852257     1.844614     1.836971     1.829327     1.821684     1.814041     1.806398     1.798755     1.791112
      1.783469     1.775826     1.768183     1.760540     1.752896     1.745253     1.737610     1.729967     1.722324     1.714681
      1.707038     1.699395     1.691752     1.684108     1.676465     1.668822     1.661179     1.653536     1.645893     1.638250
      1.630607     1.622964     1.615321     1.607677     1.600034     1.592391     1.584748     1.577105     1.569462     1.561819
      1.554176     1.546533     1.538890     1.531246     1.523603     1.515960     1.508317     1.500674     1.493031     1.485388
      1.477745     1.470102     1.462458     1.454815     1.447172     1.439529     1.431886     1.424243     1.416600     1.408957
      1.401314     1.393671     1.386027     1.378384     1.370741     1.363098     1.355455     1.347812     1.340169     1.332526
      1.324883     1.317240     1.309596     1.301953     1.294310     1.286667     1.279024     1.271381     1.263738     1.256095
      1.248452     1.240808     1.233165     1.225522     1.217879     1.210236     1.202593     1.194950     1.187307     1.179664
      1.172021     1.164377     1.156734     1.149091     1.141448     1.133805     1.126162     1.118519     1.110876     1.103233
      1.095590     1.087946     1.080303     1.072660     1.065017     1.057374     1.049731     1.042088     1.034445     1.026802
      1.019158     1.011515     1.003872     0.996229     0.988586     0.980943     0.973300     0.965657     0.958014     0.950371
      0.942727     0.935084     0.927441     0.919798     0.912155     0.904512     0.896869     0.889226     0.881583     0.873940
      0.866296     0.858653     0.851010     0.843367     0.835724     0.828081     0.820438     0.812795     0.805152     0.797508
      0.789865     0.782222     0.774579     0.766936     0.759293     0.751650     0.744007     0.736364     0.728721     0.721077
      0.713434     0.705791     0.698148     0.690505     0.682862     0.675219     0.667576     0.659933     0.652290     0.644646
      0.637003     0.629360     0.621717     0.614074     0.606431     0.598788     0.591145     0.583502     0.575858     0.568215
      0.560572     0.552929     0.545286     0.537643     0.530000     0.522357     0.514714     0.507071     0.499427     0.491784
      0.484141     0.476498     0.468855     0.461212     0.453569     0.445925     0.438282     0.430639     0.422996     0.415353
      0.407710     0.400067     0.392424     0.384780     0.377137     0.369494     0.361851     0.354208     0.346565     0.338922
      0.331278     0.323635     0.315992     0.308349     0.300706     0.293063     0.285420     0.277777     0.270133     0.262490
      0.254847     0.247204     0.239561     0.231918     0.224275     0.216631     0.208988     0.201345
 NY phased data points follow
   5.52654E+00  6.42158E+00  6.71753E+00  6.82583E+00  4.81291E+00  5.38918E+00  5.06354E+00  6.36835E+00  3.31590E+00  4.49908E+00
   5.00227E+00  6.21664E+00  4.33753E+00  5.59211E+00  5.21858E+00  5.48030E+00  4.54630E+00  5.87839E+00  5.79406E+00  5.96024E+00
   4.46957E+00  5.65437E+00  7.46314E+00  5.93724E+00  6.90545E+00  5.07507E+00  3.98949E+00  6.51138E+00  5.68736E+00  4.11629E+00
   5.53960E+00  3.31583E+00  5.13900E+00  5.78461E+00  3.42658E+00  5.06230E+00  6.20336E+00  6.19705E+00  5.68715E+00  5.32380E+00
   4.12966E+00  6.46569E+00  3.82533E+00  3.63672E+00  5.48010E+00  4.18051E+00  3.94458E+00  4.05300E+00  4.82332E+00  4.14299E+00
   3.93824E+00  3.97697E+00  3.76345E+00  4.34372E+00  4.69558E+00  5.74041E+00  5.65785E+00  2.92244E+00  4.24481E+00  3.22927E+00
   4.41764E+00  5.39640E+00  4.02001E+00  3.97327E+00  4.16218E+00  4.94971E+00  5.18426E+00  5.15216E+00  4.19631E+00  5.58886E+00
   6.43682E+00  2.99649E+00  5.80240E+00  4.52754E+00  3.52109E+00  3.96308E+00  4.03823E+00  3.86861E+00  3.38055E+00  4.75635E+00
   4.55961E+00  5.34137E+00  5.21485E+00  3.76967E+00  5.38929E+00  5.81595E+00  5.88488E+00  3.71496E+00  4.29365E+00  4.97005E+00
   4.71169E+00  3.32111E+00  4.76691E+00  5.43532E+00  4.61113E+00  4.66864E+00  4.10794E+00  5.03729E+00  3.16488E+00  4.42917E+00
   2.91324E+00  3.43727E+00  6.69770E+00  6.94144E+00  4.57693E+00  5.26032E+00  3.53949E+00  4.61861E+00  4.95181E+00  5.60288E+00
   5.37450E+00  4.22766E+00  5.01632E+00  4.87990E+00  4.85812E+00  4.54080E+00  3.08318E+00  4.82380E+00  4.25011E+00  4.48270E+00
   2.27309E+00  4.48593E+00  3.39903E+00  3.21261E+00  3.73778E+00  4.09599E+00  3.89370E+00  3.70742E+00  4.04774E+00  3.81589E+00
   4.12805E+00  4.41880E+00  4.04192E+00  4.46769E+00  4.44364E+00  3.64624E+00  4.20935E+00  4.63803E+00  2.95431E+00  5.29955E+00
   4.29550E+00  6.32740E+00  5.77785E+00  5.12216E+00  3.42732E+00  4.05549E+00  3.71718E+00  3.87480E+00  4.19895E+00  3.30944E+00
   3.91585E+00  4.62001E+00  6.79888E+00  5.49952E+00  5.69077E+00  4.85118E+00  5.50191E+00  6.07904E+00  4.25132E+00  4.45315E+00
   4.88295E+00  5.18775E+00  6.02544E+00  5.39828E+00  5.71691E+00  5.42062E+00  5.79411E+00  4.74726E+00  3.46571E+00  3.32827E+00
   3.97756E+00  4.29670E+00  6.27015E+00  3.62595E+00  3.59219E+00  4.20416E+00  3.46837E+00  4.14022E+00  5.68216E+00  6.34615E+00
   4.83312E+00  4.92182E+00  2.88443E+00  4.24927E+00  6.15913E+00  4.77007E+00  5.18325E+00  3.94731E+00  4.04528E+00  3.25672E+00
   2.79170E+00  2.60737E+00  3.80408E+00  3.74914E+00  5.35181E+00  2.44747E+00  4.34549E+00  3.62194E+00  3.22953E+00  4.91687E+00
   5.96136E+00  4.21875E+00  5.04061E+00  5.92491E+00  3.82296E+00  4.66743E+00  3.77205E+00  5.40432E+00  2.99425E+00  4.56123E+00
   2.77257E+00  4.24401E+00  4.90198E+00  5.11314E+00  4.88690E+00  4.57475E+00  3.15068E+00  5.92134E+00  5.17321E+00  3.56083E+00
   2.87501E+00  5.23643E+00  4.20473E+00  5.15681E+00  4.08081E+00  2.09351E+00  4.63004E+00  6.20575E+00  3.40456E+00  4.76956E+00
   3.86832E+00  4.51569E+00  2.79800E+00  4.55204E+00  4.60379E+00  3.98493E+00  3.45375E+00  4.55679E+00  8.09429E+00  4.97133E+00
   5.46678E+00  4.32037E+00  2.79376E+00  4.43644E+00  5.59280E+00  3.69032E+00  4.14308E+00  5.51545E+00  5.15756E+00  3.05107E+00
   4.05403E+00  4.52055E+00  4.01694E+00  4.06769E+00  3.56195E+00  4.05647E+00  3.56359E+00  3.33736E+00  3.75880E+00  2.35679E+00
   3.92393E+00  4.43145E+00  6.44553E+00  4.71691E+00  5.26645E+00  4.76423E+00  6.57312E+00  6.82948E+00  6.13045E+00  5.36587E+00
   5.91447E+00  5.62163E+00  3.13653E+00  4.45133E+00  6.07538E+00  4.48168E+00  4.21329E+00  3.14976E+00  4.74231E+00  4.93980E+00
   5.43365E+00  5.46016E+00  3.35020E+00  4.28971E+00  5.29999E+00  4.20699E+00  4.06001E+00  4.28619E+00  4.53790E+00  6.25405E+00
   4.02216E+00  4.66296E+00  6.22949E+00  5.08957E+00  6.08013E+00  5.54242E+00  4.72859E+00  6.05983E+00  6.24571E+00  3.22351E+00
   5.13094E+00  3.71164E+00  4.24149E+00  3.06798E+00  3.62768E+00  5.20284E+00  3.40364E+00  5.03032E+00  4.35846E+00  4.08301E+00
   4.92996E+00  3.62338E+00  5.83293E+00  4.13656E+00  4.04015E+00  5.49397E+00  3.46126E+00  4.07339E+00  3.44246E+00  3.81145E+00
   4.15832E+00  4.57308E+00  2.64628E+00  5.35272E+00  4.58641E+00  4.35932E+00  3.31215E+00  2.99751E+00  2.47129E+00  3.30713E+00
   9.56700E-01  4.46693E+00  1.49148E+00  1.04803E+00  1.74578E+00  1.61861E+00  2.97525E+00  3.88564E-01  7.50174E-01  1.19594E+00
  -1.99624E+00 -2.25628E-02 -5.76258E-03  1.15345E+00 -8.86214E-01 -1.55040E+00 -9.18173E-01 -1.20248E+00 -2.81050E+00 -4.43099E+00
  -2.52582E+00 -3.17312E+00 -5.97974E+00 -5.10933E+00 -6.35261E+00 -6.76582E+00 -7.91846E+00 -7.95945E+00 -1.04644E+01 -9.76393E+00
  -1.48790E+01 -1.20192E+01 -1.45075E+01 -1.51383E+01 -1.49157E+01 -1.60524E+01 -1.63995E+01 -1.69214E+01 -1.71045E+01 -1.74795E+01
  -1.68691E+01 -1.90671E+01 -2.00665E+01 -1.87704E+01 -2.10495E+01 -2.13009E+01 -2.25173E+01 -2.40513E+01 -2.24769E+01 -2.45308E+01
  -2.75898E+01 -2.67941E+01 -2.67558E+01 -2.90148E+01 -2.83177E+01 -3.04713E+01 -3.00765E+01 -2.94547E+01 -3.32742E+01 -3.25158E+01
  -3.15442E+01 -3.32059E+01 -3.43611E+01 -3.21346E+01 -3.47397E+01 -3.44174E+01 -3.73255E+01 -3.64963E+01 -3.70171E+01 -3.49169E+01
  -3.79359E+01 -3.84022E+01 -3.75871E+01 -3.82058E+01 -4.03051E+01 -3.95026E+01 -3.79341E+01 -4.01697E+01 -4.02852E+01 -4.09525E+01
  -4.13763E+01 -4.23812E+01 -4.08536E+01 -4.16273E+01 -4.22994E+01 -4.16100E+01 -4.23653E+01 -4.23914E+01 -4.32168E+01 -4.33140E+01
  -4.25042E+01 -4.37075E+01 -4.41032E+01 -4.14486E+01 -4.42950E+01 -4.13709E+01 -4.11979E+01 -4.17846E+01 -4.02292E+01 -4.08149E+01
  -3.96206E+01 -4.10131E+01 -3.96934E+01 -3.88667E+01 -3.73545E+01 -4.00069E+01 -3.88197E+01 -3.69634E+01 -3.71083E+01 -3.68854E+01
  -3.72854E+01 -3.62723E+01 -3.56200E+01 -3.41364E+01 -3.37764E+01 -3.37164E+01 -3.40954E+01 -3.09348E+01 -3.16018E+01 -3.15929E+01
  -3.07310E+01 -2.96324E+01 -2.89856E+01 -2.72042E+01 -2.79649E+01 -2.65634E+01 -2.51247E+01 -2.67728E+01 -2.58290E+01 -2.20682E+01
  -2.40062E+01 -2.15206E+01 -2.26702E+01 -2.17734E+01 -2.10155E+01 -1.86450E+01 -1.93542E+01 -1.70199E+01 -1.70117E+01 -1.68068E+01
  -1.58438E+01 -1.66855E+01 -1.47446E+01 -1.34070E+01 -1.38901E+01 -1.22942E+01 -1.17533E+01 -9.18681E+00 -1.11095E+01 -9.69514E+00
  -9.37544E+00 -8.87205E+00 -9.34001E+00 -6.62728E+00 -7.78144E+00 -6.44879E+00 -7.67174E+00 -6.43353E+00 -5.67667E+00 -4.10644E+00
  -3.75518E+00 -4.59512E+00 -2.63217E+00 -4.87928E+00 -2.96652E+00 -1.55193E+00 -1.88458E+00 -1.57160E+00
 NY points of the fit to the data follow
   4.90056E+00  5.12281E+00  5.24665E+00  5.28850E+00  5.29189E+00  5.26400E+00  5.21955E+00  5.18706E+00  5.17251E+00  5.17299E+00
   5.18562E+00  5.20800E+00  5.23884E+00  5.27742E+00  5.32250E+00  5.37180E+00  5.42182E+00  5.46661E+00  5.50198E+00  5.52036E+00
   5.51255E+00  5.47390E+00  5.40772E+00  5.32452E+00  5.23092E+00  5.13805E+00  5.05657E+00  4.99139E+00  4.94142E+00  4.90067E+00
   4.86559E+00  4.84678E+00  4.86046E+00  4.91442E+00  5.00780E+00  5.13012E+00  5.26184E+00  5.36730E+00  5.40069E+00  5.31177E+00
   5.09002E+00  4.79996E+00  4.51308E+00  4.27750E+00  4.10891E+00  4.00248E+00  3.94938E+00  3.94540E+00  3.99939E+00  4.13444E+00
   4.36005E+00  4.65119E+00  4.96882E+00  5.26859E+00  5.49662E+00  5.60386E+00  5.55411E+00  5.34987E+00  5.06843E+00  4.81739E+00
   4.64733E+00  4.55007E+00  4.50900E+00  4.51315E+00  4.54514E+00  4.59091E+00  4.63557E+00  4.66261E+00  4.65224E+00  4.58477E+00
   4.46882E+00  4.33771E+00  4.22334E+00  4.15404E+00  4.13754E+00  4.16888E+00  4.23504E+00  4.31879E+00  4.41021E+00  4.51176E+00
   4.62527E+00  4.74659E+00  4.86365E+00  4.97836E+00  5.08862E+00  5.18556E+00  5.25874E+00  5.30219E+00  5.31192E+00  5.28554E+00
   5.22817E+00  5.14383E+00  5.03512E+00  4.90692E+00  4.76908E+00  4.63801E+00  4.54047E+00  4.50131E+00  4.51984E+00  4.58146E+00
   4.66200E+00  4.74132E+00  4.80270E+00  4.83269E+00  4.82401E+00  4.78048E+00  4.71189E+00  4.63491E+00  4.56916E+00  4.51872E+00
   4.48032E+00  4.44907E+00  4.42139E+00  4.39597E+00  4.37644E+00  4.36157E+00  4.34761E+00  4.33479E+00  4.31957E+00  4.29098E+00
   4.24440E+00  4.18467E+00  4.11733E+00  4.04725E+00  3.97791E+00  3.91071E+00  3.84645E+00  3.78982E+00  3.74883E+00  3.73162E+00
   3.74529E+00  3.79244E+00  3.86964E+00  3.96885E+00  4.07646E+00  4.17814E+00  4.26076E+00  4.31594E+00  4.35420E+00  4.38779E+00
   4.41655E+00  4.43673E+00  4.44523E+00  4.44195E+00  4.43259E+00  4.42830E+00  4.43605E+00  4.45659E+00  4.48720E+00  4.52178E+00
   4.55371E+00  4.57985E+00  4.59841E+00  4.61171E+00  4.62134E+00  4.62781E+00  4.63127E+00  4.63173E+00  4.62918E+00  4.62350E+00
   4.61517E+00  4.60492E+00  4.59328E+00  4.58071E+00  4.56750E+00  4.55352E+00  4.53811E+00  4.52091E+00  4.50236E+00  4.48296E+00
   4.46312E+00  4.44311E+00  4.42317E+00  4.40362E+00  4.38475E+00  4.36689E+00  4.34993E+00  4.33405E+00  4.32000E+00  4.30803E+00
   4.29797E+00  4.28933E+00  4.28047E+00  4.26871E+00  4.25163E+00  4.22829E+00  4.20080E+00  4.17205E+00  4.14511E+00  4.12511E+00
   4.11704E+00  4.12241E+00  4.13940E+00  4.16477E+00  4.19300E+00  4.22014E+00  4.24553E+00  4.26659E+00  4.27886E+00  4.27831E+00
   4.26038E+00  4.22326E+00  4.17693E+00  4.13745E+00  4.11224E+00  4.10534E+00  4.12246E+00  4.17027E+00  4.24908E+00  4.35144E+00
   4.46639E+00  4.58180E+00  4.68329E+00  4.76006E+00  4.80579E+00  4.81519E+00  4.78942E+00  4.74072E+00  4.68646E+00  4.64605E+00
   4.63704E+00  4.65872E+00  4.69210E+00  4.72949E+00  4.77216E+00  4.82137E+00  4.87541E+00  4.93187E+00  4.99337E+00  5.06429E+00
   5.14090E+00  5.21766E+00  5.29081E+00  5.35469E+00  5.40064E+00  5.42748E+00  5.43817E+00  5.43543E+00  5.42049E+00  5.39386E+00
   5.35612E+00  5.30975E+00  5.25997E+00  5.20893E+00  5.15716E+00  5.10951E+00  5.07351E+00  5.04686E+00  5.01456E+00  4.96865E+00
   4.90511E+00  4.81970E+00  4.71464E+00  4.60460E+00  4.50092E+00  4.40935E+00  4.33381E+00  4.27778E+00  4.24304E+00  4.22991E+00
   4.23659E+00  4.25690E+00  4.28484E+00  4.31726E+00  4.35176E+00  4.38657E+00  4.42106E+00  4.45619E+00  4.49239E+00  4.53049E+00
   4.57112E+00  4.61326E+00  4.65603E+00  4.69886E+00  4.74126E+00  4.78272E+00  4.82274E+00  4.86095E+00  4.89694E+00  4.93033E+00
   4.96076E+00  4.98789E+00  5.01139E+00  5.03095E+00  5.04632E+00  5.05733E+00  5.06381E+00  5.06555E+00  5.06246E+00  5.05449E+00
   5.04166E+00  5.02403E+00  5.00174E+00  4.97498E+00  4.94399E+00  4.90903E+00  4.87040E+00  4.82847E+00  4.78360E+00  4.73623E+00
   4.68676E+00  4.63565E+00  4.58342E+00  4.53057E+00  4.47761E+00  4.42508E+00  4.37350E+00  4.32338E+00  4.27518E+00  4.22928E+00
   4.18600E+00  4.14553E+00  4.10791E+00  4.07305E+00  4.04066E+00  4.01025E+00  3.98111E+00  3.95233E+00  3.92277E+00  3.89014E+00
   3.84988E+00  3.79899E+00  3.73592E+00  3.65953E+00  3.56888E+00  3.46318E+00  3.34237E+00  3.20807E+00  3.06030E+00  2.89787E+00
   2.72046E+00  2.52879E+00  2.32441E+00  2.10918E+00  1.88452E+00  1.65079E+00  1.40681E+00  1.14962E+00  8.76437E-01  5.89063E-01
   2.89537E-01 -2.11501E-02 -3.42211E-01 -6.73147E-01 -1.01418E+00 -1.36772E+00 -1.74151E+00 -2.14386E+00 -2.58115E+00 -3.05917E+00
  -3.58303E+00 -4.15695E+00 -4.78389E+00 -5.46526E+00 -6.20068E+00 -6.98778E+00 -7.82219E+00 -8.69751E+00 -9.60546E+00 -1.05362E+01
  -1.14785E+01 -1.24205E+01 -1.33501E+01 -1.42554E+01 -1.51257E+01 -1.59520E+01 -1.67273E+01 -1.74477E+01 -1.81124E+01 -1.87241E+01
  -1.92888E+01 -1.98158E+01 -2.03172E+01 -2.08069E+01 -2.13002E+01 -2.18121E+01 -2.23568E+01 -2.29460E+01 -2.35881E+01 -2.42876E+01
  -2.50441E+01 -2.58526E+01 -2.67034E+01 -2.75830E+01 -2.84748E+01 -2.93605E+01 -3.02217E+01 -3.10408E+01 -3.18031E+01 -3.24974E+01
  -3.31172E+01 -3.36609E+01 -3.41321E+01 -3.45389E+01 -3.48935E+01 -3.52108E+01 -3.55070E+01 -3.57985E+01 -3.61004E+01 -3.64250E+01
  -3.67815E+01 -3.71746E+01 -3.76049E+01 -3.80688E+01 -3.85590E+01 -3.90651E+01 -3.95750E+01 -4.00755E+01 -4.05534E+01 -4.09968E+01
  -4.13953E+01 -4.17409E+01 -4.20278E+01 -4.22529E+01 -4.24151E+01 -4.25156E+01 -4.25573E+01 -4.25441E+01 -4.24808E+01 -4.23725E+01
  -4.22244E+01 -4.20414E+01 -4.18281E+01 -4.15884E+01 -4.13257E+01 -4.10430E+01 -4.07423E+01 -4.04257E+01 -4.00943E+01 -3.97494E+01
  -3.93916E+01 -3.90216E+01 -3.86397E+01 -3.82463E+01 -3.78415E+01 -3.74257E+01 -3.69988E+01 -3.65611E+01 -3.61127E+01 -3.56537E+01
  -3.51842E+01 -3.47044E+01 -3.42144E+01 -3.37144E+01 -3.32045E+01 -3.26849E+01 -3.21558E+01 -3.16175E+01 -3.10700E+01 -3.05135E+01
  -2.99484E+01 -2.93748E+01 -2.87930E+01 -2.82032E+01 -2.76058E+01 -2.70010E+01 -2.63894E+01 -2.57712E+01 -2.51468E+01 -2.45166E+01
  -2.38809E+01 -2.32402E+01 -2.25948E+01 -2.19451E+01 -2.12915E+01 -2.06345E+01 -1.99743E+01 -1.93114E+01 -1.86461E+01 -1.79790E+01
  -1.73103E+01 -1.66405E+01 -1.59700E+01 -1.52991E+01 -1.46283E+01 -1.39580E+01 -1.32885E+01 -1.26203E+01 -1.19537E+01 -1.12891E+01
  -1.06270E+01 -9.96772E+00 -9.31161E+00 -8.65908E+00 -8.01050E+00 -7.36626E+00 -6.72673E+00 -6.09226E+00 -5.46323E+00 -4.84000E+00
  -4.22293E+00 -3.61236E+00 -3.00864E+00 -2.41211E+00 -1.82311E+00 -1.24197E+00 -6.69021E-01 -1.04580E-01
 NY background values follow
     6.603E+00    6.705E+00    6.803E+00    6.896E+00    6.985E+00    7.071E+00    7.152E+00    7.229E+00    7.302E+00    7.372E+00
     7.437E+00    7.498E+00    7.555E+00    7.609E+00    7.659E+00    7.705E+00    7.747E+00    7.786E+00    7.821E+00    7.852E+00
     7.880E+00    7.904E+00    7.925E+00    7.943E+00    7.957E+00    7.968E+00    7.977E+00    7.982E+00    7.983E+00    7.983E+00
     7.979E+00    7.972E+00    7.963E+00    7.951E+00    7.937E+00    7.920E+00    7.901E+00    7.879E+00    7.856E+00    7.830E+00
     7.802E+00    7.772E+00    7.741E+00    7.708E+00    7.673E+00    7.637E+00    7.599E+00    7.560E+00    7.519E+00    7.478E+00
     7.435E+00    7.391E+00    7.346E+00    7.301E+00    7.254E+00    7.207E+00    7.159E+00    7.111E+00    7.062E+00    7.012E+00
     6.962E+00    6.912E+00    6.862E+00    6.811E+00    6.761E+00    6.710E+00    6.660E+00    6.609E+00    6.559E+00    6.509E+00
     6.460E+00    6.410E+00    6.362E+00    6.314E+00    6.266E+00    6.219E+00    6.173E+00    6.128E+00    6.084E+00    6.040E+00
     5.998E+00    5.957E+00    5.916E+00    5.878E+00    5.840E+00    5.803E+00    5.769E+00    5.735E+00    5.703E+00    5.672E+00
     5.644E+00    5.616E+00    5.591E+00    5.567E+00    5.544E+00    5.523E+00    5.504E+00    5.486E+00    5.469E+00    5.453E+00
     5.439E+00    5.425E+00    5.413E+00    5.402E+00    5.391E+00    5.382E+00    5.373E+00    5.365E+00    5.357E+00    5.350E+00
     5.343E+00    5.337E+00    5.331E+00    5.325E+00    5.319E+00    5.314E+00    5.308E+00    5.302E+00    5.296E+00    5.289E+00
     5.282E+00    5.275E+00    5.267E+00    5.258E+00    5.249E+00    5.238E+00    5.227E+00    5.215E+00    5.201E+00    5.187E+00
     5.171E+00    5.154E+00    5.135E+00    5.115E+00    5.093E+00    5.069E+00    5.044E+00    5.016E+00    4.987E+00    4.957E+00
     4.924E+00    4.890E+00    4.854E+00    4.817E+00    4.778E+00    4.738E+00    4.696E+00    4.653E+00    4.608E+00    4.562E+00
     4.515E+00    4.466E+00    4.416E+00    4.365E+00    4.313E+00    4.260E+00    4.205E+00    4.150E+00    4.094E+00    4.036E+00
     3.978E+00    3.919E+00    3.860E+00    3.799E+00    3.738E+00    3.676E+00    3.614E+00    3.551E+00    3.487E+00    3.423E+00
     3.359E+00    3.294E+00    3.229E+00    3.164E+00    3.098E+00    3.032E+00    2.966E+00    2.900E+00    2.834E+00    2.767E+00
     2.701E+00    2.635E+00    2.569E+00    2.503E+00    2.438E+00    2.373E+00    2.308E+00    2.245E+00    2.182E+00    2.121E+00
     2.061E+00    2.002E+00    1.944E+00    1.888E+00    1.833E+00    1.780E+00    1.729E+00    1.680E+00    1.633E+00    1.588E+00
     1.545E+00    1.504E+00    1.465E+00    1.429E+00    1.395E+00    1.364E+00    1.335E+00    1.309E+00    1.285E+00    1.264E+00
     1.245E+00    1.230E+00    1.216E+00    1.206E+00    1.198E+00    1.193E+00    1.191E+00    1.191E+00    1.194E+00    1.199E+00
     1.207E+00    1.218E+00    1.231E+00    1.247E+00    1.265E+00    1.285E+00    1.308E+00    1.332E+00    1.359E+00    1.388E+00
     1.418E+00    1.450E+00    1.482E+00    1.516E+00    1.551E+00    1.586E+00    1.622E+00    1.658E+00    1.695E+00    1.731E+00
     1.767E+00    1.802E+00    1.837E+00    1.871E+00    1.904E+00    1.936E+00    1.966E+00    1.995E+00    2.023E+00    2.048E+00
     2.071E+00    2.093E+00    2.111E+00    2.128E+00    2.141E+00    2.152E+00    2.160E+00    2.164E+00    2.166E+00    2.164E+00
     2.158E+00    2.148E+00    2.135E+00    2.117E+00    2.096E+00    2.070E+00    2.039E+00    2.005E+00    1.965E+00    1.920E+00
     1.871E+00    1.817E+00    1.757E+00    1.692E+00    1.622E+00    1.546E+00    1.465E+00    1.378E+00    1.285E+00    1.186E+00
     1.082E+00    9.708E-01    8.539E-01    7.309E-01    6.016E-01    4.659E-01    3.239E-01    1.754E-01    2.049E-02   -1.410E-01
    -3.090E-01   -4.837E-01   -6.650E-01   -8.530E-01   -1.048E+00   -1.249E+00   -1.457E+00   -1.672E+00   -1.893E+00   -2.122E+00
    -2.357E+00   -2.598E+00   -2.847E+00   -3.102E+00   -3.363E+00   -3.632E+00   -3.906E+00   -4.188E+00   -4.476E+00   -4.770E+00
    -5.071E+00   -5.378E+00   -5.691E+00   -6.011E+00   -6.336E+00   -6.668E+00   -7.006E+00   -7.350E+00   -7.699E+00   -8.054E+00
    -8.415E+00   -8.781E+00   -9.153E+00   -9.530E+00   -9.912E+00   -1.030E+01   -1.069E+01   -1.109E+01   -1.149E+01   -1.190E+01
    -1.231E+01   -1.272E+01   -1.314E+01   -1.357E+01   -1.399E+01   -1.442E+01   -1.486E+01   -1.530E+01   -1.574E+01   -1.618E+01
    -1.663E+01   -1.708E+01   -1.753E+01   -1.799E+01   -1.844E+01   -1.890E+01   -1.936E+01   -1.983E+01   -2.029E+01   -2.075E+01
    -2.122E+01   -2.169E+01   -2.216E+01   -2.262E+01   -2.309E+01   -2.356E+01   -2.403E+01   -2.450E+01   -2.497E+01   -2.543E+01
    -2.590E+01   -2.636E+01   -2.683E+01   -2.729E+01   -2.775E+01   -2.820E+01   -2.866E+01   -2.911E+01   -2.956E+01   -3.000E+01
    -3.044E+01   -3.088E+01   -3.131E+01   -3.174E+01   -3.216E+01   -3.258E+01   -3.299E+01   -3.340E+01   -3.380E+01   -3.419E+01
    -3.458E+01   -3.496E+01   -3.533E+01   -3.569E+01   -3.605E+01   -3.639E+01   -3.673E+01   -3.706E+01   -3.738E+01   -3.769E+01
    -3.798E+01   -3.827E+01   -3.855E+01   -3.882E+01   -3.907E+01   -3.931E+01   -3.954E+01   -3.976E+01   -3.996E+01   -4.016E+01
    -4.033E+01   -4.050E+01   -4.065E+01   -4.078E+01   -4.090E+01   -4.101E+01   -4.110E+01   -4.118E+01   -4.123E+01   -4.128E+01
    -4.131E+01   -4.132E+01   -4.131E+01   -4.129E+01   -4.126E+01   -4.121E+01   -4.114E+01   -4.106E+01   -4.096E+01   -4.084E+01
    -4.071E+01   -4.057E+01   -4.041E+01   -4.024E+01   -4.005E+01   -3.984E+01   -3.962E+01   -3.939E+01   -3.914E+01   -3.887E+01
    -3.860E+01   -3.831E+01   -3.800E+01   -3.768E+01   -3.735E+01   -3.700E+01   -3.664E+01   -3.627E+01   -3.589E+01   -3.549E+01
    -3.508E+01   -3.466E+01   -3.422E+01   -3.378E+01   -3.332E+01   -3.285E+01   -3.237E+01   -3.188E+01   -3.138E+01   -3.087E+01
    -3.035E+01   -2.982E+01   -2.928E+01   -2.873E+01   -2.817E+01   -2.760E+01   -2.703E+01   -2.645E+01   -2.586E+01   -2.526E+01
    -2.466E+01   -2.405E+01   -2.344E+01   -2.282E+01   -2.220E+01   -2.157E+01   -2.094E+01   -2.031E+01   -1.967E+01   -1.903E+01
    -1.839E+01   -1.774E+01   -1.709E+01   -1.645E+01   -1.580E+01   -1.515E+01   -1.451E+01   -1.386E+01   -1.321E+01   -1.257E+01
    -1.193E+01   -1.129E+01   -1.065E+01   -1.001E+01   -9.383E+00   -8.756E+00   -8.133E+00   -7.515E+00   -6.901E+00   -6.293E+00
    -5.691E+00   -5.094E+00   -4.504E+00   -3.921E+00   -3.345E+00   -2.776E+00   -2.215E+00   -1.662E+00
 Ala      Conc. = 8.70E+00
