 LCModel (Version 6.3-1L) Copyright: S.W. Provencher.          Ref.: Magn. Reson. Med. 30:672-679 (1993).                
 Slice#3 Row#14 Col#5  PD_05_press_1_raw_act
 36 lines in following concentration table = NCONC+1
    Conc.  %SD /Cr+PCr  Metabolite                                         
    4.220 598%   0.113 Ala                                                 
    2.023  72% 5.4E-02 Asp                                                 
    0.000 999%   0.000 Cr                                                  
   37.205  32%   1.000 PCr                                                 
    1.216  72% 3.3E-02 GABA                                                
    1.204  72% 3.2E-02 Glc                                                 
    0.000 999%   0.000 Gln                                                 
    0.000 999%   0.000 Glu                                                 
    0.000 999%   0.000 GPC                                                 
    1.126 392% 3.0E-02 PCh                                                 
    0.000 999%   0.000 GSH                                                 
    0.000 999%   0.000 Ins                                                 
    0.000 999%   0.000 Lac                                                 
    0.000 999%   0.000 NAA                                                 
    0.000 999%   0.000 NAAG                                                
    0.404  72% 1.1E-02 Scyllo                                              
    2.009  72% 5.4E-02 Tau                                                 
    2.990 118% 8.0E-02 -CrCH2                                              
    1.126 392% 3.0E-02 GPC+PCh                                             
    0.000 999%   0.000 NAA+NAAG                                            
   37.205  32%   1.000 Cr+PCr                                              
    0.000 999%   0.000 Glu+Gln                                             
 1.48E+03  12%  39.708 Lip13a                                              
    0.000 999%   0.000 Lip13b                                              
  422.603  18%  11.359 Lip09                                               
    0.000 999%   0.000 MM09                                                
  135.229  52%   3.635 Lip20                                               
    0.000 999%   0.000 MM20                                                
   26.982 207%   0.725 MM12                                                
  543.395  14%  14.606 MM14                                                
   52.630 135%   1.415 MM17                                                
 1.48E+03  12%  39.708 Lip13a+Lip13b                                       
 2.05E+03   9%  55.038 MM14+Lip13a+Lip13b+MM12                             
  422.603  18%  11.359 MM09+Lip09                                          
  135.229  52%   3.635 MM20+Lip20                                          
   6 lines in following misc. output table
  FWHM = 0.061 ppm    S/N =   3                                            
  Data shift = 0.084 ppm                                                   
  Ph:  92 deg      68.1 deg/ppm                                            
  alphaB,S = 4.7E-01,   4.7E+01                                            
   14 spline knots.   Ns = 5(1)                                            
  ( 4) 2 infls.   ( 3) 1 extrs.                                            
  498 points on ppm-axis = NY
      4.000000     3.992357     3.984714     3.977070     3.969427     3.961784     3.954141     3.946497     3.938854     3.931211
      3.923568     3.915925     3.908281     3.900638     3.892995     3.885352     3.877708     3.870065     3.862422     3.854779
      3.847136     3.839492     3.831849     3.824206     3.816563     3.808919     3.801276     3.793633     3.785990     3.778347
      3.770703     3.763060     3.755417     3.747774     3.740130     3.732487     3.724844     3.717201     3.709558     3.701914
      3.694271     3.686628     3.678985     3.671341     3.663698     3.656055     3.648412     3.640769     3.633125     3.625482
      3.617839     3.610196     3.602552     3.594909     3.587266     3.579623     3.571980     3.564336     3.556693     3.549050
      3.541407     3.533763     3.526120     3.518477     3.510834     3.503191     3.495547     3.487904     3.480261     3.472618
      3.464974     3.457331     3.449688     3.442045     3.434402     3.426758     3.419115     3.411472     3.403829     3.396185
      3.388542     3.380899     3.373256     3.365613     3.357969     3.350326     3.342683     3.335040     3.327396     3.319753
      3.312110     3.304467     3.296824     3.289180     3.281537     3.273894     3.266251     3.258607     3.250964     3.243321
      3.235678     3.228034     3.220391     3.212748     3.205105     3.197462     3.189818     3.182175     3.174532     3.166889
      3.159245     3.151602     3.143959     3.136316     3.128673     3.121029     3.113386     3.105743     3.098100     3.090456
      3.082813     3.075170     3.067527     3.059884     3.052240     3.044597     3.036954     3.029311     3.021667     3.014024
      3.006381     2.998738     2.991095     2.983451     2.975808     2.968165     2.960522     2.952878     2.945235     2.937592
      2.929949     2.922306     2.914662     2.907019     2.899376     2.891733     2.884089     2.876446     2.868803     2.861160
      2.853517     2.845873     2.838230     2.830587     2.822944     2.815300     2.807657     2.800014     2.792371     2.784728
      2.777084     2.769441     2.761798     2.754155     2.746511     2.738868     2.731225     2.723582     2.715939     2.708295
      2.700652     2.693009     2.685366     2.677722     2.670079     2.662436     2.654793     2.647150     2.639506     2.631863
      2.624220     2.616577     2.608933     2.601290     2.593647     2.586004     2.578361     2.570717     2.563074     2.555431
      2.547788     2.540144     2.532501     2.524858     2.517215     2.509572     2.501928     2.494285     2.486642     2.478999
      2.471355     2.463712     2.456069     2.448426     2.440783     2.433139     2.425496     2.417853     2.410210     2.402566
      2.394923     2.387280     2.379637     2.371994     2.364350     2.356707     2.349064     2.341421     2.333777     2.326134
      2.318491     2.310848     2.303205     2.295561     2.287918     2.280275     2.272632     2.264988     2.257345     2.249702
      2.242059     2.234416     2.226772     2.219129     2.211486     2.203843     2.196199     2.188556     2.180913     2.173270
      2.165627     2.157983     2.150340     2.142697     2.135054     2.127410     2.119767     2.112124     2.104481     2.096838
      2.089194     2.081551     2.073908     2.066265     2.058621     2.050978     2.043335     2.035692     2.028049     2.020405
      2.012762     2.005119     1.997476     1.989833     1.982190     1.974546     1.966903     1.959260     1.951617     1.943974
      1.936331     1.928688     1.921045     1.913402     1.905759     1.898115     1.890472     1.882829     1.875186     1.867543
      1.859900     1.852257     1.844614     1.836971     1.829327     1.821684     1.814041     1.806398     1.798755     1.791112
      1.783469     1.775826     1.768183     1.760540     1.752896     1.745253     1.737610     1.729967     1.722324     1.714681
      1.707038     1.699395     1.691752     1.684108     1.676465     1.668822     1.661179     1.653536     1.645893     1.638250
      1.630607     1.622964     1.615321     1.607677     1.600034     1.592391     1.584748     1.577105     1.569462     1.561819
      1.554176     1.546533     1.538890     1.531246     1.523603     1.515960     1.508317     1.500674     1.493031     1.485388
      1.477745     1.470102     1.462458     1.454815     1.447172     1.439529     1.431886     1.424243     1.416600     1.408957
      1.401314     1.393671     1.386027     1.378384     1.370741     1.363098     1.355455     1.347812     1.340169     1.332526
      1.324883     1.317240     1.309596     1.301953     1.294310     1.286667     1.279024     1.271381     1.263738     1.256095
      1.248452     1.240808     1.233165     1.225522     1.217879     1.210236     1.202593     1.194950     1.187307     1.179664
      1.172021     1.164377     1.156734     1.149091     1.141448     1.133805     1.126162     1.118519     1.110876     1.103233
      1.095590     1.087946     1.080303     1.072660     1.065017     1.057374     1.049731     1.042088     1.034445     1.026802
      1.019158     1.011515     1.003872     0.996229     0.988586     0.980943     0.973300     0.965657     0.958014     0.950371
      0.942727     0.935084     0.927441     0.919798     0.912155     0.904512     0.896869     0.889226     0.881583     0.873940
      0.866296     0.858653     0.851010     0.843367     0.835724     0.828081     0.820438     0.812795     0.805152     0.797508
      0.789865     0.782222     0.774579     0.766936     0.759293     0.751650     0.744007     0.736364     0.728721     0.721077
      0.713434     0.705791     0.698148     0.690505     0.682862     0.675219     0.667576     0.659933     0.652290     0.644646
      0.637003     0.629360     0.621717     0.614074     0.606431     0.598788     0.591145     0.583502     0.575858     0.568215
      0.560572     0.552929     0.545286     0.537643     0.530000     0.522357     0.514714     0.507071     0.499427     0.491784
      0.484141     0.476498     0.468855     0.461212     0.453569     0.445925     0.438282     0.430639     0.422996     0.415353
      0.407710     0.400067     0.392424     0.384780     0.377137     0.369494     0.361851     0.354208     0.346565     0.338922
      0.331278     0.323635     0.315992     0.308349     0.300706     0.293063     0.285420     0.277777     0.270133     0.262490
      0.254847     0.247204     0.239561     0.231918     0.224275     0.216631     0.208988     0.201345
 NY phased data points follow
   6.91737E+00  7.65860E+00  6.48326E+00  7.32074E+00  5.88587E+00  5.72583E+00  5.86711E+00  6.20278E+00  4.81229E+00  4.90459E+00
   3.83915E+00  4.07742E+00  4.96554E+00  2.51203E+00  2.65732E+00  3.61969E+00  2.55606E+00  3.00306E+00  3.38752E+00  2.24930E+00
   2.17025E+00  2.80832E+00  1.68981E+00  1.99996E+00  2.36069E+00  2.22873E+00  1.58144E+00  1.80581E+00  2.31242E+00  7.49458E-01
   1.24362E+00  1.27342E-01 -2.72791E-01  1.23856E-02 -8.31805E-01 -6.87194E-01  5.46793E-01  8.59225E-01 -1.39114E+00 -7.71673E-01
  -9.27381E-01 -9.87514E-01 -6.58636E-01 -1.31663E+00 -1.06380E+00 -1.43411E+00 -3.29539E-01 -2.55960E+00 -1.96223E+00 -1.53932E+00
  -2.21578E+00 -1.74294E+00 -1.93405E+00 -2.40611E+00 -1.48567E+00 -2.16160E+00 -2.12270E+00 -2.39798E+00 -3.46390E+00 -3.10030E+00
  -3.93684E+00 -2.54007E+00 -2.08710E+00 -3.25185E+00 -2.66389E+00 -2.78446E+00 -1.99346E+00 -1.98710E+00 -3.58763E+00 -4.47240E+00
  -4.30968E+00 -3.21715E+00 -3.04511E+00 -2.89377E+00 -4.01483E+00 -3.91261E+00 -5.18676E+00 -5.11218E+00 -3.65125E+00 -5.73435E+00
  -6.18593E+00 -2.27200E+00 -5.82222E+00 -2.72751E+00 -4.45570E+00 -3.62457E+00 -3.93599E+00 -5.21629E+00 -4.93555E+00 -5.25860E+00
  -5.35783E+00 -4.34712E+00 -3.34878E+00 -3.93930E+00 -4.87000E+00 -4.92517E+00 -4.05707E+00 -3.11663E+00 -4.31648E+00 -4.74808E+00
  -5.49793E+00 -3.85708E+00 -6.03116E+00 -5.77778E+00 -5.59027E+00 -2.88844E+00 -6.73716E+00 -3.78533E+00 -6.19684E+00 -5.51091E+00
  -5.22136E+00 -5.68743E+00 -5.50063E+00 -5.66610E+00 -6.30641E+00 -5.27532E+00 -5.20817E+00 -5.71706E+00 -3.03874E+00 -6.01324E+00
  -7.95694E+00 -4.94718E+00 -5.19534E+00 -5.46846E+00 -5.37308E+00 -4.50425E+00 -4.89900E+00 -6.45621E+00 -4.77644E+00 -5.30777E+00
  -6.56283E+00 -4.86430E+00 -5.75858E+00 -4.59640E+00 -6.63634E+00 -6.00524E+00 -4.86143E+00 -6.67506E+00 -5.88120E+00 -6.33938E+00
  -6.70806E+00 -6.02922E+00 -6.51347E+00 -6.85110E+00 -7.06166E+00 -7.11364E+00 -6.04884E+00 -5.92248E+00 -5.09209E+00 -4.95884E+00
  -7.21083E+00 -6.15022E+00 -5.91598E+00 -7.51702E+00 -6.50774E+00 -6.43821E+00 -6.39171E+00 -6.10836E+00 -5.06447E+00 -6.42262E+00
  -7.16286E+00 -5.02041E+00 -8.44442E+00 -5.84074E+00 -6.83326E+00 -7.29404E+00 -4.84939E+00 -7.93346E+00 -7.15190E+00 -6.58004E+00
  -7.73470E+00 -5.41095E+00 -6.89365E+00 -6.77581E+00 -6.96608E+00 -7.57099E+00 -8.09017E+00 -7.62936E+00 -6.64666E+00 -6.63848E+00
  -6.40773E+00 -7.92703E+00 -7.82475E+00 -4.70941E+00 -5.18984E+00 -7.99523E+00 -7.56564E+00 -7.21219E+00 -8.17899E+00 -8.02724E+00
  -7.91966E+00 -7.46552E+00 -8.41721E+00 -6.84239E+00 -6.71855E+00 -7.97054E+00 -5.41216E+00 -7.38354E+00 -8.22608E+00 -7.23024E+00
  -6.97057E+00 -9.25534E+00 -8.17923E+00 -8.01777E+00 -7.92215E+00 -6.65090E+00 -9.45241E+00 -7.48569E+00 -7.47541E+00 -6.22910E+00
  -8.11112E+00 -7.61508E+00 -9.75153E+00 -8.61132E+00 -8.02451E+00 -8.16835E+00 -8.44192E+00 -7.46060E+00 -9.22664E+00 -1.00614E+01
  -8.10366E+00 -8.42331E+00 -8.13830E+00 -9.00262E+00 -7.92013E+00 -8.29935E+00 -9.82691E+00 -8.34881E+00 -7.85572E+00 -8.59670E+00
  -9.15821E+00 -8.86998E+00 -8.75444E+00 -8.02815E+00 -8.69445E+00 -9.19761E+00 -1.01658E+01 -8.38075E+00 -8.56455E+00 -9.93430E+00
  -9.11882E+00 -8.17311E+00 -9.16848E+00 -8.94438E+00 -1.10602E+01 -8.98763E+00 -8.75789E+00 -7.51188E+00 -7.84737E+00 -7.36761E+00
  -8.49676E+00 -9.09611E+00 -9.20894E+00 -8.70964E+00 -9.50804E+00 -9.89271E+00 -9.66935E+00 -9.69829E+00 -9.68642E+00 -1.11674E+01
  -1.00069E+01 -9.19415E+00 -9.83269E+00 -1.08115E+01 -1.04218E+01 -1.09590E+01 -9.11614E+00 -9.40179E+00 -9.97880E+00 -1.08654E+01
  -9.77473E+00 -1.05449E+01 -1.08444E+01 -1.02858E+01 -1.12152E+01 -9.76778E+00 -1.01258E+01 -9.49355E+00 -1.01684E+01 -1.11418E+01
  -9.36174E+00 -1.07861E+01 -1.08292E+01 -9.96921E+00 -1.12911E+01 -1.12989E+01 -1.07502E+01 -1.02268E+01 -1.03676E+01 -1.00114E+01
  -9.70713E+00 -1.05331E+01 -1.07038E+01 -9.17896E+00 -9.97278E+00 -1.04177E+01 -1.06028E+01 -9.61043E+00 -1.03244E+01 -1.01840E+01
  -1.00883E+01 -9.89875E+00 -1.00422E+01 -1.11975E+01 -8.95693E+00 -1.01167E+01 -1.00481E+01 -8.89056E+00 -9.02504E+00 -8.78986E+00
  -8.10942E+00 -1.02182E+01 -9.77036E+00 -1.03203E+01 -1.02445E+01 -1.04939E+01 -9.88127E+00 -7.82103E+00 -7.39219E+00 -8.31583E+00
  -8.07128E+00 -7.62502E+00 -6.84658E+00 -7.81804E+00 -7.47866E+00 -5.51735E+00 -5.78461E+00 -4.67221E+00 -4.95793E+00 -4.70437E+00
  -6.62710E+00 -5.88799E+00 -4.96057E+00 -5.51629E+00 -4.06725E+00 -5.26163E+00 -5.47076E+00 -5.56768E+00 -6.90113E+00 -5.46364E+00
  -4.50279E+00 -5.26690E+00 -5.02116E+00 -6.35808E+00 -4.99743E+00 -3.37133E+00 -5.06531E+00 -5.00962E+00 -2.87482E+00 -3.46670E+00
  -3.50653E+00 -3.07862E+00 -3.24273E+00 -4.64704E+00 -2.94057E+00 -2.13209E+00 -4.24094E+00 -8.89674E-01 -3.44851E+00 -2.38732E+00
  -2.78106E+00 -3.02339E+00 -2.08441E+00 -2.24130E+00 -8.55905E-01 -2.38162E+00 -1.38868E+00 -6.06806E-01 -1.71051E+00  1.14271E-01
  -2.00437E+00 -7.33854E-01 -3.00514E+00 -3.31055E+00 -3.07353E+00 -1.81103E+00 -2.22394E+00 -2.11776E+00 -1.29768E+00 -3.56341E-01
  -1.70864E+00 -9.86291E-01 -1.90715E+00 -9.68555E-01 -1.99090E+00 -3.00195E+00 -1.65600E+00 -4.02596E+00 -2.68668E+00 -2.72714E+00
  -8.82628E-01 -1.21110E+00 -1.18961E+00 -6.32683E-01 -1.89011E+00 -1.18569E+00 -2.08381E+00 -1.86904E+00  1.03281E-01  3.95834E-01
  -1.66110E+00 -9.36164E-01 -1.68496E+00 -4.30620E-01 -5.14541E-01 -1.50423E-01 -7.36123E-01 -3.91540E-01 -1.60948E+00 -4.92382E-01
   2.77639E-01 -1.42699E+00 -1.76768E-01 -1.51966E+00 -8.19479E-01 -1.00610E+00 -2.53465E+00 -1.98299E+00  2.17095E-01 -3.13168E-01
  -9.02610E-01 -7.44164E-01 -9.94242E-01  3.08143E-01 -7.41884E-01 -1.66306E+00  2.84644E-01 -2.63024E-01  1.04610E+00 -1.29354E+00
  -3.35242E-01 -1.51343E+00 -6.96491E-01 -3.93821E-01 -6.28066E-01  7.74012E-01 -3.46694E-01 -9.51974E-01 -9.67813E-02  1.04519E-01
   1.46498E+00 -1.50907E+00 -1.40397E+00  1.62644E-01  9.59229E-01 -8.27373E-01  3.90082E-01  4.10003E-01 -3.25370E-01 -7.35814E-01
  -3.45137E-01  7.16815E-01 -8.75367E-02  3.03972E-01  1.39974E+00 -9.24359E-01  5.36478E-02 -2.64398E-01  5.64638E-01  1.16489E+00
  -1.05871E-01  4.73580E-01 -7.45407E-01  4.22723E-01  3.38469E-01  3.08867E-01  7.39887E-01  5.97730E-01  5.49437E-01 -6.30632E-02
  -4.21224E-02  1.08608E+00  1.14348E+00  1.17767E+00  4.25803E-01  7.17479E-01  1.88155E+00 -9.84953E-02 -4.84801E-01  1.78098E+00
  -2.97799E-02  7.34101E-01  1.53481E+00 -6.24100E-01 -4.41038E-01  3.30411E-01  1.30368E+00  2.02081E+00  1.22681E+00  8.49100E-01
   1.65881E+00  1.38562E+00  8.37630E-02  6.65059E-01  9.83133E-01  1.60376E+00  1.12990E+00  1.58058E+00
 NY points of the fit to the data follow
   5.12443E+00  4.99316E+00  4.87452E+00  4.81160E+00  4.83507E+00  4.88812E+00  4.91357E+00  4.87730E+00  4.76752E+00  4.59111E+00
   4.36338E+00  4.09955E+00  3.81508E+00  3.52865E+00  3.26520E+00  3.05294E+00  2.89072E+00  2.74485E+00  2.60481E+00  2.46871E+00
   2.33579E+00  2.20422E+00  2.07211E+00  1.93872E+00  1.80375E+00  1.66728E+00  1.52989E+00  1.39219E+00  1.25604E+00  1.12355E+00
   9.94994E-01  8.69890E-01  7.47281E-01  6.25689E-01  5.04160E-01  3.82169E-01  2.59215E-01  1.35468E-01  1.12653E-02 -1.12570E-01
  -2.34802E-01 -3.54766E-01 -4.72626E-01 -5.88506E-01 -7.02388E-01 -8.14233E-01 -9.24353E-01 -1.03308E+00 -1.14043E+00 -1.24628E+00
  -1.35073E+00 -1.45381E+00 -1.55571E+00 -1.65667E+00 -1.75668E+00 -1.85564E+00 -1.95336E+00 -2.04977E+00 -2.14487E+00 -2.23855E+00
  -2.33065E+00 -2.42104E+00 -2.50966E+00 -2.59697E+00 -2.68310E+00 -2.76843E+00 -2.85323E+00 -2.93726E+00 -3.02019E+00 -3.10188E+00
  -3.18139E+00 -3.25780E+00 -3.33185E+00 -3.40475E+00 -3.47750E+00 -3.55088E+00 -3.62475E+00 -3.69838E+00 -3.77102E+00 -3.84218E+00
  -3.91129E+00 -3.97638E+00 -4.03647E+00 -4.09365E+00 -4.15053E+00 -4.20866E+00 -4.26847E+00 -4.32951E+00 -4.39141E+00 -4.45412E+00
  -4.51743E+00 -4.58057E+00 -4.64217E+00 -4.70019E+00 -4.75378E+00 -4.80446E+00 -4.85329E+00 -4.89976E+00 -4.93818E+00 -4.96281E+00
  -4.98060E+00 -5.00020E+00 -5.02739E+00 -5.06419E+00 -5.11001E+00 -5.16282E+00 -5.22064E+00 -5.28204E+00 -5.34461E+00 -5.40462E+00
  -5.45764E+00 -5.50291E+00 -5.54502E+00 -5.58584E+00 -5.62587E+00 -5.66537E+00 -5.70462E+00 -5.74358E+00 -5.78210E+00 -5.81857E+00
  -5.83952E+00 -5.76757E+00 -5.54520E+00 -5.25213E+00 -4.97990E+00 -4.79096E+00 -4.71329E+00 -4.74409E+00 -4.86526E+00 -5.05702E+00
  -5.29718E+00 -5.55517E+00 -5.78812E+00 -5.94434E+00 -6.02148E+00 -6.06973E+00 -6.10745E+00 -6.13954E+00 -6.16817E+00 -6.19436E+00
  -6.21860E+00 -6.24101E+00 -6.26188E+00 -6.28178E+00 -6.30120E+00 -6.32045E+00 -6.33951E+00 -6.35845E+00 -6.37740E+00 -6.39658E+00
  -6.41602E+00 -6.43562E+00 -6.45532E+00 -6.47518E+00 -6.49554E+00 -6.51693E+00 -6.53937E+00 -6.56267E+00 -6.58670E+00 -6.61149E+00
  -6.63716E+00 -6.66367E+00 -6.69058E+00 -6.71761E+00 -6.74480E+00 -6.77238E+00 -6.80065E+00 -6.82985E+00 -6.85993E+00 -6.89081E+00
  -6.92237E+00 -6.95464E+00 -6.98763E+00 -7.02121E+00 -7.05513E+00 -7.08931E+00 -7.12373E+00 -7.15838E+00 -7.19325E+00 -7.22809E+00
  -7.26244E+00 -7.29627E+00 -7.32973E+00 -7.36306E+00 -7.39651E+00 -7.43020E+00 -7.46418E+00 -7.49857E+00 -7.53372E+00 -7.56945E+00
  -7.60530E+00 -7.64078E+00 -7.67559E+00 -7.70980E+00 -7.74352E+00 -7.77686E+00 -7.80992E+00 -7.84279E+00 -7.87559E+00 -7.90848E+00
  -7.94155E+00 -7.97463E+00 -8.00756E+00 -8.04029E+00 -8.07276E+00 -8.10494E+00 -8.13678E+00 -8.16824E+00 -8.19927E+00 -8.22984E+00
  -8.25991E+00 -8.28958E+00 -8.31893E+00 -8.34806E+00 -8.37687E+00 -8.40521E+00 -8.43297E+00 -8.46001E+00 -8.48602E+00 -8.51064E+00
  -8.53383E+00 -8.55616E+00 -8.57840E+00 -8.60130E+00 -8.62539E+00 -8.65118E+00 -8.67898E+00 -8.70841E+00 -8.73846E+00 -8.76833E+00
  -8.79747E+00 -8.82570E+00 -8.85324E+00 -8.88043E+00 -8.90755E+00 -8.93474E+00 -8.96213E+00 -8.98983E+00 -9.01770E+00 -9.04525E+00
  -9.07197E+00 -9.09764E+00 -9.12216E+00 -9.14544E+00 -9.16745E+00 -9.18821E+00 -9.20777E+00 -9.22626E+00 -9.24381E+00 -9.26062E+00
  -9.27694E+00 -9.29300E+00 -9.30910E+00 -9.32550E+00 -9.34251E+00 -9.36042E+00 -9.37946E+00 -9.39974E+00 -9.42127E+00 -9.44398E+00
  -9.46785E+00 -9.49292E+00 -9.51928E+00 -9.54688E+00 -9.57573E+00 -9.60592E+00 -9.63734E+00 -9.66963E+00 -9.70236E+00 -9.73499E+00
  -9.76705E+00 -9.79811E+00 -9.82778E+00 -9.85602E+00 -9.88297E+00 -9.90873E+00 -9.93347E+00 -9.95735E+00 -9.98034E+00 -1.00023E+01
  -1.00232E+01 -1.00425E+01 -1.00602E+01 -1.00758E+01 -1.00894E+01 -1.01008E+01 -1.01102E+01 -1.01175E+01 -1.01227E+01 -1.01259E+01
  -1.01271E+01 -1.01261E+01 -1.01230E+01 -1.01177E+01 -1.01100E+01 -1.00999E+01 -1.00875E+01 -1.00727E+01 -1.00555E+01 -1.00358E+01
  -1.00135E+01 -9.98852E+00 -9.96046E+00 -9.92892E+00 -9.89331E+00 -9.85287E+00 -9.80666E+00 -9.75359E+00 -9.69239E+00 -9.62171E+00
  -9.54012E+00 -9.44618E+00 -9.33855E+00 -9.21604E+00 -9.07772E+00 -8.92301E+00 -8.75173E+00 -8.56421E+00 -8.36131E+00 -8.14435E+00
  -7.91503E+00 -7.67480E+00 -7.42337E+00 -7.16483E+00 -6.90992E+00 -6.66686E+00 -6.44074E+00 -6.23436E+00 -6.04934E+00 -5.88760E+00
  -5.74743E+00 -5.62054E+00 -5.50227E+00 -5.39102E+00 -5.28682E+00 -5.19278E+00 -5.11201E+00 -5.04326E+00 -4.98398E+00 -4.93136E+00
  -4.88230E+00 -4.83297E+00 -4.77732E+00 -4.70899E+00 -4.62601E+00 -4.52748E+00 -4.41290E+00 -4.28230E+00 -4.13633E+00 -3.97626E+00
  -3.80388E+00 -3.62149E+00 -3.43180E+00 -3.23776E+00 -3.04256E+00 -2.84941E+00 -2.66150E+00 -2.48188E+00 -2.31336E+00 -2.15839E+00
  -2.01906E+00 -1.89701E+00 -1.79338E+00 -1.70886E+00 -1.64360E+00 -1.59733E+00 -1.56933E+00 -1.55847E+00 -1.56334E+00 -1.58222E+00
  -1.61322E+00 -1.65430E+00 -1.70333E+00 -1.75819E+00 -1.81676E+00 -1.87703E+00 -1.93705E+00 -1.99505E+00 -2.04936E+00 -2.09852E+00
  -2.14119E+00 -2.17625E+00 -2.20271E+00 -2.21977E+00 -2.22680E+00 -2.22335E+00 -2.20911E+00 -2.18397E+00 -2.14799E+00 -2.10140E+00
  -2.04464E+00 -1.97830E+00 -1.90317E+00 -1.82021E+00 -1.73053E+00 -1.63540E+00 -1.53619E+00 -1.43440E+00 -1.33153E+00 -1.22913E+00
  -1.12872E+00 -1.03175E+00 -9.39541E-01 -8.53293E-01 -7.74006E-01 -7.02480E-01 -6.39287E-01 -5.84774E-01 -5.39053E-01 -5.02017E-01
  -4.73354E-01 -4.52581E-01 -4.39061E-01 -4.32050E-01 -4.30719E-01 -4.34192E-01 -4.41576E-01 -4.51997E-01 -4.64610E-01 -4.78633E-01
  -4.93348E-01 -5.08119E-01 -5.22395E-01 -5.35712E-01 -5.47687E-01 -5.58021E-01 -5.66484E-01 -5.72914E-01 -5.77202E-01 -5.79294E-01
  -5.79173E-01 -5.76856E-01 -5.72386E-01 -5.65825E-01 -5.57251E-01 -5.46754E-01 -5.34427E-01 -5.20369E-01 -5.04678E-01 -4.87455E-01
  -4.68795E-01 -4.48794E-01 -4.27541E-01 -4.05124E-01 -3.81623E-01 -3.57118E-01 -3.31680E-01 -3.05383E-01 -2.78288E-01 -2.50460E-01
  -2.21952E-01 -1.92821E-01 -1.63118E-01 -1.32890E-01 -1.02174E-01 -7.10080E-02 -3.94233E-02 -7.45453E-03  2.48714E-02  5.75244E-02
   9.04825E-02  1.23719E-01  1.57214E-01  1.90943E-01  2.24890E-01  2.59033E-01  2.93359E-01  3.27849E-01  3.62490E-01  3.97265E-01
   4.32163E-01  4.67169E-01  5.02275E-01  5.37466E-01  5.72734E-01  6.08067E-01  6.43458E-01  6.78897E-01  7.14377E-01  7.49888E-01
   7.85424E-01  8.20976E-01  8.56541E-01  8.92110E-01  9.27679E-01  9.63240E-01  9.98789E-01  1.03432E+00  1.06983E+00  1.10531E+00
   1.14077E+00  1.17618E+00  1.21156E+00  1.24689E+00  1.28218E+00  1.31741E+00  1.35259E+00  1.38771E+00
 NY background values follow
     5.076E+00    4.937E+00    4.798E+00    4.659E+00    4.520E+00    4.381E+00    4.242E+00    4.103E+00    3.964E+00    3.826E+00
     3.687E+00    3.549E+00    3.411E+00    3.273E+00    3.136E+00    2.999E+00    2.862E+00    2.725E+00    2.590E+00    2.454E+00
     2.319E+00    2.185E+00    2.051E+00    1.918E+00    1.785E+00    1.654E+00    1.522E+00    1.392E+00    1.263E+00    1.134E+00
     1.006E+00    8.789E-01    7.528E-01    6.277E-01    5.035E-01    3.804E-01    2.584E-01    1.374E-01    1.758E-02   -1.011E-01
    -2.186E-01   -3.348E-01   -4.498E-01   -5.635E-01   -6.758E-01   -7.868E-01   -8.964E-01   -1.005E+00   -1.111E+00   -1.217E+00
    -1.321E+00   -1.424E+00   -1.525E+00   -1.625E+00   -1.724E+00   -1.821E+00   -1.917E+00   -2.011E+00   -2.105E+00   -2.197E+00
    -2.287E+00   -2.377E+00   -2.465E+00   -2.551E+00   -2.637E+00   -2.721E+00   -2.804E+00   -2.886E+00   -2.966E+00   -3.046E+00
    -3.124E+00   -3.200E+00   -3.276E+00   -3.350E+00   -3.423E+00   -3.495E+00   -3.566E+00   -3.636E+00   -3.704E+00   -3.771E+00
    -3.837E+00   -3.902E+00   -3.966E+00   -4.029E+00   -4.090E+00   -4.150E+00   -4.210E+00   -4.268E+00   -4.325E+00   -4.381E+00
    -4.436E+00   -4.490E+00   -4.542E+00   -4.594E+00   -4.645E+00   -4.694E+00   -4.743E+00   -4.791E+00   -4.837E+00   -4.883E+00
    -4.928E+00   -4.972E+00   -5.015E+00   -5.058E+00   -5.099E+00   -5.140E+00   -5.179E+00   -5.218E+00   -5.257E+00   -5.294E+00
    -5.331E+00   -5.367E+00   -5.403E+00   -5.437E+00   -5.471E+00   -5.505E+00   -5.538E+00   -5.570E+00   -5.602E+00   -5.633E+00
    -5.663E+00   -5.693E+00   -5.723E+00   -5.752E+00   -5.781E+00   -5.809E+00   -5.836E+00   -5.864E+00   -5.891E+00   -5.917E+00
    -5.943E+00   -5.969E+00   -5.995E+00   -6.020E+00   -6.045E+00   -6.070E+00   -6.094E+00   -6.118E+00   -6.142E+00   -6.166E+00
    -6.190E+00   -6.213E+00   -6.236E+00   -6.259E+00   -6.282E+00   -6.305E+00   -6.328E+00   -6.350E+00   -6.373E+00   -6.395E+00
    -6.417E+00   -6.440E+00   -6.462E+00   -6.484E+00   -6.506E+00   -6.528E+00   -6.550E+00   -6.572E+00   -6.594E+00   -6.616E+00
    -6.638E+00   -6.660E+00   -6.682E+00   -6.705E+00   -6.727E+00   -6.750E+00   -6.772E+00   -6.795E+00   -6.817E+00   -6.840E+00
    -6.863E+00   -6.887E+00   -6.910E+00   -6.934E+00   -6.957E+00   -6.981E+00   -7.005E+00   -7.030E+00   -7.054E+00   -7.079E+00
    -7.104E+00   -7.130E+00   -7.155E+00   -7.181E+00   -7.208E+00   -7.234E+00   -7.261E+00   -7.288E+00   -7.315E+00   -7.342E+00
    -7.370E+00   -7.397E+00   -7.425E+00   -7.453E+00   -7.482E+00   -7.510E+00   -7.539E+00   -7.567E+00   -7.596E+00   -7.625E+00
    -7.654E+00   -7.684E+00   -7.713E+00   -7.743E+00   -7.772E+00   -7.802E+00   -7.832E+00   -7.861E+00   -7.891E+00   -7.921E+00
    -7.951E+00   -7.981E+00   -8.011E+00   -8.041E+00   -8.071E+00   -8.102E+00   -8.132E+00   -8.162E+00   -8.192E+00   -8.222E+00
    -8.252E+00   -8.282E+00   -8.312E+00   -8.342E+00   -8.372E+00   -8.401E+00   -8.431E+00   -8.461E+00   -8.490E+00   -8.520E+00
    -8.549E+00   -8.578E+00   -8.607E+00   -8.636E+00   -8.664E+00   -8.692E+00   -8.720E+00   -8.748E+00   -8.775E+00   -8.802E+00
    -8.829E+00   -8.855E+00   -8.881E+00   -8.907E+00   -8.932E+00   -8.957E+00   -8.981E+00   -9.005E+00   -9.028E+00   -9.051E+00
    -9.073E+00   -9.095E+00   -9.116E+00   -9.137E+00   -9.157E+00   -9.176E+00   -9.195E+00   -9.213E+00   -9.230E+00   -9.247E+00
    -9.262E+00   -9.278E+00   -9.292E+00   -9.306E+00   -9.319E+00   -9.331E+00   -9.342E+00   -9.352E+00   -9.362E+00   -9.370E+00
    -9.378E+00   -9.385E+00   -9.391E+00   -9.396E+00   -9.400E+00   -9.403E+00   -9.405E+00   -9.407E+00   -9.407E+00   -9.407E+00
    -9.406E+00   -9.403E+00   -9.400E+00   -9.396E+00   -9.392E+00   -9.386E+00   -9.379E+00   -9.372E+00   -9.364E+00   -9.355E+00
    -9.345E+00   -9.334E+00   -9.322E+00   -9.310E+00   -9.297E+00   -9.282E+00   -9.268E+00   -9.252E+00   -9.235E+00   -9.218E+00
    -9.200E+00   -9.181E+00   -9.162E+00   -9.141E+00   -9.120E+00   -9.098E+00   -9.075E+00   -9.052E+00   -9.028E+00   -9.003E+00
    -8.977E+00   -8.951E+00   -8.924E+00   -8.896E+00   -8.867E+00   -8.838E+00   -8.808E+00   -8.777E+00   -8.746E+00   -8.713E+00
    -8.681E+00   -8.647E+00   -8.613E+00   -8.578E+00   -8.543E+00   -8.507E+00   -8.470E+00   -8.433E+00   -8.395E+00   -8.356E+00
    -8.317E+00   -8.278E+00   -8.237E+00   -8.197E+00   -8.155E+00   -8.113E+00   -8.071E+00   -8.028E+00   -7.984E+00   -7.940E+00
    -7.896E+00   -7.851E+00   -7.805E+00   -7.759E+00   -7.713E+00   -7.666E+00   -7.619E+00   -7.571E+00   -7.522E+00   -7.474E+00
    -7.425E+00   -7.375E+00   -7.325E+00   -7.275E+00   -7.224E+00   -7.173E+00   -7.121E+00   -7.070E+00   -7.017E+00   -6.965E+00
    -6.912E+00   -6.859E+00   -6.805E+00   -6.751E+00   -6.697E+00   -6.643E+00   -6.588E+00   -6.533E+00   -6.478E+00   -6.422E+00
    -6.366E+00   -6.310E+00   -6.254E+00   -6.197E+00   -6.140E+00   -6.083E+00   -6.026E+00   -5.969E+00   -5.911E+00   -5.853E+00
    -5.795E+00   -5.737E+00   -5.679E+00   -5.621E+00   -5.562E+00   -5.503E+00   -5.444E+00   -5.385E+00   -5.326E+00   -5.267E+00
    -5.208E+00   -5.149E+00   -5.089E+00   -5.030E+00   -4.970E+00   -4.910E+00   -4.851E+00   -4.791E+00   -4.731E+00   -4.671E+00
    -4.611E+00   -4.551E+00   -4.492E+00   -4.432E+00   -4.372E+00   -4.312E+00   -4.252E+00   -4.192E+00   -4.132E+00   -4.073E+00
    -4.013E+00   -3.953E+00   -3.894E+00   -3.834E+00   -3.775E+00   -3.715E+00   -3.656E+00   -3.597E+00   -3.538E+00   -3.479E+00
    -3.420E+00   -3.361E+00   -3.302E+00   -3.244E+00   -3.185E+00   -3.127E+00   -3.069E+00   -3.010E+00   -2.952E+00   -2.895E+00
    -2.837E+00   -2.780E+00   -2.722E+00   -2.665E+00   -2.608E+00   -2.551E+00   -2.495E+00   -2.438E+00   -2.382E+00   -2.326E+00
    -2.270E+00   -2.214E+00   -2.159E+00   -2.104E+00   -2.049E+00   -1.994E+00   -1.939E+00   -1.885E+00   -1.831E+00   -1.777E+00
    -1.724E+00   -1.670E+00   -1.617E+00   -1.564E+00   -1.512E+00   -1.459E+00   -1.407E+00   -1.356E+00   -1.304E+00   -1.253E+00
    -1.202E+00   -1.151E+00   -1.100E+00   -1.050E+00   -9.999E-01   -9.501E-01   -9.004E-01   -8.511E-01   -8.019E-01   -7.530E-01
    -7.043E-01   -6.559E-01   -6.076E-01   -5.596E-01   -5.119E-01   -4.643E-01   -4.170E-01   -3.698E-01   -3.229E-01   -2.762E-01
    -2.298E-01   -1.835E-01   -1.374E-01   -9.160E-02   -4.597E-02   -5.421E-04    4.468E-02    8.970E-02    1.345E-01    1.791E-01
     2.235E-01    2.678E-01    3.118E-01    3.556E-01    3.992E-01    4.427E-01    4.859E-01    5.290E-01
 Ala      Conc. = 4.22E+00
