 LCModel (Version 6.3-1L) Copyright: S.W. Provencher.          Ref.: Magn. Reson. Med. 30:672-679 (1993).                
 Slice#2 Row#14 Col#8  PD_05_press_1_raw_act
 36 lines in following concentration table = NCONC+1
    Conc.  %SD /Cr+PCr  Metabolite                                         
   59.383  72%   2.016 Ala                                                 
    5.497 130%   0.187 Asp                                                 
    0.000 999%   0.000 Cr                                                  
   29.453  52%   1.000 PCr                                                 
    3.440 124%   0.117 GABA                                                
    3.215 134%   0.109 Glc                                                 
    0.000 999%   0.000 Gln                                                 
    0.000 999%   0.000 Glu                                                 
    0.000 999%   0.000 GPC                                                 
   12.639  44%   0.429 PCh                                                 
    0.000 999%   0.000 GSH                                                 
    0.000 999%   0.000 Ins                                                 
    0.000 999%   0.000 Lac                                                 
   47.475  37%   1.612 NAA                                                 
    0.000 999%   0.000 NAAG                                                
    1.306 108% 4.4E-02 Scyllo                                              
    5.848 121%   0.199 Tau                                                 
    7.450 111%   0.253 -CrCH2                                              
   12.639  44%   0.429 GPC+PCh                                             
   47.475  37%   1.612 NAA+NAAG                                            
   29.453  52%   1.000 Cr+PCr                                              
    0.000 999%   0.000 Glu+Gln                                             
    0.000 999%   0.000 Lip13a                                              
    0.335 999% 1.1E-02 Lip13b                                              
 8.91E-02 999% 3.0E-03 Lip09                                               
  104.277  34%   3.540 MM09                                                
 5.03E-02 999% 1.7E-03 Lip20                                               
  155.258  36%   5.271 MM20                                                
   31.034  38%   1.054 MM12                                                
   94.143  35%   3.196 MM14                                                
   57.094  34%   1.938 MM17                                                
    0.335 999% 1.1E-02 Lip13a+Lip13b                                       
  125.512  38%   4.261 MM14+Lip13a+Lip13b+MM12                             
  104.366  34%   3.543 MM09+Lip09                                          
  155.309  35%   5.273 MM20+Lip20                                          
   6 lines in following misc. output table
  FWHM = 0.069 ppm    S/N =   1                                            
  Data shift = 0.061 ppm                                                   
  Ph:  -5 deg     -29.1 deg/ppm                                            
  alphaB,S = 8.5E+01,   6.1E+01                                            
   14 spline knots.   Ns = 7(1)                                            
  ( 4) 2 infls.   ( 1) 1 extrs.                                            
  498 points on ppm-axis = NY
      4.000000     3.992357     3.984714     3.977070     3.969427     3.961784     3.954141     3.946497     3.938854     3.931211
      3.923568     3.915925     3.908281     3.900638     3.892995     3.885352     3.877708     3.870065     3.862422     3.854779
      3.847136     3.839492     3.831849     3.824206     3.816563     3.808919     3.801276     3.793633     3.785990     3.778347
      3.770703     3.763060     3.755417     3.747774     3.740130     3.732487     3.724844     3.717201     3.709558     3.701914
      3.694271     3.686628     3.678985     3.671341     3.663698     3.656055     3.648412     3.640769     3.633125     3.625482
      3.617839     3.610196     3.602552     3.594909     3.587266     3.579623     3.571980     3.564336     3.556693     3.549050
      3.541407     3.533763     3.526120     3.518477     3.510834     3.503191     3.495547     3.487904     3.480261     3.472618
      3.464974     3.457331     3.449688     3.442045     3.434402     3.426758     3.419115     3.411472     3.403829     3.396185
      3.388542     3.380899     3.373256     3.365613     3.357969     3.350326     3.342683     3.335040     3.327396     3.319753
      3.312110     3.304467     3.296824     3.289180     3.281537     3.273894     3.266251     3.258607     3.250964     3.243321
      3.235678     3.228034     3.220391     3.212748     3.205105     3.197462     3.189818     3.182175     3.174532     3.166889
      3.159245     3.151602     3.143959     3.136316     3.128673     3.121029     3.113386     3.105743     3.098100     3.090456
      3.082813     3.075170     3.067527     3.059884     3.052240     3.044597     3.036954     3.029311     3.021667     3.014024
      3.006381     2.998738     2.991095     2.983451     2.975808     2.968165     2.960522     2.952878     2.945235     2.937592
      2.929949     2.922306     2.914662     2.907019     2.899376     2.891733     2.884089     2.876446     2.868803     2.861160
      2.853517     2.845873     2.838230     2.830587     2.822944     2.815300     2.807657     2.800014     2.792371     2.784728
      2.777084     2.769441     2.761798     2.754155     2.746511     2.738868     2.731225     2.723582     2.715939     2.708295
      2.700652     2.693009     2.685366     2.677722     2.670079     2.662436     2.654793     2.647150     2.639506     2.631863
      2.624220     2.616577     2.608933     2.601290     2.593647     2.586004     2.578361     2.570717     2.563074     2.555431
      2.547788     2.540144     2.532501     2.524858     2.517215     2.509572     2.501928     2.494285     2.486642     2.478999
      2.471355     2.463712     2.456069     2.448426     2.440783     2.433139     2.425496     2.417853     2.410210     2.402566
      2.394923     2.387280     2.379637     2.371994     2.364350     2.356707     2.349064     2.341421     2.333777     2.326134
      2.318491     2.310848     2.303205     2.295561     2.287918     2.280275     2.272632     2.264988     2.257345     2.249702
      2.242059     2.234416     2.226772     2.219129     2.211486     2.203843     2.196199     2.188556     2.180913     2.173270
      2.165627     2.157983     2.150340     2.142697     2.135054     2.127410     2.119767     2.112124     2.104481     2.096838
      2.089194     2.081551     2.073908     2.066265     2.058621     2.050978     2.043335     2.035692     2.028049     2.020405
      2.012762     2.005119     1.997476     1.989833     1.982190     1.974546     1.966903     1.959260     1.951617     1.943974
      1.936331     1.928688     1.921045     1.913402     1.905759     1.898115     1.890472     1.882829     1.875186     1.867543
      1.859900     1.852257     1.844614     1.836971     1.829327     1.821684     1.814041     1.806398     1.798755     1.791112
      1.783469     1.775826     1.768183     1.760540     1.752896     1.745253     1.737610     1.729967     1.722324     1.714681
      1.707038     1.699395     1.691752     1.684108     1.676465     1.668822     1.661179     1.653536     1.645893     1.638250
      1.630607     1.622964     1.615321     1.607677     1.600034     1.592391     1.584748     1.577105     1.569462     1.561819
      1.554176     1.546533     1.538890     1.531246     1.523603     1.515960     1.508317     1.500674     1.493031     1.485388
      1.477745     1.470102     1.462458     1.454815     1.447172     1.439529     1.431886     1.424243     1.416600     1.408957
      1.401314     1.393671     1.386027     1.378384     1.370741     1.363098     1.355455     1.347812     1.340169     1.332526
      1.324883     1.317240     1.309596     1.301953     1.294310     1.286667     1.279024     1.271381     1.263738     1.256095
      1.248452     1.240808     1.233165     1.225522     1.217879     1.210236     1.202593     1.194950     1.187307     1.179664
      1.172021     1.164377     1.156734     1.149091     1.141448     1.133805     1.126162     1.118519     1.110876     1.103233
      1.095590     1.087946     1.080303     1.072660     1.065017     1.057374     1.049731     1.042088     1.034445     1.026802
      1.019158     1.011515     1.003872     0.996229     0.988586     0.980943     0.973300     0.965657     0.958014     0.950371
      0.942727     0.935084     0.927441     0.919798     0.912155     0.904512     0.896869     0.889226     0.881583     0.873940
      0.866296     0.858653     0.851010     0.843367     0.835724     0.828081     0.820438     0.812795     0.805152     0.797508
      0.789865     0.782222     0.774579     0.766936     0.759293     0.751650     0.744007     0.736364     0.728721     0.721077
      0.713434     0.705791     0.698148     0.690505     0.682862     0.675219     0.667576     0.659933     0.652290     0.644646
      0.637003     0.629360     0.621717     0.614074     0.606431     0.598788     0.591145     0.583502     0.575858     0.568215
      0.560572     0.552929     0.545286     0.537643     0.530000     0.522357     0.514714     0.507071     0.499427     0.491784
      0.484141     0.476498     0.468855     0.461212     0.453569     0.445925     0.438282     0.430639     0.422996     0.415353
      0.407710     0.400067     0.392424     0.384780     0.377137     0.369494     0.361851     0.354208     0.346565     0.338922
      0.331278     0.323635     0.315992     0.308349     0.300706     0.293063     0.285420     0.277777     0.270133     0.262490
      0.254847     0.247204     0.239561     0.231918     0.224275     0.216631     0.208988     0.201345
 NY phased data points follow
   2.05692E+00  2.03666E+00 -3.25418E-02  6.26336E-01  1.52434E+00  3.27668E+00  1.54173E+00  1.81255E+00  1.23177E+00  2.81705E+00
   1.07947E+00  2.27241E+00  2.16228E+00  3.58449E+00  1.55174E+00  6.69560E-02  6.05000E-01  5.00363E-01  1.63548E+00 -1.02347E+00
   2.83903E+00  7.02289E-01  7.76555E-01  9.86506E-01  1.60540E+00  5.80623E-01  1.80407E+00  1.76973E+00  1.19806E-01  2.14459E+00
   2.23673E+00  6.65141E-01  1.09346E+00  8.21196E-01  1.83694E+00  2.05985E+00  2.22934E+00  1.73879E+00  2.25855E+00  2.05976E+00
   2.38352E+00  1.68542E+00  1.96863E+00  2.51295E+00  2.94556E+00  5.91614E-01  1.65748E+00  1.39400E+00  2.99560E+00  1.54905E+00
   2.34740E+00  2.08374E+00  1.96232E+00  1.39612E+00  2.63536E+00  1.57182E+00  2.78912E+00  1.30649E+00  1.07661E-03  1.34269E+00
   1.78967E+00  1.04812E+00  1.20919E+00  7.67686E-01  1.99613E+00  3.06980E+00  2.39471E+00  3.17047E+00  3.56232E+00  4.41497E-01
   1.78386E+00  7.76270E-01  4.96322E-01  1.40707E+00  2.05402E+00  1.28312E+00  2.55029E+00  1.86401E+00  3.34924E+00  2.63152E+00
   3.71390E+00  3.22977E+00  3.70386E+00  7.05797E-01  4.19922E+00  1.28272E+00  1.52668E+00  1.10861E+00  2.43883E+00  8.22114E-01
   3.69587E+00  1.93006E+00 -1.68507E-01  1.78042E+00  1.05269E+00 -7.51246E-01  3.55858E+00  2.53328E+00  4.01193E+00  2.34364E+00
   3.47693E+00  3.67234E+00  2.83829E+00  2.68908E+00  9.96830E-01  2.48020E+00  2.50558E+00  2.49675E+00  5.52300E-01  2.28298E+00
   3.61048E+00  4.41503E+00  4.99694E+00  6.26284E-01  1.06304E+00  3.56841E+00  1.54472E+00  3.22096E+00  2.72947E+00  8.81588E-01
   1.56180E-01  3.58077E+00  3.86430E+00  2.09611E+00  2.23191E+00  3.36156E+00  3.31509E+00  1.77778E+00  4.38841E+00  2.28352E+00
   3.85099E+00  1.77680E+00  1.95138E+00  2.50555E+00  1.16736E+00  3.66878E+00  3.76113E+00  4.27275E+00  1.24978E+00  1.25396E+00
   3.15031E+00  2.47978E+00  2.72681E+00  1.75354E+00  2.54584E+00  1.86311E+00  5.99054E-01  3.79346E+00  1.52918E+00  3.47858E+00
   4.01331E+00  2.01649E+00  6.22576E-01  1.92278E+00  2.65623E+00  2.17388E+00  2.95484E+00  1.79500E+00  7.74120E-01  2.76515E+00
   1.45185E+00  1.40246E+00  2.99313E+00  4.26953E+00  1.14683E+00  1.73037E+00  1.57723E-01  1.55785E+00  2.90508E+00  2.79964E+00
   2.91752E+00  2.30064E+00  1.46095E+00  2.80928E+00  1.56747E+00  1.18800E+00  7.59387E-01  2.30081E+00  2.36373E+00  1.40385E+00
   3.98503E+00  1.64452E+00  1.17970E+00  2.22328E+00  3.18349E+00  7.45143E-01  4.00539E+00  3.35619E+00  7.46678E-01  3.51397E-01
   2.48197E+00  1.48211E+00  3.42036E+00  3.12970E+00  1.14082E+00  2.06500E+00  2.70769E+00  1.48348E+00  1.19884E+00  2.44506E+00
   1.97324E+00  2.17580E+00  3.14554E+00  2.17641E+00  3.69093E+00  1.11140E-01  2.43515E+00  1.61195E+00  4.36295E+00  3.38644E+00
   1.92888E+00  2.23828E+00  2.48270E+00  2.14722E+00  2.74342E+00  3.22586E+00  6.59855E-01  2.41983E+00  1.90778E+00  2.42701E+00
   3.21290E+00  2.75663E+00  6.14177E-01  5.13424E-01  2.87126E+00  1.20013E+00  1.05804E+00  1.73923E+00  7.80902E-01  4.47520E-01
   9.61967E-01 -2.15944E-01  2.06439E+00  1.57540E+00  2.74604E+00  1.18337E+00  1.99893E+00  3.28836E+00  1.90125E+00  2.21479E+00
   3.84046E-01  2.33392E+00  2.65026E+00  2.41734E+00  1.08686E+00  2.81425E-01  3.29920E+00  2.67660E+00  1.77248E+00  1.16093E+00
   8.21416E-01  1.20705E+00  3.30205E-01  8.37553E-01  3.16756E+00  1.24251E+00  4.06449E+00  3.24215E+00  2.07788E+00  4.06001E+00
   3.71759E+00  3.86849E+00  3.40187E+00  1.41923E+00  1.96941E+00  3.82640E+00  2.17679E+00  5.37805E-01  1.86745E+00  7.50626E-01
   2.42578E+00  1.07082E-01  1.26984E+00  2.15537E+00  1.42444E+00  1.92934E+00 -9.72187E-02  7.24728E-01  2.35456E+00  2.88775E+00
   2.62544E+00  1.55345E+00  3.21205E+00  2.44264E+00  2.27142E+00  1.23717E+00  1.16361E+00  2.49260E+00  3.57301E-01  1.02363E+00
   2.87860E+00  1.38832E+00  2.21160E+00  2.55315E+00  2.12159E+00 -3.56757E-01  1.28241E+00  1.68567E+00  9.10312E-01  1.46289E+00
   9.65312E-01  1.51936E+00  2.72549E-01  1.96340E+00  3.13109E+00  2.70898E+00  3.37831E+00  2.23986E+00  3.28121E+00  3.08009E+00
   2.90547E+00  2.22063E+00  3.34515E+00  2.90799E+00  2.01995E+00  2.94413E+00  3.65600E+00  3.50934E+00  4.62577E+00  3.60863E+00
   3.03459E+00  2.72296E+00  2.10366E+00  4.43445E+00  2.72328E+00  1.15275E+00  2.00603E+00  1.93912E+00  3.51798E+00  1.07943E+00
   1.60147E+00  1.98316E+00  1.48654E+00  3.25645E+00  2.25491E+00  2.09559E+00  2.24801E+00  9.07357E-01  1.29397E+00  1.50957E+00
   1.03573E+00  1.20879E+00  2.18158E+00  9.92500E-01 -7.92528E-01  1.53884E+00  1.73762E+00  3.39906E+00  2.09332E+00  1.64895E+00
   6.43182E-01  2.33317E+00  1.38778E+00  1.28067E+00  7.81762E-01  2.56244E+00  2.79622E+00  8.61385E-01  1.73299E+00  1.68795E+00
   1.12763E+00  7.53420E-01  2.26611E+00  3.85313E-01  1.85210E+00  2.13015E+00  4.47966E-01 -5.04780E-01  9.29032E-01  1.78878E+00
   2.56651E-01  3.52472E+00  2.08975E+00 -4.39998E-01  6.63133E-01  1.70803E+00  1.78581E+00  1.01720E+00  1.54816E+00  1.04377E+00
   9.74871E-01  5.89721E-01  4.77968E-01  1.37184E+00  1.08658E+00  4.76238E-01  1.09623E+00  2.97321E+00  3.11748E-01  2.09636E+00
   1.04806E+00  2.17451E+00  1.11699E-01  8.25948E-01  8.11479E-01  8.25464E-01  9.67458E-01  1.47869E+00 -6.43498E-01  2.42602E+00
   2.26527E+00  9.56109E-01  2.94229E+00  1.02317E+00  7.78114E-01  6.68990E-01  2.46055E+00  1.46668E+00  2.33500E+00  1.46952E+00
  -5.90613E-02  1.76742E+00  1.42178E+00  1.23343E+00  1.77190E+00  2.09177E+00  2.24484E+00  1.30041E+00  2.06432E+00  1.07849E+00
   1.01844E+00  1.24356E+00  2.44471E+00  1.04156E+00  1.26457E+00  1.91464E+00 -2.53267E-02  1.36249E+00  4.52939E-01  1.80077E+00
   7.36068E-02  5.73583E-02  1.96365E+00 -2.90780E-01  6.36439E-01  1.15679E+00  1.69075E+00  3.32445E-01  1.20547E-01 -2.40816E-01
   2.60819E-01  1.22913E+00  1.38664E-01  9.35627E-01  1.74244E+00  1.08576E-01 -5.62227E-01  2.95987E+00  1.76237E+00 -1.57116E+00
  -2.91774E-01  2.54234E+00  3.02523E+00  2.91499E+00  8.64233E-01  1.27713E+00  3.98676E-01  5.55623E-01  1.27753E+00  6.10141E-01
   2.17812E+00  3.52449E-01 -1.09790E+00  2.67735E+00  5.15823E-01  1.08855E+00 -2.50246E-02  2.42359E-01  8.33239E-01  1.07133E+00
  -1.04244E+00  2.09711E-01  2.46712E-01  1.13408E+00  9.63554E-01  1.88483E+00  3.86056E-01  1.97295E+00  1.14451E+00  9.13907E-01
   5.45671E-01  2.79067E+00 -8.41735E-01  9.21396E-01  7.86198E-01 -1.59804E-01  2.20955E-01  4.07495E-01  1.11139E+00 -6.35955E-02
  -6.28802E-01  4.35679E-01  3.59413E-01 -2.90311E-01  2.15441E+00  1.19761E-01  2.14584E+00  4.31993E-01
 NY points of the fit to the data follow
   2.11129E+00  2.12207E+00  2.16064E+00  2.23210E+00  2.31721E+00  2.39484E+00  2.44958E+00  2.47512E+00  2.47274E+00  2.44810E+00
   2.40654E+00  2.35054E+00  2.28667E+00  2.22235E+00  2.16337E+00  2.11427E+00  2.07895E+00  2.06444E+00  2.08025E+00  2.10975E+00
   2.12962E+00  2.13112E+00  2.11372E+00  2.08144E+00  2.03870E+00  1.98923E+00  1.94502E+00  1.91935E+00  1.91669E+00  1.93299E+00
   1.96052E+00  1.99270E+00  2.02506E+00  2.05300E+00  2.07205E+00  2.07770E+00  2.07065E+00  2.05638E+00  2.03825E+00  2.01788E+00
   1.99667E+00  1.97623E+00  1.96155E+00  1.95434E+00  1.95096E+00  1.95023E+00  1.95261E+00  1.95794E+00  1.96493E+00  1.97106E+00
   1.97513E+00  1.97750E+00  1.97795E+00  1.97700E+00  1.97494E+00  1.97223E+00  1.96944E+00  1.96655E+00  1.96360E+00  1.96104E+00
   1.95891E+00  1.95710E+00  1.95586E+00  1.95438E+00  1.95199E+00  1.94882E+00  1.94534E+00  1.94188E+00  1.94007E+00  1.94153E+00
   1.94527E+00  1.94902E+00  1.95084E+00  1.94951E+00  1.94516E+00  1.93948E+00  1.93412E+00  1.92979E+00  1.92767E+00  1.93092E+00
   1.94018E+00  1.95196E+00  1.96239E+00  1.96899E+00  1.97169E+00  1.97138E+00  1.96777E+00  1.96036E+00  1.94934E+00  1.93583E+00
   1.92171E+00  1.90982E+00  1.90301E+00  1.90194E+00  1.90828E+00  1.93337E+00  2.02303E+00  2.20437E+00  2.43297E+00  2.65098E+00
   2.81423E+00  2.90325E+00  2.91895E+00  2.87423E+00  2.78693E+00  2.67352E+00  2.54799E+00  2.42042E+00  2.29469E+00  2.17249E+00
   2.05885E+00  1.96629E+00  1.91525E+00  1.90041E+00  1.89588E+00  1.89470E+00  1.89569E+00  1.89937E+00  1.90865E+00  1.94081E+00
   2.04037E+00  2.20374E+00  2.38741E+00  2.54822E+00  2.65823E+00  2.70847E+00  2.70363E+00  2.65570E+00  2.57820E+00  2.48330E+00
   2.38121E+00  2.27748E+00  2.17436E+00  2.07471E+00  1.98449E+00  1.91621E+00  1.88274E+00  1.86783E+00  1.85730E+00  1.84906E+00
   1.84240E+00  1.83620E+00  1.82965E+00  1.82233E+00  1.81427E+00  1.80583E+00  1.79714E+00  1.78846E+00  1.78015E+00  1.77235E+00
   1.76501E+00  1.75790E+00  1.75090E+00  1.74340E+00  1.73322E+00  1.71989E+00  1.70526E+00  1.69204E+00  1.68365E+00  1.68001E+00
   1.67879E+00  1.67791E+00  1.67600E+00  1.67258E+00  1.66775E+00  1.66189E+00  1.65547E+00  1.64867E+00  1.64115E+00  1.63092E+00
   1.61682E+00  1.60291E+00  1.59289E+00  1.58776E+00  1.58535E+00  1.58271E+00  1.57985E+00  1.57809E+00  1.57840E+00  1.57997E+00
   1.58036E+00  1.57983E+00  1.58135E+00  1.58640E+00  1.59457E+00  1.60397E+00  1.61329E+00  1.62304E+00  1.63286E+00  1.64262E+00
   1.65277E+00  1.66243E+00  1.67007E+00  1.67421E+00  1.67406E+00  1.66941E+00  1.66196E+00  1.65679E+00  1.65606E+00  1.65830E+00
   1.66141E+00  1.66356E+00  1.66376E+00  1.66211E+00  1.65916E+00  1.65504E+00  1.64816E+00  1.63781E+00  1.62613E+00  1.61553E+00
   1.60754E+00  1.60280E+00  1.60200E+00  1.60547E+00  1.61185E+00  1.62021E+00  1.63047E+00  1.64282E+00  1.65705E+00  1.67207E+00
   1.68635E+00  1.69830E+00  1.70659E+00  1.71151E+00  1.71398E+00  1.71523E+00  1.71707E+00  1.72077E+00  1.72687E+00  1.73527E+00
   1.74561E+00  1.75761E+00  1.77122E+00  1.78637E+00  1.80281E+00  1.82020E+00  1.83839E+00  1.85723E+00  1.87645E+00  1.89571E+00
   1.91490E+00  1.93429E+00  1.95393E+00  1.97344E+00  1.99241E+00  2.01045E+00  2.02719E+00  2.04236E+00  2.05581E+00  2.06762E+00
   2.07850E+00  2.09086E+00  2.11608E+00  2.20900E+00  2.41734E+00  2.69131E+00  2.95742E+00  3.15721E+00  3.26235E+00  3.27231E+00
   3.20314E+00  3.07763E+00  2.91680E+00  2.73804E+00  2.55428E+00  2.37102E+00  2.19153E+00  2.02228E+00  1.87781E+00  1.78437E+00
   1.74182E+00  1.71544E+00  1.69373E+00  1.67429E+00  1.65611E+00  1.63867E+00  1.62179E+00  1.60543E+00  1.58966E+00  1.57479E+00
   1.56121E+00  1.54912E+00  1.53865E+00  1.52989E+00  1.52287E+00  1.51764E+00  1.51420E+00  1.51243E+00  1.51227E+00  1.51379E+00
   1.51707E+00  1.52217E+00  1.52920E+00  1.53823E+00  1.54936E+00  1.56264E+00  1.57797E+00  1.59521E+00  1.61414E+00  1.63449E+00
   1.65587E+00  1.67786E+00  1.70003E+00  1.72186E+00  1.74290E+00  1.76270E+00  1.78089E+00  1.79716E+00  1.81133E+00  1.82337E+00
   1.83339E+00  1.84165E+00  1.84863E+00  1.85503E+00  1.86179E+00  1.87020E+00  1.88208E+00  1.90028E+00  1.93008E+00  1.98398E+00
   2.07982E+00  2.18259E+00  2.23607E+00  2.21290E+00  2.11304E+00  1.95359E+00  1.75409E+00  1.53194E+00  1.34100E+00  1.24086E+00
   1.24196E+00  1.32142E+00  1.44322E+00  1.57710E+00  1.70591E+00  1.82522E+00  1.93258E+00  2.00638E+00  2.03937E+00  2.04140E+00
   2.01803E+00  1.97120E+00  1.90239E+00  1.81925E+00  1.74625E+00  1.69462E+00  1.65472E+00  1.62155E+00  1.59306E+00  1.56821E+00
   1.54641E+00  1.52725E+00  1.51042E+00  1.49566E+00  1.48272E+00  1.47134E+00  1.46131E+00  1.45239E+00  1.44440E+00  1.43714E+00
   1.43044E+00  1.42414E+00  1.41813E+00  1.41226E+00  1.40644E+00  1.40060E+00  1.39466E+00  1.38859E+00  1.38239E+00  1.37608E+00
   1.36970E+00  1.36335E+00  1.35712E+00  1.35114E+00  1.34555E+00  1.34050E+00  1.33619E+00  1.33277E+00  1.33043E+00  1.32938E+00
   1.32981E+00  1.33192E+00  1.33591E+00  1.34200E+00  1.35037E+00  1.36122E+00  1.37472E+00  1.39100E+00  1.41019E+00  1.43231E+00
   1.45735E+00  1.48521E+00  1.51568E+00  1.54844E+00  1.58308E+00  1.61903E+00  1.65563E+00  1.69209E+00  1.72757E+00  1.76114E+00
   1.79187E+00  1.81882E+00  1.84113E+00  1.85803E+00  1.86891E+00  1.87331E+00  1.87098E+00  1.86186E+00  1.84615E+00  1.82421E+00
   1.79659E+00  1.76402E+00  1.72731E+00  1.68736E+00  1.64508E+00  1.60141E+00  1.55719E+00  1.51323E+00  1.47019E+00  1.42865E+00
   1.38907E+00  1.35176E+00  1.31695E+00  1.28474E+00  1.25515E+00  1.22814E+00  1.20360E+00  1.18138E+00  1.16131E+00  1.14321E+00
   1.12688E+00  1.11213E+00  1.09879E+00  1.08668E+00  1.07566E+00  1.06558E+00  1.05632E+00  1.04777E+00  1.03986E+00  1.03248E+00
   1.02557E+00  1.01907E+00  1.01294E+00  1.00712E+00  1.00158E+00  9.96285E-01  9.91211E-01  9.86330E-01  9.81625E-01  9.77075E-01
   9.72667E-01  9.68385E-01  9.64217E-01  9.60152E-01  9.56184E-01  9.52302E-01  9.48500E-01  9.44768E-01  9.41104E-01  9.37501E-01
   9.33955E-01  9.30462E-01  9.27017E-01  9.23616E-01  9.20257E-01  9.16937E-01  9.13654E-01  9.10405E-01  9.07187E-01  9.03997E-01
   9.00837E-01  8.97702E-01  8.94592E-01  8.91505E-01  8.88439E-01  8.85393E-01  8.82367E-01  8.79359E-01  8.76370E-01  8.73395E-01
   8.70436E-01  8.67491E-01  8.64562E-01  8.61645E-01  8.58742E-01  8.55849E-01  8.52968E-01  8.50098E-01  8.47240E-01  8.44391E-01
   8.41553E-01  8.38722E-01  8.35901E-01  8.33089E-01  8.30287E-01  8.27492E-01  8.24706E-01  8.21926E-01
 NY background values follow
     2.081E+00    2.078E+00    2.076E+00    2.073E+00    2.071E+00    2.068E+00    2.065E+00    2.063E+00    2.060E+00    2.058E+00
     2.055E+00    2.053E+00    2.050E+00    2.048E+00    2.045E+00    2.042E+00    2.040E+00    2.037E+00    2.035E+00    2.032E+00
     2.030E+00    2.027E+00    2.025E+00    2.022E+00    2.019E+00    2.017E+00    2.014E+00    2.012E+00    2.009E+00    2.007E+00
     2.004E+00    2.002E+00    1.999E+00    1.996E+00    1.994E+00    1.991E+00    1.989E+00    1.986E+00    1.984E+00    1.981E+00
     1.979E+00    1.976E+00    1.973E+00    1.971E+00    1.968E+00    1.966E+00    1.963E+00    1.961E+00    1.958E+00    1.956E+00
     1.953E+00    1.950E+00    1.948E+00    1.945E+00    1.943E+00    1.940E+00    1.938E+00    1.935E+00    1.933E+00    1.930E+00
     1.927E+00    1.925E+00    1.922E+00    1.920E+00    1.917E+00    1.915E+00    1.912E+00    1.910E+00    1.907E+00    1.904E+00
     1.902E+00    1.899E+00    1.897E+00    1.894E+00    1.892E+00    1.889E+00    1.887E+00    1.884E+00    1.881E+00    1.879E+00
     1.876E+00    1.874E+00    1.871E+00    1.869E+00    1.866E+00    1.864E+00    1.861E+00    1.858E+00    1.856E+00    1.853E+00
     1.851E+00    1.848E+00    1.846E+00    1.843E+00    1.841E+00    1.838E+00    1.835E+00    1.833E+00    1.830E+00    1.828E+00
     1.825E+00    1.823E+00    1.820E+00    1.818E+00    1.815E+00    1.812E+00    1.810E+00    1.807E+00    1.805E+00    1.802E+00
     1.800E+00    1.797E+00    1.795E+00    1.792E+00    1.789E+00    1.787E+00    1.784E+00    1.782E+00    1.779E+00    1.777E+00
     1.774E+00    1.772E+00    1.769E+00    1.766E+00    1.764E+00    1.761E+00    1.759E+00    1.756E+00    1.754E+00    1.751E+00
     1.749E+00    1.746E+00    1.743E+00    1.741E+00    1.738E+00    1.736E+00    1.733E+00    1.731E+00    1.728E+00    1.726E+00
     1.723E+00    1.720E+00    1.718E+00    1.715E+00    1.713E+00    1.710E+00    1.708E+00    1.705E+00    1.703E+00    1.700E+00
     1.697E+00    1.695E+00    1.692E+00    1.690E+00    1.687E+00    1.685E+00    1.682E+00    1.680E+00    1.677E+00    1.674E+00
     1.672E+00    1.669E+00    1.667E+00    1.664E+00    1.662E+00    1.659E+00    1.657E+00    1.654E+00    1.651E+00    1.649E+00
     1.646E+00    1.644E+00    1.641E+00    1.639E+00    1.636E+00    1.633E+00    1.631E+00    1.628E+00    1.626E+00    1.623E+00
     1.621E+00    1.618E+00    1.616E+00    1.613E+00    1.610E+00    1.608E+00    1.605E+00    1.603E+00    1.600E+00    1.598E+00
     1.595E+00    1.593E+00    1.590E+00    1.587E+00    1.585E+00    1.582E+00    1.580E+00    1.577E+00    1.575E+00    1.572E+00
     1.570E+00    1.567E+00    1.564E+00    1.562E+00    1.559E+00    1.557E+00    1.554E+00    1.552E+00    1.549E+00    1.547E+00
     1.544E+00    1.541E+00    1.539E+00    1.536E+00    1.534E+00    1.531E+00    1.529E+00    1.526E+00    1.524E+00    1.521E+00
     1.518E+00    1.516E+00    1.513E+00    1.511E+00    1.508E+00    1.506E+00    1.503E+00    1.500E+00    1.498E+00    1.495E+00
     1.493E+00    1.490E+00    1.488E+00    1.485E+00    1.483E+00    1.480E+00    1.477E+00    1.475E+00    1.472E+00    1.470E+00
     1.467E+00    1.465E+00    1.462E+00    1.460E+00    1.457E+00    1.454E+00    1.452E+00    1.449E+00    1.447E+00    1.444E+00
     1.442E+00    1.439E+00    1.437E+00    1.434E+00    1.431E+00    1.429E+00    1.426E+00    1.424E+00    1.421E+00    1.419E+00
     1.416E+00    1.413E+00    1.411E+00    1.408E+00    1.406E+00    1.403E+00    1.401E+00    1.398E+00    1.396E+00    1.393E+00
     1.390E+00    1.388E+00    1.385E+00    1.383E+00    1.380E+00    1.378E+00    1.375E+00    1.373E+00    1.370E+00    1.367E+00
     1.365E+00    1.362E+00    1.360E+00    1.357E+00    1.355E+00    1.352E+00    1.349E+00    1.347E+00    1.344E+00    1.342E+00
     1.339E+00    1.337E+00    1.334E+00    1.332E+00    1.329E+00    1.326E+00    1.324E+00    1.321E+00    1.319E+00    1.316E+00
     1.314E+00    1.311E+00    1.309E+00    1.306E+00    1.303E+00    1.301E+00    1.298E+00    1.296E+00    1.293E+00    1.291E+00
     1.288E+00    1.285E+00    1.283E+00    1.280E+00    1.278E+00    1.275E+00    1.273E+00    1.270E+00    1.268E+00    1.265E+00
     1.262E+00    1.260E+00    1.257E+00    1.255E+00    1.252E+00    1.250E+00    1.247E+00    1.245E+00    1.242E+00    1.239E+00
     1.237E+00    1.234E+00    1.232E+00    1.229E+00    1.227E+00    1.224E+00    1.221E+00    1.219E+00    1.216E+00    1.214E+00
     1.211E+00    1.209E+00    1.206E+00    1.204E+00    1.201E+00    1.198E+00    1.196E+00    1.193E+00    1.191E+00    1.188E+00
     1.186E+00    1.183E+00    1.180E+00    1.178E+00    1.175E+00    1.173E+00    1.170E+00    1.168E+00    1.165E+00    1.163E+00
     1.160E+00    1.157E+00    1.155E+00    1.152E+00    1.150E+00    1.147E+00    1.145E+00    1.142E+00    1.140E+00    1.137E+00
     1.134E+00    1.132E+00    1.129E+00    1.127E+00    1.124E+00    1.122E+00    1.119E+00    1.116E+00    1.114E+00    1.111E+00
     1.109E+00    1.106E+00    1.104E+00    1.101E+00    1.099E+00    1.096E+00    1.093E+00    1.091E+00    1.088E+00    1.086E+00
     1.083E+00    1.081E+00    1.078E+00    1.075E+00    1.073E+00    1.070E+00    1.068E+00    1.065E+00    1.063E+00    1.060E+00
     1.058E+00    1.055E+00    1.052E+00    1.050E+00    1.047E+00    1.045E+00    1.042E+00    1.040E+00    1.037E+00    1.034E+00
     1.032E+00    1.029E+00    1.027E+00    1.024E+00    1.022E+00    1.019E+00    1.017E+00    1.014E+00    1.011E+00    1.009E+00
     1.006E+00    1.004E+00    1.001E+00    9.986E-01    9.961E-01    9.935E-01    9.910E-01    9.884E-01    9.858E-01    9.833E-01
     9.807E-01    9.781E-01    9.756E-01    9.730E-01    9.705E-01    9.679E-01    9.653E-01    9.628E-01    9.602E-01    9.577E-01
     9.551E-01    9.525E-01    9.500E-01    9.474E-01    9.448E-01    9.423E-01    9.397E-01    9.372E-01    9.346E-01    9.320E-01
     9.295E-01    9.269E-01    9.244E-01    9.218E-01    9.192E-01    9.167E-01    9.141E-01    9.115E-01    9.090E-01    9.064E-01
     9.039E-01    9.013E-01    8.987E-01    8.962E-01    8.936E-01    8.911E-01    8.885E-01    8.859E-01    8.834E-01    8.808E-01
     8.782E-01    8.757E-01    8.731E-01    8.706E-01    8.680E-01    8.654E-01    8.629E-01    8.603E-01    8.578E-01    8.552E-01
     8.526E-01    8.501E-01    8.475E-01    8.449E-01    8.424E-01    8.398E-01    8.373E-01    8.347E-01    8.321E-01    8.296E-01
     8.270E-01    8.245E-01    8.219E-01    8.193E-01    8.168E-01    8.142E-01    8.117E-01    8.091E-01
 Ala      Conc. = 5.94E+01
