 LCModel (Version 6.3-1L) Copyright: S.W. Provencher.          Ref.: Magn. Reson. Med. 30:672-679 (1993).                
 Slice#2 Row#14 Col#6  PD_05_press_1_raw_act
 36 lines in following concentration table = NCONC+1
    Conc.  %SD /Cr+PCr  Metabolite                                         
    0.000 999%   0.000 Ala                                                 
    2.961  45% 7.0E-02 Asp                                                 
    0.000 999%   0.000 Cr                                                  
   42.010  33%   1.000 PCr                                                 
    1.778  45% 4.2E-02 GABA                                                
    1.772  45% 4.2E-02 Glc                                                 
   42.968 139%   1.023 Gln                                                 
    9.628 685%   0.229 Glu                                                 
    5.767  89%   0.137 GPC                                                 
    0.000 999%   0.000 PCh                                                 
    0.000 999%   0.000 GSH                                                 
    0.000 999%   0.000 Ins                                                 
   35.267  93%   0.839 Lac                                                 
    0.000 999%   0.000 NAA                                                 
    0.000 999%   0.000 NAAG                                                
    0.590  45% 1.4E-02 Scyllo                                              
    2.944  45% 7.0E-02 Tau                                                 
    3.429  86% 8.2E-02 -CrCH2                                              
    5.767  89%   0.137 GPC+PCh                                             
    0.000 999%   0.000 NAA+NAAG                                            
   42.010  33%   1.000 Cr+PCr                                              
   52.596 172%   1.252 Glu+Gln                                             
  129.004  78%   3.071 Lip13a                                              
    0.000 999%   0.000 Lip13b                                              
   32.661  90%   0.777 Lip09                                               
    0.000 999%   0.000 MM09                                                
   19.770  87%   0.471 Lip20                                               
    0.000 999%   0.000 MM20                                                
 2.50E-05 999% 6.0E-07 MM12                                                
    0.000 999%   0.000 MM14                                                
 1.41E-04 999% 3.4E-06 MM17                                                
  129.004  78%   3.071 Lip13a+Lip13b                                       
  129.004  78%   3.071 MM14+Lip13a+Lip13b+MM12                             
   32.661  90%   0.777 MM09+Lip09                                          
   19.770  87%   0.471 MM20+Lip20                                          
   6 lines in following misc. output table
  FWHM = 0.061 ppm    S/N =   1                                            
  Data shift = 0.069 ppm                                                   
  Ph: 105 deg       9.8 deg/ppm                                            
  alphaB,S = 6.6E-01,   4.5E+01                                            
   14 spline knots.   Ns = 5(1)                                            
  ( 4) 2 infls.   ( 1) 1 extrs.                                            
  498 points on ppm-axis = NY
      4.000000     3.992357     3.984714     3.977070     3.969427     3.961784     3.954141     3.946497     3.938854     3.931211
      3.923568     3.915925     3.908281     3.900638     3.892995     3.885352     3.877708     3.870065     3.862422     3.854779
      3.847136     3.839492     3.831849     3.824206     3.816563     3.808919     3.801276     3.793633     3.785990     3.778347
      3.770703     3.763060     3.755417     3.747774     3.740130     3.732487     3.724844     3.717201     3.709558     3.701914
      3.694271     3.686628     3.678985     3.671341     3.663698     3.656055     3.648412     3.640769     3.633125     3.625482
      3.617839     3.610196     3.602552     3.594909     3.587266     3.579623     3.571980     3.564336     3.556693     3.549050
      3.541407     3.533763     3.526120     3.518477     3.510834     3.503191     3.495547     3.487904     3.480261     3.472618
      3.464974     3.457331     3.449688     3.442045     3.434402     3.426758     3.419115     3.411472     3.403829     3.396185
      3.388542     3.380899     3.373256     3.365613     3.357969     3.350326     3.342683     3.335040     3.327396     3.319753
      3.312110     3.304467     3.296824     3.289180     3.281537     3.273894     3.266251     3.258607     3.250964     3.243321
      3.235678     3.228034     3.220391     3.212748     3.205105     3.197462     3.189818     3.182175     3.174532     3.166889
      3.159245     3.151602     3.143959     3.136316     3.128673     3.121029     3.113386     3.105743     3.098100     3.090456
      3.082813     3.075170     3.067527     3.059884     3.052240     3.044597     3.036954     3.029311     3.021667     3.014024
      3.006381     2.998738     2.991095     2.983451     2.975808     2.968165     2.960522     2.952878     2.945235     2.937592
      2.929949     2.922306     2.914662     2.907019     2.899376     2.891733     2.884089     2.876446     2.868803     2.861160
      2.853517     2.845873     2.838230     2.830587     2.822944     2.815300     2.807657     2.800014     2.792371     2.784728
      2.777084     2.769441     2.761798     2.754155     2.746511     2.738868     2.731225     2.723582     2.715939     2.708295
      2.700652     2.693009     2.685366     2.677722     2.670079     2.662436     2.654793     2.647150     2.639506     2.631863
      2.624220     2.616577     2.608933     2.601290     2.593647     2.586004     2.578361     2.570717     2.563074     2.555431
      2.547788     2.540144     2.532501     2.524858     2.517215     2.509572     2.501928     2.494285     2.486642     2.478999
      2.471355     2.463712     2.456069     2.448426     2.440783     2.433139     2.425496     2.417853     2.410210     2.402566
      2.394923     2.387280     2.379637     2.371994     2.364350     2.356707     2.349064     2.341421     2.333777     2.326134
      2.318491     2.310848     2.303205     2.295561     2.287918     2.280275     2.272632     2.264988     2.257345     2.249702
      2.242059     2.234416     2.226772     2.219129     2.211486     2.203843     2.196199     2.188556     2.180913     2.173270
      2.165627     2.157983     2.150340     2.142697     2.135054     2.127410     2.119767     2.112124     2.104481     2.096838
      2.089194     2.081551     2.073908     2.066265     2.058621     2.050978     2.043335     2.035692     2.028049     2.020405
      2.012762     2.005119     1.997476     1.989833     1.982190     1.974546     1.966903     1.959260     1.951617     1.943974
      1.936331     1.928688     1.921045     1.913402     1.905759     1.898115     1.890472     1.882829     1.875186     1.867543
      1.859900     1.852257     1.844614     1.836971     1.829327     1.821684     1.814041     1.806398     1.798755     1.791112
      1.783469     1.775826     1.768183     1.760540     1.752896     1.745253     1.737610     1.729967     1.722324     1.714681
      1.707038     1.699395     1.691752     1.684108     1.676465     1.668822     1.661179     1.653536     1.645893     1.638250
      1.630607     1.622964     1.615321     1.607677     1.600034     1.592391     1.584748     1.577105     1.569462     1.561819
      1.554176     1.546533     1.538890     1.531246     1.523603     1.515960     1.508317     1.500674     1.493031     1.485388
      1.477745     1.470102     1.462458     1.454815     1.447172     1.439529     1.431886     1.424243     1.416600     1.408957
      1.401314     1.393671     1.386027     1.378384     1.370741     1.363098     1.355455     1.347812     1.340169     1.332526
      1.324883     1.317240     1.309596     1.301953     1.294310     1.286667     1.279024     1.271381     1.263738     1.256095
      1.248452     1.240808     1.233165     1.225522     1.217879     1.210236     1.202593     1.194950     1.187307     1.179664
      1.172021     1.164377     1.156734     1.149091     1.141448     1.133805     1.126162     1.118519     1.110876     1.103233
      1.095590     1.087946     1.080303     1.072660     1.065017     1.057374     1.049731     1.042088     1.034445     1.026802
      1.019158     1.011515     1.003872     0.996229     0.988586     0.980943     0.973300     0.965657     0.958014     0.950371
      0.942727     0.935084     0.927441     0.919798     0.912155     0.904512     0.896869     0.889226     0.881583     0.873940
      0.866296     0.858653     0.851010     0.843367     0.835724     0.828081     0.820438     0.812795     0.805152     0.797508
      0.789865     0.782222     0.774579     0.766936     0.759293     0.751650     0.744007     0.736364     0.728721     0.721077
      0.713434     0.705791     0.698148     0.690505     0.682862     0.675219     0.667576     0.659933     0.652290     0.644646
      0.637003     0.629360     0.621717     0.614074     0.606431     0.598788     0.591145     0.583502     0.575858     0.568215
      0.560572     0.552929     0.545286     0.537643     0.530000     0.522357     0.514714     0.507071     0.499427     0.491784
      0.484141     0.476498     0.468855     0.461212     0.453569     0.445925     0.438282     0.430639     0.422996     0.415353
      0.407710     0.400067     0.392424     0.384780     0.377137     0.369494     0.361851     0.354208     0.346565     0.338922
      0.331278     0.323635     0.315992     0.308349     0.300706     0.293063     0.285420     0.277777     0.270133     0.262490
      0.254847     0.247204     0.239561     0.231918     0.224275     0.216631     0.208988     0.201345
 NY phased data points follow
   5.22386E+01  5.29537E+01  5.16570E+01  5.22567E+01  5.11835E+01  5.18168E+01  5.08137E+01  4.96703E+01  4.79835E+01  4.78791E+01
   4.90141E+01  4.66900E+01  4.55567E+01  4.54216E+01  4.40544E+01  4.57211E+01  4.33216E+01  4.51712E+01  4.33641E+01  4.43959E+01
   4.34298E+01  4.23951E+01  4.31800E+01  4.34040E+01  4.12080E+01  3.99335E+01  4.09312E+01  4.05327E+01  3.83015E+01  3.82852E+01
   3.80023E+01  4.04999E+01  3.91917E+01  4.02048E+01  3.80952E+01  3.86433E+01  3.82229E+01  3.73194E+01  3.63791E+01  3.58947E+01
   3.68787E+01  3.61239E+01  3.47724E+01  3.70420E+01  3.62172E+01  3.62022E+01  3.41807E+01  3.63770E+01  3.47427E+01  3.41727E+01
   3.16788E+01  3.32766E+01  3.49552E+01  3.42368E+01  2.96313E+01  3.15755E+01  3.28609E+01  3.08011E+01  3.20546E+01  3.17665E+01
   3.00659E+01  3.12464E+01  3.05123E+01  3.08303E+01  3.30462E+01  3.03299E+01  2.87539E+01  3.02937E+01  2.95738E+01  3.02019E+01
   2.90548E+01  2.86490E+01  2.68835E+01  2.66576E+01  2.78131E+01  2.72569E+01  2.70784E+01  2.65647E+01  2.67388E+01  2.71616E+01
   2.69695E+01  2.73950E+01  2.45768E+01  2.65207E+01  2.48252E+01  2.57337E+01  2.73587E+01  2.55715E+01  2.54867E+01  2.50929E+01
   2.29226E+01  2.51561E+01  2.33407E+01  2.47029E+01  2.35483E+01  2.32923E+01  2.32293E+01  2.54638E+01  2.37489E+01  2.45534E+01
   2.41193E+01  2.47937E+01  2.39733E+01  2.29404E+01  2.26932E+01  2.30228E+01  2.30378E+01  2.35261E+01  2.19794E+01  2.26894E+01
   2.13889E+01  2.04956E+01  2.17543E+01  2.10901E+01  2.22646E+01  2.18431E+01  2.25676E+01  2.08947E+01  2.10404E+01  2.04419E+01
   2.25081E+01  2.12221E+01  2.07551E+01  2.00068E+01  2.14315E+01  2.08250E+01  2.05401E+01  2.03550E+01  2.02110E+01  2.18104E+01
   2.25498E+01  1.96172E+01  2.07577E+01  1.92354E+01  1.88149E+01  2.00914E+01  2.01397E+01  1.97745E+01  2.09381E+01  1.96803E+01
   1.92392E+01  1.93505E+01  1.94153E+01  1.98156E+01  1.84200E+01  1.93451E+01  1.87524E+01  1.95174E+01  1.89015E+01  1.95960E+01
   1.84716E+01  1.92238E+01  1.83027E+01  1.78003E+01  1.73044E+01  1.95868E+01  1.84670E+01  1.83987E+01  1.82260E+01  1.67663E+01
   1.82222E+01  1.78609E+01  1.71221E+01  1.78591E+01  1.67021E+01  1.82526E+01  1.99037E+01  1.80617E+01  1.68207E+01  1.69179E+01
   1.65368E+01  1.88143E+01  1.62954E+01  1.57135E+01  1.71809E+01  1.63134E+01  1.75047E+01  1.59863E+01  1.54633E+01  1.73465E+01
   1.73345E+01  1.65788E+01  1.77005E+01  1.68896E+01  1.67393E+01  1.58813E+01  1.60101E+01  1.66053E+01  1.75423E+01  1.57778E+01
   1.72001E+01  1.62877E+01  1.77017E+01  1.46336E+01  1.69842E+01  1.51354E+01  1.46289E+01  1.59908E+01  1.58122E+01  1.57826E+01
   1.56137E+01  1.64839E+01  1.50875E+01  1.62433E+01  1.49516E+01  1.45961E+01  1.74552E+01  1.43870E+01  1.66706E+01  1.54282E+01
   1.61328E+01  1.58117E+01  1.38963E+01  1.42092E+01  1.47999E+01  1.61837E+01  1.71578E+01  1.53882E+01  1.64373E+01  1.56302E+01
   1.50125E+01  1.51620E+01  1.41567E+01  1.53775E+01  1.37501E+01  1.50981E+01  1.56960E+01  1.58098E+01  1.43631E+01  1.39489E+01
   1.41464E+01  1.27536E+01  1.50632E+01  1.39881E+01  1.49664E+01  1.44751E+01  1.28633E+01  1.56132E+01  1.31703E+01  1.42242E+01
   1.49655E+01  1.28097E+01  1.33158E+01  1.33434E+01  1.42589E+01  1.45140E+01  1.37368E+01  1.36310E+01  1.29201E+01  1.03624E+01
   1.41651E+01  1.52527E+01  1.31570E+01  1.45246E+01  1.28193E+01  1.21767E+01  1.22294E+01  1.08320E+01  1.17250E+01  1.18492E+01
   1.09072E+01  1.38766E+01  1.24974E+01  1.27893E+01  1.29894E+01  1.27731E+01  1.12754E+01  1.23644E+01  9.62678E+00  1.29582E+01
   1.24107E+01  1.25230E+01  1.06667E+01  1.20273E+01  1.15786E+01  1.23661E+01  1.05773E+01  1.11288E+01  1.22647E+01  1.13215E+01
   1.15685E+01  1.18032E+01  1.07816E+01  1.08290E+01  1.19237E+01  1.16889E+01  1.19554E+01  1.29845E+01  1.06927E+01  9.49756E+00
   9.50904E+00  1.12975E+01  1.24618E+01  1.24593E+01  1.11271E+01  1.37145E+01  1.13288E+01  1.17561E+01  1.07056E+01  1.15610E+01
   1.12293E+01  1.19976E+01  1.04946E+01  1.00790E+01  1.21990E+01  1.13674E+01  9.06874E+00  9.12181E+00  7.70226E+00  1.00725E+01
   9.83670E+00  1.03298E+01  9.41206E+00  1.04426E+01  1.12380E+01  9.02960E+00  1.03259E+01  9.25548E+00  9.19798E+00  9.11257E+00
   7.39468E+00  7.89866E+00  9.42931E+00  8.60737E+00  6.96002E+00  8.52577E+00  8.11815E+00  7.89976E+00  7.82091E+00  9.38894E+00
   9.38725E+00  1.09394E+01  1.12279E+01  8.87923E+00  9.28813E+00  1.12160E+01  9.82266E+00  8.19445E+00  8.52686E+00  1.03810E+01
   1.05351E+01  9.78129E+00  9.36473E+00  8.52655E+00  8.68482E+00  9.77111E+00  7.68976E+00  9.05507E+00  7.75274E+00  7.79280E+00
   7.15195E+00  8.15541E+00  9.09958E+00  9.39084E+00  9.99085E+00  8.88418E+00  7.87083E+00  9.10809E+00  8.75417E+00  7.87017E+00
   9.70089E+00  8.60934E+00  9.74626E+00  9.84072E+00  1.06748E+01  8.42148E+00  7.62472E+00  9.48966E+00  8.09868E+00  7.40235E+00
   8.64037E+00  8.16833E+00  7.52374E+00  1.05094E+01  9.22594E+00  6.97364E+00  8.86936E+00  7.16487E+00  6.48125E+00  7.81504E+00
   6.49316E+00  7.31314E+00  7.76873E+00  6.62068E+00  7.77488E+00  7.73141E+00  7.19880E+00  8.56648E+00  8.48069E+00  9.13906E+00
   5.98821E+00  7.34202E+00  7.50630E+00  7.91676E+00  7.79280E+00  9.23807E+00  8.41632E+00  7.73918E+00  8.91849E+00  6.51709E+00
   6.97447E+00  8.31554E+00  5.63452E+00  6.64115E+00  6.28427E+00  6.04976E+00  4.98060E+00  5.02719E+00  7.28478E+00  5.80420E+00
   6.63156E+00  4.38626E+00  4.39359E+00  6.17995E+00  5.69019E+00  6.29965E+00  5.93257E+00  7.19225E+00  7.49612E+00  7.31894E+00
   4.68219E+00  6.24863E+00  7.00845E+00  5.61709E+00  5.53300E+00  5.37919E+00  5.92727E+00  7.71649E+00  6.07231E+00  6.11539E+00
   6.79782E+00  4.75794E+00  5.23537E+00  5.55052E+00  4.52273E+00  5.32858E+00  5.63257E+00  4.27262E+00  5.97952E+00  5.94122E+00
   6.65316E+00  4.55172E+00  4.69519E+00  5.97591E+00  6.90923E+00  4.68772E+00  6.32351E+00  4.66368E+00  4.56201E+00  4.36887E+00
   5.08837E+00  3.68036E+00  5.30896E+00  3.97794E+00  6.34299E+00  4.17606E+00  4.34129E+00  5.03545E+00  5.43853E+00  4.90520E+00
   3.88141E+00  4.75957E+00  3.71311E+00  4.19054E+00  5.04945E+00  4.35126E+00  4.32652E+00  4.78269E+00  5.01569E+00  4.99422E+00
   5.62641E+00  5.35933E+00  2.44618E+00  3.98440E+00  2.77252E+00  2.88088E+00  6.73588E+00  3.82654E+00  3.22958E+00  2.98832E+00
   3.27922E+00  5.24342E+00  3.90371E+00  3.63664E+00  3.36964E+00  3.77242E+00  3.67217E+00  3.88405E+00  4.55846E+00  2.04714E+00
   4.17913E+00  3.55410E+00  3.10213E+00  4.13505E+00  4.91654E+00  2.38970E+00  5.13237E+00  4.27357E+00
 NY points of the fit to the data follow
   4.97131E+01  4.94011E+01  4.91064E+01  4.88736E+01  4.87427E+01  4.86422E+01  4.85003E+01  4.82800E+01  4.79764E+01  4.76052E+01
   4.71857E+01  4.67296E+01  4.62464E+01  4.57543E+01  4.52842E+01  4.48704E+01  4.45148E+01  4.41791E+01  4.38509E+01  4.35289E+01
   4.32131E+01  4.28956E+01  4.25658E+01  4.22228E+01  4.18725E+01  4.15222E+01  4.11825E+01  4.08729E+01  4.05970E+01  4.03348E+01
   4.00686E+01  3.97870E+01  3.94841E+01  3.91570E+01  3.88178E+01  3.84805E+01  3.81491E+01  3.78270E+01  3.75211E+01  3.72351E+01
   3.69614E+01  3.66909E+01  3.64176E+01  3.61362E+01  3.58456E+01  3.55516E+01  3.52618E+01  3.49778E+01  3.46973E+01  3.44195E+01
   3.41447E+01  3.38718E+01  3.36006E+01  3.33310E+01  3.30624E+01  3.27947E+01  3.25294E+01  3.22679E+01  3.20099E+01  3.17549E+01
   3.15030E+01  3.12546E+01  3.10096E+01  3.07672E+01  3.05272E+01  3.02888E+01  3.00520E+01  2.98172E+01  2.95850E+01  2.93556E+01
   2.91303E+01  2.89103E+01  2.86939E+01  2.84793E+01  2.82652E+01  2.80508E+01  2.78369E+01  2.76250E+01  2.74160E+01  2.72102E+01
   2.70085E+01  2.68139E+01  2.66273E+01  2.64449E+01  2.62627E+01  2.60791E+01  2.58941E+01  2.57091E+01  2.55245E+01  2.53402E+01
   2.51563E+01  2.49745E+01  2.47972E+01  2.46279E+01  2.44672E+01  2.43133E+01  2.41680E+01  2.40520E+01  2.40085E+01  2.40086E+01
   2.39977E+01  2.39411E+01  2.38286E+01  2.36692E+01  2.34765E+01  2.32599E+01  2.30246E+01  2.27796E+01  2.25442E+01  2.23431E+01
   2.21880E+01  2.20549E+01  2.19284E+01  2.18059E+01  2.16865E+01  2.15701E+01  2.14567E+01  2.13470E+01  2.12422E+01  2.11464E+01
   2.10788E+01  2.11287E+01  2.13464E+01  2.16099E+01  2.18036E+01  2.18690E+01  2.18020E+01  2.16307E+01  2.13838E+01  2.10769E+01
   2.07248E+01  2.03619E+01  2.00434E+01  1.98253E+01  1.96982E+01  1.95997E+01  1.95097E+01  1.94241E+01  1.93412E+01  1.92604E+01
   1.91817E+01  1.91052E+01  1.90306E+01  1.89570E+01  1.88840E+01  1.88114E+01  1.87398E+01  1.86691E+01  1.85993E+01  1.85300E+01
   1.84615E+01  1.83940E+01  1.83277E+01  1.82626E+01  1.81981E+01  1.81338E+01  1.80697E+01  1.80063E+01  1.79439E+01  1.78824E+01
   1.78215E+01  1.77614E+01  1.77028E+01  1.76458E+01  1.75902E+01  1.75353E+01  1.74805E+01  1.74256E+01  1.73708E+01  1.73163E+01
   1.72620E+01  1.72077E+01  1.71533E+01  1.70989E+01  1.70447E+01  1.69908E+01  1.69372E+01  1.68840E+01  1.68312E+01  1.67792E+01
   1.67287E+01  1.66793E+01  1.66305E+01  1.65820E+01  1.65333E+01  1.64839E+01  1.64340E+01  1.63833E+01  1.63309E+01  1.62741E+01
   1.62128E+01  1.61467E+01  1.60754E+01  1.60033E+01  1.59354E+01  1.58759E+01  1.58318E+01  1.58109E+01  1.58107E+01  1.58187E+01
   1.58273E+01  1.58285E+01  1.58110E+01  1.57652E+01  1.56819E+01  1.55478E+01  1.53816E+01  1.52295E+01  1.51196E+01  1.50582E+01
   1.50377E+01  1.50479E+01  1.50781E+01  1.51146E+01  1.51432E+01  1.51508E+01  1.51256E+01  1.50632E+01  1.49802E+01  1.48985E+01
   1.48258E+01  1.47637E+01  1.47127E+01  1.46708E+01  1.46326E+01  1.45944E+01  1.45532E+01  1.45065E+01  1.44535E+01  1.43952E+01
   1.43304E+01  1.42499E+01  1.41592E+01  1.40759E+01  1.40128E+01  1.39755E+01  1.39642E+01  1.39671E+01  1.39565E+01  1.39231E+01
   1.38673E+01  1.37895E+01  1.36918E+01  1.35805E+01  1.34687E+01  1.33692E+01  1.32935E+01  1.32476E+01  1.32283E+01  1.32226E+01
   1.32150E+01  1.31994E+01  1.31703E+01  1.31256E+01  1.30660E+01  1.29963E+01  1.29225E+01  1.28499E+01  1.27832E+01  1.27235E+01
   1.26695E+01  1.26190E+01  1.25702E+01  1.25210E+01  1.24694E+01  1.24143E+01  1.23556E+01  1.22950E+01  1.22344E+01  1.21750E+01
   1.21173E+01  1.20614E+01  1.20068E+01  1.19529E+01  1.18993E+01  1.18454E+01  1.17908E+01  1.17353E+01  1.16790E+01  1.16222E+01
   1.15657E+01  1.15098E+01  1.14550E+01  1.14011E+01  1.13481E+01  1.12959E+01  1.12442E+01  1.11927E+01  1.11414E+01  1.10901E+01
   1.10387E+01  1.09874E+01  1.09363E+01  1.08854E+01  1.08349E+01  1.07847E+01  1.07349E+01  1.06855E+01  1.06366E+01  1.05880E+01
   1.05398E+01  1.04920E+01  1.04445E+01  1.03975E+01  1.03508E+01  1.03046E+01  1.02587E+01  1.02133E+01  1.01684E+01  1.01238E+01
   1.00798E+01  1.00362E+01  9.99311E+00  9.95057E+00  9.90860E+00  9.86721E+00  9.82643E+00  9.78628E+00  9.74681E+00  9.70803E+00
   9.66998E+00  9.63268E+00  9.59618E+00  9.56051E+00  9.52576E+00  9.49199E+00  9.45927E+00  9.42769E+00  9.39735E+00  9.36839E+00
   9.34095E+00  9.31521E+00  9.29135E+00  9.26960E+00  9.25027E+00  9.23377E+00  9.22062E+00  9.21161E+00  9.20796E+00  9.21195E+00
   9.22844E+00  9.27063E+00  9.35571E+00  9.43178E+00  9.43926E+00  9.36731E+00  9.23272E+00  9.06095E+00  8.86919E+00  8.67812E+00
   8.55673E+00  8.53552E+00  8.60146E+00  8.72710E+00  8.87404E+00  8.99234E+00  9.06311E+00  9.08943E+00  9.06985E+00  9.00314E+00
   8.89818E+00  8.78065E+00  8.68281E+00  8.60269E+00  8.52994E+00  8.46073E+00  8.39362E+00  8.32802E+00  8.26373E+00  8.20073E+00
   8.13912E+00  8.07901E+00  8.02050E+00  7.96368E+00  7.90861E+00  7.85530E+00  7.80379E+00  7.75407E+00  7.70610E+00  7.65983E+00
   7.61519E+00  7.57212E+00  7.53056E+00  7.49046E+00  7.45174E+00  7.41433E+00  7.37818E+00  7.34322E+00  7.30940E+00  7.27665E+00
   7.24491E+00  7.21407E+00  7.18405E+00  7.15474E+00  7.12602E+00  7.09773E+00  7.06973E+00  7.04181E+00  7.01380E+00  6.98550E+00
   6.95671E+00  6.92722E+00  6.89684E+00  6.86541E+00  6.83277E+00  6.79881E+00  6.76346E+00  6.72667E+00  6.68843E+00  6.64879E+00
   6.60784E+00  6.56570E+00  6.52250E+00  6.47840E+00  6.43359E+00  6.38826E+00  6.34258E+00  6.29673E+00  6.25089E+00  6.20518E+00
   6.15973E+00  6.11467E+00  6.07006E+00  6.02597E+00  5.98244E+00  5.93948E+00  5.89711E+00  5.85533E+00  5.81411E+00  5.77344E+00
   5.73329E+00  5.69362E+00  5.65441E+00  5.61562E+00  5.57722E+00  5.53918E+00  5.50148E+00  5.46408E+00  5.42697E+00  5.39013E+00
   5.35353E+00  5.31717E+00  5.28102E+00  5.24508E+00  5.20934E+00  5.17379E+00  5.13843E+00  5.10324E+00  5.06822E+00  5.03337E+00
   4.99870E+00  4.96418E+00  4.92983E+00  4.89564E+00  4.86160E+00  4.82771E+00  4.79397E+00  4.76037E+00  4.72690E+00  4.69357E+00
   4.66036E+00  4.62728E+00  4.59432E+00  4.56147E+00  4.52874E+00  4.49612E+00  4.46360E+00  4.43120E+00  4.39889E+00  4.36668E+00
   4.33457E+00  4.30254E+00  4.27062E+00  4.23878E+00  4.20702E+00  4.17535E+00  4.14375E+00  4.11224E+00  4.08080E+00  4.04944E+00
   4.01814E+00  3.98692E+00  3.95576E+00  3.92466E+00  3.89363E+00  3.86266E+00  3.83175E+00  3.80089E+00  3.77009E+00  3.73934E+00
   3.70864E+00  3.67798E+00  3.64737E+00  3.61680E+00  3.58628E+00  3.55580E+00  3.52535E+00  3.49494E+00
 NY background values follow
     4.970E+01    4.937E+01    4.904E+01    4.871E+01    4.838E+01    4.805E+01    4.772E+01    4.739E+01    4.705E+01    4.672E+01
     4.639E+01    4.606E+01    4.574E+01    4.541E+01    4.508E+01    4.475E+01    4.443E+01    4.410E+01    4.377E+01    4.345E+01
     4.313E+01    4.280E+01    4.248E+01    4.216E+01    4.184E+01    4.152E+01    4.121E+01    4.089E+01    4.058E+01    4.026E+01
     3.995E+01    3.964E+01    3.933E+01    3.903E+01    3.872E+01    3.842E+01    3.811E+01    3.781E+01    3.752E+01    3.722E+01
     3.692E+01    3.663E+01    3.634E+01    3.605E+01    3.576E+01    3.548E+01    3.520E+01    3.492E+01    3.464E+01    3.436E+01
     3.409E+01    3.382E+01    3.355E+01    3.328E+01    3.302E+01    3.276E+01    3.250E+01    3.224E+01    3.199E+01    3.173E+01
     3.148E+01    3.123E+01    3.099E+01    3.075E+01    3.051E+01    3.027E+01    3.003E+01    2.980E+01    2.957E+01    2.934E+01
     2.911E+01    2.889E+01    2.867E+01    2.845E+01    2.823E+01    2.802E+01    2.781E+01    2.760E+01    2.739E+01    2.719E+01
     2.699E+01    2.679E+01    2.660E+01    2.640E+01    2.621E+01    2.602E+01    2.584E+01    2.566E+01    2.548E+01    2.530E+01
     2.512E+01    2.495E+01    2.478E+01    2.461E+01    2.445E+01    2.429E+01    2.413E+01    2.397E+01    2.382E+01    2.367E+01
     2.352E+01    2.337E+01    2.323E+01    2.308E+01    2.294E+01    2.281E+01    2.267E+01    2.254E+01    2.241E+01    2.228E+01
     2.215E+01    2.202E+01    2.190E+01    2.178E+01    2.166E+01    2.154E+01    2.143E+01    2.132E+01    2.120E+01    2.109E+01
     2.099E+01    2.088E+01    2.078E+01    2.067E+01    2.057E+01    2.047E+01    2.038E+01    2.028E+01    2.018E+01    2.009E+01
     2.000E+01    1.991E+01    1.982E+01    1.973E+01    1.965E+01    1.956E+01    1.948E+01    1.940E+01    1.932E+01    1.924E+01
     1.916E+01    1.908E+01    1.900E+01    1.893E+01    1.886E+01    1.878E+01    1.871E+01    1.864E+01    1.857E+01    1.850E+01
     1.843E+01    1.837E+01    1.830E+01    1.823E+01    1.817E+01    1.811E+01    1.804E+01    1.798E+01    1.792E+01    1.786E+01
     1.780E+01    1.774E+01    1.768E+01    1.763E+01    1.757E+01    1.751E+01    1.746E+01    1.740E+01    1.735E+01    1.729E+01
     1.724E+01    1.718E+01    1.713E+01    1.708E+01    1.703E+01    1.697E+01    1.692E+01    1.687E+01    1.682E+01    1.677E+01
     1.672E+01    1.667E+01    1.662E+01    1.657E+01    1.652E+01    1.647E+01    1.642E+01    1.637E+01    1.632E+01    1.627E+01
     1.622E+01    1.617E+01    1.612E+01    1.608E+01    1.603E+01    1.598E+01    1.593E+01    1.588E+01    1.583E+01    1.578E+01
     1.574E+01    1.569E+01    1.564E+01    1.559E+01    1.554E+01    1.549E+01    1.544E+01    1.540E+01    1.535E+01    1.530E+01
     1.525E+01    1.520E+01    1.515E+01    1.510E+01    1.505E+01    1.500E+01    1.496E+01    1.491E+01    1.486E+01    1.481E+01
     1.476E+01    1.471E+01    1.466E+01    1.460E+01    1.455E+01    1.450E+01    1.445E+01    1.440E+01    1.435E+01    1.430E+01
     1.424E+01    1.419E+01    1.414E+01    1.409E+01    1.403E+01    1.398E+01    1.393E+01    1.387E+01    1.382E+01    1.377E+01
     1.371E+01    1.366E+01    1.360E+01    1.355E+01    1.349E+01    1.344E+01    1.338E+01    1.333E+01    1.328E+01    1.322E+01
     1.317E+01    1.311E+01    1.306E+01    1.300E+01    1.295E+01    1.289E+01    1.284E+01    1.278E+01    1.272E+01    1.267E+01
     1.261E+01    1.256E+01    1.250E+01    1.245E+01    1.239E+01    1.234E+01    1.228E+01    1.223E+01    1.217E+01    1.212E+01
     1.207E+01    1.201E+01    1.196E+01    1.190E+01    1.185E+01    1.179E+01    1.174E+01    1.169E+01    1.163E+01    1.158E+01
     1.153E+01    1.147E+01    1.142E+01    1.137E+01    1.131E+01    1.126E+01    1.121E+01    1.116E+01    1.111E+01    1.105E+01
     1.100E+01    1.095E+01    1.090E+01    1.085E+01    1.080E+01    1.075E+01    1.070E+01    1.065E+01    1.060E+01    1.055E+01
     1.050E+01    1.045E+01    1.040E+01    1.036E+01    1.031E+01    1.026E+01    1.021E+01    1.017E+01    1.012E+01    1.007E+01
     1.003E+01    9.983E+00    9.938E+00    9.894E+00    9.849E+00    9.805E+00    9.762E+00    9.719E+00    9.676E+00    9.634E+00
     9.592E+00    9.550E+00    9.509E+00    9.468E+00    9.427E+00    9.387E+00    9.347E+00    9.307E+00    9.268E+00    9.229E+00
     9.190E+00    9.152E+00    9.114E+00    9.076E+00    9.038E+00    9.000E+00    8.963E+00    8.926E+00    8.889E+00    8.853E+00
     8.816E+00    8.780E+00    8.744E+00    8.708E+00    8.672E+00    8.637E+00    8.601E+00    8.566E+00    8.531E+00    8.495E+00
     8.461E+00    8.426E+00    8.391E+00    8.356E+00    8.321E+00    8.287E+00    8.252E+00    8.218E+00    8.183E+00    8.149E+00
     8.115E+00    8.080E+00    8.046E+00    8.011E+00    7.977E+00    7.942E+00    7.908E+00    7.874E+00    7.839E+00    7.805E+00
     7.770E+00    7.736E+00    7.701E+00    7.667E+00    7.632E+00    7.598E+00    7.563E+00    7.529E+00    7.494E+00    7.459E+00
     7.425E+00    7.390E+00    7.356E+00    7.321E+00    7.286E+00    7.252E+00    7.217E+00    7.182E+00    7.147E+00    7.113E+00
     7.078E+00    7.043E+00    7.008E+00    6.973E+00    6.938E+00    6.903E+00    6.868E+00    6.833E+00    6.798E+00    6.763E+00
     6.728E+00    6.693E+00    6.658E+00    6.623E+00    6.588E+00    6.552E+00    6.517E+00    6.482E+00    6.447E+00    6.411E+00
     6.376E+00    6.340E+00    6.305E+00    6.269E+00    6.234E+00    6.198E+00    6.163E+00    6.127E+00    6.092E+00    6.056E+00
     6.021E+00    5.985E+00    5.950E+00    5.914E+00    5.879E+00    5.844E+00    5.808E+00    5.773E+00    5.738E+00    5.702E+00
     5.667E+00    5.632E+00    5.597E+00    5.561E+00    5.526E+00    5.491E+00    5.456E+00    5.422E+00    5.387E+00    5.352E+00
     5.317E+00    5.283E+00    5.248E+00    5.214E+00    5.179E+00    5.145E+00    5.111E+00    5.077E+00    5.043E+00    5.009E+00
     4.975E+00    4.941E+00    4.908E+00    4.874E+00    4.841E+00    4.808E+00    4.775E+00    4.742E+00    4.709E+00    4.676E+00
     4.643E+00    4.611E+00    4.578E+00    4.546E+00    4.513E+00    4.481E+00    4.449E+00    4.417E+00    4.385E+00    4.353E+00
     4.321E+00    4.290E+00    4.258E+00    4.226E+00    4.195E+00    4.164E+00    4.132E+00    4.101E+00    4.070E+00    4.039E+00
     4.008E+00    3.977E+00    3.946E+00    3.915E+00    3.884E+00    3.853E+00    3.822E+00    3.792E+00    3.761E+00    3.730E+00
     3.700E+00    3.669E+00    3.639E+00    3.608E+00    3.578E+00    3.548E+00    3.517E+00    3.487E+00
 Asp      Conc. = 2.96E+00
