 LCModel (Version 6.3-1L) Copyright: S.W. Provencher.          Ref.: Magn. Reson. Med. 30:672-679 (1993).                
 Slice#3 Row#12 Col#5  PD_05_press_1_raw_act
 36 lines in following concentration table = NCONC+1
    Conc.  %SD /Cr+PCr  Metabolite                                         
    0.000 999%   0.000 Ala                                                 
   54.693 126%   0.151 Asp                                                 
  362.669   7%   1.000 Cr                                                  
    0.000 999%   0.000 PCr                                                 
   20.730 220% 5.7E-02 GABA                                                
   18.638 238% 5.1E-02 Glc                                                 
  546.789  39%   1.508 Gln                                                 
  759.150  32%   2.093 Glu                                                 
  105.570  10%   0.291 GPC                                                 
    0.000 999%   0.000 PCh                                                 
  349.048  13%   0.962 GSH                                                 
  930.645  18%   2.566 Ins                                                 
  151.021  63%   0.416 Lac                                                 
  575.310   5%   1.586 NAA                                                 
    0.000 999%   0.000 NAAG                                                
   40.221  29%   0.111 Scyllo                                              
   47.451 149%   0.131 Tau                                                 
   34.834 166% 9.6E-02 -CrCH2                                              
  105.570  10%   0.291 GPC+PCh                                             
  575.310   5%   1.586 NAA+NAAG                                            
  362.669   7%   1.000 Cr+PCr                                              
 1.31E+03  32%   3.601 Glu+Gln                                             
  723.905  19%   1.996 Lip13a                                              
    0.000 999%   0.000 Lip13b                                              
  189.846  33%   0.523 Lip09                                               
    5.663 618% 1.6E-02 MM09                                                
    0.000 999%   0.000 Lip20                                               
    0.000 999%   0.000 MM20                                                
    0.000 999%   0.000 MM12                                                
   62.186 124%   0.171 MM14                                                
  173.882  25%   0.479 MM17                                                
  723.905  19%   1.996 Lip13a+Lip13b                                       
  786.092  19%   2.168 MM14+Lip13a+Lip13b+MM12                             
  195.509  31%   0.539 MM09+Lip09                                          
    0.000 999%   0.000 MM20+Lip20                                          
   6 lines in following misc. output table
  FWHM = 0.099 ppm    S/N =   5                                            
  Data shift =-0.015 ppm                                                   
  Ph: -29 deg     -22.8 deg/ppm                                            
  alphaB,S = 6.4E-01,   1.0E+02                                            
   14 spline knots.   Ns =11(1)                                            
  (17) 4 infls.   (15) 1 extrs.                                            
  498 points on ppm-axis = NY
      4.000000     3.992357     3.984714     3.977070     3.969427     3.961784     3.954141     3.946497     3.938854     3.931211
      3.923568     3.915925     3.908281     3.900638     3.892995     3.885352     3.877708     3.870065     3.862422     3.854779
      3.847136     3.839492     3.831849     3.824206     3.816563     3.808919     3.801276     3.793633     3.785990     3.778347
      3.770703     3.763060     3.755417     3.747774     3.740130     3.732487     3.724844     3.717201     3.709558     3.701914
      3.694271     3.686628     3.678985     3.671341     3.663698     3.656055     3.648412     3.640769     3.633125     3.625482
      3.617839     3.610196     3.602552     3.594909     3.587266     3.579623     3.571980     3.564336     3.556693     3.549050
      3.541407     3.533763     3.526120     3.518477     3.510834     3.503191     3.495547     3.487904     3.480261     3.472618
      3.464974     3.457331     3.449688     3.442045     3.434402     3.426758     3.419115     3.411472     3.403829     3.396185
      3.388542     3.380899     3.373256     3.365613     3.357969     3.350326     3.342683     3.335040     3.327396     3.319753
      3.312110     3.304467     3.296824     3.289180     3.281537     3.273894     3.266251     3.258607     3.250964     3.243321
      3.235678     3.228034     3.220391     3.212748     3.205105     3.197462     3.189818     3.182175     3.174532     3.166889
      3.159245     3.151602     3.143959     3.136316     3.128673     3.121029     3.113386     3.105743     3.098100     3.090456
      3.082813     3.075170     3.067527     3.059884     3.052240     3.044597     3.036954     3.029311     3.021667     3.014024
      3.006381     2.998738     2.991095     2.983451     2.975808     2.968165     2.960522     2.952878     2.945235     2.937592
      2.929949     2.922306     2.914662     2.907019     2.899376     2.891733     2.884089     2.876446     2.868803     2.861160
      2.853517     2.845873     2.838230     2.830587     2.822944     2.815300     2.807657     2.800014     2.792371     2.784728
      2.777084     2.769441     2.761798     2.754155     2.746511     2.738868     2.731225     2.723582     2.715939     2.708295
      2.700652     2.693009     2.685366     2.677722     2.670079     2.662436     2.654793     2.647150     2.639506     2.631863
      2.624220     2.616577     2.608933     2.601290     2.593647     2.586004     2.578361     2.570717     2.563074     2.555431
      2.547788     2.540144     2.532501     2.524858     2.517215     2.509572     2.501928     2.494285     2.486642     2.478999
      2.471355     2.463712     2.456069     2.448426     2.440783     2.433139     2.425496     2.417853     2.410210     2.402566
      2.394923     2.387280     2.379637     2.371994     2.364350     2.356707     2.349064     2.341421     2.333777     2.326134
      2.318491     2.310848     2.303205     2.295561     2.287918     2.280275     2.272632     2.264988     2.257345     2.249702
      2.242059     2.234416     2.226772     2.219129     2.211486     2.203843     2.196199     2.188556     2.180913     2.173270
      2.165627     2.157983     2.150340     2.142697     2.135054     2.127410     2.119767     2.112124     2.104481     2.096838
      2.089194     2.081551     2.073908     2.066265     2.058621     2.050978     2.043335     2.035692     2.028049     2.020405
      2.012762     2.005119     1.997476     1.989833     1.982190     1.974546     1.966903     1.959260     1.951617     1.943974
      1.936331     1.928688     1.921045     1.913402     1.905759     1.898115     1.890472     1.882829     1.875186     1.867543
      1.859900     1.852257     1.844614     1.836971     1.829327     1.821684     1.814041     1.806398     1.798755     1.791112
      1.783469     1.775826     1.768183     1.760540     1.752896     1.745253     1.737610     1.729967     1.722324     1.714681
      1.707038     1.699395     1.691752     1.684108     1.676465     1.668822     1.661179     1.653536     1.645893     1.638250
      1.630607     1.622964     1.615321     1.607677     1.600034     1.592391     1.584748     1.577105     1.569462     1.561819
      1.554176     1.546533     1.538890     1.531246     1.523603     1.515960     1.508317     1.500674     1.493031     1.485388
      1.477745     1.470102     1.462458     1.454815     1.447172     1.439529     1.431886     1.424243     1.416600     1.408957
      1.401314     1.393671     1.386027     1.378384     1.370741     1.363098     1.355455     1.347812     1.340169     1.332526
      1.324883     1.317240     1.309596     1.301953     1.294310     1.286667     1.279024     1.271381     1.263738     1.256095
      1.248452     1.240808     1.233165     1.225522     1.217879     1.210236     1.202593     1.194950     1.187307     1.179664
      1.172021     1.164377     1.156734     1.149091     1.141448     1.133805     1.126162     1.118519     1.110876     1.103233
      1.095590     1.087946     1.080303     1.072660     1.065017     1.057374     1.049731     1.042088     1.034445     1.026802
      1.019158     1.011515     1.003872     0.996229     0.988586     0.980943     0.973300     0.965657     0.958014     0.950371
      0.942727     0.935084     0.927441     0.919798     0.912155     0.904512     0.896869     0.889226     0.881583     0.873940
      0.866296     0.858653     0.851010     0.843367     0.835724     0.828081     0.820438     0.812795     0.805152     0.797508
      0.789865     0.782222     0.774579     0.766936     0.759293     0.751650     0.744007     0.736364     0.728721     0.721077
      0.713434     0.705791     0.698148     0.690505     0.682862     0.675219     0.667576     0.659933     0.652290     0.644646
      0.637003     0.629360     0.621717     0.614074     0.606431     0.598788     0.591145     0.583502     0.575858     0.568215
      0.560572     0.552929     0.545286     0.537643     0.530000     0.522357     0.514714     0.507071     0.499427     0.491784
      0.484141     0.476498     0.468855     0.461212     0.453569     0.445925     0.438282     0.430639     0.422996     0.415353
      0.407710     0.400067     0.392424     0.384780     0.377137     0.369494     0.361851     0.354208     0.346565     0.338922
      0.331278     0.323635     0.315992     0.308349     0.300706     0.293063     0.285420     0.277777     0.270133     0.262490
      0.254847     0.247204     0.239561     0.231918     0.224275     0.216631     0.208988     0.201345
 NY phased data points follow
  -4.81809E+01 -4.87356E+01 -4.73355E+01 -4.47291E+01 -4.36671E+01 -4.11699E+01 -4.02277E+01 -3.99371E+01 -4.05085E+01 -3.75404E+01
  -3.63094E+01 -3.54541E+01 -3.63406E+01 -3.41306E+01 -3.62966E+01 -3.43639E+01 -3.62620E+01 -3.50977E+01 -3.56403E+01 -3.45191E+01
  -3.39948E+01 -3.46851E+01 -3.45478E+01 -3.24473E+01 -3.14093E+01 -2.89381E+01 -2.90410E+01 -2.79531E+01 -2.77943E+01 -2.66879E+01
  -2.62097E+01 -2.63271E+01 -2.43353E+01 -2.51205E+01 -2.50879E+01 -2.30133E+01 -2.42459E+01 -2.43176E+01 -2.44717E+01 -2.35014E+01
  -2.34723E+01 -2.23865E+01 -2.11081E+01 -2.14639E+01 -2.18927E+01 -2.09400E+01 -2.05989E+01 -1.96910E+01 -2.02453E+01 -1.99469E+01
  -1.97477E+01 -1.72871E+01 -1.76249E+01 -1.67119E+01 -1.70482E+01 -1.75098E+01 -1.89108E+01 -1.85237E+01 -1.54967E+01 -1.66484E+01
  -1.77744E+01 -1.52309E+01 -1.62102E+01 -1.44245E+01 -1.68712E+01 -1.57465E+01 -1.48166E+01 -1.38621E+01 -1.53406E+01 -1.56979E+01
  -1.51810E+01 -1.40916E+01 -1.20314E+01 -1.21285E+01 -1.15728E+01 -1.12922E+01 -1.08382E+01 -1.13549E+01 -1.13309E+01 -1.10063E+01
  -1.11986E+01 -1.04796E+01 -1.05979E+01 -8.85038E+00 -1.03275E+01 -9.22914E+00 -9.97493E+00 -8.39597E+00 -7.41472E+00 -7.34891E+00
  -7.21456E+00 -5.69832E+00 -6.55576E+00 -6.02517E+00 -5.97722E+00 -5.32544E+00 -4.23270E+00 -2.61854E+00 -3.50782E+00 -3.82296E+00
  -1.09673E+00 -2.24348E+00 -1.16483E+00  6.42063E-01  1.32631E+00  2.05907E+00  1.10450E+00  1.19116E+00  2.24071E+00  9.33725E-01
   4.11035E-01 -1.59908E+00  7.44960E-01 -3.38830E-01 -4.55947E-01 -1.49012E+00 -8.34855E-01  5.82732E-01 -7.65984E-01  2.05844E+00
   2.65497E+00  2.11629E+00  3.80285E+00  7.02485E+00  6.34995E+00  8.63471E+00  8.81518E+00  9.33506E+00  1.00923E+01  9.55716E+00
   7.46180E+00  1.02045E+01  8.89348E+00  1.03225E+01  9.58028E+00  6.89917E+00  5.10613E+00  5.62719E+00  5.43721E+00  5.90561E+00
   5.98454E+00  3.41264E+00  6.46561E+00  3.77912E+00  6.25543E+00  6.92905E+00  5.63766E+00  6.99923E+00  6.46556E+00  8.40148E+00
   7.82304E+00  5.85089E+00  9.09754E+00  8.98974E+00  6.47753E+00  9.23407E+00  7.54714E+00  6.94612E+00  8.44614E+00  9.54142E+00
   9.36829E+00  8.62967E+00  8.73975E+00  8.66014E+00  1.16780E+01  8.75424E+00  8.58395E+00  9.93373E+00  1.26001E+01  1.12585E+01
   1.04827E+01  1.12948E+01  1.02454E+01  9.37315E+00  1.12353E+01  1.03611E+01  1.19408E+01  1.14550E+01  9.80711E+00  1.15826E+01
   1.06435E+01  1.15840E+01  1.24691E+01  1.20827E+01  1.29488E+01  1.28285E+01  1.52654E+01  1.24996E+01  1.51895E+01  1.51440E+01
   1.51774E+01  1.46996E+01  1.73677E+01  1.64712E+01  1.55300E+01  1.64323E+01  1.67929E+01  1.77643E+01  1.80722E+01  1.66311E+01
   1.84769E+01  1.74002E+01  1.72723E+01  1.75139E+01  1.83793E+01  1.79762E+01  1.71938E+01  1.89415E+01  1.75005E+01  1.74117E+01
   1.88041E+01  1.95640E+01  1.74746E+01  1.93110E+01  2.00935E+01  1.87046E+01  2.03782E+01  1.85041E+01  1.93207E+01  1.83059E+01
   2.13810E+01  2.20767E+01  1.88422E+01  2.07421E+01  2.07842E+01  2.07265E+01  2.01896E+01  1.98332E+01  2.11381E+01  2.11581E+01
   2.19633E+01  2.05355E+01  2.48612E+01  2.30144E+01  2.13017E+01  2.40455E+01  2.14769E+01  2.07667E+01  2.14977E+01  2.31867E+01
   2.10669E+01  2.12079E+01  2.28364E+01  2.14389E+01  2.17992E+01  2.27188E+01  2.10718E+01  2.06027E+01  2.31222E+01  2.40719E+01
   2.31332E+01  2.44939E+01  2.49296E+01  2.58552E+01  2.73654E+01  2.98915E+01  3.27924E+01  3.21850E+01  3.20885E+01  3.32863E+01
   3.54371E+01  3.49688E+01  3.52261E+01  3.83694E+01  3.68749E+01  3.73400E+01  3.49548E+01  3.44392E+01  2.99030E+01  3.03291E+01
   2.65903E+01  2.73732E+01  2.69492E+01  2.78561E+01  2.60508E+01  2.62071E+01  2.62276E+01  2.73950E+01  2.64384E+01  2.70229E+01
   2.75286E+01  2.67314E+01  2.68864E+01  2.62238E+01  2.73725E+01  2.69111E+01  2.70738E+01  2.72832E+01  2.74891E+01  2.66051E+01
   2.60702E+01  2.57616E+01  2.87526E+01  2.69764E+01  2.88858E+01  2.84167E+01  2.66296E+01  2.66459E+01  2.78830E+01  2.75522E+01
   2.81673E+01  2.70325E+01  2.74048E+01  2.68022E+01  2.70725E+01  2.89961E+01  2.64515E+01  2.85633E+01  2.81426E+01  2.95915E+01
   2.90833E+01  2.65711E+01  2.54878E+01  2.70854E+01  2.57581E+01  2.52024E+01  2.47790E+01  2.60578E+01  2.51470E+01  2.62166E+01
   2.63206E+01  2.51064E+01  2.28908E+01  2.17256E+01  2.21143E+01  2.44434E+01  2.55558E+01  2.42537E+01  2.40768E+01  2.48766E+01
   2.26782E+01  2.33202E+01  2.46812E+01  2.34120E+01  2.51116E+01  2.48336E+01  2.45004E+01  2.42960E+01  2.58935E+01  2.54431E+01
   2.39434E+01  2.39153E+01  2.44880E+01  2.26317E+01  2.37357E+01  2.38349E+01  2.40254E+01  2.55406E+01  2.55853E+01  2.33454E+01
   2.58994E+01  2.44459E+01  2.46334E+01  2.40038E+01  2.46065E+01  2.55878E+01  2.55835E+01  2.57339E+01  2.24424E+01  2.40370E+01
   2.44265E+01  2.28949E+01  2.44019E+01  2.26960E+01  2.26270E+01  2.34307E+01  2.18113E+01  2.11212E+01  2.25826E+01  1.92331E+01
   1.91594E+01  1.95003E+01  1.94900E+01  1.86343E+01  1.95088E+01  1.86181E+01  1.60942E+01  1.63563E+01  1.64499E+01  1.51551E+01
   1.66417E+01  1.52690E+01  1.58810E+01  1.42675E+01  1.64351E+01  1.47876E+01  1.62901E+01  1.57822E+01  1.44380E+01  1.32676E+01
   1.54306E+01  1.41441E+01  1.39387E+01  1.39942E+01  1.39475E+01  1.35444E+01  1.45026E+01  1.47219E+01  1.57905E+01  1.41330E+01
   1.80638E+01  1.49232E+01  1.46882E+01  1.48133E+01  1.53991E+01  1.36342E+01  1.61825E+01  1.38196E+01  1.50429E+01  1.62248E+01
   1.39274E+01  1.45582E+01  1.36873E+01  1.52471E+01  1.50884E+01  1.40714E+01  1.37325E+01  1.48752E+01  1.40704E+01  1.45754E+01
   1.59498E+01  1.41396E+01  1.42913E+01  1.32519E+01  1.43761E+01  1.33413E+01  1.23490E+01  1.25724E+01  1.11391E+01  1.18954E+01
   1.45147E+01  1.27517E+01  1.23660E+01  1.27137E+01  1.27842E+01  1.38304E+01  1.38949E+01  1.13830E+01  1.13302E+01  1.35630E+01
   1.13987E+01  1.31527E+01  1.00612E+01  1.12635E+01  1.30068E+01  1.23952E+01  1.09123E+01  1.19661E+01  1.13000E+01  1.08435E+01
   1.02574E+01  1.12549E+01  1.16351E+01  1.09716E+01  1.12231E+01  1.16750E+01  1.13227E+01  1.14863E+01  1.24365E+01  1.13753E+01
   1.08397E+01  1.04905E+01  1.13488E+01  1.05893E+01  1.26151E+01  1.33932E+01  1.31463E+01  1.04393E+01  1.28359E+01  1.18098E+01
   8.96832E+00  1.09033E+01  1.24342E+01  1.09919E+01  1.01446E+01  1.15006E+01  1.14401E+01  1.20040E+01  1.00785E+01  1.13917E+01
   1.24355E+01  1.11481E+01  1.02938E+01  1.26808E+01  1.20954E+01  1.19954E+01  1.03061E+01  1.09308E+01  1.13307E+01  1.11022E+01
   1.07296E+01  1.07433E+01  1.02404E+01  1.05224E+01  9.42937E+00  1.06156E+01  1.24355E+01  1.20042E+01
 NY points of the fit to the data follow
  -4.53001E+01 -4.51180E+01 -4.47225E+01 -4.40860E+01 -4.32059E+01 -4.21087E+01 -4.10102E+01 -4.01297E+01 -3.93950E+01 -3.85918E+01
  -3.76840E+01 -3.68274E+01 -3.61300E+01 -3.55603E+01 -3.50469E+01 -3.45691E+01 -3.42275E+01 -3.41660E+01 -3.43753E+01 -3.46499E+01
  -3.47230E+01 -3.44141E+01 -3.37245E+01 -3.27706E+01 -3.15887E+01 -3.03521E+01 -2.93067E+01 -2.84059E+01 -2.75355E+01 -2.67211E+01
  -2.60496E+01 -2.55153E+01 -2.50577E+01 -2.46360E+01 -2.42387E+01 -2.39819E+01 -2.39698E+01 -2.41437E+01 -2.42833E+01 -2.41962E+01
  -2.38185E+01 -2.33195E+01 -2.29040E+01 -2.24912E+01 -2.19798E+01 -2.13116E+01 -2.06016E+01 -2.00201E+01 -1.96017E+01 -1.92840E+01
  -1.89699E+01 -1.86949E+01 -1.85647E+01 -1.86015E+01 -1.87411E+01 -1.88534E+01 -1.87956E+01 -1.85299E+01 -1.81470E+01 -1.77113E+01
  -1.72172E+01 -1.66981E+01 -1.62047E+01 -1.57505E+01 -1.53439E+01 -1.49928E+01 -1.47042E+01 -1.44605E+01 -1.41913E+01 -1.38339E+01
  -1.34037E+01 -1.29502E+01 -1.25153E+01 -1.21210E+01 -1.17602E+01 -1.14343E+01 -1.11444E+01 -1.08914E+01 -1.06730E+01 -1.04700E+01
  -1.02662E+01 -1.00585E+01 -9.86702E+00 -9.69901E+00 -9.49133E+00 -9.21793E+00 -8.91509E+00 -8.63109E+00 -8.37876E+00 -8.15039E+00
  -7.94427E+00 -7.74902E+00 -7.52681E+00 -7.18369E+00 -6.62378E+00 -5.80489E+00 -4.76379E+00 -3.61916E+00 -2.61295E+00 -1.93320E+00
  -1.43447E+00 -8.83160E-01 -2.38451E-01  3.50386E-01  7.86243E-01  1.10231E+00  1.34319E+00  1.49155E+00  1.43004E+00  1.05092E+00
   4.05045E-01 -2.98673E-01 -8.39973E-01 -1.10957E+00 -1.18454E+00 -1.20318E+00 -1.05472E+00 -6.34711E-01  6.59782E-02  1.06518E+00
   2.31427E+00  3.67520E+00  4.90591E+00  5.81561E+00  6.55088E+00  7.40101E+00  8.36083E+00  9.17033E+00  9.66057E+00  9.85877E+00
   9.86952E+00  9.79037E+00  9.53275E+00  8.94024E+00  8.06145E+00  7.13836E+00  6.41418E+00  6.00702E+00  5.81326E+00  5.63871E+00
   5.57617E+00  5.68536E+00  5.90352E+00  6.21854E+00  6.58461E+00  6.91776E+00  7.17576E+00  7.35901E+00  7.46641E+00  7.53231E+00
   7.60186E+00  7.68332E+00  7.77403E+00  7.86387E+00  7.95329E+00  8.06352E+00  8.19940E+00  8.36802E+00  8.56233E+00  8.76186E+00
   8.94940E+00  9.12233E+00  9.29486E+00  9.47476E+00  9.65482E+00  9.82379E+00  9.98343E+00  1.01442E+01  1.03042E+01  1.04568E+01
   1.05936E+01  1.07122E+01  1.08259E+01  1.09443E+01  1.10530E+01  1.11464E+01  1.12436E+01  1.13550E+01  1.14755E+01  1.15906E+01
   1.17130E+01  1.18965E+01  1.21861E+01  1.25732E+01  1.29994E+01  1.33913E+01  1.37097E+01  1.39602E+01  1.41700E+01  1.43548E+01
   1.45175E+01  1.46837E+01  1.49010E+01  1.52196E+01  1.56238E+01  1.60313E+01  1.63867E+01  1.66856E+01  1.69425E+01  1.71749E+01
   1.73647E+01  1.74795E+01  1.75375E+01  1.75994E+01  1.77077E+01  1.78959E+01  1.81636E+01  1.84224E+01  1.86147E+01  1.87880E+01
   1.89784E+01  1.91016E+01  1.90869E+01  1.89987E+01  1.89690E+01  1.90806E+01  1.93135E+01  1.96206E+01  1.99880E+01  2.03502E+01
   2.05641E+01  2.05538E+01  2.03850E+01  2.01171E+01  1.98643E+01  1.97406E+01  1.98012E+01  2.00728E+01  2.05345E+01  2.11394E+01
   2.17715E+01  2.23162E+01  2.27078E+01  2.28833E+01  2.28659E+01  2.27500E+01  2.26008E+01  2.24704E+01  2.24227E+01  2.24706E+01
   2.25450E+01  2.25629E+01  2.25108E+01  2.24345E+01  2.23485E+01  2.22535E+01  2.21956E+01  2.22290E+01  2.23834E+01  2.26493E+01
   2.31173E+01  2.39086E+01  2.50925E+01  2.66617E+01  2.85279E+01  3.04297E+01  3.18906E+01  3.27671E+01  3.35135E+01  3.44737E+01
   3.54237E+01  3.60273E+01  3.62579E+01  3.62566E+01  3.61051E+01  3.57271E+01  3.48317E+01  3.33242E+01  3.14780E+01  2.97444E+01
   2.84651E+01  2.77068E+01  2.71731E+01  2.67071E+01  2.65117E+01  2.64544E+01  2.64350E+01  2.64433E+01  2.64741E+01  2.65038E+01
   2.65244E+01  2.65325E+01  2.65294E+01  2.65220E+01  2.65199E+01  2.65248E+01  2.65379E+01  2.65632E+01  2.66015E+01  2.66498E+01
   2.67054E+01  2.67656E+01  2.68296E+01  2.68970E+01  2.69654E+01  2.70335E+01  2.70998E+01  2.71616E+01  2.72160E+01  2.72600E+01
   2.72910E+01  2.73066E+01  2.73044E+01  2.72830E+01  2.72415E+01  2.71795E+01  2.70976E+01  2.69973E+01  2.68803E+01  2.67488E+01
   2.66054E+01  2.64529E+01  2.62943E+01  2.61322E+01  2.59692E+01  2.58073E+01  2.56481E+01  2.54929E+01  2.53428E+01  2.51982E+01
   2.50594E+01  2.49264E+01  2.47990E+01  2.46770E+01  2.45601E+01  2.44480E+01  2.43407E+01  2.42382E+01  2.41407E+01  2.40490E+01
   2.39641E+01  2.38873E+01  2.38208E+01  2.37674E+01  2.37312E+01  2.37194E+01  2.37442E+01  2.38161E+01  2.39350E+01  2.40856E+01
   2.42374E+01  2.43519E+01  2.43920E+01  2.43583E+01  2.43172E+01  2.43236E+01  2.43654E+01  2.44169E+01  2.44922E+01  2.46119E+01
   2.47376E+01  2.47929E+01  2.47495E+01  2.46596E+01  2.45895E+01  2.45605E+01  2.45603E+01  2.45650E+01  2.45336E+01  2.44436E+01
   2.42934E+01  2.40350E+01  2.36363E+01  2.31325E+01  2.25835E+01  2.20465E+01  2.15330E+01  2.10209E+01  2.05349E+01  2.00866E+01
   1.96696E+01  1.92816E+01  1.89215E+01  1.85883E+01  1.82807E+01  1.79971E+01  1.77356E+01  1.74941E+01  1.72708E+01  1.70638E+01
   1.68712E+01  1.66914E+01  1.65229E+01  1.63647E+01  1.62158E+01  1.60755E+01  1.59433E+01  1.58190E+01  1.57025E+01  1.55937E+01
   1.54930E+01  1.54006E+01  1.53169E+01  1.52423E+01  1.51771E+01  1.51216E+01  1.50760E+01  1.50402E+01  1.50141E+01  1.49970E+01
   1.49880E+01  1.49860E+01  1.49894E+01  1.49963E+01  1.50044E+01  1.50113E+01  1.50147E+01  1.50118E+01  1.50005E+01  1.49784E+01
   1.49437E+01  1.48951E+01  1.48318E+01  1.47535E+01  1.46608E+01  1.45545E+01  1.44361E+01  1.43074E+01  1.41708E+01  1.40284E+01
   1.38827E+01  1.37359E+01  1.35903E+01  1.34478E+01  1.33099E+01  1.31779E+01  1.30527E+01  1.29350E+01  1.28250E+01  1.27229E+01
   1.26284E+01  1.25413E+01  1.24610E+01  1.23872E+01  1.23193E+01  1.22566E+01  1.21988E+01  1.21453E+01  1.20956E+01  1.20492E+01
   1.20059E+01  1.19652E+01  1.19270E+01  1.18908E+01  1.18565E+01  1.18240E+01  1.17929E+01  1.17632E+01  1.17348E+01  1.17075E+01
   1.16812E+01  1.16558E+01  1.16313E+01  1.16075E+01  1.15844E+01  1.15620E+01  1.15402E+01  1.15190E+01  1.14984E+01  1.14783E+01
   1.14587E+01  1.14396E+01  1.14210E+01  1.14028E+01  1.13850E+01  1.13676E+01  1.13506E+01  1.13340E+01  1.13177E+01  1.13017E+01
   1.12861E+01  1.12707E+01  1.12557E+01  1.12408E+01  1.12263E+01  1.12120E+01  1.11979E+01  1.11840E+01  1.11703E+01  1.11568E+01
   1.11435E+01  1.11303E+01  1.11173E+01  1.11044E+01  1.10916E+01  1.10789E+01  1.10663E+01  1.10537E+01  1.10413E+01  1.10288E+01
   1.10165E+01  1.10041E+01  1.09917E+01  1.09794E+01  1.09670E+01  1.09546E+01  1.09421E+01  1.09296E+01
 NY background values follow
    -4.783E+01   -4.733E+01   -4.682E+01   -4.631E+01   -4.581E+01   -4.531E+01   -4.480E+01   -4.430E+01   -4.379E+01   -4.329E+01
    -4.279E+01   -4.229E+01   -4.178E+01   -4.128E+01   -4.078E+01   -4.029E+01   -3.979E+01   -3.929E+01   -3.879E+01   -3.830E+01
    -3.781E+01   -3.731E+01   -3.682E+01   -3.633E+01   -3.585E+01   -3.536E+01   -3.487E+01   -3.439E+01   -3.391E+01   -3.343E+01
    -3.295E+01   -3.247E+01   -3.200E+01   -3.153E+01   -3.106E+01   -3.059E+01   -3.012E+01   -2.966E+01   -2.920E+01   -2.874E+01
    -2.828E+01   -2.783E+01   -2.738E+01   -2.693E+01   -2.648E+01   -2.604E+01   -2.560E+01   -2.516E+01   -2.473E+01   -2.429E+01
    -2.386E+01   -2.344E+01   -2.301E+01   -2.259E+01   -2.218E+01   -2.176E+01   -2.135E+01   -2.094E+01   -2.053E+01   -2.013E+01
    -1.973E+01   -1.933E+01   -1.893E+01   -1.854E+01   -1.815E+01   -1.776E+01   -1.738E+01   -1.700E+01   -1.662E+01   -1.624E+01
    -1.587E+01   -1.550E+01   -1.513E+01   -1.476E+01   -1.440E+01   -1.404E+01   -1.368E+01   -1.333E+01   -1.297E+01   -1.262E+01
    -1.228E+01   -1.193E+01   -1.159E+01   -1.125E+01   -1.092E+01   -1.058E+01   -1.025E+01   -9.923E+00   -9.597E+00   -9.274E+00
    -8.953E+00   -8.635E+00   -8.320E+00   -8.007E+00   -7.697E+00   -7.389E+00   -7.083E+00   -6.780E+00   -6.479E+00   -6.181E+00
    -5.885E+00   -5.591E+00   -5.299E+00   -5.009E+00   -4.722E+00   -4.436E+00   -4.153E+00   -3.872E+00   -3.592E+00   -3.315E+00
    -3.039E+00   -2.765E+00   -2.493E+00   -2.223E+00   -1.955E+00   -1.688E+00   -1.423E+00   -1.159E+00   -8.975E-01   -6.371E-01
    -3.782E-01   -1.208E-01    1.352E-01    3.899E-01    6.432E-01    8.951E-01    1.146E+00    1.395E+00    1.644E+00    1.891E+00
     2.137E+00    2.382E+00    2.626E+00    2.869E+00    3.110E+00    3.351E+00    3.592E+00    3.831E+00    4.069E+00    4.307E+00
     4.543E+00    4.779E+00    5.014E+00    5.248E+00    5.481E+00    5.713E+00    5.944E+00    6.174E+00    6.403E+00    6.631E+00
     6.858E+00    7.084E+00    7.309E+00    7.533E+00    7.756E+00    7.978E+00    8.199E+00    8.419E+00    8.638E+00    8.856E+00
     9.072E+00    9.288E+00    9.502E+00    9.715E+00    9.928E+00    1.014E+01    1.035E+01    1.056E+01    1.076E+01    1.097E+01
     1.118E+01    1.138E+01    1.158E+01    1.178E+01    1.198E+01    1.218E+01    1.238E+01    1.258E+01    1.277E+01    1.297E+01
     1.316E+01    1.335E+01    1.354E+01    1.373E+01    1.392E+01    1.410E+01    1.429E+01    1.447E+01    1.465E+01    1.483E+01
     1.501E+01    1.519E+01    1.537E+01    1.555E+01    1.572E+01    1.589E+01    1.607E+01    1.624E+01    1.641E+01    1.658E+01
     1.674E+01    1.691E+01    1.708E+01    1.724E+01    1.740E+01    1.756E+01    1.773E+01    1.788E+01    1.804E+01    1.820E+01
     1.836E+01    1.851E+01    1.866E+01    1.882E+01    1.897E+01    1.912E+01    1.927E+01    1.942E+01    1.956E+01    1.971E+01
     1.985E+01    2.000E+01    2.014E+01    2.028E+01    2.042E+01    2.056E+01    2.070E+01    2.084E+01    2.098E+01    2.111E+01
     2.125E+01    2.138E+01    2.151E+01    2.164E+01    2.177E+01    2.190E+01    2.203E+01    2.215E+01    2.228E+01    2.240E+01
     2.252E+01    2.264E+01    2.276E+01    2.287E+01    2.299E+01    2.310E+01    2.321E+01    2.332E+01    2.343E+01    2.353E+01
     2.364E+01    2.374E+01    2.384E+01    2.393E+01    2.403E+01    2.412E+01    2.421E+01    2.430E+01    2.439E+01    2.448E+01
     2.456E+01    2.464E+01    2.472E+01    2.479E+01    2.487E+01    2.494E+01    2.500E+01    2.507E+01    2.513E+01    2.519E+01
     2.525E+01    2.531E+01    2.536E+01    2.541E+01    2.545E+01    2.550E+01    2.554E+01    2.558E+01    2.561E+01    2.565E+01
     2.568E+01    2.570E+01    2.573E+01    2.575E+01    2.577E+01    2.578E+01    2.579E+01    2.580E+01    2.581E+01    2.581E+01
     2.581E+01    2.581E+01    2.580E+01    2.579E+01    2.578E+01    2.577E+01    2.575E+01    2.573E+01    2.570E+01    2.567E+01
     2.564E+01    2.561E+01    2.557E+01    2.553E+01    2.548E+01    2.544E+01    2.538E+01    2.533E+01    2.527E+01    2.521E+01
     2.515E+01    2.508E+01    2.501E+01    2.493E+01    2.485E+01    2.477E+01    2.469E+01    2.460E+01    2.451E+01    2.441E+01
     2.431E+01    2.421E+01    2.410E+01    2.400E+01    2.388E+01    2.377E+01    2.365E+01    2.354E+01    2.341E+01    2.329E+01
     2.316E+01    2.303E+01    2.290E+01    2.277E+01    2.264E+01    2.250E+01    2.236E+01    2.222E+01    2.208E+01    2.194E+01
     2.180E+01    2.165E+01    2.150E+01    2.136E+01    2.121E+01    2.106E+01    2.091E+01    2.076E+01    2.061E+01    2.046E+01
     2.031E+01    2.015E+01    2.000E+01    1.985E+01    1.970E+01    1.955E+01    1.939E+01    1.924E+01    1.909E+01    1.894E+01
     1.879E+01    1.864E+01    1.849E+01    1.834E+01    1.820E+01    1.805E+01    1.791E+01    1.776E+01    1.762E+01    1.748E+01
     1.734E+01    1.720E+01    1.706E+01    1.692E+01    1.679E+01    1.665E+01    1.652E+01    1.639E+01    1.625E+01    1.612E+01
     1.600E+01    1.587E+01    1.574E+01    1.562E+01    1.550E+01    1.538E+01    1.526E+01    1.514E+01    1.503E+01    1.491E+01
     1.480E+01    1.469E+01    1.458E+01    1.447E+01    1.437E+01    1.426E+01    1.416E+01    1.406E+01    1.396E+01    1.387E+01
     1.377E+01    1.368E+01    1.359E+01    1.351E+01    1.342E+01    1.334E+01    1.326E+01    1.318E+01    1.310E+01    1.303E+01
     1.295E+01    1.288E+01    1.282E+01    1.275E+01    1.269E+01    1.263E+01    1.257E+01    1.251E+01    1.245E+01    1.240E+01
     1.234E+01    1.229E+01    1.224E+01    1.220E+01    1.215E+01    1.211E+01    1.206E+01    1.202E+01    1.198E+01    1.194E+01
     1.190E+01    1.187E+01    1.183E+01    1.180E+01    1.177E+01    1.174E+01    1.171E+01    1.168E+01    1.165E+01    1.162E+01
     1.159E+01    1.157E+01    1.154E+01    1.152E+01    1.150E+01    1.148E+01    1.145E+01    1.143E+01    1.141E+01    1.139E+01
     1.137E+01    1.135E+01    1.134E+01    1.132E+01    1.130E+01    1.128E+01    1.127E+01    1.125E+01    1.123E+01    1.122E+01
     1.120E+01    1.119E+01    1.117E+01    1.116E+01    1.114E+01    1.113E+01    1.112E+01    1.110E+01    1.109E+01    1.108E+01
     1.106E+01    1.105E+01    1.104E+01    1.103E+01    1.102E+01    1.100E+01    1.099E+01    1.098E+01    1.097E+01    1.096E+01
     1.095E+01    1.094E+01    1.093E+01    1.092E+01    1.091E+01    1.090E+01    1.088E+01    1.087E+01    1.086E+01    1.085E+01
     1.084E+01    1.083E+01    1.082E+01    1.081E+01    1.080E+01    1.079E+01    1.078E+01    1.077E+01
 Asp      Conc. = 5.47E+01
