 LCModel (Version 6.3-1L) Copyright: S.W. Provencher.          Ref.: Magn. Reson. Med. 30:672-679 (1993).                
 Slice#3 Row#9 Col#7  PD_05_press_1_raw_act
 36 lines in following concentration table = NCONC+1
    Conc.  %SD /Cr+PCr  Metabolite                                         
  280.871  37%   0.249 Ala                                                 
  268.364  73%   0.238 Asp                                                 
  419.598  44%   0.371 Cr                                                  
  710.234  27%   0.629 PCr                                                 
    0.000 999%   0.000 GABA                                                
    0.000 999%   0.000 Glc                                                 
  596.448  34%   0.528 Gln                                                 
 1.26E+03  18%   1.114 Glu                                                 
  356.669   6%   0.316 GPC                                                 
    0.000 999%   0.000 PCh                                                 
  466.738  15%   0.413 GSH                                                 
  707.278  31%   0.626 Ins                                                 
  498.449  22%   0.441 Lac                                                 
 1.47E+03   5%   1.300 NAA                                                 
  102.051  85% 9.0E-02 NAAG                                                
   26.584  89% 2.4E-02 Scyllo                                              
    0.000 999%   0.000 Tau                                                 
    0.000 999%   0.000 -CrCH2                                              
  356.669   6%   0.316 GPC+PCh                                             
 1.57E+03   5%   1.390 NAA+NAAG                                            
 1.13E+03   4%   1.000 Cr+PCr                                              
 1.85E+03  16%   1.642 Glu+Gln                                             
 1.06E+03  44%   0.942 Lip13a                                              
    0.000 999%   0.000 Lip13b                                              
    0.000 999%   0.000 Lip09                                               
 1.84E+03  14%   1.633 MM09                                                
   99.194 143% 8.8E-02 Lip20                                               
 2.92E+03  14%   2.585 MM20                                                
  631.964  33%   0.559 MM12                                                
 1.06E+04   2%   9.338+MM14                                                
 1.24E+03  27%   1.098 MM17                                                
 1.06E+03  44%   0.942 Lip13a+Lip13b                                       
 1.22E+04   3%  10.839 MM14+Lip13a+Lip13b+MM12                             
 1.84E+03  14%   1.633 MM09+Lip09                                          
 3.02E+03  13%   2.673 MM20+Lip20                                          
   6 lines in following misc. output table
  FWHM = 0.054 ppm    S/N =  11                                            
  Data shift = 0.023 ppm                                                   
  Ph:  -3 deg      -4.6 deg/ppm                                            
  alphaB,S = 2.8E+00,   1.0E+02                                            
   14 spline knots.   Ns = 5(1)                                            
  ( 8) 4 infls.   ( 3) 1 extrs.                                            
  498 points on ppm-axis = NY
      4.000000     3.992357     3.984714     3.977070     3.969427     3.961784     3.954141     3.946497     3.938854     3.931211
      3.923568     3.915925     3.908281     3.900638     3.892995     3.885352     3.877708     3.870065     3.862422     3.854779
      3.847136     3.839492     3.831849     3.824206     3.816563     3.808919     3.801276     3.793633     3.785990     3.778347
      3.770703     3.763060     3.755417     3.747774     3.740130     3.732487     3.724844     3.717201     3.709558     3.701914
      3.694271     3.686628     3.678985     3.671341     3.663698     3.656055     3.648412     3.640769     3.633125     3.625482
      3.617839     3.610196     3.602552     3.594909     3.587266     3.579623     3.571980     3.564336     3.556693     3.549050
      3.541407     3.533763     3.526120     3.518477     3.510834     3.503191     3.495547     3.487904     3.480261     3.472618
      3.464974     3.457331     3.449688     3.442045     3.434402     3.426758     3.419115     3.411472     3.403829     3.396185
      3.388542     3.380899     3.373256     3.365613     3.357969     3.350326     3.342683     3.335040     3.327396     3.319753
      3.312110     3.304467     3.296824     3.289180     3.281537     3.273894     3.266251     3.258607     3.250964     3.243321
      3.235678     3.228034     3.220391     3.212748     3.205105     3.197462     3.189818     3.182175     3.174532     3.166889
      3.159245     3.151602     3.143959     3.136316     3.128673     3.121029     3.113386     3.105743     3.098100     3.090456
      3.082813     3.075170     3.067527     3.059884     3.052240     3.044597     3.036954     3.029311     3.021667     3.014024
      3.006381     2.998738     2.991095     2.983451     2.975808     2.968165     2.960522     2.952878     2.945235     2.937592
      2.929949     2.922306     2.914662     2.907019     2.899376     2.891733     2.884089     2.876446     2.868803     2.861160
      2.853517     2.845873     2.838230     2.830587     2.822944     2.815300     2.807657     2.800014     2.792371     2.784728
      2.777084     2.769441     2.761798     2.754155     2.746511     2.738868     2.731225     2.723582     2.715939     2.708295
      2.700652     2.693009     2.685366     2.677722     2.670079     2.662436     2.654793     2.647150     2.639506     2.631863
      2.624220     2.616577     2.608933     2.601290     2.593647     2.586004     2.578361     2.570717     2.563074     2.555431
      2.547788     2.540144     2.532501     2.524858     2.517215     2.509572     2.501928     2.494285     2.486642     2.478999
      2.471355     2.463712     2.456069     2.448426     2.440783     2.433139     2.425496     2.417853     2.410210     2.402566
      2.394923     2.387280     2.379637     2.371994     2.364350     2.356707     2.349064     2.341421     2.333777     2.326134
      2.318491     2.310848     2.303205     2.295561     2.287918     2.280275     2.272632     2.264988     2.257345     2.249702
      2.242059     2.234416     2.226772     2.219129     2.211486     2.203843     2.196199     2.188556     2.180913     2.173270
      2.165627     2.157983     2.150340     2.142697     2.135054     2.127410     2.119767     2.112124     2.104481     2.096838
      2.089194     2.081551     2.073908     2.066265     2.058621     2.050978     2.043335     2.035692     2.028049     2.020405
      2.012762     2.005119     1.997476     1.989833     1.982190     1.974546     1.966903     1.959260     1.951617     1.943974
      1.936331     1.928688     1.921045     1.913402     1.905759     1.898115     1.890472     1.882829     1.875186     1.867543
      1.859900     1.852257     1.844614     1.836971     1.829327     1.821684     1.814041     1.806398     1.798755     1.791112
      1.783469     1.775826     1.768183     1.760540     1.752896     1.745253     1.737610     1.729967     1.722324     1.714681
      1.707038     1.699395     1.691752     1.684108     1.676465     1.668822     1.661179     1.653536     1.645893     1.638250
      1.630607     1.622964     1.615321     1.607677     1.600034     1.592391     1.584748     1.577105     1.569462     1.561819
      1.554176     1.546533     1.538890     1.531246     1.523603     1.515960     1.508317     1.500674     1.493031     1.485388
      1.477745     1.470102     1.462458     1.454815     1.447172     1.439529     1.431886     1.424243     1.416600     1.408957
      1.401314     1.393671     1.386027     1.378384     1.370741     1.363098     1.355455     1.347812     1.340169     1.332526
      1.324883     1.317240     1.309596     1.301953     1.294310     1.286667     1.279024     1.271381     1.263738     1.256095
      1.248452     1.240808     1.233165     1.225522     1.217879     1.210236     1.202593     1.194950     1.187307     1.179664
      1.172021     1.164377     1.156734     1.149091     1.141448     1.133805     1.126162     1.118519     1.110876     1.103233
      1.095590     1.087946     1.080303     1.072660     1.065017     1.057374     1.049731     1.042088     1.034445     1.026802
      1.019158     1.011515     1.003872     0.996229     0.988586     0.980943     0.973300     0.965657     0.958014     0.950371
      0.942727     0.935084     0.927441     0.919798     0.912155     0.904512     0.896869     0.889226     0.881583     0.873940
      0.866296     0.858653     0.851010     0.843367     0.835724     0.828081     0.820438     0.812795     0.805152     0.797508
      0.789865     0.782222     0.774579     0.766936     0.759293     0.751650     0.744007     0.736364     0.728721     0.721077
      0.713434     0.705791     0.698148     0.690505     0.682862     0.675219     0.667576     0.659933     0.652290     0.644646
      0.637003     0.629360     0.621717     0.614074     0.606431     0.598788     0.591145     0.583502     0.575858     0.568215
      0.560572     0.552929     0.545286     0.537643     0.530000     0.522357     0.514714     0.507071     0.499427     0.491784
      0.484141     0.476498     0.468855     0.461212     0.453569     0.445925     0.438282     0.430639     0.422996     0.415353
      0.407710     0.400067     0.392424     0.384780     0.377137     0.369494     0.361851     0.354208     0.346565     0.338922
      0.331278     0.323635     0.315992     0.308349     0.300706     0.293063     0.285420     0.277777     0.270133     0.262490
      0.254847     0.247204     0.239561     0.231918     0.224275     0.216631     0.208988     0.201345
 NY phased data points follow
   8.53543E+00  8.94309E+00  8.40475E+00  1.05860E+01  1.40806E+01  1.63462E+01  1.62870E+01  2.66485E+01  2.88488E+01  3.70819E+01
   3.92384E+01  4.19298E+01  4.23178E+01  3.25485E+01  2.79963E+01  2.58147E+01  2.07000E+01  1.93212E+01  1.31861E+01  1.11064E+01
   1.26696E+01  1.61303E+01  1.34000E+01  1.35580E+01  9.22561E+00  1.55112E+01  1.28974E+01  1.48488E+01  1.79460E+01  1.59190E+01
   1.83234E+01  2.19124E+01  2.04411E+01  2.47237E+01  1.91040E+01  1.49426E+01  1.94093E+01  1.78025E+01  1.30457E+01  1.42395E+01
   1.50242E+01  1.63762E+01  1.16701E+01  1.16424E+01  1.41620E+01  1.46508E+01  1.43086E+01  1.94317E+01  1.93337E+01  1.35402E+01
   1.28508E+01  8.78618E+00  1.24361E+01  6.49471E+00  9.69998E+00  1.07813E+01  8.43382E+00  1.21309E+01  1.23917E+01  6.51347E+00
   1.04658E+01  1.02837E+01  8.26191E+00  2.14821E+00  2.91958E+00  3.47339E+00  3.39968E+00  2.68580E+00  3.37590E+00  1.31100E+00
  -1.15562E+00  3.20574E+00  1.02070E+00  1.20255E+00  5.05608E+00  1.76728E+00  6.37238E+00  3.01022E+00  2.91575E+00  1.94052E+00
   2.49954E+00  2.52310E-01  8.52039E+00  3.20042E+00  4.52970E+00  5.15331E+00  1.64002E+00  1.04315E+01  8.79747E-01  4.11014E+00
   5.49641E+00  8.02084E+00  9.37989E+00  2.75623E+00  5.16960E+00  7.13650E+00  2.67741E+00  3.19804E+00  5.28506E+00  8.35279E+00
   1.81393E+01  2.49231E+01  3.37102E+01  4.47086E+01  4.03322E+01  3.58916E+01  3.00111E+01  2.20198E+01  1.85667E+01  1.51626E+01
   8.19012E+00  1.46489E+01  7.63782E+00  8.69520E+00  6.87953E+00  5.77167E+00  7.33888E+00  5.45633E+00  5.67131E+00  7.57418E+00
   7.68847E+00  5.71799E-01  6.73203E+00  8.99063E+00  1.29260E+01  2.94882E+01  3.99536E+01  4.28923E+01  4.24736E+01  4.20247E+01
   3.46973E+01  2.63545E+01  2.46777E+01  1.89404E+01  1.09569E+01  1.47241E+01  3.47258E+00  5.88877E+00  5.90862E+00  3.89195E+00
   7.85200E+00  2.96346E+00  6.51687E+00 -1.19362E+00  1.41966E+00  2.03952E-01  3.01247E+00 -1.26965E+00 -1.03703E-01  2.11823E+00
  -2.65995E+00  3.94692E+00  1.01425E+00 -2.95844E+00  5.42718E+00  3.37321E+00  2.13745E+00 -1.86233E+00  7.66171E-03  3.03876E+00
   2.89078E+00 -3.85933E+00 -5.45530E+00 -6.73014E+00 -1.77334E+00  2.41127E+00 -1.99446E+00 -2.10503E+00 -1.52828E+00 -2.83722E+00
  -1.30584E+00 -1.43963E+00 -2.98214E+00 -1.71113E+00 -8.94633E+00 -4.03723E+00 -5.40444E+00 -3.66274E+00 -7.86566E+00 -9.20472E+00
  -9.21346E+00 -8.49249E+00 -8.33939E+00 -6.91556E+00 -3.10301E+00 -4.39188E+00 -5.01489E+00 -3.39385E+00 -2.62335E+00  1.87815E+00
   2.90413E+00  2.09055E+00  1.38945E+00  2.99217E+00  6.52274E+00  1.17910E+00  3.97665E+00  5.22681E+00 -2.13739E-01 -1.47058E+00
  -1.11051E+00  5.32170E+00  3.80152E+00  8.19271E+00  6.59521E+00  2.90242E+00  3.12717E+00  7.19843E-01  5.81761E+00 -8.01612E-01
  -2.59261E+00 -2.84067E+00  1.71123E+00  6.50966E+00  9.46557E+00  1.36732E+01  1.39513E+01  1.52319E+01  1.35634E+01  4.58652E+00
   4.45539E+00  1.66567E+00  3.92115E-02  2.01220E+00  3.57823E+00  4.33518E+00  5.69842E+00  7.68295E+00  8.41694E+00  8.84411E+00
   8.79926E+00  1.18504E+01  1.00658E+01  8.31624E+00  9.91638E+00  1.02736E+01  6.05050E+00  1.13212E+01  5.84684E+00  7.62718E+00
   5.25258E+00  6.75585E+00  2.23734E+00  4.53154E+00  5.31688E+00  5.20048E+00  9.60066E+00  1.10526E+01  1.34258E+01  1.33963E+01
   1.15364E+01  1.95177E+01  1.43945E+01  1.86772E+01  1.88604E+01  1.79567E+01  2.17389E+01  2.43600E+01  3.89493E+01  6.11159E+01
   7.30127E+01  6.86219E+01  5.55819E+01  4.26779E+01  3.77611E+01  2.96177E+01  1.93492E+01  1.74388E+01  1.04870E+01  5.55032E+00
   9.94699E+00  7.93812E+00  7.63449E+00  4.97639E+00  4.88230E+00  4.55365E+00  4.09254E+00 -7.63569E-01 -2.59658E-01  4.68097E+00
   1.89643E+00  5.08514E+00  5.48540E+00  1.09976E+00  5.74134E+00  1.71901E-01 -8.91425E-02  4.68298E+00  2.48215E+00  6.22558E+00
   1.66352E+00  5.38850E+00  1.92729E+00  5.24895E+00  3.26389E-01  4.44268E+00  4.00397E+00  4.26245E+00 -9.89636E-01  4.45085E+00
   3.28089E+00  3.32306E+00  2.64529E+00  2.52464E+00  6.64755E+00  7.67209E+00  1.03422E+00  7.52951E+00  9.69603E+00  7.19830E+00
   7.90688E+00  7.24265E+00  7.62229E+00  7.30759E+00  1.04201E+01  9.86361E+00  1.56091E+01  1.03074E+01  1.24325E+01  1.81135E+01
   1.41946E+01  1.33307E+01  1.83640E+01  1.70313E+01  2.36546E+01  2.58599E+01  2.73060E+01  2.78085E+01  3.24654E+01  3.50917E+01
   4.08879E+01  4.44190E+01  4.84325E+01  5.42275E+01  5.95477E+01  6.31925E+01  7.04911E+01  7.44016E+01  7.84866E+01  8.57853E+01
   8.80425E+01  8.71385E+01  9.34229E+01  9.16175E+01  9.25207E+01  8.82400E+01  8.66826E+01  8.07893E+01  7.52924E+01  6.48870E+01
   6.02250E+01  5.10770E+01  4.64232E+01  4.04848E+01  3.69364E+01  3.43424E+01  3.02542E+01  2.40093E+01  2.65779E+01  2.54942E+01
   1.84128E+01  2.00957E+01  1.73969E+01  1.74203E+01  1.50687E+01  1.11992E+01  1.35200E+01  8.92360E+00  9.40336E+00  7.69315E+00
   9.70620E+00  1.00396E+01  6.40232E+00  4.26063E+00  8.33971E+00  8.19887E+00  7.95712E+00  6.10575E+00  9.36103E+00  4.12421E+00
   6.99247E+00  7.98949E+00  2.87560E+00  3.18602E+00  4.26617E+00  5.42781E+00  3.99633E+00  2.65244E+00  6.34912E+00  7.30285E+00
   2.62904E+00  5.55888E+00  3.73445E+00  8.41547E+00  8.38807E+00  1.26573E+01  9.67695E+00  6.72017E+00  9.43608E+00  1.18774E+01
   7.59747E+00  5.70004E+00  9.49400E+00  8.14047E+00  6.80310E+00  8.59806E+00  6.05185E+00  5.44365E+00  9.07694E+00  1.22266E+01
   1.06086E+01  1.08538E+01  7.97340E+00  5.45001E+00  8.73052E+00  6.34866E+00  6.10307E+00  7.57986E+00  5.61209E+00  6.84902E+00
   5.57780E+00  3.92509E+00  4.38489E+00  2.05454E+00  2.58814E+00  3.78146E+00  3.95893E+00  2.13131E+00  5.21813E+00  5.33091E+00
   6.60464E+00  5.80042E+00  3.55825E-01  4.05861E+00  1.99882E+00  2.71506E+00  7.81611E-01  1.62093E-01  3.46933E-01  5.83238E-01
   4.11346E+00 -3.58252E-01  4.83877E-01  2.77604E+00  3.17937E+00  4.74852E+00  2.07033E+00  7.50720E-01 -7.14975E-01  4.61128E+00
   9.67441E-01  2.49670E+00  3.97338E+00  4.98273E+00  6.04491E-01  4.98765E-01  7.92905E-01  2.08804E+00  2.99384E+00 -8.50742E-02
  -3.75592E+00 -2.70351E+00  8.34600E-01 -1.14125E+00  2.92148E+00  1.68016E+00 -1.72640E-01 -5.46551E-01  6.90390E-01 -2.12029E+00
   1.46473E+00  1.84722E-01  1.90110E+00  2.88482E+00  1.62463E+00  1.36522E+00  1.98890E+00  1.64613E+00  3.82163E-01  2.78937E+00
   2.34337E+00  1.32776E+00  2.07107E-02 -4.86887E-01 -9.50214E-02  3.03594E-01 -2.25380E+00  4.37717E+00  1.99890E+00  3.58142E+00
   6.85720E-02  4.85244E-01  3.10204E+00  5.78771E-01  3.98538E-01  1.86035E+00 -1.16234E+00  5.62586E-01
 NY points of the fit to the data follow
   1.02449E+01  1.00612E+01  1.00976E+01  1.04522E+01  1.12225E+01  1.29113E+01  1.61451E+01  2.13252E+01  2.78054E+01  3.38599E+01
   3.75112E+01  3.77930E+01  3.52718E+01  3.13685E+01  2.71225E+01  2.26614E+01  1.81225E+01  1.45963E+01  1.25437E+01  1.18552E+01
   1.18199E+01  1.19233E+01  1.18837E+01  1.15896E+01  1.10487E+01  1.06321E+01  1.09308E+01  1.24169E+01  1.51334E+01  1.83705E+01
   2.10185E+01  2.22740E+01  2.21369E+01  2.09580E+01  1.89647E+01  1.61399E+01  1.28528E+01  1.03764E+01  9.17496E+00  8.70578E+00
   8.68153E+00  9.07078E+00  9.93930E+00  1.11372E+01  1.25881E+01  1.40715E+01  1.50601E+01  1.52129E+01  1.45138E+01  1.32130E+01
   1.18299E+01  1.06271E+01  9.42428E+00  8.26940E+00  7.63061E+00  7.61189E+00  7.90140E+00  8.29707E+00  8.73871E+00  9.03322E+00
   9.00440E+00  8.60094E+00  7.96701E+00  7.32276E+00  6.77779E+00  6.37048E+00  6.18114E+00  6.22591E+00  6.45051E+00  6.78267E+00
   7.09162E+00  7.27463E+00  7.26834E+00  7.08891E+00  6.83605E+00  6.58270E+00  6.35926E+00  6.13568E+00  5.93180E+00  5.80516E+00
   5.73126E+00  5.72002E+00  5.78137E+00  5.86724E+00  5.87254E+00  5.67707E+00  5.25237E+00  4.71645E+00  4.26804E+00  4.04476E+00
   4.03996E+00  4.17001E+00  4.37711E+00  4.67991E+00  4.98207E+00  5.10941E+00  5.09371E+00  5.21275E+00  6.39659E+00  1.02557E+01
   1.74155E+01  2.70058E+01  3.62175E+01  4.16653E+01  4.16852E+01  3.73952E+01  3.13408E+01  2.52548E+01  1.91288E+01  1.25940E+01
   7.37969E+00  5.51265E+00  5.03748E+00  4.87821E+00  4.83049E+00  4.83379E+00  4.85615E+00  4.88260E+00  4.91906E+00  5.00515E+00
   5.22469E+00  5.75881E+00  7.32944E+00  1.14859E+01  1.90153E+01  2.92157E+01  3.94069E+01  4.59704E+01  4.68771E+01  4.30695E+01
   3.71604E+01  3.10353E+01  2.46609E+01  1.73018E+01  1.03357E+01  6.48658E+00  4.67567E+00  3.81566E+00  3.65026E+00  3.91810E+00
   4.42588E+00  5.07718E+00  5.61553E+00  5.86290E+00  5.84431E+00  5.55647E+00  5.03844E+00  4.45131E+00  3.87375E+00  3.41231E+00
   2.99873E+00  2.60117E+00  2.24761E+00  2.00334E+00  1.87383E+00  1.79713E+00  1.69729E+00  1.45508E+00  1.01722E+00  4.62441E-01
   1.66463E-03 -1.76427E-01 -5.01053E-02  2.57029E-01  5.44807E-01  6.74932E-01  6.66430E-01  5.91660E-01  4.49260E-01  2.17840E-01
  -4.85250E-02 -3.72361E-01 -7.39724E-01 -1.14870E+00 -1.59089E+00 -1.88848E+00 -1.94454E+00 -1.85582E+00 -1.80552E+00 -1.89418E+00
  -2.02088E+00 -1.99485E+00 -1.79714E+00 -1.68091E+00 -1.81005E+00 -1.87796E+00 -1.50625E+00 -5.15592E-01  8.63331E-01  2.15531E+00
   3.05860E+00  3.43201E+00  3.30819E+00  2.73782E+00  1.80019E+00  6.91669E-01 -1.63446E-01 -4.43047E-01  4.66289E-02  1.25898E+00
   2.86413E+00  4.48719E+00  5.90586E+00  6.84074E+00  7.02702E+00  6.07115E+00  4.06781E+00  1.60194E+00 -6.78823E-01 -2.25111E+00
  -2.83279E+00 -2.21174E+00 -2.99971E-01  2.61565E+00  5.98398E+00  8.86157E+00  1.03116E+01  9.70948E+00  7.48751E+00  4.39977E+00
   9.79611E-01 -2.09981E+00 -3.91522E+00 -3.75404E+00 -1.70408E+00  1.03489E+00  3.64124E+00  5.75056E+00  7.25673E+00  7.96548E+00
   7.72084E+00  6.98791E+00  6.52657E+00  6.61062E+00  7.21101E+00  8.25629E+00  9.50342E+00  1.05521E+01  1.08903E+01  1.02492E+01
   8.99714E+00  7.75300E+00  6.89707E+00  6.61534E+00  7.12181E+00  8.27817E+00  9.58191E+00  1.06899E+01  1.15544E+01  1.21656E+01
   1.25127E+01  1.28877E+01  1.36144E+01  1.47869E+01  1.61521E+01  1.82441E+01  2.32419E+01  3.24288E+01  4.52120E+01  5.79969E+01
   6.57210E+01  6.54786E+01  5.87054E+01  4.94060E+01  4.02181E+01  3.10520E+01  2.09859E+01  1.22614E+01  8.63682E+00  7.29178E+00
   6.43382E+00  5.87111E+00  5.57609E+00  5.38436E+00  5.22649E+00  5.06022E+00  4.84861E+00  4.59766E+00  4.32478E+00  4.02020E+00
   3.69468E+00  3.40693E+00  3.19308E+00  3.03448E+00  2.90292E+00  2.78978E+00  2.69897E+00  2.63115E+00  2.57502E+00  2.53685E+00
   2.53135E+00  2.56070E+00  2.61975E+00  2.70648E+00  2.82052E+00  2.96204E+00  3.12930E+00  3.32264E+00  3.54536E+00  3.80297E+00
   4.09606E+00  4.42192E+00  4.77575E+00  5.15190E+00  5.54494E+00  5.94856E+00  6.35540E+00  6.76107E+00  7.16145E+00  7.55271E+00
   7.93375E+00  8.30677E+00  8.67632E+00  9.05089E+00  9.44393E+00  9.87491E+00  1.03696E+01  1.09604E+01  1.16861E+01  1.25937E+01
   1.37405E+01  1.52035E+01  1.71060E+01  1.95473E+01  2.24099E+01  2.54252E+01  2.82527E+01  3.07240E+01  3.30179E+01  3.55203E+01
   3.85452E+01  4.22959E+01  4.68354E+01  5.22468E+01  5.85761E+01  6.53535E+01  7.15465E+01  7.66910E+01  8.07791E+01  8.39457E+01
   8.62137E+01  8.74496E+01  8.77602E+01  8.77618E+01  8.74176E+01  8.62306E+01  8.35796E+01  7.89833E+01  7.25505E+01  6.50123E+01
   5.72865E+01  5.02031E+01  4.42314E+01  3.96634E+01  3.67502E+01  3.53285E+01  3.40790E+01  3.20656E+01  2.94394E+01  2.66262E+01
   2.38234E+01  2.08577E+01  1.77240E+01  1.51390E+01  1.32020E+01  1.16712E+01  1.04303E+01  9.41425E+00  8.57763E+00  7.88566E+00
   7.31098E+00  6.83222E+00  6.43294E+00  6.10051E+00  5.82515E+00  5.59952E+00  5.41838E+00  5.27838E+00  5.17753E+00  5.11454E+00
   5.08847E+00  5.09867E+00  5.14484E+00  5.22690E+00  5.34469E+00  5.49760E+00  5.68451E+00  5.90394E+00  6.15410E+00  6.43277E+00
   6.73700E+00  7.06293E+00  7.40595E+00  7.76086E+00  8.12201E+00  8.48319E+00  8.83755E+00  9.17778E+00  9.49644E+00  9.78635E+00
   1.00408E+01  1.02534E+01  1.04187E+01  1.05319E+01  1.05894E+01  1.05894E+01  1.05313E+01  1.04158E+01  1.02449E+01  1.00218E+01
   9.75102E+00  9.43814E+00  9.08936E+00  8.71123E+00  8.31039E+00  7.89354E+00  7.46732E+00  7.03799E+00  6.61118E+00  6.19166E+00
   5.78348E+00  5.39004E+00  5.01413E+00  4.65778E+00  4.32225E+00  4.00809E+00  3.71539E+00  3.44398E+00  3.19341E+00  2.96290E+00
   2.75136E+00  2.55752E+00  2.38017E+00  2.21818E+00  2.07044E+00  1.93576E+00  1.81289E+00  1.70070E+00  1.59823E+00  1.50471E+00
   1.41935E+00  1.34135E+00  1.26989E+00  1.20434E+00  1.14421E+00  1.08911E+00  1.03860E+00  9.92169E-01  9.49365E-01  9.09883E-01
   8.73545E-01  8.40155E-01  8.09430E-01  7.81050E-01  7.54782E-01  7.30525E-01  7.08229E-01  6.87765E-01  6.68916E-01  6.51468E-01
   6.35326E-01  6.20492E-01  6.06956E-01  5.94599E-01  5.83249E-01  5.72779E-01  5.63184E-01  5.54505E-01  5.46721E-01  5.39705E-01
   5.33317E-01  5.27518E-01  5.22354E-01  5.17874E-01  5.14029E-01  5.10686E-01  5.07757E-01  5.05255E-01  5.03254E-01  5.01768E-01
   5.00721E-01  4.99994E-01  4.99550E-01  4.99452E-01  4.99772E-01  5.00488E-01  5.01497E-01  5.02719E-01  5.04170E-01  5.05935E-01
   5.08057E-01  5.10475E-01  5.13092E-01  5.15871E-01  5.18877E-01  5.22195E-01  5.25830E-01  5.29702E-01
 NY background values follow
     8.489E+00    8.435E+00    8.381E+00    8.327E+00    8.273E+00    8.218E+00    8.164E+00    8.110E+00    8.056E+00    8.002E+00
     7.947E+00    7.893E+00    7.839E+00    7.785E+00    7.731E+00    7.676E+00    7.622E+00    7.568E+00    7.514E+00    7.460E+00
     7.406E+00    7.351E+00    7.297E+00    7.243E+00    7.189E+00    7.135E+00    7.081E+00    7.027E+00    6.973E+00    6.919E+00
     6.866E+00    6.812E+00    6.758E+00    6.704E+00    6.651E+00    6.597E+00    6.543E+00    6.490E+00    6.436E+00    6.383E+00
     6.329E+00    6.276E+00    6.223E+00    6.170E+00    6.117E+00    6.063E+00    6.010E+00    5.958E+00    5.905E+00    5.852E+00
     5.799E+00    5.747E+00    5.694E+00    5.642E+00    5.589E+00    5.537E+00    5.485E+00    5.433E+00    5.381E+00    5.329E+00
     5.277E+00    5.226E+00    5.174E+00    5.123E+00    5.072E+00    5.021E+00    4.970E+00    4.919E+00    4.868E+00    4.817E+00
     4.767E+00    4.717E+00    4.667E+00    4.617E+00    4.567E+00    4.517E+00    4.468E+00    4.418E+00    4.369E+00    4.320E+00
     4.271E+00    4.223E+00    4.174E+00    4.126E+00    4.078E+00    4.030E+00    3.982E+00    3.935E+00    3.887E+00    3.840E+00
     3.793E+00    3.747E+00    3.700E+00    3.654E+00    3.608E+00    3.562E+00    3.516E+00    3.471E+00    3.426E+00    3.381E+00
     3.336E+00    3.291E+00    3.247E+00    3.203E+00    3.159E+00    3.116E+00    3.072E+00    3.029E+00    2.986E+00    2.943E+00
     2.901E+00    2.859E+00    2.817E+00    2.775E+00    2.734E+00    2.692E+00    2.651E+00    2.611E+00    2.570E+00    2.530E+00
     2.490E+00    2.450E+00    2.411E+00    2.372E+00    2.333E+00    2.294E+00    2.256E+00    2.218E+00    2.180E+00    2.142E+00
     2.105E+00    2.068E+00    2.031E+00    1.994E+00    1.958E+00    1.922E+00    1.886E+00    1.851E+00    1.816E+00    1.781E+00
     1.746E+00    1.712E+00    1.678E+00    1.645E+00    1.611E+00    1.578E+00    1.545E+00    1.512E+00    1.480E+00    1.448E+00
     1.416E+00    1.385E+00    1.354E+00    1.323E+00    1.292E+00    1.262E+00    1.232E+00    1.202E+00    1.173E+00    1.144E+00
     1.115E+00    1.086E+00    1.058E+00    1.030E+00    1.002E+00    9.749E-01    9.477E-01    9.209E-01    8.943E-01    8.681E-01
     8.421E-01    8.164E-01    7.910E-01    7.659E-01    7.411E-01    7.166E-01    6.924E-01    6.684E-01    6.448E-01    6.215E-01
     5.984E-01    5.757E-01    5.532E-01    5.310E-01    5.092E-01    4.876E-01    4.663E-01    4.452E-01    4.245E-01    4.040E-01
     3.838E-01    3.638E-01    3.441E-01    3.247E-01    3.055E-01    2.866E-01    2.680E-01    2.496E-01    2.314E-01    2.135E-01
     1.958E-01    1.784E-01    1.612E-01    1.442E-01    1.275E-01    1.110E-01    9.470E-02    7.863E-02    6.278E-02    4.715E-02
     3.173E-02    1.651E-02    1.504E-03   -1.330E-02   -2.791E-02   -4.231E-02   -5.653E-02   -7.055E-02   -8.438E-02   -9.803E-02
    -1.115E-01   -1.248E-01   -1.379E-01   -1.508E-01   -1.636E-01   -1.762E-01   -1.886E-01   -2.009E-01   -2.130E-01   -2.249E-01
    -2.367E-01   -2.484E-01   -2.598E-01   -2.711E-01   -2.823E-01   -2.932E-01   -3.041E-01   -3.147E-01   -3.253E-01   -3.356E-01
    -3.458E-01   -3.558E-01   -3.657E-01   -3.755E-01   -3.850E-01   -3.945E-01   -4.037E-01   -4.128E-01   -4.218E-01   -4.306E-01
    -4.392E-01   -4.477E-01   -4.561E-01   -4.643E-01   -4.723E-01   -4.802E-01   -4.880E-01   -4.956E-01   -5.030E-01   -5.103E-01
    -5.175E-01   -5.245E-01   -5.313E-01   -5.380E-01   -5.446E-01   -5.510E-01   -5.572E-01   -5.634E-01   -5.693E-01   -5.752E-01
    -5.809E-01   -5.864E-01   -5.918E-01   -5.970E-01   -6.022E-01   -6.071E-01   -6.120E-01   -6.167E-01   -6.212E-01   -6.257E-01
    -6.299E-01   -6.341E-01   -6.381E-01   -6.420E-01   -6.458E-01   -6.494E-01   -6.529E-01   -6.563E-01   -6.595E-01   -6.627E-01
    -6.657E-01   -6.686E-01   -6.713E-01   -6.740E-01   -6.765E-01   -6.789E-01   -6.812E-01   -6.833E-01   -6.854E-01   -6.873E-01
    -6.892E-01   -6.909E-01   -6.925E-01   -6.940E-01   -6.954E-01   -6.967E-01   -6.979E-01   -6.990E-01   -6.999E-01   -7.008E-01
    -7.016E-01   -7.023E-01   -7.028E-01   -7.033E-01   -7.037E-01   -7.040E-01   -7.042E-01   -7.042E-01   -7.043E-01   -7.042E-01
    -7.040E-01   -7.037E-01   -7.034E-01   -7.029E-01   -7.024E-01   -7.017E-01   -7.010E-01   -7.002E-01   -6.993E-01   -6.984E-01
    -6.973E-01   -6.962E-01   -6.949E-01   -6.936E-01   -6.922E-01   -6.907E-01   -6.892E-01   -6.875E-01   -6.858E-01   -6.840E-01
    -6.821E-01   -6.802E-01   -6.781E-01   -6.760E-01   -6.738E-01   -6.716E-01   -6.692E-01   -6.668E-01   -6.643E-01   -6.617E-01
    -6.591E-01   -6.564E-01   -6.536E-01   -6.507E-01   -6.478E-01   -6.448E-01   -6.417E-01   -6.386E-01   -6.353E-01   -6.321E-01
    -6.287E-01   -6.253E-01   -6.218E-01   -6.183E-01   -6.146E-01   -6.110E-01   -6.072E-01   -6.034E-01   -5.995E-01   -5.956E-01
    -5.916E-01   -5.875E-01   -5.833E-01   -5.791E-01   -5.748E-01   -5.705E-01   -5.661E-01   -5.616E-01   -5.570E-01   -5.524E-01
    -5.477E-01   -5.430E-01   -5.382E-01   -5.333E-01   -5.284E-01   -5.233E-01   -5.183E-01   -5.131E-01   -5.079E-01   -5.026E-01
    -4.973E-01   -4.919E-01   -4.864E-01   -4.808E-01   -4.752E-01   -4.695E-01   -4.638E-01   -4.580E-01   -4.521E-01   -4.461E-01
    -4.401E-01   -4.340E-01   -4.279E-01   -4.217E-01   -4.154E-01   -4.090E-01   -4.026E-01   -3.961E-01   -3.896E-01   -3.829E-01
    -3.763E-01   -3.695E-01   -3.627E-01   -3.558E-01   -3.489E-01   -3.419E-01   -3.349E-01   -3.278E-01   -3.206E-01   -3.134E-01
    -3.061E-01   -2.988E-01   -2.915E-01   -2.841E-01   -2.766E-01   -2.691E-01   -2.615E-01   -2.539E-01   -2.463E-01   -2.386E-01
    -2.309E-01   -2.231E-01   -2.153E-01   -2.075E-01   -1.996E-01   -1.917E-01   -1.837E-01   -1.757E-01   -1.677E-01   -1.597E-01
    -1.516E-01   -1.435E-01   -1.354E-01   -1.272E-01   -1.190E-01   -1.108E-01   -1.026E-01   -9.433E-02   -8.606E-02   -7.777E-02
    -6.946E-02   -6.113E-02   -5.279E-02   -4.444E-02   -3.607E-02   -2.768E-02   -1.929E-02   -1.088E-02   -2.453E-03    5.983E-03
     1.443E-02    2.289E-02    3.136E-02    3.984E-02    4.833E-02    5.684E-02    6.535E-02    7.387E-02    8.240E-02    9.093E-02
     9.948E-02    1.080E-01    1.166E-01    1.252E-01    1.337E-01    1.423E-01    1.509E-01    1.595E-01    1.681E-01    1.767E-01
     1.853E-01    1.939E-01    2.025E-01    2.111E-01    2.198E-01    2.284E-01    2.370E-01    2.456E-01    2.543E-01    2.629E-01
     2.715E-01    2.801E-01    2.888E-01    2.974E-01    3.060E-01    3.146E-01    3.232E-01    3.319E-01
 Ala      Conc. = 2.81E+02
