 LCModel (Version 6.3-1L) Copyright: S.W. Provencher.          Ref.: Magn. Reson. Med. 30:672-679 (1993).                
 Slice#3 Row#13 Col#8  PD_05_press_1_raw_act
 36 lines in following concentration table = NCONC+1
    Conc.  %SD /Cr+PCr  Metabolite                                         
    3.049 999% 9.7E-03 Ala                                                 
   14.466 376% 4.6E-02 Asp                                                 
    0.000 999%   0.000 Cr                                                  
  314.263  10%   1.000 PCr                                                 
   33.018 102%   0.105 GABA                                                
   34.988  96%   0.111 Glc                                                 
  491.230  48%   1.563 Gln                                                 
  108.944 251%   0.347 Glu                                                 
    0.000 999%   0.000 GPC                                                 
   86.841  14%   0.276 PCh                                                 
    0.000 999%   0.000 GSH                                                 
   82.497 180%   0.263 Ins                                                 
    0.000 999%   0.000 Lac                                                 
  492.706   7%   1.568 NAA                                                 
    0.000 999%   0.000 NAAG                                                
   29.302  33% 9.3E-02 Scyllo                                              
  136.370  38%   0.434 Tau                                                 
  431.138  14%   1.372+-CrCH2                                              
   86.841  14%   0.276 GPC+PCh                                             
  492.706   7%   1.568 NAA+NAAG                                            
  314.263  10%   1.000 Cr+PCr                                              
  600.174  68%   1.910 Glu+Gln                                             
    0.000 999%   0.000 Lip13a                                              
    0.000 999%   0.000 Lip13b                                              
    0.000 999%   0.000 Lip09                                               
  115.080  41%   0.366 MM09                                                
    3.698 729% 1.2E-02 Lip20                                               
  186.557  48%   0.594 MM20                                                
   38.717  61%   0.123 MM12                                                
    0.000 999%   0.000 MM14                                                
  114.817  41%   0.365 MM17                                                
    0.000 999%   0.000 Lip13a+Lip13b                                       
   38.717  61%   0.123 MM14+Lip13a+Lip13b+MM12                             
  115.080  41%   0.366 MM09+Lip09                                          
  190.255  49%   0.605 MM20+Lip20                                          
   6 lines in following misc. output table
  FWHM = 0.092 ppm    S/N =   3                                            
  Data shift = 0.084 ppm                                                   
  Ph: -46 deg     -23.9 deg/ppm                                            
  alphaB,S = 9.2E-01,   4.1E+01                                            
   14 spline knots.   Ns = 6(2)                                            
  ( 7) 5 infls.   ( 5) 5 extrs.                                            
  498 points on ppm-axis = NY
      4.000000     3.992357     3.984714     3.977070     3.969427     3.961784     3.954141     3.946497     3.938854     3.931211
      3.923568     3.915925     3.908281     3.900638     3.892995     3.885352     3.877708     3.870065     3.862422     3.854779
      3.847136     3.839492     3.831849     3.824206     3.816563     3.808919     3.801276     3.793633     3.785990     3.778347
      3.770703     3.763060     3.755417     3.747774     3.740130     3.732487     3.724844     3.717201     3.709558     3.701914
      3.694271     3.686628     3.678985     3.671341     3.663698     3.656055     3.648412     3.640769     3.633125     3.625482
      3.617839     3.610196     3.602552     3.594909     3.587266     3.579623     3.571980     3.564336     3.556693     3.549050
      3.541407     3.533763     3.526120     3.518477     3.510834     3.503191     3.495547     3.487904     3.480261     3.472618
      3.464974     3.457331     3.449688     3.442045     3.434402     3.426758     3.419115     3.411472     3.403829     3.396185
      3.388542     3.380899     3.373256     3.365613     3.357969     3.350326     3.342683     3.335040     3.327396     3.319753
      3.312110     3.304467     3.296824     3.289180     3.281537     3.273894     3.266251     3.258607     3.250964     3.243321
      3.235678     3.228034     3.220391     3.212748     3.205105     3.197462     3.189818     3.182175     3.174532     3.166889
      3.159245     3.151602     3.143959     3.136316     3.128673     3.121029     3.113386     3.105743     3.098100     3.090456
      3.082813     3.075170     3.067527     3.059884     3.052240     3.044597     3.036954     3.029311     3.021667     3.014024
      3.006381     2.998738     2.991095     2.983451     2.975808     2.968165     2.960522     2.952878     2.945235     2.937592
      2.929949     2.922306     2.914662     2.907019     2.899376     2.891733     2.884089     2.876446     2.868803     2.861160
      2.853517     2.845873     2.838230     2.830587     2.822944     2.815300     2.807657     2.800014     2.792371     2.784728
      2.777084     2.769441     2.761798     2.754155     2.746511     2.738868     2.731225     2.723582     2.715939     2.708295
      2.700652     2.693009     2.685366     2.677722     2.670079     2.662436     2.654793     2.647150     2.639506     2.631863
      2.624220     2.616577     2.608933     2.601290     2.593647     2.586004     2.578361     2.570717     2.563074     2.555431
      2.547788     2.540144     2.532501     2.524858     2.517215     2.509572     2.501928     2.494285     2.486642     2.478999
      2.471355     2.463712     2.456069     2.448426     2.440783     2.433139     2.425496     2.417853     2.410210     2.402566
      2.394923     2.387280     2.379637     2.371994     2.364350     2.356707     2.349064     2.341421     2.333777     2.326134
      2.318491     2.310848     2.303205     2.295561     2.287918     2.280275     2.272632     2.264988     2.257345     2.249702
      2.242059     2.234416     2.226772     2.219129     2.211486     2.203843     2.196199     2.188556     2.180913     2.173270
      2.165627     2.157983     2.150340     2.142697     2.135054     2.127410     2.119767     2.112124     2.104481     2.096838
      2.089194     2.081551     2.073908     2.066265     2.058621     2.050978     2.043335     2.035692     2.028049     2.020405
      2.012762     2.005119     1.997476     1.989833     1.982190     1.974546     1.966903     1.959260     1.951617     1.943974
      1.936331     1.928688     1.921045     1.913402     1.905759     1.898115     1.890472     1.882829     1.875186     1.867543
      1.859900     1.852257     1.844614     1.836971     1.829327     1.821684     1.814041     1.806398     1.798755     1.791112
      1.783469     1.775826     1.768183     1.760540     1.752896     1.745253     1.737610     1.729967     1.722324     1.714681
      1.707038     1.699395     1.691752     1.684108     1.676465     1.668822     1.661179     1.653536     1.645893     1.638250
      1.630607     1.622964     1.615321     1.607677     1.600034     1.592391     1.584748     1.577105     1.569462     1.561819
      1.554176     1.546533     1.538890     1.531246     1.523603     1.515960     1.508317     1.500674     1.493031     1.485388
      1.477745     1.470102     1.462458     1.454815     1.447172     1.439529     1.431886     1.424243     1.416600     1.408957
      1.401314     1.393671     1.386027     1.378384     1.370741     1.363098     1.355455     1.347812     1.340169     1.332526
      1.324883     1.317240     1.309596     1.301953     1.294310     1.286667     1.279024     1.271381     1.263738     1.256095
      1.248452     1.240808     1.233165     1.225522     1.217879     1.210236     1.202593     1.194950     1.187307     1.179664
      1.172021     1.164377     1.156734     1.149091     1.141448     1.133805     1.126162     1.118519     1.110876     1.103233
      1.095590     1.087946     1.080303     1.072660     1.065017     1.057374     1.049731     1.042088     1.034445     1.026802
      1.019158     1.011515     1.003872     0.996229     0.988586     0.980943     0.973300     0.965657     0.958014     0.950371
      0.942727     0.935084     0.927441     0.919798     0.912155     0.904512     0.896869     0.889226     0.881583     0.873940
      0.866296     0.858653     0.851010     0.843367     0.835724     0.828081     0.820438     0.812795     0.805152     0.797508
      0.789865     0.782222     0.774579     0.766936     0.759293     0.751650     0.744007     0.736364     0.728721     0.721077
      0.713434     0.705791     0.698148     0.690505     0.682862     0.675219     0.667576     0.659933     0.652290     0.644646
      0.637003     0.629360     0.621717     0.614074     0.606431     0.598788     0.591145     0.583502     0.575858     0.568215
      0.560572     0.552929     0.545286     0.537643     0.530000     0.522357     0.514714     0.507071     0.499427     0.491784
      0.484141     0.476498     0.468855     0.461212     0.453569     0.445925     0.438282     0.430639     0.422996     0.415353
      0.407710     0.400067     0.392424     0.384780     0.377137     0.369494     0.361851     0.354208     0.346565     0.338922
      0.331278     0.323635     0.315992     0.308349     0.300706     0.293063     0.285420     0.277777     0.270133     0.262490
      0.254847     0.247204     0.239561     0.231918     0.224275     0.216631     0.208988     0.201345
 NY phased data points follow
  -2.28177E+01 -2.13993E+01 -2.21222E+01 -2.11141E+01 -2.00283E+01 -1.86539E+01 -1.96822E+01 -1.78720E+01 -1.87505E+01 -1.63438E+01
  -1.97593E+01 -1.85261E+01 -1.90204E+01 -1.86188E+01 -2.02984E+01 -1.68892E+01 -1.83974E+01 -1.80223E+01 -1.70676E+01 -1.66460E+01
  -1.73701E+01 -1.67241E+01 -1.90278E+01 -1.60336E+01 -1.81272E+01 -1.87289E+01 -1.86428E+01 -1.58518E+01 -1.57448E+01 -1.55338E+01
  -1.32876E+01 -1.48316E+01 -1.54482E+01 -1.40564E+01 -1.61720E+01 -1.26104E+01 -1.54934E+01 -1.41117E+01 -1.50302E+01 -1.35476E+01
  -1.47247E+01 -1.42241E+01 -1.11828E+01 -1.20326E+01 -1.43739E+01 -1.26001E+01 -1.28859E+01 -1.38996E+01 -1.24625E+01 -1.10726E+01
  -1.25043E+01 -1.18842E+01 -1.32638E+01 -1.18732E+01 -1.06816E+01 -1.28908E+01 -1.10150E+01 -1.20893E+01 -8.91021E+00 -1.22566E+01
  -1.14149E+01 -1.18848E+01 -9.47967E+00 -1.24800E+01 -1.00732E+01 -9.79838E+00 -1.14784E+01 -1.00542E+01 -9.44839E+00 -7.74860E+00
  -1.21710E+01 -8.82651E+00 -1.03355E+01 -8.48549E+00 -9.57243E+00 -9.20858E+00 -1.11912E+01 -8.67726E+00 -9.67801E+00 -6.85469E+00
  -9.82581E+00 -9.09796E+00 -8.95998E+00 -7.85975E+00 -9.26513E+00 -8.14981E+00 -7.46726E+00 -5.62175E+00 -8.03578E+00 -5.39239E+00
  -7.42864E+00 -2.77179E+00 -8.88316E+00 -6.86813E+00 -7.70740E+00 -7.78668E+00 -7.00877E+00 -3.82871E+00 -5.35772E+00 -5.37593E+00
  -1.19681E+00 -4.92978E+00 -3.33641E+00 -2.66038E+00 -4.11847E+00 -4.53054E+00 -2.30237E+00 -5.09370E+00 -6.29025E+00 -4.08888E+00
  -6.03297E+00 -5.67929E+00 -5.78955E+00 -4.37942E+00 -2.82636E+00 -1.88601E+00 -4.41204E+00 -5.93814E+00 -4.15736E+00 -3.78830E+00
  -4.49891E+00 -2.97890E+00 -2.29791E+00 -2.24131E+00  1.88422E-01 -1.55585E+00 -1.47286E+00 -1.29106E-01 -7.03506E-01  7.43859E-02
  -1.54631E+00 -2.62160E+00 -8.27052E-01 -4.27486E+00 -3.63914E+00 -3.85805E+00 -2.35066E+00 -5.30597E+00 -3.16563E+00 -3.58537E+00
  -4.90410E+00 -6.17463E+00 -2.23036E+00 -6.03963E+00 -4.11918E+00 -3.75241E+00 -5.06626E+00 -3.40457E+00 -2.14431E+00 -4.20549E+00
  -4.24931E+00 -4.94105E+00 -5.10336E+00 -4.40411E+00 -4.71523E+00 -3.86913E+00 -4.58613E+00 -4.14443E+00 -4.03057E+00 -4.34092E+00
  -1.42014E+00 -3.52232E+00 -5.27408E+00 -4.10759E+00 -4.03367E+00 -5.26270E+00 -5.35947E+00 -3.25817E+00 -4.31075E+00 -5.08048E+00
  -3.67405E+00 -3.11038E+00 -4.72304E+00 -6.99380E+00 -2.34292E+00 -3.15427E+00 -5.28612E+00 -3.35867E+00 -5.91207E+00 -2.54763E+00
  -2.53108E+00 -3.72351E+00 -5.09562E+00 -4.27732E+00 -4.07257E+00 -4.45317E+00 -5.83112E+00 -2.67010E+00 -4.82550E+00 -2.32984E+00
  -2.49897E+00 -3.24936E+00 -4.10200E+00 -1.82850E+00 -2.28924E+00 -2.05746E+00 -2.92942E+00 -2.43811E+00 -1.33997E+00 -2.22779E+00
  -2.13653E+00 -2.71572E+00 -1.80895E+00 -1.84101E+00 -7.02957E-01 -2.53711E+00 -3.37270E+00 -3.05092E+00 -3.87910E+00 -1.90432E+00
  -1.69592E+00  7.68933E-01 -5.95142E-01 -1.01661E+00  6.81330E-01  5.74614E-01  6.05515E-02 -1.69212E+00 -6.13389E-01 -3.03231E+00
  -2.10435E+00  5.27998E-01 -1.99229E+00 -2.11176E+00  3.87446E-02 -8.09871E-01 -1.10705E+00  1.07079E+00 -4.44219E-01  1.20503E+00
   2.29535E+00  1.86090E+00 -1.43190E+00 -2.65636E-01 -8.93045E-01 -1.02350E+00  2.86219E+00 -1.14629E+00 -1.07840E+00  2.44773E-01
  -5.97207E-01  3.40891E-01 -6.32177E-01 -1.06084E+00  1.90887E+00  1.00371E+00  1.84268E+00  1.40603E+00  2.11116E+00  3.60933E+00
   3.86735E+00  5.19410E+00  3.96390E+00  3.13387E+00  2.71742E+00  4.27454E+00  7.85610E+00  8.30794E+00  1.02232E+01  9.02440E+00
   9.61858E+00  8.84970E+00  7.82683E+00  7.05046E+00  8.29294E+00  6.08866E+00  6.33880E+00  7.80557E+00  3.82418E+00  2.90029E+00
   4.49181E+00  5.86456E+00  2.68313E+00  9.52875E-01  1.67269E-01  1.73057E+00  1.95765E+00  2.14557E+00  1.79945E+00  1.25422E+00
   2.59171E+00  2.14314E+00  4.06448E-01  2.97600E+00  1.47374E+00 -5.02385E-02  6.49150E-01  1.15906E+00  1.33704E+00  7.66610E-01
   3.95328E+00 -1.33953E-02 -1.68428E+00  1.10385E-01  8.49467E-01  3.77076E+00  3.58908E-01  1.00424E+00  2.59821E+00  7.68216E-01
   2.66730E+00  3.68092E+00  1.65921E+00  1.54053E+00  2.72773E+00  2.61481E+00  3.42333E+00  1.49040E+00  3.82825E+00  4.55908E+00
   1.79235E+00  2.56068E+00  2.13581E+00  3.04464E+00  1.30744E+00  3.95138E+00  2.64846E+00  2.44772E+00  3.06797E+00  2.29222E+00
   3.57954E+00  2.41302E+00  4.37554E-01  7.56756E-01  7.93569E-01  4.11813E+00  6.39404E-01  5.02991E+00  2.00999E+00  4.07657E-01
   2.34199E+00  2.93509E+00  2.58751E+00  2.72618E-01  9.98161E-01 -3.29214E-01  1.47207E+00  2.07316E+00  2.24058E+00 -1.12156E+00
  -8.37510E-02 -1.03221E+00  2.13292E+00  3.47083E+00  3.35687E+00  2.12030E+00  2.88894E+00  7.36438E-01  3.21108E+00 -6.14951E-01
   4.49115E-01  3.03407E+00  2.06014E+00  2.32328E+00  6.56273E-01  1.07948E+00  4.28433E+00 -6.91190E-02  3.74076E-01  2.32473E+00
   1.14633E+00  3.84863E+00  2.52262E+00  3.60354E+00  3.09208E+00  2.76321E+00  4.37688E+00  3.14803E+00  2.65813E+00  4.03881E+00
   4.02849E+00  3.34162E+00  3.45882E+00  3.69348E+00  2.51295E+00  3.75434E+00  2.59620E+00  2.12563E+00  2.35084E+00  1.24862E+00
   3.26864E+00  3.23161E+00  4.11703E+00  9.23082E-01  2.11259E+00  1.27909E+00  3.65652E+00  5.07548E+00  3.09391E+00  8.91844E-01
   2.88457E+00  3.90442E+00  2.16694E+00  2.47307E+00  4.66930E+00  3.89826E+00  3.56436E+00  4.28642E+00  1.18242E+00  4.42830E+00
   2.10987E+00  1.30151E+00  1.95856E+00  2.67499E+00  4.20989E+00  4.26068E+00  3.73538E+00  1.33006E+00  1.94721E+00  5.42473E+00
   3.72191E+00  3.51383E+00  3.66242E+00  3.74274E+00  3.17901E+00  3.91869E+00  1.72934E+00  2.69163E+00  2.39411E+00  1.37125E+00
   1.95393E+00  2.12210E+00  1.06461E+00  1.44105E+00  3.38546E+00  1.35236E+00  3.13223E+00  2.92533E+00  6.10590E-01  2.95782E+00
   2.04671E+00  2.72563E+00  4.72556E+00  3.38730E+00  1.17038E+00  3.20025E+00  3.41445E+00  2.71980E+00  1.85748E+00 -8.35288E-01
   1.17739E+00  9.64609E-01  4.10796E+00  1.48859E+00  2.36832E+00  1.40826E+00  2.72987E+00  4.30752E+00  4.61662E+00  3.78536E+00
   1.66789E+00  3.26285E+00  2.67512E+00  3.48064E+00  2.75398E+00  4.49269E+00  3.04061E+00  1.37371E+00  1.24309E+00  2.86059E+00
   4.25885E+00  3.12759E+00  1.06988E+00  3.13182E+00  3.38937E+00  4.22437E+00  3.08196E+00  3.67672E+00  4.24492E-01  3.39934E+00
   3.60056E+00  2.46009E-01 -2.22404E-01  3.86831E+00  4.18230E+00  3.54514E+00  1.85807E+00  2.82893E+00  4.28993E-01  3.73583E+00
   2.11537E+00  1.67920E+00  3.35759E+00  8.08864E-01  3.80761E+00  3.46532E+00  1.75538E+00  2.23122E+00  1.81469E+00  2.10637E+00
   3.09775E+00  1.71269E+00  4.55571E+00  4.07812E+00  3.38896E+00  3.08962E+00  3.91926E+00  3.01499E+00
 NY points of the fit to the data follow
  -1.90967E+01 -1.89302E+01 -1.86784E+01 -1.85798E+01 -1.82977E+01 -1.83326E+01 -1.89223E+01 -1.85016E+01 -1.95103E+01 -1.85537E+01
  -1.95732E+01 -1.83357E+01 -1.91932E+01 -1.79113E+01 -1.87321E+01 -1.75891E+01 -1.83171E+01 -1.72436E+01 -1.76310E+01 -1.66942E+01
  -1.73250E+01 -1.62881E+01 -1.68200E+01 -1.59761E+01 -1.60171E+01 -1.56815E+01 -1.58347E+01 -1.53968E+01 -1.52498E+01 -1.48656E+01
  -1.47252E+01 -1.45358E+01 -1.45202E+01 -1.44476E+01 -1.44711E+01 -1.42883E+01 -1.43347E+01 -1.41251E+01 -1.41514E+01 -1.39506E+01
  -1.38858E+01 -1.36183E+01 -1.34801E+01 -1.32756E+01 -1.32748E+01 -1.31452E+01 -1.32615E+01 -1.30936E+01 -1.30650E+01 -1.28251E+01
  -1.27609E+01 -1.25596E+01 -1.25300E+01 -1.24089E+01 -1.23758E+01 -1.22141E+01 -1.21666E+01 -1.19421E+01 -1.19284E+01 -1.17425E+01
  -1.17290E+01 -1.15735E+01 -1.15395E+01 -1.12682E+01 -1.12160E+01 -1.09694E+01 -1.09876E+01 -1.08013E+01 -1.08420E+01 -1.06173E+01
  -1.05864E+01 -1.03135E+01 -1.02440E+01 -1.00317E+01 -9.89413E+00 -9.65052E+00 -9.64546E+00 -9.45182E+00 -9.49019E+00 -9.29521E+00
  -9.25328E+00 -9.02637E+00 -8.91555E+00 -8.61051E+00 -8.61970E+00 -8.27616E+00 -8.34246E+00 -8.04943E+00 -8.21514E+00 -7.98911E+00
  -8.01870E+00 -7.11989E+00 -6.99761E+00 -6.48234E+00 -6.48441E+00 -6.23712E+00 -6.18751E+00 -5.61162E+00 -5.43463E+00 -4.42406E+00
  -4.22464E+00 -3.60339E+00 -3.48859E+00 -3.37404E+00 -3.46293E+00 -3.69066E+00 -3.85853E+00 -4.18223E+00 -4.32668E+00 -4.62018E+00
  -4.79653E+00 -5.07591E+00 -5.12326E+00 -4.92616E+00 -4.15697E+00 -4.11056E+00 -4.07057E+00 -4.34414E+00 -4.56301E+00 -4.32164E+00
  -4.02130E+00 -3.45391E+00 -2.55123E+00 -1.76566E+00 -1.35850E+00 -7.82963E-01 -1.06802E+00 -7.71582E-01 -1.43932E+00 -1.33450E+00
  -2.08941E+00 -2.07364E+00 -2.74052E+00 -2.75628E+00 -3.31858E+00 -3.27569E+00 -3.42592E+00 -3.36969E+00 -4.02105E+00 -4.20216E+00
  -4.95706E+00 -5.10918E+00 -5.12506E+00 -5.06840E+00 -5.04661E+00 -4.97536E+00 -4.93732E+00 -4.85997E+00 -4.83868E+00 -4.80245E+00
  -4.76859E+00 -4.71481E+00 -4.64221E+00 -4.54889E+00 -4.52344E+00 -4.46726E+00 -4.46963E+00 -4.46681E+00 -4.44344E+00 -4.41979E+00
  -4.37003E+00 -4.30123E+00 -4.28989E+00 -4.22979E+00 -4.28448E+00 -4.21332E+00 -4.22718E+00 -4.16009E+00 -4.17144E+00 -4.16132E+00
  -4.18229E+00 -4.18035E+00 -4.18182E+00 -4.12359E+00 -4.07904E+00 -4.02686E+00 -3.94216E+00 -3.94098E+00 -3.80890E+00 -3.79890E+00
  -3.63730E+00 -3.62612E+00 -3.51485E+00 -3.49869E+00 -3.39081E+00 -3.31632E+00 -3.22345E+00 -3.11000E+00 -2.98068E+00 -2.77515E+00
  -2.66201E+00 -2.44056E+00 -2.44460E+00 -2.16542E+00 -2.27899E+00 -2.03277E+00 -2.21153E+00 -2.07030E+00 -2.32071E+00 -1.86315E+00
  -1.93979E+00 -1.47023E+00 -1.57628E+00 -1.35181E+00 -1.66273E+00 -1.63988E+00 -2.18103E+00 -2.01960E+00 -2.39016E+00 -2.11455E+00
  -2.21715E+00 -1.82380E+00 -1.68402E+00 -1.33641E+00 -1.22171E+00 -1.01975E+00 -1.02851E+00 -9.37194E-01 -9.73197E-01 -9.46732E-01
  -9.63149E-01 -6.82432E-01 -4.99633E-01 -3.25563E-01 -2.47085E-01 -1.44619E-01 -1.93700E-01 -8.92458E-03 -2.06499E-02  1.68256E-01
  -1.77015E-02 -2.53500E-03 -2.69384E-01 -1.81251E-01 -3.24835E-01 -1.44849E-02 -3.52516E-02  3.08392E-01  2.52326E-01  4.25274E-01
   3.57248E-01  3.60703E-01  2.89856E-01  2.56162E-01  2.54265E-01  2.42211E-01  3.60782E-01  8.40759E-01  2.45061E+00  3.12554E+00
   3.96564E+00  4.19802E+00  4.23868E+00  4.33051E+00  4.98473E+00  5.47933E+00  7.23371E+00  7.93350E+00  8.98258E+00  9.23350E+00
   9.24725E+00  9.08405E+00  8.43467E+00  8.04499E+00  7.17268E+00  6.70688E+00  5.86233E+00  5.44463E+00  4.69963E+00  4.47107E+00
   4.37101E+00  4.12012E+00  3.20333E+00  2.71181E+00  1.53802E+00  1.24436E+00  1.16103E+00  1.14639E+00  1.11928E+00  1.12285E+00
   1.11324E+00  1.12778E+00  1.13043E+00  1.15923E+00  1.17574E+00  1.20872E+00  1.23020E+00  1.26647E+00  1.28658E+00  1.32718E+00
   1.35212E+00  1.39889E+00  1.43345E+00  1.49074E+00  1.53208E+00  1.59781E+00  1.64613E+00  1.71437E+00  1.76432E+00  1.83191E+00
   1.87979E+00  1.94351E+00  1.98704E+00  2.04345E+00  2.07733E+00  2.12319E+00  2.14571E+00  2.17744E+00  2.18646E+00  2.20354E+00
   2.19811E+00  2.20146E+00  2.18370E+00  2.17644E+00  2.15074E+00  2.13815E+00  2.10421E+00  2.08549E+00  2.04974E+00  2.03101E+00
   1.99878E+00  1.98494E+00  1.95698E+00  1.95277E+00  1.93049E+00  1.92842E+00  1.91008E+00  1.90964E+00  1.89544E+00  1.89997E+00
   1.89199E+00  1.90421E+00  1.90454E+00  1.92072E+00  1.92577E+00  1.94299E+00  1.95021E+00  1.96824E+00  1.97416E+00  1.99049E+00
   1.99759E+00  2.01519E+00  2.02515E+00  2.04590E+00  2.05546E+00  2.07816E+00  2.08963E+00  2.11140E+00  2.12202E+00  2.14269E+00
   2.15192E+00  2.17500E+00  2.18594E+00  2.20987E+00  2.22141E+00  2.24553E+00  2.25708E+00  2.28076E+00  2.29172E+00  2.31445E+00
   2.32433E+00  2.34560E+00  2.35390E+00  2.37327E+00  2.37967E+00  2.39700E+00  2.40147E+00  2.41680E+00  2.41950E+00  2.43314E+00
   2.43454E+00  2.44714E+00  2.44799E+00  2.46033E+00  2.46150E+00  2.47456E+00  2.47713E+00  2.49205E+00  2.49714E+00  2.51504E+00
   2.52377E+00  2.54581E+00  2.55938E+00  2.58667E+00  2.60606E+00  2.63945E+00  2.66537E+00  2.70541E+00  2.73811E+00  2.78465E+00
   2.82352E+00  2.87547E+00  2.91892E+00  2.97412E+00  3.01943E+00  3.07458E+00  3.11792E+00  3.16887E+00  3.20590E+00  3.24826E+00
   3.27470E+00  3.30449E+00  3.31692E+00  3.33148E+00  3.32813E+00  3.32666E+00  3.30771E+00  3.29139E+00  3.25896E+00  3.23076E+00
   3.18852E+00  3.15254E+00  3.10482E+00  3.06544E+00  3.01650E+00  2.97774E+00  2.93116E+00  2.89603E+00  2.85422E+00  2.82455E+00
   2.78880E+00  2.76536E+00  2.73598E+00  2.71865E+00  2.69517E+00  2.68329E+00  2.66493E+00  2.65763E+00  2.64345E+00  2.63975E+00
   2.62882E+00  2.62790E+00  2.61946E+00  2.62063E+00  2.61407E+00  2.61675E+00  2.61158E+00  2.61540E+00  2.61130E+00  2.61597E+00
   2.61266E+00  2.61794E+00  2.61526E+00  2.62103E+00  2.61886E+00  2.62501E+00  2.62322E+00  2.62965E+00  2.62821E+00  2.63488E+00
   2.63374E+00  2.64059E+00  2.63969E+00  2.64670E+00  2.64602E+00  2.65318E+00  2.65270E+00  2.65995E+00  2.65964E+00  2.66698E+00
   2.66683E+00  2.67426E+00  2.67425E+00  2.68173E+00  2.68184E+00  2.68938E+00  2.68963E+00  2.69721E+00  2.69757E+00  2.70517E+00
   2.70563E+00  2.71328E+00  2.71385E+00  2.72152E+00  2.72218E+00  2.72986E+00  2.73061E+00  2.73832E+00  2.73917E+00  2.74689E+00
   2.74780E+00  2.75553E+00  2.75654E+00  2.76430E+00  2.76539E+00  2.77315E+00  2.77431E+00  2.78208E+00  2.78334E+00  2.79114E+00
   2.79248E+00  2.80029E+00  2.80171E+00  2.80956E+00  2.81109E+00  2.81898E+00  2.82062E+00  2.82855E+00
 NY background values follow
    -1.889E+01   -1.878E+01   -1.866E+01   -1.855E+01   -1.844E+01   -1.833E+01   -1.821E+01   -1.810E+01   -1.799E+01   -1.787E+01
    -1.776E+01   -1.765E+01   -1.754E+01   -1.742E+01   -1.731E+01   -1.720E+01   -1.708E+01   -1.697E+01   -1.686E+01   -1.675E+01
    -1.664E+01   -1.652E+01   -1.641E+01   -1.630E+01   -1.619E+01   -1.608E+01   -1.596E+01   -1.585E+01   -1.574E+01   -1.563E+01
    -1.552E+01   -1.541E+01   -1.530E+01   -1.519E+01   -1.508E+01   -1.497E+01   -1.486E+01   -1.475E+01   -1.464E+01   -1.453E+01
    -1.442E+01   -1.431E+01   -1.420E+01   -1.409E+01   -1.398E+01   -1.388E+01   -1.377E+01   -1.366E+01   -1.355E+01   -1.345E+01
    -1.334E+01   -1.323E+01   -1.313E+01   -1.302E+01   -1.292E+01   -1.281E+01   -1.271E+01   -1.260E+01   -1.250E+01   -1.240E+01
    -1.229E+01   -1.219E+01   -1.209E+01   -1.198E+01   -1.188E+01   -1.178E+01   -1.168E+01   -1.158E+01   -1.148E+01   -1.138E+01
    -1.128E+01   -1.118E+01   -1.108E+01   -1.098E+01   -1.088E+01   -1.079E+01   -1.069E+01   -1.059E+01   -1.049E+01   -1.040E+01
    -1.030E+01   -1.021E+01   -1.011E+01   -1.002E+01   -9.923E+00   -9.830E+00   -9.736E+00   -9.644E+00   -9.551E+00   -9.460E+00
    -9.368E+00   -9.278E+00   -9.187E+00   -9.097E+00   -9.008E+00   -8.919E+00   -8.830E+00   -8.742E+00   -8.655E+00   -8.568E+00
    -8.481E+00   -8.395E+00   -8.310E+00   -8.224E+00   -8.140E+00   -8.055E+00   -7.972E+00   -7.888E+00   -7.806E+00   -7.723E+00
    -7.641E+00   -7.560E+00   -7.479E+00   -7.399E+00   -7.319E+00   -7.239E+00   -7.160E+00   -7.081E+00   -7.003E+00   -6.926E+00
    -6.849E+00   -6.772E+00   -6.696E+00   -6.620E+00   -6.544E+00   -6.470E+00   -6.395E+00   -6.321E+00   -6.248E+00   -6.175E+00
    -6.102E+00   -6.030E+00   -5.959E+00   -5.888E+00   -5.817E+00   -5.747E+00   -5.677E+00   -5.608E+00   -5.539E+00   -5.470E+00
    -5.403E+00   -5.335E+00   -5.268E+00   -5.201E+00   -5.135E+00   -5.070E+00   -5.004E+00   -4.940E+00   -4.875E+00   -4.811E+00
    -4.748E+00   -4.684E+00   -4.622E+00   -4.559E+00   -4.497E+00   -4.436E+00   -4.375E+00   -4.314E+00   -4.254E+00   -4.194E+00
    -4.134E+00   -4.075E+00   -4.016E+00   -3.958E+00   -3.900E+00   -3.842E+00   -3.785E+00   -3.728E+00   -3.671E+00   -3.615E+00
    -3.559E+00   -3.504E+00   -3.448E+00   -3.394E+00   -3.339E+00   -3.285E+00   -3.231E+00   -3.178E+00   -3.124E+00   -3.072E+00
    -3.019E+00   -2.967E+00   -2.915E+00   -2.863E+00   -2.812E+00   -2.761E+00   -2.710E+00   -2.660E+00   -2.610E+00   -2.560E+00
    -2.511E+00   -2.462E+00   -2.413E+00   -2.365E+00   -2.316E+00   -2.269E+00   -2.221E+00   -2.174E+00   -2.127E+00   -2.080E+00
    -2.034E+00   -1.987E+00   -1.942E+00   -1.896E+00   -1.851E+00   -1.806E+00   -1.761E+00   -1.717E+00   -1.673E+00   -1.629E+00
    -1.586E+00   -1.542E+00   -1.499E+00   -1.457E+00   -1.414E+00   -1.372E+00   -1.330E+00   -1.289E+00   -1.248E+00   -1.207E+00
    -1.166E+00   -1.126E+00   -1.085E+00   -1.046E+00   -1.006E+00   -9.666E-01   -9.275E-01   -8.887E-01   -8.501E-01   -8.119E-01
    -7.739E-01   -7.361E-01   -6.987E-01   -6.614E-01   -6.245E-01   -5.878E-01   -5.514E-01   -5.153E-01   -4.794E-01   -4.438E-01
    -4.085E-01   -3.734E-01   -3.386E-01   -3.041E-01   -2.698E-01   -2.358E-01   -2.020E-01   -1.685E-01   -1.353E-01   -1.023E-01
    -6.965E-02   -3.722E-02   -5.052E-03    2.685E-02    5.849E-02    8.987E-02    1.210E-01    1.518E-01    1.824E-01    2.128E-01
     2.428E-01    2.726E-01    3.022E-01    3.315E-01    3.605E-01    3.892E-01    4.177E-01    4.460E-01    4.739E-01    5.017E-01
     5.291E-01    5.563E-01    5.832E-01    6.099E-01    6.363E-01    6.625E-01    6.884E-01    7.141E-01    7.395E-01    7.646E-01
     7.895E-01    8.142E-01    8.386E-01    8.627E-01    8.867E-01    9.103E-01    9.338E-01    9.570E-01    9.799E-01    1.003E+00
     1.025E+00    1.047E+00    1.069E+00    1.091E+00    1.113E+00    1.134E+00    1.155E+00    1.176E+00    1.197E+00    1.217E+00
     1.237E+00    1.257E+00    1.277E+00    1.296E+00    1.316E+00    1.335E+00    1.354E+00    1.372E+00    1.391E+00    1.409E+00
     1.427E+00    1.445E+00    1.462E+00    1.480E+00    1.497E+00    1.514E+00    1.531E+00    1.547E+00    1.564E+00    1.580E+00
     1.596E+00    1.612E+00    1.627E+00    1.642E+00    1.658E+00    1.673E+00    1.688E+00    1.702E+00    1.717E+00    1.731E+00
     1.745E+00    1.759E+00    1.773E+00    1.786E+00    1.800E+00    1.813E+00    1.826E+00    1.839E+00    1.851E+00    1.864E+00
     1.876E+00    1.888E+00    1.900E+00    1.912E+00    1.924E+00    1.935E+00    1.947E+00    1.958E+00    1.969E+00    1.980E+00
     1.991E+00    2.001E+00    2.012E+00    2.022E+00    2.032E+00    2.042E+00    2.052E+00    2.062E+00    2.072E+00    2.081E+00
     2.090E+00    2.100E+00    2.109E+00    2.118E+00    2.127E+00    2.135E+00    2.144E+00    2.152E+00    2.160E+00    2.169E+00
     2.177E+00    2.185E+00    2.193E+00    2.200E+00    2.208E+00    2.215E+00    2.223E+00    2.230E+00    2.237E+00    2.244E+00
     2.251E+00    2.258E+00    2.265E+00    2.272E+00    2.278E+00    2.285E+00    2.291E+00    2.298E+00    2.304E+00    2.310E+00
     2.316E+00    2.322E+00    2.328E+00    2.334E+00    2.340E+00    2.346E+00    2.352E+00    2.357E+00    2.363E+00    2.368E+00
     2.374E+00    2.379E+00    2.384E+00    2.390E+00    2.395E+00    2.400E+00    2.405E+00    2.410E+00    2.415E+00    2.420E+00
     2.425E+00    2.430E+00    2.435E+00    2.440E+00    2.445E+00    2.449E+00    2.454E+00    2.459E+00    2.464E+00    2.468E+00
     2.473E+00    2.477E+00    2.482E+00    2.486E+00    2.491E+00    2.495E+00    2.500E+00    2.504E+00    2.509E+00    2.513E+00
     2.518E+00    2.522E+00    2.526E+00    2.531E+00    2.535E+00    2.539E+00    2.544E+00    2.548E+00    2.552E+00    2.556E+00
     2.561E+00    2.565E+00    2.569E+00    2.574E+00    2.578E+00    2.582E+00    2.587E+00    2.591E+00    2.595E+00    2.600E+00
     2.604E+00    2.608E+00    2.613E+00    2.617E+00    2.621E+00    2.626E+00    2.630E+00    2.634E+00    2.639E+00    2.643E+00
     2.648E+00    2.652E+00    2.657E+00    2.661E+00    2.666E+00    2.670E+00    2.675E+00    2.679E+00    2.684E+00    2.688E+00
     2.693E+00    2.697E+00    2.702E+00    2.707E+00    2.711E+00    2.716E+00    2.720E+00    2.725E+00    2.730E+00    2.734E+00
     2.739E+00    2.743E+00    2.748E+00    2.753E+00    2.757E+00    2.762E+00    2.767E+00    2.771E+00    2.776E+00    2.781E+00
     2.785E+00    2.790E+00    2.795E+00    2.800E+00    2.804E+00    2.809E+00    2.814E+00    2.818E+00
 Ala      Conc. = 3.05E+00
