 LCModel (Version 6.3-1L) Copyright: S.W. Provencher.          Ref.: Magn. Reson. Med. 30:672-679 (1993).                
 Slice#3 Row#10 Col#4  PD_05_press_1_raw_act
 36 lines in following concentration table = NCONC+1
    Conc.  %SD /Cr+PCr  Metabolite                                         
    0.000 999%   0.000 Ala                                                 
    0.000 999%   0.000 Asp                                                 
  331.410  32%   0.560 Cr                                                  
  260.136  41%   0.440 PCr                                                 
   33.265 189% 5.6E-02 GABA                                                
    0.000 999%   0.000 Glc                                                 
  236.788  49%   0.400 Gln                                                 
  671.946  20%   1.136 Glu                                                 
  162.612   6%   0.275 GPC                                                 
    0.000 999%   0.000 PCh                                                 
  189.352  18%   0.320 GSH                                                 
  172.215  74%   0.291 Ins                                                 
    0.000 999%   0.000 Lac                                                 
  893.108   8%   1.510 NAA                                                 
  240.314  29%   0.406 NAAG                                                
   23.395  53% 4.0E-02 Scyllo                                              
    0.000 999%   0.000 Tau                                                 
    0.000 999%   0.000 -CrCH2                                              
  162.612   6%   0.275 GPC+PCh                                             
 1.13E+03   4%   1.916 NAA+NAAG                                            
  591.546   5%   1.000 Cr+PCr                                              
  908.734  22%   1.536 Glu+Gln                                             
    0.000 999%   0.000 Lip13a                                              
    0.000 999%   0.000 Lip13b                                              
    0.000 999%   0.000 Lip09                                               
  682.412  14%   1.154 MM09                                                
 5.15E-03 999% 8.7E-06 Lip20                                               
 1.80E+03  10%   3.048 MM20                                                
   67.444  94%   0.114 MM12                                                
    0.000 999%   0.000 MM14                                                
  623.370  20%   1.054 MM17                                                
    0.000 999%   0.000 Lip13a+Lip13b                                       
   67.444  94%   0.114 MM14+Lip13a+Lip13b+MM12                             
  682.412  14%   1.154 MM09+Lip09                                          
 1.80E+03  10%   3.048 MM20+Lip20                                          
   6 lines in following misc. output table
  FWHM = 0.054 ppm    S/N =  12                                            
  Data shift =-0.015 ppm                                                   
  Ph:   6 deg      -1.8 deg/ppm                                            
  alphaB,S = 3.9E-01,   5.0E+01                                            
   14 spline knots.   Ns = 8(1)                                            
  (14) 3 infls.   (13) 1 extrs.                                            
  498 points on ppm-axis = NY
      4.000000     3.992357     3.984714     3.977070     3.969427     3.961784     3.954141     3.946497     3.938854     3.931211
      3.923568     3.915925     3.908281     3.900638     3.892995     3.885352     3.877708     3.870065     3.862422     3.854779
      3.847136     3.839492     3.831849     3.824206     3.816563     3.808919     3.801276     3.793633     3.785990     3.778347
      3.770703     3.763060     3.755417     3.747774     3.740130     3.732487     3.724844     3.717201     3.709558     3.701914
      3.694271     3.686628     3.678985     3.671341     3.663698     3.656055     3.648412     3.640769     3.633125     3.625482
      3.617839     3.610196     3.602552     3.594909     3.587266     3.579623     3.571980     3.564336     3.556693     3.549050
      3.541407     3.533763     3.526120     3.518477     3.510834     3.503191     3.495547     3.487904     3.480261     3.472618
      3.464974     3.457331     3.449688     3.442045     3.434402     3.426758     3.419115     3.411472     3.403829     3.396185
      3.388542     3.380899     3.373256     3.365613     3.357969     3.350326     3.342683     3.335040     3.327396     3.319753
      3.312110     3.304467     3.296824     3.289180     3.281537     3.273894     3.266251     3.258607     3.250964     3.243321
      3.235678     3.228034     3.220391     3.212748     3.205105     3.197462     3.189818     3.182175     3.174532     3.166889
      3.159245     3.151602     3.143959     3.136316     3.128673     3.121029     3.113386     3.105743     3.098100     3.090456
      3.082813     3.075170     3.067527     3.059884     3.052240     3.044597     3.036954     3.029311     3.021667     3.014024
      3.006381     2.998738     2.991095     2.983451     2.975808     2.968165     2.960522     2.952878     2.945235     2.937592
      2.929949     2.922306     2.914662     2.907019     2.899376     2.891733     2.884089     2.876446     2.868803     2.861160
      2.853517     2.845873     2.838230     2.830587     2.822944     2.815300     2.807657     2.800014     2.792371     2.784728
      2.777084     2.769441     2.761798     2.754155     2.746511     2.738868     2.731225     2.723582     2.715939     2.708295
      2.700652     2.693009     2.685366     2.677722     2.670079     2.662436     2.654793     2.647150     2.639506     2.631863
      2.624220     2.616577     2.608933     2.601290     2.593647     2.586004     2.578361     2.570717     2.563074     2.555431
      2.547788     2.540144     2.532501     2.524858     2.517215     2.509572     2.501928     2.494285     2.486642     2.478999
      2.471355     2.463712     2.456069     2.448426     2.440783     2.433139     2.425496     2.417853     2.410210     2.402566
      2.394923     2.387280     2.379637     2.371994     2.364350     2.356707     2.349064     2.341421     2.333777     2.326134
      2.318491     2.310848     2.303205     2.295561     2.287918     2.280275     2.272632     2.264988     2.257345     2.249702
      2.242059     2.234416     2.226772     2.219129     2.211486     2.203843     2.196199     2.188556     2.180913     2.173270
      2.165627     2.157983     2.150340     2.142697     2.135054     2.127410     2.119767     2.112124     2.104481     2.096838
      2.089194     2.081551     2.073908     2.066265     2.058621     2.050978     2.043335     2.035692     2.028049     2.020405
      2.012762     2.005119     1.997476     1.989833     1.982190     1.974546     1.966903     1.959260     1.951617     1.943974
      1.936331     1.928688     1.921045     1.913402     1.905759     1.898115     1.890472     1.882829     1.875186     1.867543
      1.859900     1.852257     1.844614     1.836971     1.829327     1.821684     1.814041     1.806398     1.798755     1.791112
      1.783469     1.775826     1.768183     1.760540     1.752896     1.745253     1.737610     1.729967     1.722324     1.714681
      1.707038     1.699395     1.691752     1.684108     1.676465     1.668822     1.661179     1.653536     1.645893     1.638250
      1.630607     1.622964     1.615321     1.607677     1.600034     1.592391     1.584748     1.577105     1.569462     1.561819
      1.554176     1.546533     1.538890     1.531246     1.523603     1.515960     1.508317     1.500674     1.493031     1.485388
      1.477745     1.470102     1.462458     1.454815     1.447172     1.439529     1.431886     1.424243     1.416600     1.408957
      1.401314     1.393671     1.386027     1.378384     1.370741     1.363098     1.355455     1.347812     1.340169     1.332526
      1.324883     1.317240     1.309596     1.301953     1.294310     1.286667     1.279024     1.271381     1.263738     1.256095
      1.248452     1.240808     1.233165     1.225522     1.217879     1.210236     1.202593     1.194950     1.187307     1.179664
      1.172021     1.164377     1.156734     1.149091     1.141448     1.133805     1.126162     1.118519     1.110876     1.103233
      1.095590     1.087946     1.080303     1.072660     1.065017     1.057374     1.049731     1.042088     1.034445     1.026802
      1.019158     1.011515     1.003872     0.996229     0.988586     0.980943     0.973300     0.965657     0.958014     0.950371
      0.942727     0.935084     0.927441     0.919798     0.912155     0.904512     0.896869     0.889226     0.881583     0.873940
      0.866296     0.858653     0.851010     0.843367     0.835724     0.828081     0.820438     0.812795     0.805152     0.797508
      0.789865     0.782222     0.774579     0.766936     0.759293     0.751650     0.744007     0.736364     0.728721     0.721077
      0.713434     0.705791     0.698148     0.690505     0.682862     0.675219     0.667576     0.659933     0.652290     0.644646
      0.637003     0.629360     0.621717     0.614074     0.606431     0.598788     0.591145     0.583502     0.575858     0.568215
      0.560572     0.552929     0.545286     0.537643     0.530000     0.522357     0.514714     0.507071     0.499427     0.491784
      0.484141     0.476498     0.468855     0.461212     0.453569     0.445925     0.438282     0.430639     0.422996     0.415353
      0.407710     0.400067     0.392424     0.384780     0.377137     0.369494     0.361851     0.354208     0.346565     0.338922
      0.331278     0.323635     0.315992     0.308349     0.300706     0.293063     0.285420     0.277777     0.270133     0.262490
      0.254847     0.247204     0.239561     0.231918     0.224275     0.216631     0.208988     0.201345
 NY phased data points follow
   4.34683E+00  1.38600E+00  6.52964E+00  5.54060E+00  7.27812E+00  7.75887E+00  1.19769E+01  1.24813E+01  1.56643E+01  1.54055E+01
   1.59001E+01  1.52654E+01  1.49195E+01  1.26045E+01  1.14809E+01  8.76120E+00  8.60339E+00  6.41916E+00  7.20510E+00  6.74032E+00
   3.46476E+00  4.49740E+00  8.45893E+00  7.37988E+00  8.86181E+00  5.95340E+00  7.53918E+00  7.28284E+00  6.98262E+00  7.80781E+00
   7.47629E+00  7.29120E+00  8.70906E+00  6.03145E+00  7.31343E+00  5.09559E+00  4.37226E+00  4.64343E+00  4.17033E+00  6.15499E+00
   8.15746E+00  5.03032E+00  5.00022E+00  4.38931E+00  5.68083E+00  7.24097E+00  7.26751E+00  7.08978E+00  7.33789E+00  7.44674E+00
   7.26892E+00  7.42584E+00  5.28773E+00  4.61598E+00  3.84086E+00  2.40482E+00  6.00776E+00  2.54153E+00  5.51316E+00  2.90950E+00
   1.89907E+00  1.66459E+00  5.18577E+00  1.66982E+00  2.89668E+00  1.36568E+00  1.24318E+00  6.75587E-02  2.90209E+00  4.91690E+00
   3.44826E+00  3.25339E+00  2.46140E+00  1.37278E+00  5.45366E+00  5.47204E+00  4.42831E+00  1.66201E+00  5.80686E+00  1.50833E+00
   3.49855E+00  2.25231E+00  5.53223E+00  2.74069E+00  2.92857E+00  5.70185E+00  4.79118E+00  4.99424E+00  6.65601E+00  4.30170E+00
   3.56862E+00  4.93109E+00  6.27530E+00  6.39721E+00  5.85944E+00  6.33877E+00  7.57939E+00  7.38546E+00  8.51628E+00  1.03962E+01
   1.38382E+01  1.35916E+01  1.57456E+01  1.77802E+01  1.82958E+01  1.60623E+01  1.65998E+01  1.09106E+01  1.11791E+01  6.08129E+00
   6.50076E+00  6.62516E+00  6.08997E+00  6.51590E+00  3.67293E+00  4.27336E+00  7.09731E+00  6.52761E+00  8.31368E+00  9.85126E+00
   9.18930E+00  1.24342E+01  1.24571E+01  1.43486E+01  1.78252E+01  1.76492E+01  2.31851E+01  2.26839E+01  2.40634E+01  2.11500E+01
   2.00896E+01  1.44122E+01  1.21650E+01  8.32849E+00  8.52596E+00  7.00248E+00  6.33340E+00  6.37084E+00  5.67526E+00  8.53965E+00
   6.95503E+00  6.50570E+00  6.51131E+00  5.94373E+00  6.47467E+00  5.50043E+00  5.51698E+00  7.27824E+00  6.62263E+00  3.94447E+00
   5.10621E+00  4.90938E+00  5.61395E+00  5.45303E+00  4.98727E+00  6.08589E+00  4.96456E+00  4.86850E+00  7.14322E+00  4.03409E+00
   4.69947E+00  4.36783E+00  4.66313E+00  5.64831E+00  6.35518E+00  5.19822E+00  7.80633E+00  4.58312E+00  5.94767E+00  3.31207E+00
   3.60383E+00  2.86607E+00  1.60275E+00  9.67217E-01  1.69821E+00  1.62137E+00  1.34713E+00  1.93406E+00  1.22013E+00  3.38519E+00
   2.33404E+00  1.82999E+00  3.90619E+00  2.89717E+00  4.18138E+00  4.97528E+00  3.34108E+00  4.06923E+00  5.86564E+00  5.14461E+00
   8.05746E+00  7.32984E+00  9.08294E+00  7.42965E+00  7.47797E+00  8.07978E+00  7.19497E+00  4.79328E+00  6.01768E+00  4.33541E+00
   7.09523E+00  6.12453E+00  7.32908E+00  6.22857E+00  5.62342E+00  5.47530E+00  6.04978E+00  6.60758E+00  5.00110E+00  4.66949E+00
   4.45337E+00  4.64193E+00  6.24109E+00  6.57104E+00  8.52090E+00  8.88700E+00  8.31360E+00  6.90841E+00  1.00710E+01  6.97632E+00
   6.19029E+00  3.92775E+00  4.91478E+00  4.50980E+00  5.28137E+00  6.81286E+00  7.16406E+00  7.58384E+00  1.05574E+01  7.90078E+00
   7.86621E+00  9.63796E+00  8.75972E+00  8.27748E+00  8.95713E+00  7.56123E+00  9.78781E+00  7.42858E+00  8.48670E+00  1.05280E+01
   7.99803E+00  9.25244E+00  7.85091E+00  7.99046E+00  9.98597E+00  8.91744E+00  1.11931E+01  1.05036E+01  1.16878E+01  1.38939E+01
   1.33217E+01  1.73305E+01  1.96359E+01  2.08675E+01  2.39693E+01  2.60991E+01  2.77484E+01  3.20797E+01  3.50382E+01  3.77820E+01
   3.88293E+01  3.89664E+01  3.62445E+01  2.97432E+01  2.70475E+01  1.83293E+01  1.24502E+01  1.09245E+01  9.40407E+00  8.71437E+00
   6.43598E+00  7.14175E+00  9.47909E+00  8.64403E+00  8.70576E+00  6.98159E+00  8.43058E+00  7.12941E+00  6.47087E+00  5.60253E+00
   6.16380E+00  7.06793E+00  5.85156E+00  4.67665E+00  6.48678E+00  5.68610E+00  5.40828E+00  5.70409E+00  4.65631E+00  2.21311E+00
   2.76393E+00  4.24786E+00  2.80198E+00  5.02157E+00  4.15008E+00  3.14233E+00  4.47067E+00  3.38028E+00  2.79985E+00  2.58807E+00
   2.58699E+00  3.01689E+00  3.59117E+00  2.81131E+00  2.86825E+00  6.78932E-02  1.47107E+00  2.04376E+00  1.54466E+00  2.01758E+00
   2.46473E+00  1.95030E+00  2.22181E+00  1.85840E+00 -7.20809E-01  6.02280E-02 -6.32510E-01 -6.07224E-01 -2.92460E+00 -8.28671E-01
  -9.11812E-01 -2.90344E+00 -5.36371E-01 -2.54082E+00  1.88614E-01 -2.84916E+00 -3.51286E+00 -4.17855E+00 -5.45086E+00 -1.74395E+00
  -1.69948E+00 -4.09483E+00 -3.27276E+00 -4.67555E+00 -5.36663E+00 -5.31572E+00 -5.15341E+00 -6.95536E+00 -7.51348E+00 -4.48703E+00
  -4.68273E+00 -6.60718E+00 -4.65552E+00 -3.56235E+00 -6.40762E+00 -7.37081E+00 -3.80007E+00 -6.33313E+00 -6.20378E+00 -7.25420E+00
  -6.23523E+00 -4.56356E+00 -4.92236E+00 -7.08745E+00 -5.34475E+00 -6.04953E+00 -5.24289E+00 -5.08432E+00 -6.51693E+00 -4.69980E+00
  -5.89869E+00 -6.48588E+00 -6.67455E+00 -8.82996E+00 -4.32980E+00 -5.43108E+00 -9.16500E+00 -6.87803E+00 -7.31822E+00 -4.93271E+00
  -4.86688E+00 -7.71135E+00 -7.23190E+00 -7.24309E+00 -6.96108E+00 -4.71352E+00 -5.87938E+00 -5.24082E+00 -5.60318E+00 -5.46558E+00
  -5.22894E+00 -3.62023E+00 -7.28344E+00 -5.68589E+00 -4.68577E+00 -2.22451E+00 -4.33761E+00 -1.80284E+00 -3.75669E+00 -2.85639E+00
  -2.74579E+00 -7.38023E-01 -2.13334E+00 -2.57156E+00 -3.18908E+00 -3.30416E+00 -6.57985E-01 -4.06387E+00 -4.59622E+00  2.35740E-02
  -1.41845E+00 -1.74062E+00  2.59326E-01 -2.28615E+00 -2.06223E+00 -1.57576E+00 -2.12368E+00 -1.24603E+00 -4.35513E+00 -2.24920E+00
  -1.29173E+00 -2.41588E+00 -2.40496E+00 -1.95300E+00 -2.70411E+00 -1.66135E+00 -3.18564E+00 -2.27498E+00 -1.92030E+00 -3.82305E+00
  -5.43608E-01 -3.08574E+00 -2.61165E+00 -4.68612E+00 -3.37564E+00 -1.66410E+00 -2.89090E+00 -4.83636E+00 -2.77145E+00 -1.03255E+00
  -2.70346E+00 -1.96674E+00 -2.56741E+00 -2.69903E+00 -3.63456E+00 -2.97989E+00 -2.96648E+00 -3.12741E+00 -2.31862E+00 -1.97116E+00
  -5.17979E+00 -1.86970E+00 -1.59939E+00 -2.19482E+00 -2.87007E+00 -5.01297E+00 -1.07006E+00 -2.04573E+00 -1.32288E+00 -3.71181E-01
  -5.07971E-01 -4.42650E+00 -1.88531E+00 -2.95453E+00 -2.50459E+00 -3.78637E+00 -3.18108E+00 -2.28293E+00 -2.40948E+00 -1.82743E+00
  -3.25079E+00 -3.83387E+00 -2.64727E+00  1.91924E-01 -2.90942E+00 -4.63340E+00 -2.62354E+00 -3.53017E+00 -3.45630E+00 -2.31515E+00
  -3.50949E-01 -1.64260E+00 -4.53623E+00 -9.65071E-01 -1.35157E+00 -2.36174E+00 -3.14808E+00 -1.69111E+00 -1.87948E+00 -2.28218E+00
  -1.77667E+00 -2.22585E+00 -3.53659E+00 -4.36054E+00 -1.21821E+00 -1.45199E+00 -5.10557E-01 -1.57011E+00 -3.72677E-02 -2.60196E+00
  -3.65783E+00 -2.64369E+00 -2.96756E+00 -2.67583E+00 -2.39675E+00 -2.07367E+00 -2.60664E+00 -9.30770E-01
 NY points of the fit to the data follow
   4.60871E+00  5.28933E+00  6.05771E+00  7.13153E+00  8.22665E+00  9.25070E+00  1.04523E+01  1.19187E+01  1.35278E+01  1.49065E+01
   1.57387E+01  1.57632E+01  1.48902E+01  1.32154E+01  1.11207E+01  9.08134E+00  7.44566E+00  6.37648E+00  5.84178E+00  5.54830E+00
   5.22105E+00  5.20091E+00  5.49969E+00  5.64623E+00  5.78904E+00  6.03525E+00  6.41593E+00  6.83812E+00  7.29941E+00  7.84006E+00
   8.27918E+00  8.51003E+00  8.50445E+00  8.08837E+00  7.22090E+00  6.19150E+00  5.34393E+00  4.73274E+00  4.35737E+00  4.36092E+00
   4.66358E+00  5.02030E+00  5.34241E+00  5.59620E+00  5.74763E+00  5.79992E+00  5.81860E+00  5.82870E+00  5.75592E+00  5.58367E+00
   5.34790E+00  5.06332E+00  4.76310E+00  4.52508E+00  4.38834E+00  4.30103E+00  4.23987E+00  4.21610E+00  4.22271E+00  4.23737E+00
   4.23522E+00  4.20455E+00  4.14025E+00  4.04956E+00  3.95395E+00  3.86497E+00  3.81009E+00  3.80395E+00  3.84029E+00  3.90018E+00
   3.95965E+00  4.00555E+00  4.02946E+00  4.02892E+00  4.00960E+00  3.98014E+00  3.94886E+00  3.93670E+00  4.01414E+00  4.14684E+00
   4.20510E+00  4.23326E+00  4.30545E+00  4.43488E+00  4.58557E+00  4.72622E+00  4.83003E+00  4.84726E+00  4.76581E+00  4.60303E+00
   4.39234E+00  4.19063E+00  4.08895E+00  4.17312E+00  4.61776E+00  6.05059E+00  7.63060E+00  8.49372E+00  9.25191E+00  1.04953E+01
   1.23074E+01  1.43491E+01  1.63282E+01  1.77936E+01  1.81867E+01  1.72655E+01  1.52094E+01  1.23834E+01  9.36518E+00  7.08110E+00
   6.03532E+00  5.66454E+00  5.35095E+00  5.16952E+00  5.16791E+00  5.22811E+00  5.34201E+00  5.58474E+00  6.46714E+00  8.60519E+00
   1.02967E+01  1.13048E+01  1.25213E+01  1.44821E+01  1.70549E+01  1.97844E+01  2.22311E+01  2.36514E+01  2.35649E+01  2.18891E+01
   1.89649E+01  1.52928E+01  1.16954E+01  9.27455E+00  8.15284E+00  7.40575E+00  6.68017E+00  6.25902E+00  6.13911E+00  6.23935E+00
   6.49107E+00  6.74457E+00  6.88197E+00  6.88249E+00  6.76072E+00  6.55601E+00  6.32036E+00  6.10698E+00  5.96178E+00  5.85787E+00
   5.76268E+00  5.67568E+00  5.55641E+00  5.37243E+00  5.22924E+00  5.17373E+00  5.18459E+00  5.21986E+00  5.16467E+00  5.03428E+00
   4.87564E+00  4.72285E+00  4.60127E+00  4.55119E+00  4.56832E+00  4.59010E+00  4.54573E+00  4.35750E+00  4.03152E+00  3.74632E+00
   3.61780E+00  3.57679E+00  3.53102E+00  3.39461E+00  3.25545E+00  3.17956E+00  3.16056E+00  3.16588E+00  3.19728E+00  3.23670E+00
   3.35716E+00  3.54425E+00  3.71084E+00  3.86017E+00  4.07712E+00  4.37684E+00  4.71394E+00  5.10077E+00  5.51958E+00  5.94092E+00
   6.29905E+00  6.58622E+00  6.70490E+00  6.59098E+00  6.30583E+00  6.03070E+00  5.89827E+00  5.91011E+00  6.08705E+00  6.37650E+00
   6.73429E+00  7.05305E+00  7.21114E+00  7.31942E+00  7.27233E+00  6.92929E+00  6.42877E+00  5.91132E+00  5.55597E+00  5.17821E+00
   4.89073E+00  4.97068E+00  5.47074E+00  6.21679E+00  6.91673E+00  7.48533E+00  7.86217E+00  7.86088E+00  7.33903E+00  6.41206E+00
   5.29680E+00  4.36969E+00  3.94990E+00  4.09043E+00  4.71211E+00  5.67852E+00  6.79778E+00  7.78712E+00  8.39423E+00  8.62217E+00
   8.56622E+00  8.43013E+00  8.35098E+00  8.39075E+00  8.51829E+00  8.66283E+00  8.91017E+00  9.17686E+00  9.27180E+00  9.16365E+00
   9.00165E+00  8.83631E+00  8.70057E+00  8.71716E+00  8.99429E+00  9.49207E+00  1.00724E+01  1.08242E+01  1.19705E+01  1.28338E+01
   1.32658E+01  1.42111E+01  1.74301E+01  2.13954E+01  2.40842E+01  2.64376E+01  2.93053E+01  3.25571E+01  3.55209E+01  3.78904E+01
   3.90619E+01  3.82880E+01  3.55072E+01  3.11220E+01  2.53761E+01  1.90616E+01  1.40307E+01  1.13515E+01  1.00100E+01  8.81673E+00
   7.90439E+00  7.38580E+00  7.01422E+00  6.71090E+00  6.46511E+00  6.24180E+00  6.00244E+00  5.73329E+00  5.44544E+00  5.15795E+00
   4.89676E+00  4.68383E+00  4.51809E+00  4.38727E+00  4.28794E+00  4.21310E+00  4.15063E+00  4.08993E+00  4.03041E+00  3.98074E+00
   3.94363E+00  3.91318E+00  3.88942E+00  3.86917E+00  3.84135E+00  3.79604E+00  3.72719E+00  3.63154E+00  3.51135E+00  3.37327E+00
   3.21937E+00  3.04863E+00  2.86186E+00  2.65975E+00  2.44138E+00  2.20468E+00  1.95006E+00  1.68234E+00  1.40613E+00  1.12444E+00
   8.40832E-01  5.58355E-01  2.79335E-01  5.88812E-03 -2.60278E-01 -5.17872E-01 -7.65940E-01 -1.00385E+00 -1.23122E+00 -1.44795E+00
  -1.65429E+00 -1.85070E+00 -2.03770E+00 -2.21581E+00 -2.38562E+00 -2.54772E+00 -2.70271E+00 -2.85117E+00 -2.99363E+00 -3.13053E+00
  -3.26229E+00 -3.38925E+00 -3.51173E+00 -3.63001E+00 -3.74429E+00 -3.85474E+00 -3.96146E+00 -4.06459E+00 -4.16420E+00 -4.26035E+00
  -4.35304E+00 -4.44227E+00 -4.52803E+00 -4.61030E+00 -4.68908E+00 -4.76434E+00 -4.83603E+00 -4.90409E+00 -4.96853E+00 -5.02932E+00
  -5.08650E+00 -5.14005E+00 -5.19001E+00 -5.23643E+00 -5.27940E+00 -5.31902E+00 -5.35539E+00 -5.38863E+00 -5.41882E+00 -5.44611E+00
  -5.47058E+00 -5.49234E+00 -5.51141E+00 -5.52784E+00 -5.54164E+00 -5.55279E+00 -5.56121E+00 -5.56672E+00 -5.56904E+00 -5.56783E+00
  -5.56265E+00 -5.55301E+00 -5.53830E+00 -5.51786E+00 -5.49090E+00 -5.45661E+00 -5.41410E+00 -5.36245E+00 -5.30071E+00 -5.22789E+00
  -5.14301E+00 -5.04517E+00 -4.93354E+00 -4.80742E+00 -4.66632E+00 -4.50996E+00 -4.33836E+00 -4.15195E+00 -3.95156E+00 -3.73851E+00
  -3.51463E+00 -3.28225E+00 -3.04424E+00 -2.80393E+00 -2.56508E+00 -2.33175E+00 -2.10816E+00 -1.89857E+00 -1.70711E+00 -1.53762E+00
  -1.39343E+00 -1.27729E+00 -1.19113E+00 -1.13611E+00 -1.11247E+00 -1.11957E+00 -1.15591E+00 -1.21925E+00 -1.30665E+00 -1.41471E+00
  -1.53967E+00 -1.67761E+00 -1.82458E+00 -1.97676E+00 -2.13059E+00 -2.28289E+00 -2.43089E+00 -2.57228E+00 -2.70526E+00 -2.82844E+00
  -2.94092E+00 -3.04219E+00 -3.13206E+00 -3.21065E+00 -3.27827E+00 -3.33542E+00 -3.38271E+00 -3.42085E+00 -3.45057E+00 -3.47261E+00
  -3.48768E+00 -3.49649E+00 -3.49969E+00 -3.49790E+00 -3.49167E+00 -3.48152E+00 -3.46790E+00 -3.45122E+00 -3.43186E+00 -3.41017E+00
  -3.38642E+00 -3.36090E+00 -3.33382E+00 -3.30541E+00 -3.27587E+00 -3.24537E+00 -3.21408E+00 -3.18213E+00 -3.14964E+00 -3.11675E+00
  -3.08358E+00 -3.05023E+00 -3.01678E+00 -2.98331E+00 -2.94985E+00 -2.91646E+00 -2.88314E+00 -2.84992E+00 -2.81681E+00 -2.78383E+00
  -2.75099E+00 -2.71831E+00 -2.68580E+00 -2.65345E+00 -2.62125E+00 -2.58923E+00 -2.55737E+00 -2.52569E+00 -2.49418E+00 -2.46282E+00
  -2.43162E+00 -2.40057E+00 -2.36967E+00 -2.33892E+00 -2.30830E+00 -2.27780E+00 -2.24740E+00 -2.21712E+00 -2.18693E+00 -2.15684E+00
  -2.12683E+00 -2.09687E+00 -2.06697E+00 -2.03711E+00 -2.00730E+00 -1.97751E+00 -1.94772E+00 -1.91792E+00 -1.88811E+00 -1.85828E+00
  -1.82842E+00 -1.79851E+00 -1.76853E+00 -1.73847E+00 -1.70832E+00 -1.67810E+00 -1.64776E+00 -1.61731E+00
 NY background values follow
     3.302E+00    3.305E+00    3.308E+00    3.311E+00    3.313E+00    3.315E+00    3.317E+00    3.319E+00    3.320E+00    3.322E+00
     3.323E+00    3.324E+00    3.325E+00    3.325E+00    3.326E+00    3.326E+00    3.326E+00    3.327E+00    3.327E+00    3.327E+00
     3.327E+00    3.327E+00    3.326E+00    3.326E+00    3.326E+00    3.326E+00    3.325E+00    3.325E+00    3.325E+00    3.325E+00
     3.324E+00    3.324E+00    3.324E+00    3.324E+00    3.324E+00    3.324E+00    3.324E+00    3.325E+00    3.325E+00    3.325E+00
     3.326E+00    3.327E+00    3.328E+00    3.329E+00    3.330E+00    3.332E+00    3.333E+00    3.335E+00    3.337E+00    3.340E+00
     3.342E+00    3.345E+00    3.348E+00    3.351E+00    3.354E+00    3.358E+00    3.362E+00    3.366E+00    3.370E+00    3.375E+00
     3.380E+00    3.385E+00    3.390E+00    3.396E+00    3.402E+00    3.408E+00    3.414E+00    3.421E+00    3.428E+00    3.436E+00
     3.443E+00    3.451E+00    3.459E+00    3.468E+00    3.477E+00    3.486E+00    3.496E+00    3.506E+00    3.516E+00    3.527E+00
     3.537E+00    3.549E+00    3.560E+00    3.572E+00    3.585E+00    3.597E+00    3.611E+00    3.624E+00    3.638E+00    3.652E+00
     3.667E+00    3.682E+00    3.697E+00    3.713E+00    3.729E+00    3.746E+00    3.763E+00    3.780E+00    3.797E+00    3.815E+00
     3.833E+00    3.851E+00    3.870E+00    3.889E+00    3.908E+00    3.927E+00    3.946E+00    3.966E+00    3.986E+00    4.006E+00
     4.026E+00    4.046E+00    4.066E+00    4.087E+00    4.107E+00    4.128E+00    4.149E+00    4.170E+00    4.190E+00    4.211E+00
     4.232E+00    4.253E+00    4.274E+00    4.294E+00    4.315E+00    4.336E+00    4.356E+00    4.377E+00    4.397E+00    4.418E+00
     4.438E+00    4.458E+00    4.478E+00    4.498E+00    4.517E+00    4.537E+00    4.556E+00    4.575E+00    4.594E+00    4.612E+00
     4.631E+00    4.649E+00    4.667E+00    4.684E+00    4.702E+00    4.719E+00    4.736E+00    4.753E+00    4.769E+00    4.786E+00
     4.802E+00    4.818E+00    4.833E+00    4.849E+00    4.864E+00    4.879E+00    4.893E+00    4.908E+00    4.922E+00    4.936E+00
     4.950E+00    4.963E+00    4.977E+00    4.990E+00    5.002E+00    5.015E+00    5.027E+00    5.039E+00    5.051E+00    5.062E+00
     5.073E+00    5.084E+00    5.095E+00    5.105E+00    5.115E+00    5.125E+00    5.135E+00    5.144E+00    5.153E+00    5.162E+00
     5.170E+00    5.179E+00    5.187E+00    5.194E+00    5.202E+00    5.208E+00    5.215E+00    5.221E+00    5.227E+00    5.232E+00
     5.237E+00    5.241E+00    5.245E+00    5.248E+00    5.251E+00    5.253E+00    5.255E+00    5.255E+00    5.256E+00    5.255E+00
     5.254E+00    5.252E+00    5.249E+00    5.246E+00    5.241E+00    5.236E+00    5.230E+00    5.223E+00    5.216E+00    5.207E+00
     5.197E+00    5.187E+00    5.175E+00    5.162E+00    5.149E+00    5.134E+00    5.118E+00    5.101E+00    5.083E+00    5.064E+00
     5.043E+00    5.022E+00    4.999E+00    4.975E+00    4.949E+00    4.922E+00    4.894E+00    4.865E+00    4.834E+00    4.802E+00
     4.769E+00    4.734E+00    4.698E+00    4.660E+00    4.621E+00    4.581E+00    4.539E+00    4.496E+00    4.451E+00    4.406E+00
     4.358E+00    4.310E+00    4.259E+00    4.208E+00    4.155E+00    4.101E+00    4.045E+00    3.988E+00    3.929E+00    3.869E+00
     3.808E+00    3.745E+00    3.680E+00    3.614E+00    3.547E+00    3.478E+00    3.408E+00    3.336E+00    3.263E+00    3.189E+00
     3.113E+00    3.035E+00    2.956E+00    2.875E+00    2.793E+00    2.710E+00    2.625E+00    2.538E+00    2.450E+00    2.361E+00
     2.270E+00    2.177E+00    2.083E+00    1.987E+00    1.890E+00    1.792E+00    1.692E+00    1.591E+00    1.489E+00    1.386E+00
     1.281E+00    1.175E+00    1.069E+00    9.611E-01    8.526E-01    7.431E-01    6.328E-01    5.218E-01    4.100E-01    2.975E-01
     1.844E-01    7.064E-02   -4.360E-02   -1.583E-01   -2.735E-01   -3.891E-01   -5.050E-01   -6.211E-01   -7.376E-01   -8.542E-01
    -9.709E-01   -1.088E+00   -1.205E+00   -1.322E+00   -1.438E+00   -1.555E+00   -1.672E+00   -1.788E+00   -1.904E+00   -2.020E+00
    -2.135E+00   -2.250E+00   -2.365E+00   -2.479E+00   -2.592E+00   -2.705E+00   -2.818E+00   -2.929E+00   -3.040E+00   -3.150E+00
    -3.259E+00   -3.368E+00   -3.475E+00   -3.581E+00   -3.687E+00   -3.791E+00   -3.894E+00   -3.997E+00   -4.098E+00   -4.197E+00
    -4.296E+00   -4.393E+00   -4.488E+00   -4.583E+00   -4.676E+00   -4.767E+00   -4.857E+00   -4.945E+00   -5.032E+00   -5.117E+00
    -5.200E+00   -5.282E+00   -5.361E+00   -5.439E+00   -5.515E+00   -5.589E+00   -5.661E+00   -5.731E+00   -5.799E+00   -5.865E+00
    -5.928E+00   -5.990E+00   -6.049E+00   -6.106E+00   -6.161E+00   -6.213E+00   -6.263E+00   -6.310E+00   -6.355E+00   -6.397E+00
    -6.437E+00   -6.474E+00   -6.508E+00   -6.540E+00   -6.569E+00   -6.595E+00   -6.619E+00   -6.641E+00   -6.660E+00   -6.676E+00
    -6.690E+00   -6.702E+00   -6.711E+00   -6.719E+00   -6.724E+00   -6.726E+00   -6.727E+00   -6.726E+00   -6.722E+00   -6.717E+00
    -6.710E+00   -6.700E+00   -6.689E+00   -6.676E+00   -6.661E+00   -6.645E+00   -6.627E+00   -6.607E+00   -6.585E+00   -6.562E+00
    -6.538E+00   -6.512E+00   -6.484E+00   -6.455E+00   -6.425E+00   -6.393E+00   -6.360E+00   -6.326E+00   -6.291E+00   -6.255E+00
    -6.217E+00   -6.178E+00   -6.139E+00   -6.098E+00   -6.057E+00   -6.014E+00   -5.971E+00   -5.927E+00   -5.882E+00   -5.836E+00
    -5.790E+00   -5.743E+00   -5.695E+00   -5.647E+00   -5.598E+00   -5.549E+00   -5.499E+00   -5.449E+00   -5.398E+00   -5.347E+00
    -5.295E+00   -5.243E+00   -5.191E+00   -5.138E+00   -5.086E+00   -5.033E+00   -4.979E+00   -4.926E+00   -4.873E+00   -4.819E+00
    -4.765E+00   -4.712E+00   -4.658E+00   -4.604E+00   -4.551E+00   -4.497E+00   -4.444E+00   -4.391E+00   -4.338E+00   -4.285E+00
    -4.233E+00   -4.180E+00   -4.128E+00   -4.077E+00   -4.026E+00   -3.975E+00   -3.925E+00   -3.875E+00   -3.826E+00   -3.777E+00
    -3.729E+00   -3.681E+00   -3.634E+00   -3.588E+00   -3.543E+00   -3.498E+00   -3.453E+00   -3.410E+00   -3.367E+00   -3.324E+00
    -3.282E+00   -3.240E+00   -3.199E+00   -3.159E+00   -3.119E+00   -3.079E+00   -3.040E+00   -3.001E+00   -2.963E+00   -2.925E+00
    -2.888E+00   -2.850E+00   -2.813E+00   -2.777E+00   -2.741E+00   -2.705E+00   -2.669E+00   -2.633E+00   -2.598E+00   -2.563E+00
    -2.528E+00   -2.494E+00   -2.459E+00   -2.425E+00   -2.391E+00   -2.357E+00   -2.323E+00   -2.289E+00   -2.255E+00   -2.221E+00
    -2.187E+00   -2.153E+00   -2.119E+00   -2.085E+00   -2.051E+00   -2.017E+00   -1.983E+00   -1.949E+00
 Cr       Conc. = 3.31E+02
