 LCModel (Version 6.3-1L) Copyright: S.W. Provencher.          Ref.: Magn. Reson. Med. 30:672-679 (1993).                
 Slice#1 Row#11 Col#12  PD_05_press_1_raw_act
 36 lines in following concentration table = NCONC+1
    Conc.  %SD /Cr+PCr  Metabolite                                         
   29.871 139%   0.487 Ala                                                 
   12.940 158%   0.211 Asp                                                 
   41.506 134%   0.677 Cr                                                  
   19.804 286%   0.323 PCr                                                 
   13.866  89%   0.226 GABA                                                
   12.142 102%   0.198 Glc                                                 
  132.007  69%   2.153 Gln                                                 
  289.703  36%   4.725 Glu                                                 
   16.244  44%   0.265 GPC                                                 
    0.000 999%   0.000 PCh                                                 
   44.025  62%   0.718 GSH                                                 
   31.042 285%   0.506 Ins                                                 
    0.000 999%   0.000 Lac                                                 
  233.582  18%   3.810 NAA                                                 
   94.400  48%   1.540 NAAG                                                
    2.197 177% 3.6E-02 Scyllo                                              
   11.657 173%   0.190 Tau                                                 
    6.041 268% 9.9E-02 -CrCH2                                              
   16.244  44%   0.265 GPC+PCh                                             
  327.981   9%   5.350 NAA+NAAG                                            
   61.310  31%   1.000 Cr+PCr                                              
  421.710  36%   6.878 Glu+Gln                                             
    0.000 999%   0.000 Lip13a                                              
    0.000 999%   0.000 Lip13b                                              
    0.000 999%   0.000 Lip09                                               
  195.100  25%   3.182 MM09                                                
 1.97E-03 999% 3.2E-05 Lip20                                               
  405.570  23%   6.615 MM20                                                
   11.678 220%   0.190 MM12                                                
    0.000 999%   0.000 MM14                                                
  251.602  22%   4.104 MM17                                                
    0.000 999%   0.000 Lip13a+Lip13b                                       
   11.678 220%   0.190 MM14+Lip13a+Lip13b+MM12                             
  195.100  25%   3.182 MM09+Lip09                                          
  405.572  23%   6.615 MM20+Lip20                                          
   6 lines in following misc. output table
  FWHM = 0.054 ppm    S/N =   3                                            
  Data shift = 0.000 ppm                                                   
  Ph:  85 deg      31.4 deg/ppm                                            
  alphaB,S = 5.4E-01,   5.8E+01                                            
   14 spline knots.   Ns = 7(1)                                            
  ( 8) 2 infls.   ( 9) 1 extrs.                                            
  498 points on ppm-axis = NY
      4.000000     3.992357     3.984714     3.977070     3.969427     3.961784     3.954141     3.946497     3.938854     3.931211
      3.923568     3.915925     3.908281     3.900638     3.892995     3.885352     3.877708     3.870065     3.862422     3.854779
      3.847136     3.839492     3.831849     3.824206     3.816563     3.808919     3.801276     3.793633     3.785990     3.778347
      3.770703     3.763060     3.755417     3.747774     3.740130     3.732487     3.724844     3.717201     3.709558     3.701914
      3.694271     3.686628     3.678985     3.671341     3.663698     3.656055     3.648412     3.640769     3.633125     3.625482
      3.617839     3.610196     3.602552     3.594909     3.587266     3.579623     3.571980     3.564336     3.556693     3.549050
      3.541407     3.533763     3.526120     3.518477     3.510834     3.503191     3.495547     3.487904     3.480261     3.472618
      3.464974     3.457331     3.449688     3.442045     3.434402     3.426758     3.419115     3.411472     3.403829     3.396185
      3.388542     3.380899     3.373256     3.365613     3.357969     3.350326     3.342683     3.335040     3.327396     3.319753
      3.312110     3.304467     3.296824     3.289180     3.281537     3.273894     3.266251     3.258607     3.250964     3.243321
      3.235678     3.228034     3.220391     3.212748     3.205105     3.197462     3.189818     3.182175     3.174532     3.166889
      3.159245     3.151602     3.143959     3.136316     3.128673     3.121029     3.113386     3.105743     3.098100     3.090456
      3.082813     3.075170     3.067527     3.059884     3.052240     3.044597     3.036954     3.029311     3.021667     3.014024
      3.006381     2.998738     2.991095     2.983451     2.975808     2.968165     2.960522     2.952878     2.945235     2.937592
      2.929949     2.922306     2.914662     2.907019     2.899376     2.891733     2.884089     2.876446     2.868803     2.861160
      2.853517     2.845873     2.838230     2.830587     2.822944     2.815300     2.807657     2.800014     2.792371     2.784728
      2.777084     2.769441     2.761798     2.754155     2.746511     2.738868     2.731225     2.723582     2.715939     2.708295
      2.700652     2.693009     2.685366     2.677722     2.670079     2.662436     2.654793     2.647150     2.639506     2.631863
      2.624220     2.616577     2.608933     2.601290     2.593647     2.586004     2.578361     2.570717     2.563074     2.555431
      2.547788     2.540144     2.532501     2.524858     2.517215     2.509572     2.501928     2.494285     2.486642     2.478999
      2.471355     2.463712     2.456069     2.448426     2.440783     2.433139     2.425496     2.417853     2.410210     2.402566
      2.394923     2.387280     2.379637     2.371994     2.364350     2.356707     2.349064     2.341421     2.333777     2.326134
      2.318491     2.310848     2.303205     2.295561     2.287918     2.280275     2.272632     2.264988     2.257345     2.249702
      2.242059     2.234416     2.226772     2.219129     2.211486     2.203843     2.196199     2.188556     2.180913     2.173270
      2.165627     2.157983     2.150340     2.142697     2.135054     2.127410     2.119767     2.112124     2.104481     2.096838
      2.089194     2.081551     2.073908     2.066265     2.058621     2.050978     2.043335     2.035692     2.028049     2.020405
      2.012762     2.005119     1.997476     1.989833     1.982190     1.974546     1.966903     1.959260     1.951617     1.943974
      1.936331     1.928688     1.921045     1.913402     1.905759     1.898115     1.890472     1.882829     1.875186     1.867543
      1.859900     1.852257     1.844614     1.836971     1.829327     1.821684     1.814041     1.806398     1.798755     1.791112
      1.783469     1.775826     1.768183     1.760540     1.752896     1.745253     1.737610     1.729967     1.722324     1.714681
      1.707038     1.699395     1.691752     1.684108     1.676465     1.668822     1.661179     1.653536     1.645893     1.638250
      1.630607     1.622964     1.615321     1.607677     1.600034     1.592391     1.584748     1.577105     1.569462     1.561819
      1.554176     1.546533     1.538890     1.531246     1.523603     1.515960     1.508317     1.500674     1.493031     1.485388
      1.477745     1.470102     1.462458     1.454815     1.447172     1.439529     1.431886     1.424243     1.416600     1.408957
      1.401314     1.393671     1.386027     1.378384     1.370741     1.363098     1.355455     1.347812     1.340169     1.332526
      1.324883     1.317240     1.309596     1.301953     1.294310     1.286667     1.279024     1.271381     1.263738     1.256095
      1.248452     1.240808     1.233165     1.225522     1.217879     1.210236     1.202593     1.194950     1.187307     1.179664
      1.172021     1.164377     1.156734     1.149091     1.141448     1.133805     1.126162     1.118519     1.110876     1.103233
      1.095590     1.087946     1.080303     1.072660     1.065017     1.057374     1.049731     1.042088     1.034445     1.026802
      1.019158     1.011515     1.003872     0.996229     0.988586     0.980943     0.973300     0.965657     0.958014     0.950371
      0.942727     0.935084     0.927441     0.919798     0.912155     0.904512     0.896869     0.889226     0.881583     0.873940
      0.866296     0.858653     0.851010     0.843367     0.835724     0.828081     0.820438     0.812795     0.805152     0.797508
      0.789865     0.782222     0.774579     0.766936     0.759293     0.751650     0.744007     0.736364     0.728721     0.721077
      0.713434     0.705791     0.698148     0.690505     0.682862     0.675219     0.667576     0.659933     0.652290     0.644646
      0.637003     0.629360     0.621717     0.614074     0.606431     0.598788     0.591145     0.583502     0.575858     0.568215
      0.560572     0.552929     0.545286     0.537643     0.530000     0.522357     0.514714     0.507071     0.499427     0.491784
      0.484141     0.476498     0.468855     0.461212     0.453569     0.445925     0.438282     0.430639     0.422996     0.415353
      0.407710     0.400067     0.392424     0.384780     0.377137     0.369494     0.361851     0.354208     0.346565     0.338922
      0.331278     0.323635     0.315992     0.308349     0.300706     0.293063     0.285420     0.277777     0.270133     0.262490
      0.254847     0.247204     0.239561     0.231918     0.224275     0.216631     0.208988     0.201345
 NY phased data points follow
   1.20581E+00  2.13452E+00  8.85858E-01  1.74325E+00  1.59963E+00  2.44472E+00  3.02680E+00  6.55420E-01  4.73432E-01  1.10478E+00
   1.52001E+00  5.46982E-01  2.61637E+00  1.57787E+00 -2.20349E-01  2.05621E+00  7.08511E-02  1.12629E+00  5.88274E-01  8.65243E-01
   2.10242E+00  1.26510E+00  7.74318E-01  9.15121E-01  2.51112E+00  8.79569E-01  8.20834E-01  9.38161E-01  1.17717E+00  5.14205E-01
   2.75247E+00  6.93881E-01 -1.89031E-01  1.56433E+00  1.24141E+00  1.13863E-01  8.89834E-01 -2.27714E+00  7.12892E-01  1.57497E+00
   1.42240E+00  2.89794E-01  1.95864E-01  8.28824E-01  3.67451E+00  1.06966E+00  1.01066E-01  1.49927E+00  1.70462E+00  7.54511E-01
   6.81141E-01  1.28699E+00  1.15759E+00  9.69423E-01  3.29063E-01  3.67810E-01  4.91278E-01  6.28878E-01 -4.39970E-02 -3.05857E-01
   1.39112E-01 -2.85489E-01  2.42910E+00  1.58204E+00  4.95513E-01 -1.99856E+00  1.38943E+00  2.62219E-01 -1.85752E+00  7.12592E-01
   1.12992E+00  1.61248E+00 -5.32048E-01  6.62693E-01 -3.22163E-01  1.07891E-01  3.22755E-01  4.76196E-01 -2.00185E-01  3.04588E-01
   1.55765E+00 -2.25077E+00  8.55846E-01  7.51455E-01  2.70335E-01  4.23003E-01 -1.24479E+00  1.16245E+00 -1.52172E-01  1.95340E+00
  -1.25031E+00  1.80856E+00  7.17345E-01 -1.29166E-01  7.52354E-01 -1.59408E+00  9.18337E-01  8.95033E-01  2.06453E+00  2.97871E+00
   2.74865E+00  1.13506E+00  2.43641E+00  3.06394E+00  1.87041E+00  6.48765E-01  2.80986E+00  1.93275E-01  9.41303E-01 -3.19691E-02
  -1.52402E+00 -1.77278E-01 -1.07345E+00 -9.13507E-01  1.27680E+00 -4.91864E-01 -1.47516E-01  1.09083E+00  1.71293E+00  9.97657E-01
   8.01444E-01  2.75026E+00  2.29416E+00 -7.62748E-02  1.29565E+00  2.17509E+00  2.13292E+00  4.07721E+00  3.49137E+00  4.71840E+00
   3.23194E+00  4.34530E+00  8.05155E-01  6.85774E-01 -1.26110E-01  1.28844E+00  2.21762E+00  9.97345E-01  6.05739E-01  1.43060E+00
   1.46340E+00  1.21008E+00 -1.64186E-01  3.50916E-01  2.88023E+00  5.59690E-01  1.07412E-01 -2.52674E-01  7.60361E-01 -7.21649E-02
   2.09516E+00  2.60272E+00  2.08063E+00 -4.78083E-02  2.10060E+00  3.52356E+00  2.95844E+00  9.56564E-01  2.18358E+00  7.05745E-01
   1.63842E+00  1.86620E+00  1.52531E+00 -6.48974E-01  1.14937E-01  6.94880E-01  1.06880E+00  3.47922E-01  7.98649E-02  1.71688E-01
   8.01050E-01  1.96431E-01 -1.27377E+00 -6.25636E-01 -8.81937E-01 -1.44246E+00  1.11025E+00 -6.64943E-01  1.41651E+00  5.21985E-01
  -1.35527E+00  6.50869E-01 -8.41360E-01 -6.77540E-01 -2.00987E+00 -4.40466E-01  7.13463E-01 -5.61896E-01 -5.96360E-01  2.46655E+00
   2.09208E+00  1.91821E+00 -6.13678E-01  2.08292E+00  3.02223E+00 -6.50598E-01  2.23948E-01  3.11702E-01  2.29022E-01 -2.86100E-01
  -2.31278E-01  3.63907E-01  4.41408E-01  2.92642E-01  5.98751E-01  2.53595E+00  2.91803E+00 -2.72625E-01 -1.74550E+00  8.84633E-01
  -1.15428E+00  5.90105E-01 -2.58590E-01  1.66747E+00  2.17052E+00  1.97632E+00  4.46074E+00  2.11249E+00  1.03217E+00  1.73024E+00
   7.28089E-01 -5.07692E-01  4.33591E-01 -2.57853E-01  1.11766E+00 -8.20393E-01 -1.27400E+00  9.01858E-01  4.07670E-01  1.20538E+00
   3.22952E+00  4.55249E-01 -7.23809E-01 -9.55162E-01  3.39195E+00  1.96023E+00  2.12871E+00  1.68574E+00  2.81977E+00  7.27097E-01
   1.04185E+00  2.07771E+00  3.27367E-02  1.52409E+00  9.09074E-01 -7.66164E-01  4.40820E-01  1.07290E+00  6.34833E-01  1.26352E+00
   3.26848E+00  2.63409E+00  1.91107E+00  1.22228E+00  5.77621E+00  5.62469E+00  6.90337E+00  6.63096E+00  9.98914E+00  9.99195E+00
   8.76661E+00  1.04035E+01  1.12100E+01  1.02028E+01  5.80253E+00  3.47464E+00  2.45255E+00  1.32740E+00  3.42043E-01  1.05742E+00
   3.10889E+00  3.75233E+00  3.39231E+00  3.59664E+00  2.79132E+00  2.97389E+00  2.26036E+00  1.82913E+00  1.39517E+00  1.54049E+00
   4.15525E+00  1.75149E+00  1.68835E+00  6.05590E-01  2.43124E+00  1.43007E+00  1.63313E+00  3.22447E+00  9.77464E-01  2.74978E+00
   2.91045E+00  1.32960E+00  3.06973E+00  1.18496E+00  2.81411E-01  1.45831E+00  8.22084E-01  1.93020E+00  2.77482E+00  1.46248E+00
  -1.01226E+00  1.64073E+00  2.85605E+00  1.89881E+00  2.20580E+00  1.19301E+00  8.43580E-01  4.35628E+00  2.97985E+00  3.12063E+00
   5.64973E-01  3.57608E+00  1.57729E+00  1.22280E+00  1.17460E+00  1.73921E+00  6.37729E-01 -4.36104E-01  1.58981E+00  1.37673E+00
   2.40244E+00 -1.63107E+00  6.80661E-01  1.22146E+00  1.46890E-01  2.01968E+00  1.37713E+00  1.98904E+00  8.34346E-02  1.63307E+00
   3.73541E-01  2.10592E+00 -8.99114E-01 -8.65854E-01 -1.39385E+00  2.42912E-01 -1.11065E+00 -4.81527E-01 -3.60736E-01 -6.42438E-01
   1.00787E+00 -1.39044E+00 -1.04845E+00 -2.10037E-01 -9.75202E-01 -7.33886E-02 -5.17206E-01  2.15648E-01 -1.64776E+00  7.45632E-01
  -1.87057E+00 -1.34888E+00 -1.84362E+00 -2.00384E-01 -2.65121E+00 -1.80811E+00 -1.85921E+00 -9.12354E-01 -1.54474E+00 -4.89711E+00
  -4.85546E+00 -4.04827E+00 -2.96677E+00 -5.53739E+00 -6.37844E+00 -6.98017E+00 -4.88704E+00 -5.24062E+00 -4.45213E+00 -3.82353E+00
  -2.50596E+00 -5.62149E+00 -5.70132E+00 -3.85940E+00 -3.42314E+00 -3.41197E+00 -3.09542E+00 -3.53803E+00 -4.60136E+00 -3.38536E+00
  -3.03141E+00 -5.25665E+00 -3.73336E+00 -6.25163E+00 -2.95018E+00 -1.51343E+00 -4.87070E+00 -2.08460E+00 -3.59448E+00 -3.86440E+00
  -1.31263E+00 -6.16810E-01 -1.64167E+00 -6.73109E-01 -1.27467E+00 -1.52099E+00 -1.75833E+00 -5.23593E+00 -6.54154E-02 -9.75849E-01
  -4.33319E+00 -5.90999E-02  2.45112E-01 -3.18013E+00 -1.25189E+00  4.24964E-01 -1.98591E+00 -8.95601E-01 -6.07103E-01 -1.87446E+00
  -7.61816E-01 -1.68994E-01 -1.24811E+00 -1.14518E+00 -2.04943E+00 -3.06589E+00  7.67684E-01 -4.71413E+00 -3.53474E+00 -1.96297E+00
  -1.73099E+00 -1.20751E+00 -1.77883E+00 -2.20023E+00 -3.81285E+00 -1.30306E+00 -3.65614E+00 -2.89842E+00 -2.89812E+00 -2.01052E+00
  -2.10088E+00 -1.12654E+00 -1.53830E+00 -2.39009E+00 -1.41348E+00 -2.06219E+00  4.32853E-01 -1.06584E+00 -2.38839E+00 -1.64434E+00
  -1.97135E+00 -6.06131E-01 -1.30948E+00 -4.76748E+00 -3.16097E+00 -1.50415E+00 -3.76050E+00 -3.98810E+00 -1.48918E+00 -1.96997E+00
  -3.60109E+00 -2.11474E+00 -3.97204E+00 -3.38641E+00 -2.44179E+00 -2.84937E+00 -3.14015E+00 -9.04845E-01 -4.04706E+00 -2.82338E+00
  -9.78252E-01 -8.81158E-01 -1.40215E+00 -2.25253E+00 -2.88375E+00 -2.51603E+00 -2.22988E+00 -4.10146E+00 -2.85731E-01 -1.38265E+00
  -1.81893E+00 -2.41802E+00 -3.77146E+00 -3.34288E+00 -3.07243E+00 -2.69777E+00 -1.74588E+00 -4.18624E+00 -3.63919E+00 -1.27605E+00
  -2.69040E+00 -3.93084E+00 -1.75982E+00 -1.66620E+00 -2.44594E+00 -2.52396E+00 -2.72941E+00 -1.86277E+00 -3.36541E-01 -2.37936E+00
  -1.50211E+00 -3.40795E+00 -2.06466E+00 -3.60485E+00 -1.70977E+00 -1.73840E+00  8.64698E-01 -8.67224E-01
 NY points of the fit to the data follow
   8.71544E-01  9.18981E-01  9.89672E-01  1.08401E+00  1.21033E+00  1.36340E+00  1.50878E+00  1.63240E+00  1.73836E+00  1.81659E+00
   1.83793E+00  1.77966E+00  1.63666E+00  1.41869E+00  1.15951E+00  9.20137E-01  7.63779E-01  7.17082E-01  7.63522E-01  8.57553E-01
   9.39785E-01  9.76586E-01  1.00243E+00  1.05363E+00  1.10503E+00  1.14924E+00  1.21342E+00  1.31902E+00  1.45976E+00  1.62185E+00
   1.78911E+00  1.90288E+00  1.88204E+00  1.68161E+00  1.31258E+00  8.52154E-01  4.18272E-01  1.35203E-01  5.44738E-02  1.58892E-01
   4.07034E-01  6.94931E-01  9.17881E-01  1.02174E+00  1.01663E+00  9.54546E-01  8.80540E-01  8.22604E-01  7.79246E-01  7.30115E-01
   6.69312E-01  6.04819E-01  5.52352E-01  5.26513E-01  5.28813E-01  5.49398E-01  5.76113E-01  6.00846E-01  6.20625E-01  6.35098E-01
   6.44777E-01  6.47930E-01  6.44353E-01  6.34847E-01  6.23982E-01  6.19688E-01  6.26655E-01  6.44294E-01  6.69463E-01  6.97703E-01
   7.22740E-01  7.42082E-01  7.58046E-01  7.71274E-01  7.79884E-01  7.82234E-01  7.77494E-01  7.65978E-01  7.50368E-01  7.40309E-01
   7.39485E-01  7.45967E-01  7.60757E-01  7.82673E-01  8.03240E-01  8.14591E-01  8.14688E-01  8.04036E-01  7.85655E-01  7.67236E-01
   7.58394E-01  7.66798E-01  7.94736E-01  8.37265E-01  8.91943E-01  9.78582E-01  1.13909E+00  1.33904E+00  1.53678E+00  1.73947E+00
   1.95449E+00  2.15040E+00  2.28392E+00  2.31968E+00  2.21755E+00  1.95432E+00  1.57163E+00  1.17744E+00  8.82810E-01  7.40625E-01
   7.35003E-01  7.95333E-01  8.41688E-01  8.72969E-01  9.01963E-01  9.31647E-01  9.61988E-01  9.94475E-01  1.03682E+00  1.10961E+00
   1.26670E+00  1.50781E+00  1.77164E+00  2.04636E+00  2.35273E+00  2.67203E+00  2.94854E+00  3.12341E+00  3.12731E+00  2.90451E+00
   2.46754E+00  1.92253E+00  1.42265E+00  1.07563E+00  9.01304E-01  8.45485E-01  8.10460E-01  7.72491E-01  7.73562E-01  8.27405E-01
   9.18988E-01  1.01627E+00  1.08361E+00  1.09936E+00  1.06860E+00  1.00912E+00  9.42678E-01  8.83840E-01  8.34686E-01  7.95498E-01
   7.64043E-01  7.35543E-01  7.11747E-01  6.88860E-01  6.59776E-01  6.30793E-01  6.12602E-01  6.05429E-01  6.01849E-01  5.85669E-01
   5.48670E-01  4.99258E-01  4.54990E-01  4.31484E-01  4.35308E-01  4.53151E-01  4.56353E-01  4.22489E-01  3.50568E-01  2.62998E-01
   1.96169E-01  1.69673E-01  1.71751E-01  1.74653E-01  1.54112E-01  1.17054E-01  8.18810E-02  6.86699E-02  8.64762E-02  1.26350E-01
   1.61963E-01  1.81457E-01  1.95238E-01  2.21662E-01  2.82578E-01  3.90631E-01  5.24810E-01  6.50393E-01  7.62746E-01  8.67881E-01
   9.59858E-01  1.00516E+00  9.82409E-01  8.91681E-01  7.55143E-01  6.16911E-01  5.32295E-01  5.36077E-01  6.37200E-01  8.24107E-01
   1.06021E+00  1.29143E+00  1.46487E+00  1.50920E+00  1.39978E+00  1.16228E+00  8.12207E-01  3.93143E-01 -1.19945E-02 -2.85519E-01
  -3.54418E-01 -2.13607E-01  1.42222E-01  6.80195E-01  1.27407E+00  1.73580E+00  1.92580E+00  1.80929E+00  1.41527E+00  8.14280E-01
   1.18374E-01 -4.95446E-01 -8.54598E-01 -8.86772E-01 -6.13325E-01 -1.31255E-01  4.39992E-01  9.71306E-01  1.32358E+00  1.42763E+00
   1.33443E+00  1.16830E+00  1.03221E+00  9.61883E-01  9.61775E-01  1.02910E+00  1.10836E+00  1.16416E+00  1.19336E+00  1.18434E+00
   1.11723E+00  9.98210E-01  8.52605E-01  7.08773E-01  6.05477E-01  5.90253E-01  6.69947E-01  8.02476E-01  9.55092E-01  1.18758E+00
   1.48760E+00  1.78981E+00  2.16180E+00  2.88692E+00  4.08923E+00  5.46349E+00  6.79186E+00  8.05128E+00  9.15995E+00  9.94719E+00
   1.03649E+01  1.04178E+01  9.96346E+00  8.84364E+00  7.15148E+00  5.23841E+00  3.58654E+00  2.52480E+00  2.06903E+00  1.89217E+00
   1.71711E+00  1.56768E+00  1.45765E+00  1.37830E+00  1.31643E+00  1.26518E+00  1.20968E+00  1.13771E+00  1.04569E+00  9.42875E-01
   8.44063E-01  7.61963E-01  7.01772E-01  6.60974E-01  6.34324E-01  6.18381E-01  6.10963E-01  6.09213E-01  6.11866E-01  6.20965E-01
   6.41094E-01  6.74664E-01  7.20613E-01  7.76790E-01  8.40715E-01  9.07089E-01  9.71020E-01  1.03018E+00  1.08404E+00  1.13265E+00
   1.17628E+00  1.21364E+00  1.24294E+00  1.26217E+00  1.26872E+00  1.26024E+00  1.23536E+00  1.19415E+00  1.13840E+00  1.07004E+00
   9.90954E-01  9.03276E-01  8.09096E-01  7.10452E-01  6.09417E-01  5.08006E-01  4.08204E-01  3.12051E-01  2.21950E-01  1.42073E-01
   8.23987E-02  4.41123E-02  8.51592E-03 -3.09780E-02 -6.97510E-02 -1.12155E-01 -1.74497E-01 -2.74285E-01 -4.18381E-01 -5.92742E-01
  -7.84950E-01 -9.73754E-01 -1.11990E+00 -1.18911E+00 -1.17622E+00 -1.10055E+00 -9.94154E-01 -8.87530E-01 -8.04442E-01 -7.72796E-01
  -8.01044E-01 -8.72651E-01 -9.59460E-01 -1.03418E+00 -1.08713E+00 -1.13178E+00 -1.17335E+00 -1.21249E+00 -1.24968E+00 -1.28527E+00
  -1.31955E+00 -1.35272E+00 -1.38494E+00 -1.41635E+00 -1.44704E+00 -1.47710E+00 -1.50663E+00 -1.53569E+00 -1.56437E+00 -1.59274E+00
  -1.62086E+00 -1.64880E+00 -1.67661E+00 -1.70438E+00 -1.73215E+00 -1.75996E+00 -1.78787E+00 -1.81588E+00 -1.84402E+00 -1.87230E+00
  -1.90070E+00 -1.92919E+00 -1.95769E+00 -1.98613E+00 -2.01440E+00 -2.04234E+00 -2.06977E+00 -2.09643E+00 -2.12202E+00 -2.14618E+00
  -2.16846E+00 -2.18835E+00 -2.20524E+00 -2.21845E+00 -2.22722E+00 -2.23072E+00 -2.22811E+00 -2.21851E+00 -2.20108E+00 -2.17506E+00
  -2.13985E+00 -2.09502E+00 -2.04042E+00 -1.97619E+00 -1.90285E+00 -1.82130E+00 -1.73283E+00 -1.63913E+00 -1.54223E+00 -1.44441E+00
  -1.34814E+00 -1.25598E+00 -1.17044E+00 -1.09385E+00 -1.02826E+00 -9.75348E-01 -9.36311E-01 -9.11858E-01 -9.02171E-01 -9.06922E-01
  -9.25315E-01 -9.56165E-01 -9.97981E-01 -1.04907E+00 -1.10760E+00 -1.17176E+00 -1.23976E+00 -1.30996E+00 -1.38091E+00 -1.45136E+00
  -1.52028E+00 -1.58689E+00 -1.65060E+00 -1.71102E+00 -1.76795E+00 -1.82130E+00 -1.87109E+00 -1.91745E+00 -1.96052E+00 -2.00053E+00
  -2.03769E+00 -2.07223E+00 -2.10438E+00 -2.13434E+00 -2.16232E+00 -2.18850E+00 -2.21305E+00 -2.23611E+00 -2.25782E+00 -2.27829E+00
  -2.29763E+00 -2.31592E+00 -2.33325E+00 -2.34969E+00 -2.36529E+00 -2.38011E+00 -2.39421E+00 -2.40762E+00 -2.42039E+00 -2.43255E+00
  -2.44412E+00 -2.45514E+00 -2.46564E+00 -2.47564E+00 -2.48516E+00 -2.49420E+00 -2.50280E+00 -2.51097E+00 -2.51873E+00 -2.52608E+00
  -2.53304E+00 -2.53962E+00 -2.54583E+00 -2.55168E+00 -2.55719E+00 -2.56236E+00 -2.56719E+00 -2.57169E+00 -2.57588E+00 -2.57976E+00
  -2.58333E+00 -2.58661E+00 -2.58959E+00 -2.59229E+00 -2.59470E+00 -2.59685E+00 -2.59872E+00 -2.60032E+00 -2.60166E+00 -2.60274E+00
  -2.60358E+00 -2.60418E+00 -2.60453E+00 -2.60464E+00 -2.60453E+00 -2.60419E+00 -2.60364E+00 -2.60287E+00 -2.60190E+00 -2.60073E+00
  -2.59936E+00 -2.59782E+00 -2.59611E+00 -2.59423E+00 -2.59219E+00 -2.59002E+00 -2.58772E+00 -2.58532E+00
 NY background values follow
     1.264E-01    1.296E-01    1.329E-01    1.361E-01    1.393E-01    1.426E-01    1.459E-01    1.492E-01    1.525E-01    1.558E-01
     1.591E-01    1.625E-01    1.658E-01    1.692E-01    1.726E-01    1.760E-01    1.794E-01    1.828E-01    1.862E-01    1.897E-01
     1.932E-01    1.966E-01    2.001E-01    2.036E-01    2.071E-01    2.107E-01    2.142E-01    2.178E-01    2.213E-01    2.249E-01
     2.285E-01    2.321E-01    2.357E-01    2.394E-01    2.430E-01    2.467E-01    2.504E-01    2.540E-01    2.577E-01    2.614E-01
     2.652E-01    2.689E-01    2.726E-01    2.764E-01    2.802E-01    2.840E-01    2.878E-01    2.916E-01    2.954E-01    2.992E-01
     3.031E-01    3.069E-01    3.108E-01    3.146E-01    3.185E-01    3.224E-01    3.263E-01    3.303E-01    3.342E-01    3.381E-01
     3.421E-01    3.460E-01    3.500E-01    3.540E-01    3.580E-01    3.619E-01    3.659E-01    3.700E-01    3.740E-01    3.780E-01
     3.820E-01    3.861E-01    3.901E-01    3.942E-01    3.982E-01    4.023E-01    4.064E-01    4.104E-01    4.145E-01    4.186E-01
     4.227E-01    4.268E-01    4.309E-01    4.350E-01    4.392E-01    4.433E-01    4.474E-01    4.515E-01    4.557E-01    4.598E-01
     4.639E-01    4.681E-01    4.722E-01    4.764E-01    4.805E-01    4.846E-01    4.888E-01    4.929E-01    4.970E-01    5.011E-01
     5.052E-01    5.093E-01    5.134E-01    5.175E-01    5.215E-01    5.255E-01    5.295E-01    5.335E-01    5.374E-01    5.413E-01
     5.452E-01    5.491E-01    5.529E-01    5.567E-01    5.604E-01    5.642E-01    5.678E-01    5.715E-01    5.751E-01    5.786E-01
     5.821E-01    5.856E-01    5.890E-01    5.923E-01    5.956E-01    5.989E-01    6.020E-01    6.052E-01    6.082E-01    6.112E-01
     6.142E-01    6.170E-01    6.198E-01    6.226E-01    6.252E-01    6.278E-01    6.303E-01    6.328E-01    6.351E-01    6.374E-01
     6.396E-01    6.417E-01    6.437E-01    6.457E-01    6.476E-01    6.493E-01    6.510E-01    6.526E-01    6.541E-01    6.555E-01
     6.568E-01    6.581E-01    6.592E-01    6.602E-01    6.612E-01    6.620E-01    6.627E-01    6.634E-01    6.639E-01    6.643E-01
     6.647E-01    6.649E-01    6.650E-01    6.650E-01    6.649E-01    6.647E-01    6.643E-01    6.639E-01    6.633E-01    6.626E-01
     6.618E-01    6.609E-01    6.599E-01    6.588E-01    6.575E-01    6.561E-01    6.546E-01    6.530E-01    6.512E-01    6.493E-01
     6.473E-01    6.451E-01    6.429E-01    6.405E-01    6.379E-01    6.353E-01    6.325E-01    6.295E-01    6.265E-01    6.233E-01
     6.199E-01    6.164E-01    6.128E-01    6.090E-01    6.051E-01    6.011E-01    5.969E-01    5.926E-01    5.881E-01    5.835E-01
     5.787E-01    5.738E-01    5.687E-01    5.635E-01    5.581E-01    5.526E-01    5.470E-01    5.411E-01    5.352E-01    5.290E-01
     5.228E-01    5.163E-01    5.097E-01    5.030E-01    4.961E-01    4.890E-01    4.818E-01    4.744E-01    4.668E-01    4.591E-01
     4.513E-01    4.432E-01    4.350E-01    4.267E-01    4.181E-01    4.095E-01    4.006E-01    3.916E-01    3.824E-01    3.730E-01
     3.635E-01    3.538E-01    3.440E-01    3.340E-01    3.238E-01    3.134E-01    3.029E-01    2.922E-01    2.813E-01    2.703E-01
     2.591E-01    2.477E-01    2.362E-01    2.245E-01    2.126E-01    2.006E-01    1.883E-01    1.759E-01    1.634E-01    1.507E-01
     1.378E-01    1.247E-01    1.115E-01    9.806E-02    8.448E-02    7.074E-02    5.683E-02    4.274E-02    2.849E-02    1.407E-02
    -5.198E-04   -1.528E-02   -3.020E-02   -4.530E-02   -6.056E-02   -7.599E-02   -9.159E-02   -1.074E-01   -1.233E-01   -1.394E-01
    -1.556E-01   -1.721E-01   -1.887E-01   -2.054E-01   -2.223E-01   -2.394E-01   -2.567E-01   -2.741E-01   -2.916E-01   -3.093E-01
    -3.271E-01   -3.451E-01   -3.633E-01   -3.816E-01   -4.000E-01   -4.185E-01   -4.372E-01   -4.561E-01   -4.750E-01   -4.941E-01
    -5.133E-01   -5.327E-01   -5.522E-01   -5.718E-01   -5.915E-01   -6.113E-01   -6.312E-01   -6.513E-01   -6.715E-01   -6.917E-01
    -7.121E-01   -7.326E-01   -7.532E-01   -7.739E-01   -7.947E-01   -8.155E-01   -8.365E-01   -8.576E-01   -8.787E-01   -8.999E-01
    -9.212E-01   -9.426E-01   -9.641E-01   -9.857E-01   -1.007E+00   -1.029E+00   -1.051E+00   -1.073E+00   -1.094E+00   -1.116E+00
    -1.138E+00   -1.160E+00   -1.183E+00   -1.205E+00   -1.227E+00   -1.249E+00   -1.271E+00   -1.293E+00   -1.316E+00   -1.338E+00
    -1.360E+00   -1.382E+00   -1.405E+00   -1.427E+00   -1.449E+00   -1.471E+00   -1.493E+00   -1.515E+00   -1.538E+00   -1.560E+00
    -1.582E+00   -1.603E+00   -1.625E+00   -1.647E+00   -1.669E+00   -1.691E+00   -1.712E+00   -1.734E+00   -1.755E+00   -1.776E+00
    -1.798E+00   -1.819E+00   -1.840E+00   -1.861E+00   -1.882E+00   -1.902E+00   -1.923E+00   -1.943E+00   -1.964E+00   -1.984E+00
    -2.004E+00   -2.024E+00   -2.044E+00   -2.063E+00   -2.083E+00   -2.102E+00   -2.121E+00   -2.140E+00   -2.159E+00   -2.178E+00
    -2.196E+00   -2.215E+00   -2.233E+00   -2.251E+00   -2.269E+00   -2.286E+00   -2.304E+00   -2.321E+00   -2.339E+00   -2.356E+00
    -2.372E+00   -2.389E+00   -2.406E+00   -2.422E+00   -2.438E+00   -2.454E+00   -2.470E+00   -2.485E+00   -2.501E+00   -2.516E+00
    -2.531E+00   -2.546E+00   -2.561E+00   -2.575E+00   -2.589E+00   -2.604E+00   -2.617E+00   -2.631E+00   -2.645E+00   -2.658E+00
    -2.671E+00   -2.684E+00   -2.697E+00   -2.709E+00   -2.721E+00   -2.734E+00   -2.745E+00   -2.757E+00   -2.769E+00   -2.780E+00
    -2.791E+00   -2.802E+00   -2.812E+00   -2.823E+00   -2.833E+00   -2.843E+00   -2.853E+00   -2.863E+00   -2.872E+00   -2.881E+00
    -2.890E+00   -2.899E+00   -2.908E+00   -2.916E+00   -2.924E+00   -2.932E+00   -2.940E+00   -2.947E+00   -2.955E+00   -2.962E+00
    -2.969E+00   -2.976E+00   -2.982E+00   -2.988E+00   -2.994E+00   -3.000E+00   -3.006E+00   -3.012E+00   -3.017E+00   -3.022E+00
    -3.027E+00   -3.031E+00   -3.036E+00   -3.040E+00   -3.044E+00   -3.048E+00   -3.052E+00   -3.055E+00   -3.058E+00   -3.061E+00
    -3.064E+00   -3.067E+00   -3.069E+00   -3.071E+00   -3.073E+00   -3.075E+00   -3.077E+00   -3.078E+00   -3.079E+00   -3.080E+00
    -3.081E+00   -3.081E+00   -3.082E+00   -3.082E+00   -3.082E+00   -3.081E+00   -3.081E+00   -3.080E+00   -3.079E+00   -3.078E+00
    -3.077E+00   -3.075E+00   -3.074E+00   -3.072E+00   -3.069E+00   -3.067E+00   -3.064E+00   -3.062E+00   -3.059E+00   -3.055E+00
    -3.052E+00   -3.048E+00   -3.045E+00   -3.041E+00   -3.036E+00   -3.032E+00   -3.027E+00   -3.022E+00   -3.017E+00   -3.012E+00
    -3.006E+00   -3.001E+00   -2.995E+00   -2.989E+00   -2.982E+00   -2.976E+00   -2.969E+00   -2.962E+00
 Ala      Conc. = 2.99E+01
