 LCModel (Version 6.3-1L) Copyright: S.W. Provencher.          Ref.: Magn. Reson. Med. 30:672-679 (1993).                
 Slice#3 Row#7 Col#9  PD_05_press_1_raw_act
 36 lines in following concentration table = NCONC+1
    Conc.  %SD /Cr+PCr  Metabolite                                         
  137.416  68% 9.8E-02 Ala                                                 
  112.121 170% 8.0E-02 Asp                                                 
  429.133  46%   0.307 Cr                                                  
  967.179  21%   0.693 PCr                                                 
   24.768 528% 1.8E-02 GABA                                                
    0.000 999%   0.000 Glc                                                 
  712.689  27%   0.510 Gln                                                 
 1.27E+03  18%   0.908 Glu                                                 
  511.532   4%   0.366 GPC                                                 
    0.000 999%   0.000 PCh                                                 
  370.779  17%   0.266 GSH                                                 
  804.052  28%   0.576 Ins                                                 
    9.578 999% 6.9E-03 Lac                                                 
 2.07E+03   3%   1.486 NAA                                                 
    0.000 999%   0.000 NAAG                                                
  110.590  21% 7.9E-02 Scyllo                                              
  292.371  61%   0.209 Tau                                                 
    6.201 999% 4.4E-03 -CrCH2                                              
  511.532   4%   0.366 GPC+PCh                                             
 2.07E+03   3%   1.486 NAA+NAAG                                            
 1.40E+03   4%   1.000 Cr+PCr                                              
 1.98E+03  16%   1.418 Glu+Gln                                             
    0.000 999%   0.000 Lip13a                                              
  247.342  36%   0.177 Lip13b                                              
   53.522  81% 3.8E-02 Lip09                                               
  894.896  19%   0.641 MM09                                                
   36.963  77% 2.6E-02 Lip20                                               
 1.95E+03  15%   1.394 MM20                                                
  237.677  39%   0.170 MM12                                                
  616.382  37%   0.441 MM14                                                
  336.447  48%   0.241 MM17                                                
  247.342  36%   0.177 Lip13a+Lip13b                                       
 1.10E+03  25%   0.789 MM14+Lip13a+Lip13b+MM12                             
  948.419  18%   0.679 MM09+Lip09                                          
 1.98E+03  14%   1.420 MM20+Lip20                                          
   6 lines in following misc. output table
  FWHM = 0.054 ppm    S/N =  12                                            
  Data shift = 0.000 ppm                                                   
  Ph: -54 deg     -16.8 deg/ppm                                            
  alphaB,S = 8.7E-01,   8.4E+01                                            
   14 spline knots.   Ns = 6(1)                                            
  (11) 4 infls.   ( 5) 1 extrs.                                            
  498 points on ppm-axis = NY
      4.000000     3.992357     3.984714     3.977070     3.969427     3.961784     3.954141     3.946497     3.938854     3.931211
      3.923568     3.915925     3.908281     3.900638     3.892995     3.885352     3.877708     3.870065     3.862422     3.854779
      3.847136     3.839492     3.831849     3.824206     3.816563     3.808919     3.801276     3.793633     3.785990     3.778347
      3.770703     3.763060     3.755417     3.747774     3.740130     3.732487     3.724844     3.717201     3.709558     3.701914
      3.694271     3.686628     3.678985     3.671341     3.663698     3.656055     3.648412     3.640769     3.633125     3.625482
      3.617839     3.610196     3.602552     3.594909     3.587266     3.579623     3.571980     3.564336     3.556693     3.549050
      3.541407     3.533763     3.526120     3.518477     3.510834     3.503191     3.495547     3.487904     3.480261     3.472618
      3.464974     3.457331     3.449688     3.442045     3.434402     3.426758     3.419115     3.411472     3.403829     3.396185
      3.388542     3.380899     3.373256     3.365613     3.357969     3.350326     3.342683     3.335040     3.327396     3.319753
      3.312110     3.304467     3.296824     3.289180     3.281537     3.273894     3.266251     3.258607     3.250964     3.243321
      3.235678     3.228034     3.220391     3.212748     3.205105     3.197462     3.189818     3.182175     3.174532     3.166889
      3.159245     3.151602     3.143959     3.136316     3.128673     3.121029     3.113386     3.105743     3.098100     3.090456
      3.082813     3.075170     3.067527     3.059884     3.052240     3.044597     3.036954     3.029311     3.021667     3.014024
      3.006381     2.998738     2.991095     2.983451     2.975808     2.968165     2.960522     2.952878     2.945235     2.937592
      2.929949     2.922306     2.914662     2.907019     2.899376     2.891733     2.884089     2.876446     2.868803     2.861160
      2.853517     2.845873     2.838230     2.830587     2.822944     2.815300     2.807657     2.800014     2.792371     2.784728
      2.777084     2.769441     2.761798     2.754155     2.746511     2.738868     2.731225     2.723582     2.715939     2.708295
      2.700652     2.693009     2.685366     2.677722     2.670079     2.662436     2.654793     2.647150     2.639506     2.631863
      2.624220     2.616577     2.608933     2.601290     2.593647     2.586004     2.578361     2.570717     2.563074     2.555431
      2.547788     2.540144     2.532501     2.524858     2.517215     2.509572     2.501928     2.494285     2.486642     2.478999
      2.471355     2.463712     2.456069     2.448426     2.440783     2.433139     2.425496     2.417853     2.410210     2.402566
      2.394923     2.387280     2.379637     2.371994     2.364350     2.356707     2.349064     2.341421     2.333777     2.326134
      2.318491     2.310848     2.303205     2.295561     2.287918     2.280275     2.272632     2.264988     2.257345     2.249702
      2.242059     2.234416     2.226772     2.219129     2.211486     2.203843     2.196199     2.188556     2.180913     2.173270
      2.165627     2.157983     2.150340     2.142697     2.135054     2.127410     2.119767     2.112124     2.104481     2.096838
      2.089194     2.081551     2.073908     2.066265     2.058621     2.050978     2.043335     2.035692     2.028049     2.020405
      2.012762     2.005119     1.997476     1.989833     1.982190     1.974546     1.966903     1.959260     1.951617     1.943974
      1.936331     1.928688     1.921045     1.913402     1.905759     1.898115     1.890472     1.882829     1.875186     1.867543
      1.859900     1.852257     1.844614     1.836971     1.829327     1.821684     1.814041     1.806398     1.798755     1.791112
      1.783469     1.775826     1.768183     1.760540     1.752896     1.745253     1.737610     1.729967     1.722324     1.714681
      1.707038     1.699395     1.691752     1.684108     1.676465     1.668822     1.661179     1.653536     1.645893     1.638250
      1.630607     1.622964     1.615321     1.607677     1.600034     1.592391     1.584748     1.577105     1.569462     1.561819
      1.554176     1.546533     1.538890     1.531246     1.523603     1.515960     1.508317     1.500674     1.493031     1.485388
      1.477745     1.470102     1.462458     1.454815     1.447172     1.439529     1.431886     1.424243     1.416600     1.408957
      1.401314     1.393671     1.386027     1.378384     1.370741     1.363098     1.355455     1.347812     1.340169     1.332526
      1.324883     1.317240     1.309596     1.301953     1.294310     1.286667     1.279024     1.271381     1.263738     1.256095
      1.248452     1.240808     1.233165     1.225522     1.217879     1.210236     1.202593     1.194950     1.187307     1.179664
      1.172021     1.164377     1.156734     1.149091     1.141448     1.133805     1.126162     1.118519     1.110876     1.103233
      1.095590     1.087946     1.080303     1.072660     1.065017     1.057374     1.049731     1.042088     1.034445     1.026802
      1.019158     1.011515     1.003872     0.996229     0.988586     0.980943     0.973300     0.965657     0.958014     0.950371
      0.942727     0.935084     0.927441     0.919798     0.912155     0.904512     0.896869     0.889226     0.881583     0.873940
      0.866296     0.858653     0.851010     0.843367     0.835724     0.828081     0.820438     0.812795     0.805152     0.797508
      0.789865     0.782222     0.774579     0.766936     0.759293     0.751650     0.744007     0.736364     0.728721     0.721077
      0.713434     0.705791     0.698148     0.690505     0.682862     0.675219     0.667576     0.659933     0.652290     0.644646
      0.637003     0.629360     0.621717     0.614074     0.606431     0.598788     0.591145     0.583502     0.575858     0.568215
      0.560572     0.552929     0.545286     0.537643     0.530000     0.522357     0.514714     0.507071     0.499427     0.491784
      0.484141     0.476498     0.468855     0.461212     0.453569     0.445925     0.438282     0.430639     0.422996     0.415353
      0.407710     0.400067     0.392424     0.384780     0.377137     0.369494     0.361851     0.354208     0.346565     0.338922
      0.331278     0.323635     0.315992     0.308349     0.300706     0.293063     0.285420     0.277777     0.270133     0.262490
      0.254847     0.247204     0.239561     0.231918     0.224275     0.216631     0.208988     0.201345
 NY phased data points follow
  -4.43224E+01 -3.79670E+01 -3.85432E+01 -3.55370E+01 -3.37330E+01 -3.11152E+01 -2.30401E+01 -1.59783E+01 -1.16802E+01 -5.51476E+00
  -3.77310E+00 -5.00122E+00 -9.53570E+00 -1.25877E+01 -1.77626E+01 -1.98475E+01 -2.60647E+01 -2.56011E+01 -2.75763E+01 -2.75839E+01
  -2.98133E+01 -3.37756E+01 -3.19219E+01 -3.44378E+01 -3.35265E+01 -3.28874E+01 -3.27319E+01 -2.83267E+01 -2.46613E+01 -2.57518E+01
  -1.98696E+01 -2.43726E+01 -1.83066E+01 -2.17710E+01 -2.33288E+01 -2.35909E+01 -2.54062E+01 -2.66909E+01 -2.49391E+01 -2.50774E+01
  -2.37588E+01 -2.70987E+01 -2.73838E+01 -2.58150E+01 -2.32100E+01 -2.06102E+01 -1.79877E+01 -1.82840E+01 -1.54975E+01 -1.77936E+01
  -2.25105E+01 -2.32044E+01 -2.14113E+01 -2.32206E+01 -2.11163E+01 -2.10101E+01 -2.44270E+01 -1.57402E+01 -2.11381E+01 -2.39010E+01
  -2.63427E+01 -2.61432E+01 -2.65571E+01 -2.49075E+01 -2.78052E+01 -2.55313E+01 -3.13534E+01 -2.65286E+01 -2.62222E+01 -2.53950E+01
  -2.40803E+01 -2.72104E+01 -2.28123E+01 -2.72346E+01 -2.23572E+01 -2.17815E+01 -1.89500E+01 -2.13918E+01 -2.20852E+01 -2.04579E+01
  -2.09268E+01 -1.95305E+01 -2.07181E+01 -1.93967E+01 -1.87470E+01 -2.03615E+01 -1.60696E+01 -1.71244E+01 -1.40174E+01 -1.60042E+01
  -1.67143E+01 -1.34170E+01 -1.26455E+01 -1.67965E+01 -1.73248E+01 -1.58751E+01 -1.52322E+01 -1.63153E+01 -6.44056E+00  1.40554E+00
   1.00660E+01  2.02927E+01  2.48195E+01  2.57077E+01  2.30442E+01  2.09369E+01  1.14624E+01  4.06084E+00  4.13829E-01 -1.12534E+00
  -4.07076E+00 -5.68452E+00 -5.40253E+00 -5.24605E+00 -9.74925E+00 -1.11983E+01 -1.42457E+01 -1.24516E+01 -1.20034E+01 -1.61653E+01
  -1.78619E+01 -1.65509E+01 -1.02608E+01  7.85864E-01  1.10737E+01  2.07600E+01  2.95954E+01  2.89734E+01  3.13084E+01  2.49381E+01
   1.71351E+01  7.70906E+00  8.52462E+00  2.99093E+00 -2.04032E-01 -4.66873E+00 -8.92057E+00 -9.26210E+00 -1.20656E+01 -1.00022E+01
  -1.57160E+01 -1.50478E+01 -1.99591E+01 -1.49215E+01 -1.38801E+01 -1.50552E+01 -1.33409E+01 -1.57437E+01 -1.28547E+01 -1.27747E+01
  -1.27405E+01 -1.29454E+01 -1.29499E+01 -1.52876E+01 -1.16771E+01 -1.33748E+01 -1.07385E+01 -1.36809E+01 -1.20391E+01 -1.50235E+01
  -1.49253E+01 -1.69880E+01 -1.42090E+01 -1.54329E+01 -1.23322E+01 -1.40529E+01 -1.19061E+01 -1.26073E+01 -1.06264E+01 -1.80504E+01
  -1.49885E+01 -1.40471E+01 -1.80367E+01 -1.79604E+01 -1.73456E+01 -1.50317E+01 -1.48880E+01 -1.49881E+01 -1.21761E+01 -1.64800E+01
  -1.40754E+01 -1.54181E+01 -1.52431E+01 -2.09438E+01 -1.83470E+01 -1.52578E+01 -1.61418E+01 -1.29442E+01 -1.10888E+01 -6.59441E+00
  -3.57924E+00 -3.35496E+00 -2.03853E+00  5.63148E-01  3.77272E-01 -4.62196E+00 -6.36621E+00 -4.94072E+00 -5.87722E+00 -4.70248E+00
  -5.06680E+00 -8.13819E-01  5.97537E-01 -5.83786E-01  1.69756E+00 -1.88728E+00 -8.40550E+00 -6.80818E+00 -9.20180E+00 -1.47678E+01
  -1.01442E+01 -1.03871E+01 -6.46475E+00  2.27154E+00  4.70143E+00  4.29583E+00  8.52754E+00  3.42456E+00  1.66916E-01 -4.48757E+00
  -2.69161E-01 -2.18727E+00 -2.57988E+00 -3.46361E+00 -2.53771E+00  2.17844E+00  3.76309E+00 -6.56434E-01  2.43497E-01  1.01103E+00
   7.80218E-01  2.00929E-01  3.76615E+00  7.23067E+00  6.26772E+00  6.82947E+00  6.06989E+00  6.69883E+00  2.18317E+00  1.42937E+00
  -1.10597E+00 -1.59997E+00 -1.87143E+00  1.02671E+00  3.45324E+00  5.36026E+00  9.70429E+00  1.32409E+01  8.91420E+00  8.23226E+00
   7.79265E+00  8.24947E+00  5.30157E+00  2.95258E+00  2.45499E+00  8.85976E+00  2.12355E+01  3.67021E+01  5.36524E+01  6.84165E+01
   7.41149E+01  7.67808E+01  6.10054E+01  4.89313E+01  3.88846E+01  3.21877E+01  2.98286E+01  2.32437E+01  1.92822E+01  1.52143E+01
   1.22853E+01  5.40211E+00  5.85641E+00 -3.98924E-01 -1.29640E+00  1.16055E+00  5.29684E-01  5.42582E-01  3.65494E+00  3.53790E+00
   2.70536E+00  3.74705E+00  1.69055E+00  4.09942E+00 -1.70152E+00  1.12027E+00  8.91623E-01  4.03413E+00  1.70693E+00  2.79982E+00
   5.57204E-01  4.02924E-01 -1.72789E+00 -7.24659E-02  2.04593E+00 -8.96939E-01  4.65829E+00  2.68913E-01  1.69845E+00 -1.71513E+00
   2.56179E+00 -2.43695E-01 -6.84346E-01  2.62790E+00  1.39458E+00  1.25716E-02  4.10518E+00  2.59249E+00  2.80428E+00  2.97767E+00
   5.17879E+00  5.43778E+00  3.81050E+00  5.62566E+00  3.99545E+00  2.94555E+00  2.94908E-01  3.67788E+00  7.04582E+00  9.22560E+00
   7.49446E+00  6.67049E+00  4.68292E+00  2.38838E+00  6.43205E+00 -4.32665E-01  5.87102E+00  3.48418E+00  3.41111E+00  1.90437E+00
   3.49755E+00 -3.69982E-01  5.27585E+00  1.48667E-01  3.44363E+00  7.36643E+00  2.64410E+00  5.42845E+00  3.34766E+00  3.38034E-01
   3.48407E+00  4.46175E+00  7.18347E+00  8.82044E+00  2.11912E+00  6.30359E+00  4.48351E+00  6.04433E+00  6.09488E+00  5.43847E+00
   4.37373E+00  5.49104E+00  8.08328E+00  9.16028E+00  4.90088E+00  7.19400E+00  8.31589E+00  3.63410E+00  6.06999E+00  7.66069E+00
   5.76780E+00  5.39334E+00  4.01771E+00  5.03710E+00  1.89116E+00  1.59684E+00  4.04471E+00  2.83393E+00  3.88506E+00  3.10452E+00
   4.92002E-01  3.50857E+00  4.17584E+00  1.38352E+00  3.97111E+00  3.17062E+00  3.13097E+00  1.42823E+00  2.34179E+00  2.68702E-01
   3.57889E+00  1.88500E+00  3.25891E+00  2.16339E+00  3.44285E+00 -1.93652E-02 -1.10451E+00  7.34646E+00  1.59308E+00  2.83668E+00
   5.41732E+00  7.05613E+00  6.78325E+00  7.29458E+00  8.27939E+00  4.55276E+00  5.76360E+00  5.19170E+00  8.49843E+00  6.20162E+00
   9.50590E+00  1.01073E+01  7.50364E+00  6.19406E+00  7.84726E+00  5.18626E+00  8.76796E+00  5.84363E+00  7.16410E+00  9.93021E+00
   5.88491E+00  7.26480E+00  1.00141E+01  9.45351E+00  1.15725E+01  1.13907E+01  1.04893E+01  9.26615E+00  8.55942E+00  6.64220E+00
   6.11099E+00  7.45103E+00  4.69937E+00  4.83370E+00  6.94509E+00  5.15109E+00  7.39648E+00  6.06281E+00  7.03313E+00  6.18768E+00
   7.76840E+00  9.21602E+00  5.58075E+00  6.27702E+00  6.39085E+00  8.16026E+00  7.71944E+00  6.99400E+00  4.16755E+00  4.75187E+00
   4.44293E+00  4.55701E+00  5.39206E+00  6.61739E+00  5.29239E+00  6.01261E+00  7.32983E+00  3.66227E+00  4.81055E+00  8.93527E+00
   6.46222E+00  5.02546E+00  6.96048E+00  3.97755E+00  7.78163E+00  7.67034E+00  7.19591E+00  3.35424E+00  3.77325E+00  6.29837E+00
   5.56571E+00  6.15783E+00  7.67583E+00  7.61405E+00  7.34558E+00  5.57495E+00  6.42360E+00  3.80897E+00  5.49276E+00  6.32238E+00
   6.68630E+00  5.81297E+00  6.80559E+00  5.00538E+00  6.34868E+00  9.33867E+00  5.01742E+00  5.66989E+00  6.41000E+00  5.72431E+00
   5.29929E+00  6.30631E+00  7.83267E+00  7.04205E+00  3.56169E+00  3.56415E+00  7.69193E+00  5.12274E+00  2.25444E+00  8.65234E+00
   8.67579E+00  7.49581E+00  6.94948E+00  8.43648E+00  5.99659E+00  7.34440E+00  6.29373E+00  5.85072E+00
 NY points of the fit to the data follow
  -3.76998E+01 -3.75001E+01 -3.70462E+01 -3.62407E+01 -3.41688E+01 -2.99246E+01 -2.36739E+01 -1.65244E+01 -1.00815E+01 -5.77126E+00
  -4.47125E+00 -6.21856E+00 -9.98391E+00 -1.41099E+01 -1.72528E+01 -1.94072E+01 -2.18172E+01 -2.51529E+01 -2.77741E+01 -2.93923E+01
  -2.99914E+01 -3.01638E+01 -3.04376E+01 -3.10309E+01 -3.17030E+01 -3.16843E+01 -3.04312E+01 -2.81260E+01 -2.53256E+01 -2.26177E+01
  -2.06227E+01 -1.99210E+01 -2.06148E+01 -2.21427E+01 -2.37682E+01 -2.48329E+01 -2.56196E+01 -2.67590E+01 -2.76675E+01 -2.76855E+01
  -2.73973E+01 -2.69710E+01 -2.60483E+01 -2.44113E+01 -2.26144E+01 -2.12047E+01 -2.03173E+01 -2.01545E+01 -2.07386E+01 -2.18033E+01
  -2.30152E+01 -2.38430E+01 -2.41498E+01 -2.44543E+01 -2.49905E+01 -2.52547E+01 -2.49192E+01 -2.43083E+01 -2.37989E+01 -2.34765E+01
  -2.34000E+01 -2.35500E+01 -2.38285E+01 -2.40518E+01 -2.40373E+01 -2.38313E+01 -2.36256E+01 -2.34306E+01 -2.31969E+01 -2.29377E+01
  -2.25592E+01 -2.20541E+01 -2.15269E+01 -2.11488E+01 -2.10239E+01 -2.11177E+01 -2.14005E+01 -2.17108E+01 -2.19263E+01 -2.20076E+01
  -2.17450E+01 -2.09943E+01 -1.98066E+01 -1.84522E+01 -1.71773E+01 -1.62761E+01 -1.58970E+01 -1.60363E+01 -1.66468E+01 -1.74943E+01
  -1.81501E+01 -1.83891E+01 -1.84701E+01 -1.87969E+01 -1.92851E+01 -1.91202E+01 -1.81072E+01 -1.56925E+01 -1.00905E+01 -7.45094E-01
   1.02690E+01  2.01592E+01  2.66751E+01  2.84680E+01  2.52641E+01  1.83943E+01  1.07719E+01  5.24299E+00  2.11068E+00 -1.10359E+00
  -6.62513E+00 -1.22673E+01 -1.45991E+01 -1.53270E+01 -1.55933E+01 -1.57466E+01 -1.58129E+01 -1.57958E+01 -1.56989E+01 -1.54791E+01
  -1.49831E+01 -1.35085E+01 -9.12680E+00 -4.85748E-01  1.06533E+01  2.12483E+01  2.88262E+01  3.19041E+01  2.99341E+01  2.38731E+01
   1.64224E+01  1.04821E+01  7.01459E+00  3.97818E+00 -1.59185E+00 -8.69145E+00 -1.20777E+01 -1.27881E+01 -1.25929E+01 -1.20926E+01
  -1.16995E+01 -1.15439E+01 -1.14407E+01 -1.13461E+01 -1.13149E+01 -1.12933E+01 -1.13150E+01 -1.14564E+01 -1.16490E+01 -1.18996E+01
  -1.20817E+01 -1.21871E+01 -1.22373E+01 -1.22268E+01 -1.21470E+01 -1.20514E+01 -1.20772E+01 -1.23118E+01 -1.26890E+01 -1.30517E+01
  -1.31876E+01 -1.29853E+01 -1.25378E+01 -1.20334E+01 -1.16757E+01 -1.16054E+01 -1.18565E+01 -1.22502E+01 -1.24787E+01 -1.24438E+01
  -1.24563E+01 -1.27030E+01 -1.32747E+01 -1.38955E+01 -1.41295E+01 -1.40542E+01 -1.38293E+01 -1.35739E+01 -1.33172E+01 -1.30993E+01
  -1.29976E+01 -1.30135E+01 -1.30227E+01 -1.28576E+01 -1.24661E+01 -1.20356E+01 -1.14358E+01 -1.03634E+01 -8.87352E+00 -7.34935E+00
  -6.40712E+00 -6.17750E+00 -6.40325E+00 -6.75920E+00 -6.99175E+00 -6.97090E+00 -6.82941E+00 -6.43505E+00 -5.74238E+00 -4.71221E+00
  -3.35113E+00 -1.96340E+00 -9.95652E-01 -7.47669E-01 -1.43871E+00 -2.90976E+00 -4.78206E+00 -6.70493E+00 -8.15937E+00 -8.72700E+00
  -8.21990E+00 -6.76158E+00 -4.58395E+00 -2.12680E+00 -1.19701E-02  1.48299E+00  2.01471E+00  1.12895E+00 -1.41312E+00 -4.38407E+00
  -6.40421E+00 -7.13414E+00 -7.02648E+00 -6.28203E+00 -4.83692E+00 -2.70230E+00 -9.66733E-01 -9.39859E-02  2.48671E-01  6.30262E-01
   1.07172E+00  1.13811E+00  1.04748E+00  1.45226E+00  2.37356E+00  3.42322E+00  4.31499E+00  4.76053E+00  4.59986E+00  3.82186E+00
   2.61645E+00  1.64356E+00  1.44313E+00  1.86521E+00  2.49924E+00  3.25869E+00  4.00503E+00  4.50800E+00  4.83248E+00  5.28706E+00
   5.90876E+00  6.53455E+00  7.04067E+00  7.48610E+00  8.53163E+00  1.26470E+01  2.29123E+01  3.83401E+01  5.45917E+01  6.74781E+01
   7.40646E+01  7.27943E+01  6.41672E+01  5.17531E+01  4.07039E+01  3.41430E+01  3.02853E+01  2.39526E+01  1.36205E+01  6.86889E+00
   4.96741E+00  4.18676E+00  3.78276E+00  3.64252E+00  3.53431E+00  3.37994E+00  3.18466E+00  2.95131E+00  2.71874E+00  2.52675E+00
   2.35070E+00  2.15872E+00  1.98323E+00  1.85527E+00  1.76181E+00  1.68510E+00  1.61856E+00  1.57099E+00  1.55153E+00  1.54306E+00
   1.53995E+00  1.54882E+00  1.56901E+00  1.60109E+00  1.64794E+00  1.71076E+00  1.78787E+00  1.87519E+00  1.97299E+00  2.08193E+00
   2.19998E+00  2.32456E+00  2.45230E+00  2.58050E+00  2.70650E+00  2.82785E+00  2.94248E+00  3.04880E+00  3.14568E+00  3.23223E+00
   3.30757E+00  3.37168E+00  3.42630E+00  3.47307E+00  3.51428E+00  3.55315E+00  3.59394E+00  3.64213E+00  3.70498E+00  3.79428E+00
   3.93464E+00  4.17260E+00  4.50486E+00  4.79354E+00  4.88352E+00  4.71512E+00  4.30646E+00  3.71726E+00  3.04487E+00  2.46968E+00
   2.22603E+00  2.39908E+00  2.83127E+00  3.31164E+00  3.78938E+00  4.35702E+00  4.81820E+00  4.98655E+00  4.96198E+00  4.91838E+00
   4.95519E+00  4.99376E+00  4.86071E+00  4.65376E+00  4.55763E+00  4.53958E+00  4.58260E+00  4.68854E+00  4.86238E+00  5.11042E+00
   5.43359E+00  5.80964E+00  6.19029E+00  6.51857E+00  6.75067E+00  6.86520E+00  6.83988E+00  6.66352E+00  6.36223E+00  5.97892E+00
   5.55588E+00  5.12299E+00  4.70184E+00  4.32692E+00  4.01955E+00  3.77928E+00  3.60014E+00  3.47269E+00  3.38597E+00  3.32941E+00
   3.29419E+00  3.27375E+00  3.26367E+00  3.26125E+00  3.26512E+00  3.27490E+00  3.29097E+00  3.31418E+00  3.34557E+00  3.38620E+00
   3.43718E+00  3.49969E+00  3.57506E+00  3.66464E+00  3.76971E+00  3.89144E+00  4.03094E+00  4.18936E+00  4.36774E+00  4.56693E+00
   4.78738E+00  5.02912E+00  5.29174E+00  5.57439E+00  5.87556E+00  6.19297E+00  6.52346E+00  6.86307E+00  7.20714E+00  7.55038E+00
   7.88690E+00  8.21036E+00  8.51412E+00  8.79167E+00  9.03687E+00  9.24427E+00  9.40920E+00  9.52803E+00  9.59836E+00  9.61923E+00
   9.59120E+00  9.51626E+00  9.39759E+00  9.23950E+00  9.04719E+00  8.82663E+00  8.58420E+00  8.32637E+00  8.05940E+00  7.78913E+00
   7.52090E+00  7.25945E+00  7.00876E+00  6.77193E+00  6.55122E+00  6.34812E+00  6.16351E+00  5.99774E+00  5.85063E+00  5.72157E+00
   5.60959E+00  5.51358E+00  5.43236E+00  5.36472E+00  5.30939E+00  5.26508E+00  5.23056E+00  5.20473E+00  5.18663E+00  5.17541E+00
   5.17024E+00  5.17032E+00  5.17497E+00  5.18367E+00  5.19597E+00  5.21145E+00  5.22970E+00  5.25032E+00  5.27300E+00  5.29755E+00
   5.32378E+00  5.35148E+00  5.38043E+00  5.41043E+00  5.44139E+00  5.47325E+00  5.50594E+00  5.53937E+00  5.57339E+00  5.60793E+00
   5.64297E+00  5.67852E+00  5.71454E+00  5.75094E+00  5.78763E+00  5.82461E+00  5.86188E+00  5.89948E+00  5.93734E+00  5.97539E+00
   6.01361E+00  6.05200E+00  6.09061E+00  6.12945E+00  6.16845E+00  6.20756E+00  6.24678E+00  6.28615E+00  6.32570E+00  6.36541E+00
   6.40524E+00  6.44514E+00  6.48514E+00  6.52531E+00  6.56564E+00  6.60612E+00  6.64668E+00  6.68734E+00  6.72812E+00  6.76910E+00
   6.81025E+00  6.85153E+00  6.89293E+00  6.93445E+00  6.97617E+00  7.01811E+00  7.06026E+00  7.10257E+00
 NY background values follow
    -3.994E+01   -3.973E+01   -3.952E+01   -3.930E+01   -3.909E+01   -3.888E+01   -3.867E+01   -3.846E+01   -3.824E+01   -3.803E+01
    -3.782E+01   -3.761E+01   -3.740E+01   -3.719E+01   -3.697E+01   -3.676E+01   -3.655E+01   -3.634E+01   -3.613E+01   -3.592E+01
    -3.571E+01   -3.550E+01   -3.529E+01   -3.508E+01   -3.487E+01   -3.466E+01   -3.445E+01   -3.424E+01   -3.403E+01   -3.382E+01
    -3.362E+01   -3.341E+01   -3.320E+01   -3.299E+01   -3.279E+01   -3.258E+01   -3.237E+01   -3.217E+01   -3.196E+01   -3.176E+01
    -3.155E+01   -3.135E+01   -3.115E+01   -3.094E+01   -3.074E+01   -3.054E+01   -3.034E+01   -3.013E+01   -2.993E+01   -2.973E+01
    -2.953E+01   -2.933E+01   -2.913E+01   -2.894E+01   -2.874E+01   -2.854E+01   -2.835E+01   -2.815E+01   -2.795E+01   -2.776E+01
    -2.757E+01   -2.737E+01   -2.718E+01   -2.699E+01   -2.680E+01   -2.661E+01   -2.642E+01   -2.623E+01   -2.604E+01   -2.585E+01
    -2.567E+01   -2.548E+01   -2.530E+01   -2.511E+01   -2.493E+01   -2.475E+01   -2.457E+01   -2.439E+01   -2.421E+01   -2.403E+01
    -2.385E+01   -2.368E+01   -2.350E+01   -2.333E+01   -2.315E+01   -2.298E+01   -2.281E+01   -2.264E+01   -2.247E+01   -2.230E+01
    -2.214E+01   -2.197E+01   -2.181E+01   -2.164E+01   -2.148E+01   -2.132E+01   -2.116E+01   -2.100E+01   -2.084E+01   -2.068E+01
    -2.053E+01   -2.037E+01   -2.022E+01   -2.006E+01   -1.991E+01   -1.976E+01   -1.961E+01   -1.946E+01   -1.931E+01   -1.916E+01
    -1.901E+01   -1.887E+01   -1.872E+01   -1.857E+01   -1.843E+01   -1.829E+01   -1.814E+01   -1.800E+01   -1.786E+01   -1.772E+01
    -1.757E+01   -1.743E+01   -1.729E+01   -1.716E+01   -1.702E+01   -1.688E+01   -1.674E+01   -1.660E+01   -1.647E+01   -1.633E+01
    -1.619E+01   -1.606E+01   -1.592E+01   -1.579E+01   -1.565E+01   -1.552E+01   -1.538E+01   -1.525E+01   -1.512E+01   -1.498E+01
    -1.485E+01   -1.472E+01   -1.458E+01   -1.445E+01   -1.432E+01   -1.419E+01   -1.405E+01   -1.392E+01   -1.379E+01   -1.366E+01
    -1.353E+01   -1.340E+01   -1.327E+01   -1.314E+01   -1.300E+01   -1.287E+01   -1.274E+01   -1.261E+01   -1.248E+01   -1.235E+01
    -1.222E+01   -1.209E+01   -1.196E+01   -1.183E+01   -1.170E+01   -1.157E+01   -1.144E+01   -1.131E+01   -1.118E+01   -1.105E+01
    -1.092E+01   -1.079E+01   -1.066E+01   -1.053E+01   -1.040E+01   -1.027E+01   -1.013E+01   -1.000E+01   -9.873E+00   -9.742E+00
    -9.610E+00   -9.479E+00   -9.347E+00   -9.216E+00   -9.084E+00   -8.952E+00   -8.820E+00   -8.689E+00   -8.557E+00   -8.426E+00
    -8.294E+00   -8.163E+00   -8.033E+00   -7.902E+00   -7.772E+00   -7.643E+00   -7.514E+00   -7.385E+00   -7.257E+00   -7.129E+00
    -7.003E+00   -6.876E+00   -6.751E+00   -6.626E+00   -6.502E+00   -6.379E+00   -6.257E+00   -6.135E+00   -6.015E+00   -5.895E+00
    -5.777E+00   -5.660E+00   -5.544E+00   -5.429E+00   -5.315E+00   -5.202E+00   -5.091E+00   -4.981E+00   -4.873E+00   -4.766E+00
    -4.660E+00   -4.556E+00   -4.454E+00   -4.353E+00   -4.253E+00   -4.156E+00   -4.060E+00   -3.966E+00   -3.873E+00   -3.783E+00
    -3.694E+00   -3.606E+00   -3.521E+00   -3.437E+00   -3.354E+00   -3.273E+00   -3.194E+00   -3.116E+00   -3.040E+00   -2.965E+00
    -2.892E+00   -2.820E+00   -2.749E+00   -2.680E+00   -2.613E+00   -2.546E+00   -2.481E+00   -2.417E+00   -2.355E+00   -2.294E+00
    -2.234E+00   -2.175E+00   -2.117E+00   -2.061E+00   -2.006E+00   -1.951E+00   -1.898E+00   -1.846E+00   -1.795E+00   -1.745E+00
    -1.696E+00   -1.648E+00   -1.601E+00   -1.555E+00   -1.510E+00   -1.466E+00   -1.422E+00   -1.380E+00   -1.338E+00   -1.297E+00
    -1.257E+00   -1.218E+00   -1.179E+00   -1.141E+00   -1.103E+00   -1.067E+00   -1.031E+00   -9.956E-01   -9.609E-01   -9.269E-01
    -8.935E-01   -8.607E-01   -8.286E-01   -7.970E-01   -7.659E-01   -7.355E-01   -7.056E-01   -6.762E-01   -6.473E-01   -6.190E-01
    -5.911E-01   -5.637E-01   -5.368E-01   -5.104E-01   -4.844E-01   -4.588E-01   -4.337E-01   -4.089E-01   -3.846E-01   -3.606E-01
    -3.370E-01   -3.138E-01   -2.909E-01   -2.683E-01   -2.461E-01   -2.241E-01   -2.025E-01   -1.811E-01   -1.600E-01   -1.391E-01
    -1.185E-01   -9.815E-02   -7.799E-02   -5.804E-02   -3.827E-02   -1.868E-02    7.394E-04    2.001E-02    3.914E-02    5.814E-02
     7.703E-02    9.581E-02    1.145E-01    1.331E-01    1.517E-01    1.702E-01    1.887E-01    2.072E-01    2.256E-01    2.441E-01
     2.626E-01    2.811E-01    2.996E-01    3.182E-01    3.369E-01    3.557E-01    3.745E-01    3.935E-01    4.126E-01    4.318E-01
     4.512E-01    4.707E-01    4.905E-01    5.104E-01    5.305E-01    5.508E-01    5.714E-01    5.922E-01    6.132E-01    6.345E-01
     6.561E-01    6.780E-01    7.002E-01    7.228E-01    7.456E-01    7.688E-01    7.924E-01    8.163E-01    8.407E-01    8.654E-01
     8.905E-01    9.161E-01    9.421E-01    9.686E-01    9.955E-01    1.023E+00    1.051E+00    1.079E+00    1.108E+00    1.137E+00
     1.166E+00    1.196E+00    1.227E+00    1.258E+00    1.289E+00    1.321E+00    1.353E+00    1.386E+00    1.419E+00    1.452E+00
     1.486E+00    1.521E+00    1.556E+00    1.591E+00    1.627E+00    1.663E+00    1.699E+00    1.737E+00    1.774E+00    1.812E+00
     1.850E+00    1.889E+00    1.929E+00    1.968E+00    2.008E+00    2.049E+00    2.090E+00    2.132E+00    2.173E+00    2.216E+00
     2.259E+00    2.302E+00    2.345E+00    2.390E+00    2.434E+00    2.479E+00    2.525E+00    2.570E+00    2.617E+00    2.663E+00
     2.710E+00    2.758E+00    2.806E+00    2.854E+00    2.902E+00    2.951E+00    3.000E+00    3.050E+00    3.100E+00    3.150E+00
     3.200E+00    3.250E+00    3.301E+00    3.352E+00    3.403E+00    3.454E+00    3.506E+00    3.557E+00    3.609E+00    3.660E+00
     3.712E+00    3.764E+00    3.816E+00    3.868E+00    3.920E+00    3.972E+00    4.024E+00    4.076E+00    4.128E+00    4.180E+00
     4.232E+00    4.283E+00    4.335E+00    4.386E+00    4.438E+00    4.489E+00    4.540E+00    4.591E+00    4.642E+00    4.692E+00
     4.743E+00    4.793E+00    4.842E+00    4.892E+00    4.941E+00    4.990E+00    5.039E+00    5.087E+00    5.136E+00    5.184E+00
     5.232E+00    5.279E+00    5.327E+00    5.374E+00    5.421E+00    5.468E+00    5.515E+00    5.561E+00    5.608E+00    5.654E+00
     5.700E+00    5.746E+00    5.792E+00    5.837E+00    5.883E+00    5.929E+00    5.974E+00    6.019E+00    6.064E+00    6.110E+00
     6.155E+00    6.200E+00    6.245E+00    6.290E+00    6.334E+00    6.379E+00    6.424E+00    6.469E+00    6.514E+00    6.559E+00
     6.603E+00    6.648E+00    6.693E+00    6.738E+00    6.783E+00    6.828E+00    6.873E+00    6.918E+00
 Ala      Conc. = 1.37E+02
