 LCModel (Version 6.3-1L) Copyright: S.W. Provencher.          Ref.: Magn. Reson. Med. 30:672-679 (1993).                
 Slice#1 Row#12 Col#12  PD_05_press_1_raw_act
 36 lines in following concentration table = NCONC+1
    Conc.  %SD /Cr+PCr  Metabolite                                         
    0.000 999%   0.000 Ala                                                 
    3.665  92%   0.141 Asp                                                 
   26.013  49%   1.000 Cr                                                  
    0.000 999%   0.000 PCr                                                 
    2.200  92% 8.5E-02 GABA                                                
    2.238  91% 8.6E-02 Glc                                                 
   54.834  82%   2.108 Gln                                                 
   22.679 201%   0.872 Glu                                                 
    9.222  54%   0.355 GPC                                                 
    0.000 999%   0.000 PCh                                                 
   31.895  56%   1.226 GSH                                                 
   60.630  85%   2.331 Ins                                                 
   32.721  78%   1.258 Lac                                                 
   21.080  66%   0.810 NAA                                                 
    0.000 999%   0.000 NAAG                                                
    0.703  97% 2.7E-02 Scyllo                                              
    3.385 100%   0.130 Tau                                                 
    2.725 158%   0.105 -CrCH2                                              
    9.222  54%   0.355 GPC+PCh                                             
   21.080  66%   0.810 NAA+NAAG                                            
   26.013  49%   1.000 Cr+PCr                                              
   77.513  80%   2.980 Glu+Gln                                             
 1.84E+03  11%  70.625 Lip13a                                              
    0.000 999%   0.000 Lip13b                                              
  393.002  19%  15.108 Lip09                                               
    0.000 999%   0.000 MM09                                                
  242.807  29%   9.334 Lip20                                               
    0.000 999%   0.000 MM20                                                
    7.588 496%   0.292 MM12                                                
  135.248  79%   5.199 MM14                                                
  236.114  30%   9.077 MM17                                                
 1.84E+03  11%  70.625 Lip13a+Lip13b                                       
 1.98E+03   8%  76.116 MM14+Lip13a+Lip13b+MM12                             
  393.002  19%  15.108 MM09+Lip09                                          
  242.807  29%   9.334 MM20+Lip20                                          
   6 lines in following misc. output table
  FWHM = 0.046 ppm    S/N =   2                                            
  Data shift = 0.008 ppm                                                   
  Ph:  78 deg      -8.3 deg/ppm                                            
  alphaB,S = 8.5E+01,   6.4E+00                                            
   14 spline knots.   Ns = 5(1)                                            
   2 inflections.     2 extrema                                            
  498 points on ppm-axis = NY
      4.000000     3.992357     3.984714     3.977070     3.969427     3.961784     3.954141     3.946497     3.938854     3.931211
      3.923568     3.915925     3.908281     3.900638     3.892995     3.885352     3.877708     3.870065     3.862422     3.854779
      3.847136     3.839492     3.831849     3.824206     3.816563     3.808919     3.801276     3.793633     3.785990     3.778347
      3.770703     3.763060     3.755417     3.747774     3.740130     3.732487     3.724844     3.717201     3.709558     3.701914
      3.694271     3.686628     3.678985     3.671341     3.663698     3.656055     3.648412     3.640769     3.633125     3.625482
      3.617839     3.610196     3.602552     3.594909     3.587266     3.579623     3.571980     3.564336     3.556693     3.549050
      3.541407     3.533763     3.526120     3.518477     3.510834     3.503191     3.495547     3.487904     3.480261     3.472618
      3.464974     3.457331     3.449688     3.442045     3.434402     3.426758     3.419115     3.411472     3.403829     3.396185
      3.388542     3.380899     3.373256     3.365613     3.357969     3.350326     3.342683     3.335040     3.327396     3.319753
      3.312110     3.304467     3.296824     3.289180     3.281537     3.273894     3.266251     3.258607     3.250964     3.243321
      3.235678     3.228034     3.220391     3.212748     3.205105     3.197462     3.189818     3.182175     3.174532     3.166889
      3.159245     3.151602     3.143959     3.136316     3.128673     3.121029     3.113386     3.105743     3.098100     3.090456
      3.082813     3.075170     3.067527     3.059884     3.052240     3.044597     3.036954     3.029311     3.021667     3.014024
      3.006381     2.998738     2.991095     2.983451     2.975808     2.968165     2.960522     2.952878     2.945235     2.937592
      2.929949     2.922306     2.914662     2.907019     2.899376     2.891733     2.884089     2.876446     2.868803     2.861160
      2.853517     2.845873     2.838230     2.830587     2.822944     2.815300     2.807657     2.800014     2.792371     2.784728
      2.777084     2.769441     2.761798     2.754155     2.746511     2.738868     2.731225     2.723582     2.715939     2.708295
      2.700652     2.693009     2.685366     2.677722     2.670079     2.662436     2.654793     2.647150     2.639506     2.631863
      2.624220     2.616577     2.608933     2.601290     2.593647     2.586004     2.578361     2.570717     2.563074     2.555431
      2.547788     2.540144     2.532501     2.524858     2.517215     2.509572     2.501928     2.494285     2.486642     2.478999
      2.471355     2.463712     2.456069     2.448426     2.440783     2.433139     2.425496     2.417853     2.410210     2.402566
      2.394923     2.387280     2.379637     2.371994     2.364350     2.356707     2.349064     2.341421     2.333777     2.326134
      2.318491     2.310848     2.303205     2.295561     2.287918     2.280275     2.272632     2.264988     2.257345     2.249702
      2.242059     2.234416     2.226772     2.219129     2.211486     2.203843     2.196199     2.188556     2.180913     2.173270
      2.165627     2.157983     2.150340     2.142697     2.135054     2.127410     2.119767     2.112124     2.104481     2.096838
      2.089194     2.081551     2.073908     2.066265     2.058621     2.050978     2.043335     2.035692     2.028049     2.020405
      2.012762     2.005119     1.997476     1.989833     1.982190     1.974546     1.966903     1.959260     1.951617     1.943974
      1.936331     1.928688     1.921045     1.913402     1.905759     1.898115     1.890472     1.882829     1.875186     1.867543
      1.859900     1.852257     1.844614     1.836971     1.829327     1.821684     1.814041     1.806398     1.798755     1.791112
      1.783469     1.775826     1.768183     1.760540     1.752896     1.745253     1.737610     1.729967     1.722324     1.714681
      1.707038     1.699395     1.691752     1.684108     1.676465     1.668822     1.661179     1.653536     1.645893     1.638250
      1.630607     1.622964     1.615321     1.607677     1.600034     1.592391     1.584748     1.577105     1.569462     1.561819
      1.554176     1.546533     1.538890     1.531246     1.523603     1.515960     1.508317     1.500674     1.493031     1.485388
      1.477745     1.470102     1.462458     1.454815     1.447172     1.439529     1.431886     1.424243     1.416600     1.408957
      1.401314     1.393671     1.386027     1.378384     1.370741     1.363098     1.355455     1.347812     1.340169     1.332526
      1.324883     1.317240     1.309596     1.301953     1.294310     1.286667     1.279024     1.271381     1.263738     1.256095
      1.248452     1.240808     1.233165     1.225522     1.217879     1.210236     1.202593     1.194950     1.187307     1.179664
      1.172021     1.164377     1.156734     1.149091     1.141448     1.133805     1.126162     1.118519     1.110876     1.103233
      1.095590     1.087946     1.080303     1.072660     1.065017     1.057374     1.049731     1.042088     1.034445     1.026802
      1.019158     1.011515     1.003872     0.996229     0.988586     0.980943     0.973300     0.965657     0.958014     0.950371
      0.942727     0.935084     0.927441     0.919798     0.912155     0.904512     0.896869     0.889226     0.881583     0.873940
      0.866296     0.858653     0.851010     0.843367     0.835724     0.828081     0.820438     0.812795     0.805152     0.797508
      0.789865     0.782222     0.774579     0.766936     0.759293     0.751650     0.744007     0.736364     0.728721     0.721077
      0.713434     0.705791     0.698148     0.690505     0.682862     0.675219     0.667576     0.659933     0.652290     0.644646
      0.637003     0.629360     0.621717     0.614074     0.606431     0.598788     0.591145     0.583502     0.575858     0.568215
      0.560572     0.552929     0.545286     0.537643     0.530000     0.522357     0.514714     0.507071     0.499427     0.491784
      0.484141     0.476498     0.468855     0.461212     0.453569     0.445925     0.438282     0.430639     0.422996     0.415353
      0.407710     0.400067     0.392424     0.384780     0.377137     0.369494     0.361851     0.354208     0.346565     0.338922
      0.331278     0.323635     0.315992     0.308349     0.300706     0.293063     0.285420     0.277777     0.270133     0.262490
      0.254847     0.247204     0.239561     0.231918     0.224275     0.216631     0.208988     0.201345
 NY phased data points follow
   6.42877E-02  1.20624E+00 -1.48213E+00 -1.73318E-01  8.81047E-01  1.17848E+00  7.30435E-01  7.11465E-01 -1.62561E-03 -7.17574E-01
   8.78241E-01  3.32312E-01  3.14511E+00 -6.14125E-01 -4.68030E-01  2.18921E-01  5.24112E-01  5.75164E-01 -6.70711E-02  3.13738E-01
  -8.28182E-01  3.30509E-01  4.70113E-02  1.72957E+00  2.13753E+00  6.53554E-01 -8.13579E-01 -4.98498E-01  4.90296E-01  2.01260E+00
   3.58079E+00  2.09002E-01  7.05590E-01  2.03599E+00 -4.88217E-01  1.79163E+00  1.59543E+00 -1.02754E+00 -1.32275E+00 -2.21036E-01
   1.87785E+00 -7.10053E-01 -6.83259E-01  5.87722E-01  9.66797E-01  1.32842E+00  1.70519E+00  1.38367E+00  2.06452E-01  1.07716E+00
  -3.00063E-01  1.97549E+00  2.23636E+00  7.54556E-01  6.58303E-01  8.02479E-01 -3.06183E-01  5.90925E-01 -7.01407E-01 -2.47740E-02
  -6.37110E-01 -2.62007E-01  2.18394E+00  9.06563E-01  2.38895E-01 -1.86506E+00 -8.67235E-01 -2.09115E-01  4.89138E-01  5.02330E-01
  -1.05345E+00 -6.93357E-01  1.46493E+00 -1.03693E+00  7.76822E-01  8.13415E-02 -8.88768E-01  1.09158E+00 -1.99783E+00 -1.26960E+00
   2.04556E-01 -1.41696E+00  1.75651E+00  1.06796E+00  7.94858E-01 -1.10758E+00  3.99268E-01  2.11496E-02 -8.50629E-01 -2.23905E-01
  -1.35186E+00  1.80735E+00  1.22294E-01  8.52816E-02 -2.12206E+00 -1.30874E-03  5.98753E-01 -6.12090E-01  1.45399E-01 -5.34016E-01
  -8.65236E-01 -9.57894E-02  1.12769E+00  2.67546E+00  2.09878E+00 -4.81800E-01  6.06678E-01  3.01192E-01  1.24883E+00 -4.59269E-01
  -4.00155E-01 -1.05992E+00 -5.66998E-01  9.70705E-01 -6.20836E-01  3.27733E-01 -5.87793E-01  8.40611E-01  5.39931E-01 -5.51042E-01
  -1.42612E+00  2.08106E+00  1.05856E+00 -4.12564E-01 -3.48495E-02  6.70356E-01 -8.86660E-01  2.86812E-01  1.40942E+00  2.45471E+00
   2.26064E+00  2.70334E+00  5.12043E-01  1.36150E+00  1.94995E-01  4.35674E-01 -1.15781E+00  1.27205E+00  1.06575E-01  2.10701E+00
  -3.73932E-01  7.85548E-01 -2.99868E-01  1.16854E+00  2.45765E+00  9.52228E-01 -1.27999E+00 -8.81120E-01  1.90514E+00 -1.30984E-01
  -1.81756E-01  9.28738E-01  8.95929E-01  9.45397E-01  1.61545E+00  8.57280E-01 -2.98334E-01  1.43943E+00  2.29055E+00  3.90650E-01
   2.56821E-01  6.09975E-01  9.36501E-01  1.59241E+00  3.60362E-01  8.93435E-01  4.29089E-02  5.47036E-01  1.24317E+00  9.53625E-01
  -2.02282E-01 -6.75887E-01 -1.61341E-01  1.14386E+00  1.41985E-01  2.33054E-01  8.30328E-01 -8.51761E-01  3.63123E+00 -8.22001E-01
   1.84423E-01 -1.32084E+00 -2.30791E-01  9.03408E-01  4.78185E-01  4.24571E-01  9.28320E-01 -7.70810E-01 -6.70739E-02  1.28871E+00
   2.46309E+00  1.09001E+00  9.61097E-02  6.31605E-01  1.38554E+00  1.77743E+00  4.92566E-01 -6.73362E-01  7.97328E-01  4.06659E-01
   9.02100E-01  4.28929E-01  1.52024E+00 -2.90406E-01 -2.53893E+00  4.67390E-01  9.30507E-01  1.91448E-01  1.19528E+00  3.53508E-01
  -4.91774E-01  2.01112E-01 -4.22941E-01  1.00201E-01  7.89715E-01  8.15972E-01  1.52299E+00 -3.77931E-02  1.26210E+00  2.35182E-01
   7.04810E-01  1.92062E+00  8.37738E-01  1.18191E+00  5.61730E-01 -5.10706E-01 -8.97408E-02  7.93215E-01  7.95892E-01  9.55919E-01
   2.78271E+00  6.35104E-01 -1.84205E-01  7.85307E-02  2.16177E-01 -3.70608E-02  3.86849E-01  2.77525E-01  1.75109E+00  3.07312E-01
   1.08475E+00  1.12104E+00  1.03675E+00  3.45257E+00  1.72253E+00  1.21437E+00  1.35724E+00  6.83742E-01  4.31525E-01 -1.34523E+00
   1.46353E+00  1.34558E+00  6.29348E-01  1.08611E+00  1.53513E+00  1.26468E+00  6.28898E-01  2.29304E-01  2.36647E+00  1.23933E+00
   7.20729E-01  1.67960E+00  2.91285E+00  2.03288E+00  2.97759E+00  1.64445E+00  3.47567E+00  1.59815E+00 -3.91160E-01 -5.63822E-01
   1.90593E+00  1.49100E+00  2.37247E+00  2.02289E+00  4.40192E+00  2.07503E+00  1.83424E+00  1.03527E-01  1.46313E+00  1.96561E+00
   1.91494E+00  3.45867E+00  1.73280E+00  1.37942E+00  2.99948E+00  2.03994E+00  3.50817E+00  2.17177E+00  1.74042E+00  3.17821E+00
   1.77022E+00  1.13890E+00  2.94292E+00  3.12405E+00  2.35540E+00  1.59635E+00  1.51613E-01  1.42814E+00  2.31134E+00  1.98050E+00
   1.85833E+00  1.68522E+00  1.49242E+00  2.28306E+00  2.99878E+00  1.48959E+00  7.94187E-01  2.40835E+00  2.21601E+00  6.00609E+00
   2.76182E+00  2.55137E+00  3.90631E+00  3.79054E+00  1.05698E+00  3.59808E+00  2.94482E+00  2.13736E+00  3.14459E+00  1.73686E+00
   6.01723E+00 -3.07950E-01  4.19950E+00  1.17321E+00  1.45157E+00  3.33417E+00  2.46907E+00  4.68357E+00  2.89485E+00  4.61632E+00
   5.00258E+00  3.64525E+00  3.78242E+00  4.78987E+00  4.67387E+00  4.02745E+00  3.40209E+00  2.45569E+00  3.46742E+00  1.99066E+00
   5.24119E+00  3.44646E+00  6.21412E+00  5.94774E+00  5.91308E+00  4.99479E+00  6.30897E+00  6.79320E+00  5.56536E+00  7.28656E+00
   4.44653E+00  5.05042E+00  3.83964E+00  7.20893E+00  5.67732E+00  4.88720E+00  4.98186E+00  6.41772E+00  8.58430E+00  5.55573E+00
   4.28641E+00  6.09763E+00  4.54649E+00  7.67685E+00  5.37208E+00  4.59467E+00  4.27485E+00  4.78739E+00  2.74717E+00  4.39451E+00
   6.66177E+00  4.80458E+00  3.55536E+00  4.20268E+00  2.95422E+00  4.05069E+00  4.42646E+00  5.80373E+00  2.45894E+00  5.83412E+00
   5.17896E+00  3.78444E+00  4.25632E+00  2.34805E+00  3.48945E+00  2.85426E+00  1.32047E+00  2.05043E+00  1.67545E+00  1.43187E+00
   7.45174E-01  1.19776E+00  3.88891E+00  2.76444E+00  2.30912E+00  4.17845E+00  2.71941E+00  2.53545E+00  2.97767E+00  1.35596E+00
  -1.28085E+00  3.46767E+00  3.94978E+00  1.61455E+00  1.99342E+00  1.69415E+00  1.47858E+00  3.78878E+00  2.73544E+00  2.34463E+00
   3.14927E+00  1.85610E+00  3.36152E+00  2.76379E+00  3.18886E+00  2.68438E+00  2.31990E+00  1.70000E+00  4.07926E+00  1.10675E+00
   2.89890E+00  8.04514E-01  1.22435E+00  2.16385E+00  2.89061E-01  1.63096E+00  6.37719E-02  2.53967E+00  1.71782E+00  5.17534E-01
   3.57953E-02  1.30515E+00 -2.04452E-01  1.74688E+00  1.54844E+00  1.03002E+00  8.02900E-01  3.11485E+00  8.88118E-01 -2.22649E-01
   7.85991E-01  2.84898E+00  2.52742E+00  1.03714E+00  9.43869E-01  1.74499E+00  5.33139E-01  1.40441E+00  1.24028E+00  1.42956E+00
   1.61642E+00  3.26906E+00  6.26111E-01  1.49815E+00  4.48937E-01 -3.04768E-01 -2.84799E-01  2.14942E+00 -1.29203E+00 -2.47972E-01
  -1.24372E-01  6.10410E-01  2.30941E-02  8.04523E-01  1.06641E+00  4.17810E-01  1.29463E+00 -1.42024E+00  1.33160E+00  1.31030E+00
   1.11314E+00  3.51405E-01  1.41723E+00 -1.05324E-01 -4.10753E-01  3.36211E-01  1.47487E+00 -1.70573E+00  2.49107E-01 -1.08118E+00
  -1.29135E+00 -9.19331E-01 -1.95858E+00  1.29325E+00  1.95330E+00 -2.53728E-01 -1.00998E+00  1.41968E-01  1.08388E+00 -2.69618E-01
   2.09443E-01 -1.72472E-01 -5.77503E-01 -8.35685E-02 -9.63915E-02 -2.02780E+00 -5.66608E-01 -8.86505E-01
 NY points of the fit to the data follow
   1.65733E-01  1.25032E-01  8.40250E-02  7.42304E-02  9.45410E-02  1.12463E-01  9.70349E-02  4.10891E-02  2.12014E-02  1.27163E-01
   3.71986E-01  6.73476E-01  8.64680E-01  8.68556E-01  7.85933E-01  6.99790E-01  5.92550E-01  4.19606E-01  2.40244E-01  1.92930E-01
   1.99476E-01  2.16661E-01  2.34462E-01  2.36178E-01  1.96335E-01  8.30183E-02 -4.12847E-02 -3.52741E-02  1.81987E-01  5.99231E-01
   1.04454E+00  1.28625E+00  1.34674E+00  1.28551E+00  1.09398E+00  7.90727E-01  4.16583E-01  2.20629E-01  1.24549E-01  7.75289E-02
   8.93409E-02  1.15857E-01  1.34425E-01  1.24729E-01  1.40685E-01  2.42553E-01  4.44920E-01  6.78760E-01  8.16419E-01  7.98492E-01
   6.83397E-01  5.39940E-01  3.87459E-01  2.25661E-01  9.14411E-02  3.44877E-02  4.35055E-02  8.74654E-02  1.61046E-01  2.63408E-01
   3.57573E-01  4.05537E-01  3.96539E-01  3.45907E-01  2.81064E-01  2.10220E-01  1.56480E-01  1.35914E-01  1.39706E-01  1.73530E-01
   2.21607E-01  2.74586E-01  3.20274E-01  3.38411E-01  3.37933E-01  3.29243E-01  3.18350E-01  2.98777E-01  2.65346E-01  2.42774E-01
   2.31393E-01  2.23769E-01  2.23749E-01  2.36906E-01  2.51704E-01  2.48219E-01  2.10596E-01  1.39810E-01  6.51859E-02  1.91427E-02
   9.93915E-03  2.65596E-02  5.83601E-02  1.16201E-01  1.82987E-01  2.35714E-01  2.56949E-01  2.27477E-01  1.29902E-01  6.14963E-02
   1.67834E-01  4.84517E-01  9.25861E-01  1.28324E+00  1.36241E+00  1.23960E+00  1.07143E+00  8.85784E-01  6.49371E-01  3.46097E-01
   2.19099E-01  2.01881E-01  2.01010E-01  2.06314E-01  2.12342E-01  2.21379E-01  2.30908E-01  2.37117E-01  2.37626E-01  2.32107E-01
   2.23422E-01  2.13698E-01  1.77992E-01  1.27111E-01  1.81085E-01  4.30988E-01  8.47943E-01  1.28794E+00  1.51984E+00  1.48198E+00
   1.35430E+00  1.24947E+00  1.14407E+00  9.31234E-01  6.70978E-01  4.98317E-01  3.49853E-01  2.42366E-01  2.00262E-01  2.27665E-01
   3.18653E-01  4.60685E-01  5.83277E-01  6.54457E-01  6.89543E-01  6.87188E-01  6.66165E-01  6.38446E-01  6.12801E-01  6.07242E-01
   6.04646E-01  5.99533E-01  5.91405E-01  5.83583E-01  5.78537E-01  5.78825E-01  5.89629E-01  6.01836E-01  6.06178E-01  6.01066E-01
   5.88859E-01  5.75755E-01  5.65418E-01  5.61152E-01  5.59935E-01  5.56682E-01  5.49434E-01  5.41575E-01  5.31312E-01  5.17654E-01
   5.04650E-01  4.93497E-01  4.87036E-01  4.76008E-01  4.54575E-01  4.28061E-01  4.05749E-01  3.93800E-01  3.87088E-01  3.75733E-01
   3.62562E-01  3.54892E-01  3.52925E-01  3.47022E-01  3.22359E-01  2.85427E-01  2.56565E-01  2.58566E-01  3.04037E-01  3.93935E-01
   5.03711E-01  6.01029E-01  6.47931E-01  6.29056E-01  5.38863E-01  3.89406E-01  2.13440E-01  6.69719E-02  2.02779E-02  1.01109E-01
   2.63849E-01  4.50320E-01  6.42657E-01  8.14770E-01  9.32058E-01  9.75650E-01  9.41539E-01  7.85930E-01  5.34029E-01  2.72517E-01
   9.83723E-02  7.45789E-02  1.85884E-01  3.61359E-01  5.59985E-01  7.74631E-01  9.85969E-01  1.08058E+00  1.05698E+00  1.00312E+00
   9.23487E-01  8.26728E-01  7.42885E-01  7.32344E-01  7.88749E-01  8.67563E-01  9.49429E-01  1.03085E+00  1.09073E+00  1.09253E+00
   1.03263E+00  9.62522E-01  9.29056E-01  9.18764E-01  9.20076E-01  9.36468E-01  9.86692E-01  1.09380E+00  1.20764E+00  1.26097E+00
   1.26490E+00  1.23281E+00  1.15933E+00  1.02768E+00  9.28753E-01  9.26903E-01  9.54501E-01  9.75168E-01  1.01730E+00  1.10977E+00
   1.19328E+00  1.25825E+00  1.31373E+00  1.36252E+00  1.38932E+00  1.37153E+00  1.30495E+00  1.28318E+00  1.41393E+00  1.69523E+00
   2.02828E+00  2.22219E+00  2.19540E+00  2.06413E+00  1.91250E+00  1.74152E+00  1.50204E+00  1.27419E+00  1.19447E+00  1.15815E+00
   1.12911E+00  1.10953E+00  1.09998E+00  1.09687E+00  1.10085E+00  1.10934E+00  1.12059E+00  1.13268E+00  1.14516E+00  1.15727E+00
   1.17043E+00  1.18780E+00  1.21072E+00  1.23980E+00  1.27588E+00  1.31861E+00  1.36720E+00  1.42110E+00  1.47910E+00  1.54109E+00
   1.60671E+00  1.67487E+00  1.74501E+00  1.81686E+00  1.88950E+00  1.96168E+00  2.03233E+00  2.10066E+00  2.16543E+00  2.22532E+00
   2.27957E+00  2.32731E+00  2.36791E+00  2.40105E+00  2.42664E+00  2.44488E+00  2.45631E+00  2.46168E+00  2.46202E+00  2.45851E+00
   2.45254E+00  2.44553E+00  2.43893E+00  2.43421E+00  2.43279E+00  2.43595E+00  2.44480E+00  2.46028E+00  2.48316E+00  2.51401E+00
   2.55325E+00  2.60107E+00  2.65749E+00  2.72239E+00  2.79555E+00  2.87666E+00  2.96536E+00  3.06118E+00  3.16362E+00  3.27217E+00
   3.38639E+00  3.50582E+00  3.63003E+00  3.75857E+00  3.89102E+00  4.02698E+00  4.16613E+00  4.30811E+00  4.45249E+00  4.59863E+00
   4.74541E+00  4.88981E+00  5.02748E+00  5.19120E+00  5.43698E+00  5.74486E+00  6.02493E+00  6.16935E+00  6.11083E+00  5.93132E+00
   5.73548E+00  5.53306E+00  5.36308E+00  5.29436E+00  5.46529E+00  5.83329E+00  6.13163E+00  6.27483E+00  6.31295E+00  6.29064E+00
   6.21053E+00  6.00749E+00  5.77482E+00  5.58949E+00  5.41917E+00  5.25068E+00  5.08066E+00  4.90861E+00  4.73518E+00  4.56146E+00
   4.38878E+00  4.21853E+00  4.05207E+00  3.89064E+00  3.73536E+00  3.58719E+00  3.44700E+00  3.31546E+00  3.19315E+00  3.08047E+00
   2.97770E+00  2.88502E+00  2.80251E+00  2.73020E+00  2.66800E+00  2.61575E+00  2.57323E+00  2.54015E+00  2.51618E+00  2.50092E+00
   2.49386E+00  2.49443E+00  2.50198E+00  2.51577E+00  2.53497E+00  2.55864E+00  2.58576E+00  2.61520E+00  2.64578E+00  2.67626E+00
   2.70537E+00  2.73183E+00  2.75438E+00  2.77181E+00  2.78303E+00  2.78708E+00  2.78314E+00  2.77059E+00  2.74902E+00  2.71824E+00
   2.67831E+00  2.62949E+00  2.57225E+00  2.50727E+00  2.43538E+00  2.35753E+00  2.27478E+00  2.18824E+00  2.09904E+00  2.00827E+00
   1.91699E+00  1.82616E+00  1.73669E+00  1.64933E+00  1.56473E+00  1.48340E+00  1.40575E+00  1.33207E+00  1.26254E+00  1.19724E+00
   1.13618E+00  1.07929E+00  1.02646E+00  9.77530E-01  9.32315E-01  8.90596E-01  8.52155E-01  8.16765E-01  7.84209E-01  7.54263E-01
   7.26720E-01  7.01372E-01  6.78039E-01  6.56544E-01  6.36736E-01  6.18460E-01  6.01585E-01  5.85981E-01  5.71545E-01  5.58173E-01
   5.45780E-01  5.34275E-01  5.23587E-01  5.13644E-01  5.04393E-01  4.95776E-01  4.87748E-01  4.80255E-01  4.73260E-01  4.66722E-01
   4.60615E-01  4.54904E-01  4.49563E-01  4.44559E-01  4.39875E-01  4.35487E-01  4.31383E-01  4.27537E-01  4.23935E-01  4.20556E-01
   4.17391E-01  4.14427E-01  4.11656E-01  4.09060E-01  4.06632E-01  4.04357E-01  4.02234E-01  4.00253E-01  3.98408E-01  3.96686E-01
   3.95082E-01  3.93588E-01  3.92207E-01  3.90928E-01  3.89749E-01  3.88658E-01  3.87654E-01  3.86733E-01  3.85899E-01  3.85141E-01
   3.84457E-01  3.83838E-01  3.83288E-01  3.82804E-01  3.82389E-01  3.82032E-01  3.81733E-01  3.81485E-01
 NY background values follow
    -6.782E-02   -6.688E-02   -6.594E-02   -6.500E-02   -6.406E-02   -6.312E-02   -6.217E-02   -6.123E-02   -6.029E-02   -5.935E-02
    -5.841E-02   -5.747E-02   -5.653E-02   -5.559E-02   -5.465E-02   -5.371E-02   -5.277E-02   -5.183E-02   -5.089E-02   -4.995E-02
    -4.901E-02   -4.807E-02   -4.713E-02   -4.619E-02   -4.525E-02   -4.431E-02   -4.337E-02   -4.243E-02   -4.149E-02   -4.055E-02
    -3.961E-02   -3.867E-02   -3.773E-02   -3.679E-02   -3.585E-02   -3.492E-02   -3.398E-02   -3.304E-02   -3.210E-02   -3.116E-02
    -3.022E-02   -2.928E-02   -2.834E-02   -2.740E-02   -2.646E-02   -2.552E-02   -2.458E-02   -2.364E-02   -2.270E-02   -2.176E-02
    -2.082E-02   -1.988E-02   -1.894E-02   -1.800E-02   -1.706E-02   -1.612E-02   -1.519E-02   -1.425E-02   -1.331E-02   -1.237E-02
    -1.143E-02   -1.049E-02   -9.550E-03   -8.611E-03   -7.672E-03   -6.732E-03   -5.793E-03   -4.854E-03   -3.915E-03   -2.976E-03
    -2.037E-03   -1.098E-03   -1.594E-04    7.795E-04    1.718E-03    2.657E-03    3.596E-03    4.535E-03    5.474E-03    6.413E-03
     7.351E-03    8.290E-03    9.229E-03    1.017E-02    1.111E-02    1.204E-02    1.298E-02    1.392E-02    1.486E-02    1.580E-02
     1.674E-02    1.768E-02    1.861E-02    1.955E-02    2.049E-02    2.143E-02    2.237E-02    2.331E-02    2.424E-02    2.518E-02
     2.612E-02    2.706E-02    2.800E-02    2.894E-02    2.987E-02    3.081E-02    3.175E-02    3.269E-02    3.363E-02    3.456E-02
     3.550E-02    3.644E-02    3.738E-02    3.832E-02    3.925E-02    4.019E-02    4.113E-02    4.207E-02    4.300E-02    4.394E-02
     4.488E-02    4.582E-02    4.676E-02    4.769E-02    4.863E-02    4.957E-02    5.051E-02    5.144E-02    5.238E-02    5.332E-02
     5.426E-02    5.519E-02    5.613E-02    5.707E-02    5.800E-02    5.894E-02    5.988E-02    6.082E-02    6.175E-02    6.269E-02
     6.363E-02    6.456E-02    6.550E-02    6.644E-02    6.738E-02    6.831E-02    6.925E-02    7.019E-02    7.112E-02    7.206E-02
     7.300E-02    7.393E-02    7.487E-02    7.581E-02    7.674E-02    7.768E-02    7.862E-02    7.955E-02    8.049E-02    8.142E-02
     8.236E-02    8.330E-02    8.423E-02    8.517E-02    8.611E-02    8.704E-02    8.798E-02    8.891E-02    8.985E-02    9.079E-02
     9.172E-02    9.266E-02    9.359E-02    9.453E-02    9.547E-02    9.640E-02    9.734E-02    9.827E-02    9.921E-02    1.001E-01
     1.011E-01    1.020E-01    1.030E-01    1.039E-01    1.048E-01    1.058E-01    1.067E-01    1.076E-01    1.086E-01    1.095E-01
     1.104E-01    1.114E-01    1.123E-01    1.132E-01    1.142E-01    1.151E-01    1.160E-01    1.170E-01    1.179E-01    1.189E-01
     1.198E-01    1.207E-01    1.217E-01    1.226E-01    1.235E-01    1.245E-01    1.254E-01    1.263E-01    1.273E-01    1.282E-01
     1.291E-01    1.301E-01    1.310E-01    1.319E-01    1.329E-01    1.338E-01    1.347E-01    1.357E-01    1.366E-01    1.375E-01
     1.385E-01    1.394E-01    1.403E-01    1.413E-01    1.422E-01    1.431E-01    1.441E-01    1.450E-01    1.459E-01    1.469E-01
     1.478E-01    1.487E-01    1.497E-01    1.506E-01    1.515E-01    1.525E-01    1.534E-01    1.543E-01    1.553E-01    1.562E-01
     1.571E-01    1.581E-01    1.590E-01    1.599E-01    1.609E-01    1.618E-01    1.627E-01    1.637E-01    1.646E-01    1.655E-01
     1.665E-01    1.674E-01    1.683E-01    1.693E-01    1.702E-01    1.711E-01    1.721E-01    1.730E-01    1.739E-01    1.749E-01
     1.758E-01    1.767E-01    1.777E-01    1.786E-01    1.795E-01    1.805E-01    1.814E-01    1.823E-01    1.832E-01    1.842E-01
     1.851E-01    1.860E-01    1.870E-01    1.879E-01    1.888E-01    1.898E-01    1.907E-01    1.916E-01    1.926E-01    1.935E-01
     1.944E-01    1.954E-01    1.963E-01    1.972E-01    1.981E-01    1.991E-01    2.000E-01    2.009E-01    2.019E-01    2.028E-01
     2.037E-01    2.047E-01    2.056E-01    2.065E-01    2.075E-01    2.084E-01    2.093E-01    2.102E-01    2.112E-01    2.121E-01
     2.130E-01    2.140E-01    2.149E-01    2.158E-01    2.168E-01    2.177E-01    2.186E-01    2.195E-01    2.205E-01    2.214E-01
     2.223E-01    2.233E-01    2.242E-01    2.251E-01    2.260E-01    2.270E-01    2.279E-01    2.288E-01    2.298E-01    2.307E-01
     2.316E-01    2.325E-01    2.335E-01    2.344E-01    2.353E-01    2.363E-01    2.372E-01    2.381E-01    2.390E-01    2.400E-01
     2.409E-01    2.418E-01    2.428E-01    2.437E-01    2.446E-01    2.455E-01    2.465E-01    2.474E-01    2.483E-01    2.493E-01
     2.502E-01    2.511E-01    2.520E-01    2.530E-01    2.539E-01    2.548E-01    2.557E-01    2.567E-01    2.576E-01    2.585E-01
     2.595E-01    2.604E-01    2.613E-01    2.622E-01    2.632E-01    2.641E-01    2.650E-01    2.659E-01    2.669E-01    2.678E-01
     2.687E-01    2.696E-01    2.706E-01    2.715E-01    2.724E-01    2.733E-01    2.743E-01    2.752E-01    2.761E-01    2.770E-01
     2.780E-01    2.789E-01    2.798E-01    2.808E-01    2.817E-01    2.826E-01    2.835E-01    2.845E-01    2.854E-01    2.863E-01
     2.872E-01    2.882E-01    2.891E-01    2.900E-01    2.909E-01    2.919E-01    2.928E-01    2.937E-01    2.946E-01    2.955E-01
     2.965E-01    2.974E-01    2.983E-01    2.992E-01    3.002E-01    3.011E-01    3.020E-01    3.029E-01    3.039E-01    3.048E-01
     3.057E-01    3.066E-01    3.076E-01    3.085E-01    3.094E-01    3.103E-01    3.113E-01    3.122E-01    3.131E-01    3.140E-01
     3.149E-01    3.159E-01    3.168E-01    3.177E-01    3.186E-01    3.196E-01    3.205E-01    3.214E-01    3.223E-01    3.232E-01
     3.242E-01    3.251E-01    3.260E-01    3.269E-01    3.279E-01    3.288E-01    3.297E-01    3.306E-01    3.315E-01    3.325E-01
     3.334E-01    3.343E-01    3.352E-01    3.362E-01    3.371E-01    3.380E-01    3.389E-01    3.398E-01    3.408E-01    3.417E-01
     3.426E-01    3.435E-01    3.444E-01    3.454E-01    3.463E-01    3.472E-01    3.481E-01    3.490E-01    3.500E-01    3.509E-01
     3.518E-01    3.527E-01    3.536E-01    3.546E-01    3.555E-01    3.564E-01    3.573E-01    3.582E-01    3.592E-01    3.601E-01
     3.610E-01    3.619E-01    3.628E-01    3.638E-01    3.647E-01    3.656E-01    3.665E-01    3.674E-01    3.683E-01    3.693E-01
     3.702E-01    3.711E-01    3.720E-01    3.729E-01    3.739E-01    3.748E-01    3.757E-01    3.766E-01    3.775E-01    3.784E-01
     3.794E-01    3.803E-01    3.812E-01    3.821E-01    3.830E-01    3.840E-01    3.849E-01    3.858E-01    3.867E-01    3.876E-01
     3.885E-01    3.895E-01    3.904E-01    3.913E-01    3.922E-01    3.931E-01    3.940E-01    3.950E-01
 Asp      Conc. = 3.66E+00
