 LCModel (Version 6.3-1L) Copyright: S.W. Provencher.          Ref.: Magn. Reson. Med. 30:672-679 (1993).                
 Slice#3 Row#9 Col#6  PD_05_press_1_raw_act
 36 lines in following concentration table = NCONC+1
    Conc.  %SD /Cr+PCr  Metabolite                                         
   23.064 261% 2.0E-02 Ala                                                 
    4.405 999% 3.8E-03 Asp                                                 
  534.122  23%   0.462 Cr                                                  
  622.874  20%   0.538 PCr                                                 
    0.000 999%   0.000 GABA                                                
    0.000 999%   0.000 Glc                                                 
  564.453  23%   0.488 Gln                                                 
 1.33E+03  11%   1.152 Glu                                                 
  354.689   4%   0.307 GPC                                                 
    0.000 999%   0.000 PCh                                                 
  341.308  13%   0.295 GSH                                                 
  372.978  39%   0.322 Ins                                                 
    7.035 947% 6.1E-03 Lac                                                 
 1.62E+03   4%   1.400 NAA                                                 
  205.042  31%   0.177 NAAG                                                
    7.266 222% 6.3E-03 Scyllo                                              
    0.000 999%   0.000 Tau                                                 
    0.000 999%   0.000 -CrCH2                                              
  354.689   4%   0.307 GPC+PCh                                             
 1.82E+03   3%   1.577 NAA+NAAG                                            
 1.16E+03   3%   1.000 Cr+PCr                                              
 1.90E+03  10%   1.640 Glu+Gln                                             
    0.000 999%   0.000 Lip13a                                              
   94.260 101% 8.1E-02 Lip13b                                              
    0.000 999%   0.000 Lip09                                               
  964.249  16%   0.833 MM09                                                
   30.415 243% 2.6E-02 Lip20                                               
 2.23E+03  12%   1.932 MM20                                                
  392.998  26%   0.340 MM12                                                
   16.352 999% 1.4E-02 MM14                                                
  733.498  23%   0.634 MM17                                                
   94.260 101% 8.1E-02 Lip13a+Lip13b                                       
  503.610  49%   0.435 MM14+Lip13a+Lip13b+MM12                             
  964.249  16%   0.833 MM09+Lip09                                          
 2.27E+03  12%   1.958 MM20+Lip20                                          
   6 lines in following misc. output table
  FWHM = 0.038 ppm    S/N =  15                                            
  Data shift = 0.015 ppm                                                   
  Ph:   2 deg      -2.5 deg/ppm                                            
  alphaB,S = 8.2E-01,   1.2E+02                                            
   14 spline knots.   Ns = 6(1)                                            
  ( 8) 4 infls.   ( 1) 1 extrs.                                            
  498 points on ppm-axis = NY
      4.000000     3.992357     3.984714     3.977070     3.969427     3.961784     3.954141     3.946497     3.938854     3.931211
      3.923568     3.915925     3.908281     3.900638     3.892995     3.885352     3.877708     3.870065     3.862422     3.854779
      3.847136     3.839492     3.831849     3.824206     3.816563     3.808919     3.801276     3.793633     3.785990     3.778347
      3.770703     3.763060     3.755417     3.747774     3.740130     3.732487     3.724844     3.717201     3.709558     3.701914
      3.694271     3.686628     3.678985     3.671341     3.663698     3.656055     3.648412     3.640769     3.633125     3.625482
      3.617839     3.610196     3.602552     3.594909     3.587266     3.579623     3.571980     3.564336     3.556693     3.549050
      3.541407     3.533763     3.526120     3.518477     3.510834     3.503191     3.495547     3.487904     3.480261     3.472618
      3.464974     3.457331     3.449688     3.442045     3.434402     3.426758     3.419115     3.411472     3.403829     3.396185
      3.388542     3.380899     3.373256     3.365613     3.357969     3.350326     3.342683     3.335040     3.327396     3.319753
      3.312110     3.304467     3.296824     3.289180     3.281537     3.273894     3.266251     3.258607     3.250964     3.243321
      3.235678     3.228034     3.220391     3.212748     3.205105     3.197462     3.189818     3.182175     3.174532     3.166889
      3.159245     3.151602     3.143959     3.136316     3.128673     3.121029     3.113386     3.105743     3.098100     3.090456
      3.082813     3.075170     3.067527     3.059884     3.052240     3.044597     3.036954     3.029311     3.021667     3.014024
      3.006381     2.998738     2.991095     2.983451     2.975808     2.968165     2.960522     2.952878     2.945235     2.937592
      2.929949     2.922306     2.914662     2.907019     2.899376     2.891733     2.884089     2.876446     2.868803     2.861160
      2.853517     2.845873     2.838230     2.830587     2.822944     2.815300     2.807657     2.800014     2.792371     2.784728
      2.777084     2.769441     2.761798     2.754155     2.746511     2.738868     2.731225     2.723582     2.715939     2.708295
      2.700652     2.693009     2.685366     2.677722     2.670079     2.662436     2.654793     2.647150     2.639506     2.631863
      2.624220     2.616577     2.608933     2.601290     2.593647     2.586004     2.578361     2.570717     2.563074     2.555431
      2.547788     2.540144     2.532501     2.524858     2.517215     2.509572     2.501928     2.494285     2.486642     2.478999
      2.471355     2.463712     2.456069     2.448426     2.440783     2.433139     2.425496     2.417853     2.410210     2.402566
      2.394923     2.387280     2.379637     2.371994     2.364350     2.356707     2.349064     2.341421     2.333777     2.326134
      2.318491     2.310848     2.303205     2.295561     2.287918     2.280275     2.272632     2.264988     2.257345     2.249702
      2.242059     2.234416     2.226772     2.219129     2.211486     2.203843     2.196199     2.188556     2.180913     2.173270
      2.165627     2.157983     2.150340     2.142697     2.135054     2.127410     2.119767     2.112124     2.104481     2.096838
      2.089194     2.081551     2.073908     2.066265     2.058621     2.050978     2.043335     2.035692     2.028049     2.020405
      2.012762     2.005119     1.997476     1.989833     1.982190     1.974546     1.966903     1.959260     1.951617     1.943974
      1.936331     1.928688     1.921045     1.913402     1.905759     1.898115     1.890472     1.882829     1.875186     1.867543
      1.859900     1.852257     1.844614     1.836971     1.829327     1.821684     1.814041     1.806398     1.798755     1.791112
      1.783469     1.775826     1.768183     1.760540     1.752896     1.745253     1.737610     1.729967     1.722324     1.714681
      1.707038     1.699395     1.691752     1.684108     1.676465     1.668822     1.661179     1.653536     1.645893     1.638250
      1.630607     1.622964     1.615321     1.607677     1.600034     1.592391     1.584748     1.577105     1.569462     1.561819
      1.554176     1.546533     1.538890     1.531246     1.523603     1.515960     1.508317     1.500674     1.493031     1.485388
      1.477745     1.470102     1.462458     1.454815     1.447172     1.439529     1.431886     1.424243     1.416600     1.408957
      1.401314     1.393671     1.386027     1.378384     1.370741     1.363098     1.355455     1.347812     1.340169     1.332526
      1.324883     1.317240     1.309596     1.301953     1.294310     1.286667     1.279024     1.271381     1.263738     1.256095
      1.248452     1.240808     1.233165     1.225522     1.217879     1.210236     1.202593     1.194950     1.187307     1.179664
      1.172021     1.164377     1.156734     1.149091     1.141448     1.133805     1.126162     1.118519     1.110876     1.103233
      1.095590     1.087946     1.080303     1.072660     1.065017     1.057374     1.049731     1.042088     1.034445     1.026802
      1.019158     1.011515     1.003872     0.996229     0.988586     0.980943     0.973300     0.965657     0.958014     0.950371
      0.942727     0.935084     0.927441     0.919798     0.912155     0.904512     0.896869     0.889226     0.881583     0.873940
      0.866296     0.858653     0.851010     0.843367     0.835724     0.828081     0.820438     0.812795     0.805152     0.797508
      0.789865     0.782222     0.774579     0.766936     0.759293     0.751650     0.744007     0.736364     0.728721     0.721077
      0.713434     0.705791     0.698148     0.690505     0.682862     0.675219     0.667576     0.659933     0.652290     0.644646
      0.637003     0.629360     0.621717     0.614074     0.606431     0.598788     0.591145     0.583502     0.575858     0.568215
      0.560572     0.552929     0.545286     0.537643     0.530000     0.522357     0.514714     0.507071     0.499427     0.491784
      0.484141     0.476498     0.468855     0.461212     0.453569     0.445925     0.438282     0.430639     0.422996     0.415353
      0.407710     0.400067     0.392424     0.384780     0.377137     0.369494     0.361851     0.354208     0.346565     0.338922
      0.331278     0.323635     0.315992     0.308349     0.300706     0.293063     0.285420     0.277777     0.270133     0.262490
      0.254847     0.247204     0.239561     0.231918     0.224275     0.216631     0.208988     0.201345
 NY phased data points follow
   4.50076E+01  4.58884E+01  4.19076E+01  4.46510E+01  4.19819E+01  4.84361E+01  4.92941E+01  5.49347E+01  5.93218E+01  6.52867E+01
   6.77019E+01  7.05038E+01  6.90817E+01  6.27414E+01  5.77321E+01  5.54297E+01  4.83818E+01  4.66681E+01  4.22954E+01  4.20257E+01
   3.77661E+01  3.87796E+01  4.11651E+01  4.23884E+01  4.11255E+01  4.16247E+01  4.18285E+01  4.33662E+01  4.32251E+01  4.17302E+01
   4.25178E+01  4.33695E+01  4.56620E+01  4.33507E+01  4.10655E+01  3.88925E+01  3.52930E+01  3.53251E+01  3.48889E+01  3.66541E+01
   3.35584E+01  3.72776E+01  3.49163E+01  3.58680E+01  3.44707E+01  3.59431E+01  3.76664E+01  3.95051E+01  3.79402E+01  3.73517E+01
   3.47944E+01  3.30831E+01  2.94510E+01  3.19726E+01  2.60351E+01  2.68986E+01  3.01050E+01  2.92735E+01  2.95581E+01  3.05728E+01
   2.63679E+01  2.66303E+01  2.83644E+01  2.38783E+01  2.36353E+01  2.37223E+01  1.99224E+01  2.34545E+01  2.00573E+01  2.12577E+01
   1.99055E+01  2.35770E+01  1.95520E+01  2.26109E+01  2.39209E+01  2.37905E+01  2.25928E+01  2.23605E+01  2.01866E+01  1.86080E+01
   2.06895E+01  2.06592E+01  1.71456E+01  2.33657E+01  1.86565E+01  2.06840E+01  2.15543E+01  2.14868E+01  2.08335E+01  2.13134E+01
   1.96881E+01  1.87070E+01  2.09225E+01  1.87228E+01  2.27603E+01  2.22309E+01  1.93978E+01  2.21455E+01  2.19843E+01  2.49087E+01
   3.08985E+01  4.08215E+01  4.41814E+01  5.43336E+01  5.47340E+01  5.20457E+01  4.29744E+01  3.83718E+01  3.28406E+01  3.16091E+01
   2.39097E+01  2.22614E+01  2.20079E+01  2.04772E+01  2.04659E+01  2.06722E+01  1.93105E+01  1.72838E+01  1.77458E+01  1.67376E+01
   1.68427E+01  1.96822E+01  1.87485E+01  2.12063E+01  2.79885E+01  3.83156E+01  5.09860E+01  5.85336E+01  5.67229E+01  5.31818E+01
   4.84901E+01  3.55239E+01  3.05187E+01  2.46947E+01  2.19333E+01  2.16899E+01  1.75192E+01  1.81559E+01  1.57195E+01  1.40729E+01
   1.57546E+01  1.54870E+01  1.59416E+01  1.26431E+01  1.42537E+01  1.00382E+01  1.24159E+01  1.38557E+01  1.19217E+01  9.57540E+00
   1.22814E+01  1.35102E+01  1.32448E+01  1.01869E+01  8.23843E+00  1.09242E+01  1.16833E+01  9.88860E+00  1.18288E+01  8.13764E+00
   8.66560E+00  8.89151E+00  4.05385E+00  9.53031E+00  7.87422E+00  1.08774E+01  1.04953E+01  8.69691E+00  1.00304E+01  7.12621E+00
   5.75117E+00  8.89276E+00  3.14834E+00  5.68531E+00  1.77510E+00  2.78372E+00  3.45939E-01  4.46156E+00  5.64601E+00  4.31578E+00
   2.01138E+00  8.99611E-01 -5.37874E-01  9.04151E-02  2.34584E+00  3.45488E+00  1.43730E+00  6.43267E+00  5.26495E+00  7.96016E+00
   1.00353E+01  1.21160E+01  1.41702E+01  1.42800E+01  1.34877E+01  9.82469E+00  1.14769E+01  9.41414E+00  9.61866E+00  7.98074E+00
   6.09703E+00  9.06710E+00  1.19209E+01  1.31456E+01  1.13387E+01  1.02757E+01  8.01615E+00  4.32615E+00  4.17251E+00  1.93454E+00
   7.14071E+00  6.63298E+00  6.49199E+00  9.68116E+00  1.44721E+01  1.87991E+01  1.83924E+01  1.71894E+01  1.74175E+01  1.18299E+01
   6.75071E+00  6.94075E+00  3.81774E+00  4.24349E+00  6.74346E+00  9.21461E+00  1.32224E+01  1.39558E+01  1.28390E+01  1.56187E+01
   1.44119E+01  1.37325E+01  1.64026E+01  1.46918E+01  1.47455E+01  1.12274E+01  1.32657E+01  1.29490E+01  1.33018E+01  1.48683E+01
   1.20306E+01  1.00677E+01  7.87904E+00  9.46575E+00  1.20252E+01  1.35610E+01  1.40117E+01  1.64716E+01  1.58456E+01  1.43538E+01
   1.58020E+01  1.68974E+01  1.69370E+01  2.32358E+01  2.43978E+01  2.83161E+01  3.25570E+01  3.80075E+01  4.90237E+01  6.41045E+01
   7.90111E+01  8.15702E+01  7.03465E+01  5.23443E+01  4.20334E+01  3.45248E+01  2.63699E+01  2.12506E+01  1.72472E+01  1.38049E+01
   1.30625E+01  1.17968E+01  1.53447E+01  9.69377E+00  9.95495E+00  1.01741E+01  4.78144E+00  1.19370E+01  8.21732E+00  6.91365E+00
   9.54997E+00  7.39345E+00  8.25304E+00  8.23426E+00  7.90130E+00  1.02708E+01  7.65089E+00  7.04640E+00  8.02191E+00  9.11060E+00
   5.67521E+00  9.26368E+00  9.08458E+00  8.24641E+00  7.14244E+00  8.35188E+00  4.22593E+00  9.87964E+00  8.75427E+00  5.18294E+00
   9.54633E+00  1.03943E+01  7.36771E+00  7.96002E+00  9.37691E+00  9.67848E+00  1.03646E+01  8.86819E+00  8.51683E+00  1.02500E+01
   1.06627E+01  1.22777E+01  9.95150E+00  7.48490E+00  9.48231E+00  9.34080E+00  8.90675E+00  1.05609E+01  1.00803E+01  1.17313E+01
   9.80923E+00  1.01460E+01  6.25321E+00  9.37779E+00  7.48003E+00  1.08377E+01  1.04640E+01  5.95174E+00  6.38354E+00  5.24911E+00
   6.68963E+00  7.75690E+00  7.63729E+00  6.97170E+00  5.86469E+00  4.43397E+00  6.53541E+00  7.95156E+00  5.36106E+00  5.54681E+00
   6.74487E+00  4.85957E+00  4.51861E+00  3.29533E+00  4.20744E+00  3.66421E+00  6.27647E+00  4.11620E+00  3.42410E+00  3.77856E+00
   5.01081E+00  6.10994E+00  6.28457E+00  5.86556E+00  7.64353E+00  6.35671E+00  9.95358E+00  5.39352E+00  6.67715E+00  9.88589E+00
   9.24038E+00  8.24705E+00  8.12648E+00  8.07410E+00  8.78462E+00  1.09704E+01  1.08670E+01  5.63867E+00  7.09329E+00  9.57253E+00
   7.67726E+00  6.92130E+00  1.11017E+01  5.44753E+00  5.79534E+00  5.97017E+00  7.33851E+00  8.34513E+00  1.11275E+01  5.14670E+00
   8.63530E+00  7.35649E+00  3.66688E+00  6.10436E+00  5.52152E+00  7.43988E+00  7.66948E+00  8.12984E+00  5.91763E+00  7.31549E+00
   6.33083E+00  7.98266E+00  5.59390E+00  9.79723E+00  8.58407E+00  8.35293E+00  9.48278E+00  1.07068E+01  8.50692E+00  7.59375E+00
   1.25855E+01  1.07356E+01  7.67889E+00  1.01464E+01  8.06998E+00  1.05195E+01  1.13845E+01  1.09842E+01  9.70162E+00  8.22176E+00
   1.01368E+01  1.38688E+01  1.08523E+01  9.65760E+00  9.29209E+00  9.41846E+00  9.18774E+00  7.07404E+00  6.43950E+00  7.10653E+00
   5.00745E+00  6.27388E+00  5.36937E+00  2.60002E+00  4.16983E+00  4.53436E+00  5.80480E+00  4.94576E+00  4.66103E+00  7.85417E+00
   6.21724E+00  8.39513E+00  2.70638E+00  5.00015E+00  3.05344E+00  3.88926E+00  4.98228E+00  3.95546E+00  3.09655E+00  1.94172E+00
   2.84828E+00  5.14640E+00  4.56830E+00  3.86511E+00  2.85219E+00  5.79003E+00  4.24845E+00  5.71624E+00  4.85925E+00  3.50862E+00
   5.63685E+00  6.82911E+00  4.59208E+00  4.44724E+00  6.88153E+00  5.60546E+00  2.32388E+00  4.86517E+00  3.98033E+00  4.03345E+00
   6.04706E+00  3.58007E+00  2.58796E+00  3.96315E+00  1.91945E+00  2.09220E+00  3.48635E+00  4.73116E+00  3.73302E+00  3.45002E+00
   4.20818E+00  3.24849E+00  5.84954E+00  1.19884E+00  2.80909E+00  2.48982E+00  1.79992E+00  5.42541E+00  3.76496E+00  5.55818E+00
   3.24551E+00  2.54985E+00  5.03983E+00  6.31138E+00  3.91968E+00  4.55645E+00  1.91127E+00  4.42107E+00  3.82483E+00  5.19607E+00
   4.35109E+00  2.94232E+00 -9.47115E-01  4.65720E+00  2.35932E+00  4.66183E+00  5.57733E+00  1.87417E+00
 NY points of the fit to the data follow
   4.31649E+01  4.28896E+01  4.27904E+01  4.29806E+01  4.38049E+01  4.54624E+01  4.84052E+01  5.28340E+01  5.84214E+01  6.40170E+01
   6.78687E+01  6.86330E+01  6.62015E+01  6.17416E+01  5.68280E+01  5.24614E+01  4.87909E+01  4.57082E+01  4.34200E+01  4.17648E+01
   4.08401E+01  4.02570E+01  3.96997E+01  3.91986E+01  3.88664E+01  3.87581E+01  3.91652E+01  4.02620E+01  4.18977E+01  4.35846E+01
   4.47108E+01  4.49430E+01  4.42820E+01  4.28910E+01  4.09025E+01  3.85201E+01  3.60286E+01  3.41824E+01  3.34244E+01  3.33408E+01
   3.36104E+01  3.39928E+01  3.43691E+01  3.47397E+01  3.51117E+01  3.55275E+01  3.58234E+01  3.57362E+01  3.51991E+01  3.43169E+01
   3.32576E+01  3.22711E+01  3.14666E+01  3.07356E+01  3.00352E+01  2.95131E+01  2.92359E+01  2.90821E+01  2.89527E+01  2.88238E+01
   2.86062E+01  2.82242E+01  2.76767E+01  2.70571E+01  2.64937E+01  2.60521E+01  2.57352E+01  2.55238E+01  2.53948E+01  2.53114E+01
   2.52477E+01  2.51551E+01  2.49918E+01  2.47408E+01  2.44205E+01  2.40803E+01  2.37608E+01  2.34697E+01  2.31936E+01  2.29232E+01
   2.26841E+01  2.24658E+01  2.22517E+01  2.20287E+01  2.17682E+01  2.14293E+01  2.09974E+01  2.05263E+01  2.01191E+01  1.98609E+01
   1.97689E+01  1.97913E+01  1.98551E+01  1.99238E+01  1.99974E+01  2.00571E+01  2.01457E+01  2.06319E+01  2.22704E+01  2.53970E+01
   3.07034E+01  3.84902E+01  4.72932E+01  5.40285E+01  5.58038E+01  5.21372E+01  4.52128E+01  3.80444E+01  3.22902E+01  2.77075E+01
   2.34694E+01  1.99241E+01  1.82924E+01  1.77384E+01  1.74595E+01  1.72765E+01  1.71376E+01  1.70245E+01  1.69493E+01  1.69568E+01
   1.71645E+01  1.80471E+01  2.03813E+01  2.43955E+01  3.09014E+01  4.01420E+01  5.02471E+01  5.76036E+01  5.90644E+01  5.44794E+01
   4.66496E+01  3.88735E+01  3.25576E+01  2.70381E+01  2.14300E+01  1.67052E+01  1.45934E+01  1.40238E+01  1.41215E+01  1.44882E+01
   1.48485E+01  1.50669E+01  1.50529E+01  1.48032E+01  1.44322E+01  1.40225E+01  1.35992E+01  1.31937E+01  1.27875E+01  1.24198E+01
   1.20843E+01  1.17630E+01  1.14730E+01  1.12473E+01  1.11080E+01  1.10280E+01  1.09476E+01  1.07893E+01  1.04482E+01  9.93016E+00
   9.37589E+00  9.00021E+00  8.97533E+00  9.23586E+00  9.49333E+00  9.44597E+00  9.03046E+00  8.45292E+00  7.96501E+00  7.61686E+00
   7.30855E+00  6.95168E+00  6.50775E+00  6.01484E+00  5.53306E+00  5.14921E+00  5.03796E+00  5.23614E+00  5.50768E+00  5.58640E+00
   5.42816E+00  5.20914E+00  5.14594E+00  5.28434E+00  5.43918E+00  5.54048E+00  5.90883E+00  6.80182E+00  8.16448E+00  9.56691E+00
   1.04716E+01  1.06851E+01  1.02843E+01  9.53174E+00  8.73870E+00  8.08445E+00  7.70765E+00  7.79474E+00  8.36355E+00  9.31129E+00
   1.04728E+01  1.16570E+01  1.26720E+01  1.33051E+01  1.31925E+01  1.21866E+01  1.03314E+01  7.91886E+00  5.57915E+00  4.01759E+00
   3.66544E+00  4.52378E+00  6.42588E+00  9.17764E+00  1.23014E+01  1.49651E+01  1.61662E+01  1.53370E+01  1.26738E+01  9.18844E+00
   5.76770E+00  3.01316E+00  1.54717E+00  1.87608E+00  3.97039E+00  6.95224E+00  9.61128E+00  1.14468E+01  1.24917E+01  1.29527E+01
   1.29309E+01  1.25983E+01  1.23283E+01  1.24177E+01  1.28075E+01  1.33601E+01  1.39252E+01  1.42846E+01  1.42678E+01  1.37511E+01
   1.28344E+01  1.18899E+01  1.13484E+01  1.14359E+01  1.20927E+01  1.31020E+01  1.40378E+01  1.46527E+01  1.50093E+01  1.53274E+01
   1.58427E+01  1.66394E+01  1.80081E+01  2.01341E+01  2.31844E+01  2.75601E+01  3.29631E+01  4.08713E+01  5.25748E+01  6.60790E+01
   7.61068E+01  7.75437E+01  6.97291E+01  5.69451E+01  4.47466E+01  3.54587E+01  2.80107E+01  2.07469E+01  1.46598E+01  1.21864E+01
   1.12641E+01  1.07175E+01  1.04272E+01  1.03170E+01  1.02217E+01  1.00752E+01  9.85303E+00  9.57618E+00  9.28558E+00  9.00817E+00
   8.74166E+00  8.49888E+00  8.30986E+00  8.17527E+00  8.06269E+00  7.94826E+00  7.83490E+00  7.73467E+00  7.65389E+00  7.59206E+00
   7.56032E+00  7.56622E+00  7.60126E+00  7.65183E+00  7.71336E+00  7.78661E+00  7.87369E+00  7.97603E+00  8.09535E+00  8.23553E+00
   8.40075E+00  8.58734E+00  8.78701E+00  8.99078E+00  9.19147E+00  9.38360E+00  9.56117E+00  9.71728E+00  9.84832E+00  9.94994E+00
   1.00177E+01  1.00491E+01  1.00431E+01  9.99892E+00  9.91713E+00  9.79937E+00  9.64885E+00  9.47026E+00  9.26929E+00  9.05236E+00
   8.82728E+00  8.60387E+00  8.38549E+00  8.17481E+00  7.97112E+00  7.75639E+00  7.50435E+00  7.20291E+00  6.87089E+00  6.55469E+00
   6.29502E+00  6.10443E+00  5.98467E+00  5.93691E+00  5.95776E+00  6.02546E+00  6.08437E+00  6.09519E+00  6.06635E+00  6.02500E+00
   5.99118E+00  5.96669E+00  5.94395E+00  5.93494E+00  5.95555E+00  5.99679E+00  6.04895E+00  6.10822E+00  6.18063E+00  6.28128E+00
   6.42193E+00  6.60438E+00  6.82221E+00  7.06250E+00  7.30739E+00  7.53475E+00  7.71722E+00  7.83598E+00  7.89127E+00  7.89214E+00
   7.84874E+00  7.76957E+00  7.66461E+00  7.55030E+00  7.43811E+00  7.33225E+00  7.23516E+00  7.14747E+00  7.06823E+00  6.99552E+00
   6.92715E+00  6.86139E+00  6.79752E+00  6.73581E+00  6.67728E+00  6.62335E+00  6.57577E+00  6.53663E+00  6.50833E+00  6.49336E+00
   6.49400E+00  6.51220E+00  6.54968E+00  6.60816E+00  6.68924E+00  6.79423E+00  6.92390E+00  7.07849E+00  7.25781E+00  7.46131E+00
   7.68786E+00  7.93553E+00  8.20140E+00  8.48168E+00  8.77188E+00  9.06691E+00  9.36096E+00  9.64752E+00  9.91956E+00  1.01700E+01
   1.03919E+01  1.05792E+01  1.07261E+01  1.08278E+01  1.08806E+01  1.08824E+01  1.08325E+01  1.07322E+01  1.05836E+01  1.03903E+01
   1.01572E+01  9.88984E+00  9.59490E+00  9.27914E+00  8.94925E+00  8.61160E+00  8.27223E+00  7.93667E+00  7.60975E+00  7.29538E+00
   6.99642E+00  6.71495E+00  6.45234E+00  6.20945E+00  5.98648E+00  5.78300E+00  5.59814E+00  5.43079E+00  5.27979E+00  5.14398E+00
   5.02206E+00  4.91259E+00  4.81417E+00  4.72556E+00  4.64577E+00  4.57389E+00  4.50899E+00  4.45012E+00  4.39648E+00  4.34750E+00
   4.30274E+00  4.26180E+00  4.22416E+00  4.18936E+00  4.15703E+00  4.12700E+00  4.09913E+00  4.07321E+00  4.04894E+00  4.02607E+00
   4.00448E+00  3.98417E+00  3.96509E+00  3.94710E+00  3.92997E+00  3.91361E+00  3.89800E+00  3.88321E+00  3.86919E+00  3.85578E+00
   3.84285E+00  3.83036E+00  3.81840E+00  3.80700E+00  3.79609E+00  3.78554E+00  3.77525E+00  3.76526E+00  3.75567E+00  3.74648E+00
   3.73760E+00  3.72890E+00  3.72036E+00  3.71207E+00  3.70411E+00  3.69643E+00  3.68893E+00  3.68151E+00  3.67422E+00  3.66715E+00
   3.66034E+00  3.65371E+00  3.64716E+00  3.64064E+00  3.63425E+00  3.62807E+00  3.62210E+00  3.61622E+00  3.61035E+00  3.60452E+00
   3.59884E+00  3.59336E+00  3.58801E+00  3.58270E+00  3.57738E+00  3.57214E+00  3.56707E+00  3.56218E+00
 NY background values follow
     4.163E+01    4.137E+01    4.111E+01    4.084E+01    4.058E+01    4.032E+01    4.005E+01    3.979E+01    3.952E+01    3.926E+01
     3.899E+01    3.873E+01    3.847E+01    3.820E+01    3.794E+01    3.768E+01    3.741E+01    3.715E+01    3.689E+01    3.662E+01
     3.636E+01    3.610E+01    3.583E+01    3.557E+01    3.531E+01    3.505E+01    3.479E+01    3.453E+01    3.427E+01    3.401E+01
     3.375E+01    3.349E+01    3.323E+01    3.297E+01    3.272E+01    3.246E+01    3.221E+01    3.195E+01    3.170E+01    3.144E+01
     3.119E+01    3.094E+01    3.068E+01    3.043E+01    3.018E+01    2.993E+01    2.969E+01    2.944E+01    2.919E+01    2.895E+01
     2.870E+01    2.846E+01    2.821E+01    2.797E+01    2.773E+01    2.749E+01    2.725E+01    2.701E+01    2.678E+01    2.654E+01
     2.631E+01    2.607E+01    2.584E+01    2.561E+01    2.538E+01    2.515E+01    2.492E+01    2.469E+01    2.447E+01    2.424E+01
     2.402E+01    2.380E+01    2.358E+01    2.336E+01    2.314E+01    2.292E+01    2.271E+01    2.249E+01    2.228E+01    2.207E+01
     2.186E+01    2.165E+01    2.144E+01    2.124E+01    2.103E+01    2.083E+01    2.063E+01    2.043E+01    2.023E+01    2.004E+01
     1.984E+01    1.965E+01    1.946E+01    1.927E+01    1.908E+01    1.889E+01    1.871E+01    1.852E+01    1.834E+01    1.816E+01
     1.798E+01    1.780E+01    1.763E+01    1.745E+01    1.728E+01    1.711E+01    1.694E+01    1.677E+01    1.660E+01    1.644E+01
     1.627E+01    1.611E+01    1.595E+01    1.579E+01    1.563E+01    1.548E+01    1.532E+01    1.517E+01    1.502E+01    1.487E+01
     1.472E+01    1.457E+01    1.443E+01    1.428E+01    1.414E+01    1.400E+01    1.386E+01    1.372E+01    1.358E+01    1.345E+01
     1.331E+01    1.318E+01    1.305E+01    1.292E+01    1.279E+01    1.266E+01    1.254E+01    1.241E+01    1.229E+01    1.217E+01
     1.205E+01    1.193E+01    1.181E+01    1.170E+01    1.158E+01    1.147E+01    1.136E+01    1.125E+01    1.114E+01    1.103E+01
     1.093E+01    1.082E+01    1.072E+01    1.062E+01    1.052E+01    1.042E+01    1.032E+01    1.022E+01    1.013E+01    1.004E+01
     9.944E+00    9.854E+00    9.766E+00    9.678E+00    9.592E+00    9.508E+00    9.425E+00    9.343E+00    9.263E+00    9.185E+00
     9.107E+00    9.031E+00    8.957E+00    8.884E+00    8.813E+00    8.743E+00    8.674E+00    8.607E+00    8.542E+00    8.477E+00
     8.415E+00    8.353E+00    8.294E+00    8.235E+00    8.178E+00    8.123E+00    8.068E+00    8.015E+00    7.964E+00    7.913E+00
     7.864E+00    7.816E+00    7.769E+00    7.723E+00    7.678E+00    7.635E+00    7.592E+00    7.551E+00    7.510E+00    7.470E+00
     7.431E+00    7.394E+00    7.357E+00    7.320E+00    7.285E+00    7.250E+00    7.217E+00    7.183E+00    7.151E+00    7.119E+00
     7.088E+00    7.057E+00    7.027E+00    6.998E+00    6.969E+00    6.940E+00    6.912E+00    6.884E+00    6.857E+00    6.830E+00
     6.804E+00    6.777E+00    6.751E+00    6.725E+00    6.700E+00    6.674E+00    6.649E+00    6.624E+00    6.599E+00    6.574E+00
     6.549E+00    6.524E+00    6.500E+00    6.475E+00    6.451E+00    6.427E+00    6.403E+00    6.379E+00    6.355E+00    6.331E+00
     6.308E+00    6.284E+00    6.261E+00    6.238E+00    6.215E+00    6.192E+00    6.169E+00    6.146E+00    6.123E+00    6.101E+00
     6.079E+00    6.056E+00    6.034E+00    6.012E+00    5.990E+00    5.969E+00    5.947E+00    5.926E+00    5.904E+00    5.883E+00
     5.862E+00    5.841E+00    5.820E+00    5.799E+00    5.779E+00    5.758E+00    5.738E+00    5.718E+00    5.698E+00    5.678E+00
     5.658E+00    5.638E+00    5.618E+00    5.599E+00    5.580E+00    5.560E+00    5.541E+00    5.522E+00    5.503E+00    5.485E+00
     5.466E+00    5.447E+00    5.429E+00    5.411E+00    5.393E+00    5.374E+00    5.357E+00    5.339E+00    5.321E+00    5.303E+00
     5.286E+00    5.268E+00    5.251E+00    5.234E+00    5.216E+00    5.199E+00    5.182E+00    5.165E+00    5.149E+00    5.132E+00
     5.115E+00    5.099E+00    5.082E+00    5.066E+00    5.049E+00    5.033E+00    5.017E+00    5.001E+00    4.985E+00    4.969E+00
     4.953E+00    4.937E+00    4.921E+00    4.906E+00    4.890E+00    4.875E+00    4.859E+00    4.844E+00    4.828E+00    4.813E+00
     4.798E+00    4.783E+00    4.767E+00    4.752E+00    4.737E+00    4.722E+00    4.707E+00    4.693E+00    4.678E+00    4.663E+00
     4.648E+00    4.634E+00    4.619E+00    4.605E+00    4.590E+00    4.576E+00    4.562E+00    4.547E+00    4.533E+00    4.519E+00
     4.505E+00    4.491E+00    4.477E+00    4.463E+00    4.449E+00    4.435E+00    4.421E+00    4.407E+00    4.394E+00    4.380E+00
     4.367E+00    4.353E+00    4.340E+00    4.326E+00    4.313E+00    4.300E+00    4.286E+00    4.273E+00    4.260E+00    4.247E+00
     4.234E+00    4.221E+00    4.208E+00    4.195E+00    4.182E+00    4.169E+00    4.156E+00    4.144E+00    4.131E+00    4.119E+00
     4.106E+00    4.094E+00    4.082E+00    4.069E+00    4.057E+00    4.045E+00    4.033E+00    4.021E+00    4.010E+00    3.998E+00
     3.986E+00    3.975E+00    3.964E+00    3.952E+00    3.941E+00    3.930E+00    3.919E+00    3.909E+00    3.898E+00    3.887E+00
     3.877E+00    3.867E+00    3.857E+00    3.847E+00    3.837E+00    3.827E+00    3.818E+00    3.808E+00    3.799E+00    3.790E+00
     3.781E+00    3.772E+00    3.764E+00    3.755E+00    3.747E+00    3.739E+00    3.731E+00    3.724E+00    3.716E+00    3.709E+00
     3.702E+00    3.695E+00    3.688E+00    3.681E+00    3.675E+00    3.669E+00    3.662E+00    3.656E+00    3.651E+00    3.645E+00
     3.639E+00    3.634E+00    3.628E+00    3.623E+00    3.618E+00    3.613E+00    3.609E+00    3.604E+00    3.599E+00    3.595E+00
     3.590E+00    3.586E+00    3.582E+00    3.578E+00    3.574E+00    3.570E+00    3.566E+00    3.563E+00    3.559E+00    3.555E+00
     3.552E+00    3.548E+00    3.545E+00    3.542E+00    3.539E+00    3.535E+00    3.532E+00    3.529E+00    3.526E+00    3.523E+00
     3.520E+00    3.517E+00    3.514E+00    3.511E+00    3.509E+00    3.506E+00    3.503E+00    3.500E+00    3.497E+00    3.495E+00
     3.492E+00    3.489E+00    3.486E+00    3.484E+00    3.481E+00    3.478E+00    3.476E+00    3.473E+00    3.471E+00    3.468E+00
     3.465E+00    3.463E+00    3.460E+00    3.458E+00    3.455E+00    3.453E+00    3.450E+00    3.447E+00    3.445E+00    3.442E+00
     3.440E+00    3.437E+00    3.435E+00    3.432E+00    3.430E+00    3.427E+00    3.425E+00    3.422E+00    3.419E+00    3.417E+00
     3.414E+00    3.412E+00    3.409E+00    3.407E+00    3.404E+00    3.401E+00    3.399E+00    3.396E+00
 Ala      Conc. = 2.31E+01
