 LCModel (Version 6.3-1L) Copyright: S.W. Provencher.          Ref.: Magn. Reson. Med. 30:672-679 (1993).                
 Slice#2 Row#8 Col#11  PD_05_press_1_raw_act
 36 lines in following concentration table = NCONC+1
    Conc.  %SD /Cr+PCr  Metabolite                                         
    0.000 999%   0.000 Ala                                                 
    0.000 999%   0.000 Asp                                                 
   63.081 286% 6.8E-02 Cr                                                  
  864.772  22%   0.932 PCr                                                 
   11.072 955% 1.2E-02 GABA                                                
    0.000 999%   0.000 Glc                                                 
  557.220  24%   0.601 Gln                                                 
 1.21E+03  14%   1.303 Glu                                                 
  293.557   5%   0.316 GPC                                                 
    0.000 999%   0.000 PCh                                                 
  181.111  26%   0.195 GSH                                                 
  642.549  24%   0.693 Ins                                                 
  177.461  39%   0.191 Lac                                                 
 1.88E+03   5%   2.022 NAA                                                 
  470.067  20%   0.507 NAAG                                                
   43.323  42% 4.7E-02 Scyllo                                              
  133.134 104%   0.143 Tau                                                 
  659.376  12%   0.711 -CrCH2                                              
  293.557   5%   0.316 GPC+PCh                                             
 2.35E+03   3%   2.528 NAA+NAAG                                            
  927.853   5%   1.000 Cr+PCr                                              
 1.77E+03  12%   1.904 Glu+Gln                                             
  601.251  77%   0.648 Lip13a                                              
    0.000 999%   0.000 Lip13b                                              
   27.059 659% 2.9E-02 Lip09                                               
 1.57E+03  16%   1.693 MM09                                                
  137.614  83%   0.148 Lip20                                               
 3.46E+03  10%   3.732 MM20                                                
  515.383  34%   0.555 MM12                                                
 1.79E+03  22%   1.925 MM14                                                
 1.13E+03  20%   1.222 MM17                                                
  601.251  77%   0.648 Lip13a+Lip13b                                       
 2.90E+03  11%   3.128 MM14+Lip13a+Lip13b+MM12                             
 1.60E+03  11%   1.722 MM09+Lip09                                          
 3.60E+03   9%   3.880 MM20+Lip20                                          
   6 lines in following misc. output table
  FWHM = 0.046 ppm    S/N =  17                                            
  Data shift = 0.008 ppm                                                   
  Ph: -25 deg      -8.7 deg/ppm                                            
  alphaB,S = 1.1E+00,   7.3E+01                                            
   14 spline knots.   Ns = 6(1)                                            
  ( 8) 2 infls.   ( 1) 1 extrs.                                            
  498 points on ppm-axis = NY
      4.000000     3.992357     3.984714     3.977070     3.969427     3.961784     3.954141     3.946497     3.938854     3.931211
      3.923568     3.915925     3.908281     3.900638     3.892995     3.885352     3.877708     3.870065     3.862422     3.854779
      3.847136     3.839492     3.831849     3.824206     3.816563     3.808919     3.801276     3.793633     3.785990     3.778347
      3.770703     3.763060     3.755417     3.747774     3.740130     3.732487     3.724844     3.717201     3.709558     3.701914
      3.694271     3.686628     3.678985     3.671341     3.663698     3.656055     3.648412     3.640769     3.633125     3.625482
      3.617839     3.610196     3.602552     3.594909     3.587266     3.579623     3.571980     3.564336     3.556693     3.549050
      3.541407     3.533763     3.526120     3.518477     3.510834     3.503191     3.495547     3.487904     3.480261     3.472618
      3.464974     3.457331     3.449688     3.442045     3.434402     3.426758     3.419115     3.411472     3.403829     3.396185
      3.388542     3.380899     3.373256     3.365613     3.357969     3.350326     3.342683     3.335040     3.327396     3.319753
      3.312110     3.304467     3.296824     3.289180     3.281537     3.273894     3.266251     3.258607     3.250964     3.243321
      3.235678     3.228034     3.220391     3.212748     3.205105     3.197462     3.189818     3.182175     3.174532     3.166889
      3.159245     3.151602     3.143959     3.136316     3.128673     3.121029     3.113386     3.105743     3.098100     3.090456
      3.082813     3.075170     3.067527     3.059884     3.052240     3.044597     3.036954     3.029311     3.021667     3.014024
      3.006381     2.998738     2.991095     2.983451     2.975808     2.968165     2.960522     2.952878     2.945235     2.937592
      2.929949     2.922306     2.914662     2.907019     2.899376     2.891733     2.884089     2.876446     2.868803     2.861160
      2.853517     2.845873     2.838230     2.830587     2.822944     2.815300     2.807657     2.800014     2.792371     2.784728
      2.777084     2.769441     2.761798     2.754155     2.746511     2.738868     2.731225     2.723582     2.715939     2.708295
      2.700652     2.693009     2.685366     2.677722     2.670079     2.662436     2.654793     2.647150     2.639506     2.631863
      2.624220     2.616577     2.608933     2.601290     2.593647     2.586004     2.578361     2.570717     2.563074     2.555431
      2.547788     2.540144     2.532501     2.524858     2.517215     2.509572     2.501928     2.494285     2.486642     2.478999
      2.471355     2.463712     2.456069     2.448426     2.440783     2.433139     2.425496     2.417853     2.410210     2.402566
      2.394923     2.387280     2.379637     2.371994     2.364350     2.356707     2.349064     2.341421     2.333777     2.326134
      2.318491     2.310848     2.303205     2.295561     2.287918     2.280275     2.272632     2.264988     2.257345     2.249702
      2.242059     2.234416     2.226772     2.219129     2.211486     2.203843     2.196199     2.188556     2.180913     2.173270
      2.165627     2.157983     2.150340     2.142697     2.135054     2.127410     2.119767     2.112124     2.104481     2.096838
      2.089194     2.081551     2.073908     2.066265     2.058621     2.050978     2.043335     2.035692     2.028049     2.020405
      2.012762     2.005119     1.997476     1.989833     1.982190     1.974546     1.966903     1.959260     1.951617     1.943974
      1.936331     1.928688     1.921045     1.913402     1.905759     1.898115     1.890472     1.882829     1.875186     1.867543
      1.859900     1.852257     1.844614     1.836971     1.829327     1.821684     1.814041     1.806398     1.798755     1.791112
      1.783469     1.775826     1.768183     1.760540     1.752896     1.745253     1.737610     1.729967     1.722324     1.714681
      1.707038     1.699395     1.691752     1.684108     1.676465     1.668822     1.661179     1.653536     1.645893     1.638250
      1.630607     1.622964     1.615321     1.607677     1.600034     1.592391     1.584748     1.577105     1.569462     1.561819
      1.554176     1.546533     1.538890     1.531246     1.523603     1.515960     1.508317     1.500674     1.493031     1.485388
      1.477745     1.470102     1.462458     1.454815     1.447172     1.439529     1.431886     1.424243     1.416600     1.408957
      1.401314     1.393671     1.386027     1.378384     1.370741     1.363098     1.355455     1.347812     1.340169     1.332526
      1.324883     1.317240     1.309596     1.301953     1.294310     1.286667     1.279024     1.271381     1.263738     1.256095
      1.248452     1.240808     1.233165     1.225522     1.217879     1.210236     1.202593     1.194950     1.187307     1.179664
      1.172021     1.164377     1.156734     1.149091     1.141448     1.133805     1.126162     1.118519     1.110876     1.103233
      1.095590     1.087946     1.080303     1.072660     1.065017     1.057374     1.049731     1.042088     1.034445     1.026802
      1.019158     1.011515     1.003872     0.996229     0.988586     0.980943     0.973300     0.965657     0.958014     0.950371
      0.942727     0.935084     0.927441     0.919798     0.912155     0.904512     0.896869     0.889226     0.881583     0.873940
      0.866296     0.858653     0.851010     0.843367     0.835724     0.828081     0.820438     0.812795     0.805152     0.797508
      0.789865     0.782222     0.774579     0.766936     0.759293     0.751650     0.744007     0.736364     0.728721     0.721077
      0.713434     0.705791     0.698148     0.690505     0.682862     0.675219     0.667576     0.659933     0.652290     0.644646
      0.637003     0.629360     0.621717     0.614074     0.606431     0.598788     0.591145     0.583502     0.575858     0.568215
      0.560572     0.552929     0.545286     0.537643     0.530000     0.522357     0.514714     0.507071     0.499427     0.491784
      0.484141     0.476498     0.468855     0.461212     0.453569     0.445925     0.438282     0.430639     0.422996     0.415353
      0.407710     0.400067     0.392424     0.384780     0.377137     0.369494     0.361851     0.354208     0.346565     0.338922
      0.331278     0.323635     0.315992     0.308349     0.300706     0.293063     0.285420     0.277777     0.270133     0.262490
      0.254847     0.247204     0.239561     0.231918     0.224275     0.216631     0.208988     0.201345
 NY phased data points follow
   6.52875E+00  8.20997E+00  7.49500E+00  7.46552E+00  8.58856E+00  7.95824E+00  7.86944E+00  1.26575E+01  1.16618E+01  1.36327E+01
   1.58356E+01  1.32419E+01  1.35018E+01  1.31412E+01  9.94078E+00  1.08402E+01  7.83781E+00  7.77003E+00  1.00132E+01  5.11254E+00
   6.30602E+00  6.18568E+00  6.78556E+00  5.44430E+00  7.26957E+00  9.65930E+00  8.15370E+00  9.33926E+00  6.80114E+00  9.96526E+00
   8.18437E+00  1.23615E+01  1.24238E+01  1.18625E+01  8.98393E+00  8.93070E+00  8.67497E+00  6.28701E+00  9.34277E+00  9.35493E+00
   8.56005E+00  7.97098E+00  9.21766E+00  1.18032E+01  1.35119E+01  1.17860E+01  1.29832E+01  1.59055E+01  1.42691E+01  1.23122E+01
   1.19143E+01  8.99803E+00  1.04022E+01  8.08953E+00  6.92528E+00  7.71398E+00  9.13627E+00  8.12741E+00  1.24251E+01  6.56410E+00
   5.18448E+00  5.96655E+00  5.99998E+00  2.94589E+00  3.69067E+00  4.82473E+00  4.15884E+00  2.70283E+00  3.27147E+00  2.90396E+00
   5.29744E+00  6.17871E+00  1.81529E+00  3.38678E+00  6.81906E+00  5.65971E+00  5.21180E+00  6.28888E+00  1.40034E+00  4.34900E+00
   2.84358E+00  6.08181E+00  4.89625E+00  4.35882E+00  7.94634E+00  4.62740E+00  5.99744E+00  4.49376E+00  5.56408E+00  7.30191E+00
   3.65691E+00  6.86296E+00  4.45069E+00  6.93644E+00  1.09706E+01  1.15717E+01  9.09771E+00  1.07519E+01  1.39234E+01  1.51760E+01
   2.00691E+01  2.57479E+01  3.38823E+01  3.67324E+01  3.14961E+01  2.73313E+01  2.37748E+01  1.55518E+01  1.13711E+01  9.07584E+00
   7.65949E+00  6.78471E+00  5.54356E+00  7.03041E+00  6.75347E+00  5.59575E+00  8.07902E+00  6.64816E+00  1.00178E+01  8.44029E+00
   1.11262E+01  1.16722E+01  1.12514E+01  1.29505E+01  2.40170E+01  2.98102E+01  3.79349E+01  4.31205E+01  3.98260E+01  3.67875E+01
   2.64060E+01  1.49444E+01  1.38843E+01  7.23537E+00  5.73612E+00  6.15835E+00  5.45525E+00  6.77836E+00  6.54906E+00  7.14110E+00
   8.13338E+00  6.27277E+00  8.75965E+00  6.27183E+00  4.56013E+00  5.45098E+00  6.66026E+00  4.47323E+00  5.64178E+00  7.48992E+00
   6.06104E+00  5.68178E+00  5.63084E+00  4.57071E+00  6.66701E+00  4.34447E+00  4.92768E+00  5.69189E+00  5.75503E+00  3.70291E+00
   4.98550E+00  2.23275E+00  4.15028E+00  1.44931E+00  4.35811E-01  2.55410E+00 -1.13531E+00  6.01470E-01 -2.06088E+00 -4.82714E+00
  -3.43766E+00 -6.10585E-01 -6.30130E+00 -9.49889E+00 -1.03038E+01 -1.30204E+01 -9.38992E+00 -9.10791E+00 -5.92470E+00 -3.88614E+00
  -3.39158E+00 -4.97016E+00 -6.97883E+00 -5.04898E+00 -1.97387E+00 -5.43375E+00 -5.19264E+00 -4.28840E+00 -3.85786E+00 -4.15343E+00
  -1.40817E+00  4.27690E-01  2.09569E+00  3.64448E+00 -9.46146E-01 -3.73235E+00 -5.99502E+00 -2.57312E+00 -6.09055E+00 -5.31989E+00
  -5.33270E+00 -1.48170E+00  1.26087E+00  4.24021E+00  4.48033E+00  3.18339E+00  2.29883E+00 -2.35217E+00 -1.48954E+00 -4.00483E+00
  -1.28122E+00  2.00954E+00  5.61351E+00  1.06774E+01  1.27537E+01  1.54521E+01  1.50022E+01  1.42650E+01  9.81151E+00  7.45768E+00
   2.32308E+00 -2.06075E+00 -1.85067E+00 -1.69328E+00  1.35436E+00  6.05465E+00  1.00944E+01  9.27009E+00  9.73677E+00  7.65702E+00
   6.65465E+00  9.71696E+00  1.04881E+01  7.47845E+00  9.36940E+00  1.02676E+01  1.02316E+01  8.29453E+00  1.11697E+01  1.22483E+01
   7.11471E+00  5.50787E+00  5.05677E+00  5.80269E+00  7.22406E+00  1.14908E+01  1.30308E+01  1.66601E+01  1.42399E+01  1.43941E+01
   1.70011E+01  2.04088E+01  2.25459E+01  2.84267E+01  3.76433E+01  4.88160E+01  5.82612E+01  6.50085E+01  7.71364E+01  8.56375E+01
   9.44014E+01  8.78892E+01  7.14571E+01  4.72196E+01  2.91846E+01  1.75905E+01  1.09629E+01  8.63284E+00  4.50731E+00  7.78427E+00
   8.02625E+00  7.01515E+00  6.95334E+00  7.54518E+00  5.78417E+00  5.78998E+00  4.46731E+00  6.50656E+00  6.06760E+00  4.52619E+00
   6.05289E+00  4.48607E+00  4.14396E+00  7.15022E+00  2.51343E+00  5.38975E+00  2.52283E+00  5.72670E+00  3.83555E+00  3.45642E+00
   5.67748E+00  4.54925E+00  3.83777E+00  6.79729E+00  2.91045E+00  5.86388E+00  4.67022E+00  6.51353E+00  5.10485E+00  5.55356E+00
   5.24365E+00  3.69993E+00  5.66520E+00  7.61269E+00  5.83959E+00  7.42045E+00  7.71548E+00  9.11033E+00  7.68158E+00  8.50942E+00
   9.18291E+00  1.03390E+01  1.04907E+01  9.50193E+00  9.05920E+00  7.03293E+00  8.06949E+00  1.11128E+01  6.13442E+00  7.42453E+00
   6.65107E+00  5.36623E+00  6.67020E+00  5.47771E+00  6.43280E+00  5.70105E+00  4.12952E+00  6.51424E+00  7.57084E+00  8.87245E+00
   1.03534E+01  7.89165E+00  1.14229E+01  8.71962E+00  9.89748E+00  1.16589E+01  1.02344E+01  1.09029E+01  1.16662E+01  1.01413E+01
   9.50217E+00  1.19007E+01  1.14871E+01  1.16223E+01  1.53761E+01  1.65509E+01  1.54449E+01  1.40371E+01  9.85169E+00  8.56895E+00
   7.71432E+00  6.19562E+00  7.25116E+00  9.09850E+00  8.15968E+00  7.25530E+00  8.11009E+00  8.40714E+00  7.09556E+00  9.06654E+00
   7.18656E+00  8.14541E+00  5.07420E+00  9.81150E+00  9.52069E+00  7.64325E+00  8.20557E+00  6.42719E+00  5.86239E+00  6.38191E+00
   5.87149E+00  7.45413E+00  2.30581E+00  5.88780E+00  5.41549E+00  6.17272E+00  3.06025E+00  4.80322E+00  5.01582E+00  4.33338E+00
   6.80722E+00  5.69330E+00  2.17450E+00  4.54908E+00  5.67539E+00  4.88392E+00  2.49118E+00  3.69368E+00  6.68934E+00  6.61262E+00
   7.13449E+00  8.61619E+00  7.23145E+00  5.84018E+00  7.33642E+00  1.00579E+01  7.83617E+00  8.22053E+00  9.79469E+00  1.03134E+01
   8.64981E+00  7.82278E+00  1.02357E+01  9.63496E+00  7.95864E+00  1.15886E+01  7.77804E+00  8.28101E+00  9.89711E+00  1.00215E+01
   8.97565E+00  7.65622E+00  8.51700E+00  6.31252E+00  6.76475E+00  7.58580E+00  5.69718E+00  3.68990E+00  4.46018E+00  4.14200E+00
   7.20413E+00  4.33369E+00  1.63334E+00  2.61774E+00  2.42809E+00  3.86937E+00  3.31217E+00 -3.92670E-02  2.08198E+00  4.84100E+00
   3.55348E+00  2.73716E+00  2.14858E+00  2.06450E+00  4.99999E+00  3.01328E+00  2.51629E+00  1.54728E+00  2.64227E+00  6.75123E-02
   3.38594E+00  3.92909E+00  9.27864E-01  1.87996E+00  1.61177E+00  3.23352E+00  2.61403E+00  1.61976E+00 -7.67908E-01 -2.27899E+00
   1.60027E+00  3.55804E+00  1.08807E-01 -7.02770E-01  2.35473E+00  8.56951E-01 -4.95214E-01 -1.24249E-01 -1.52605E+00  1.69225E-01
  -1.22092E+00 -2.11698E+00 -8.49603E-01 -3.41070E-02 -1.10526E+00  5.81603E-01 -2.44506E+00  2.66093E+00  2.01225E+00 -9.08344E-01
  -1.79088E-01  1.37305E+00 -3.24203E+00 -1.05894E+00  2.27152E+00  1.09948E+00  1.87174E+00  2.32042E+00 -9.62528E-01 -1.05698E-01
  -3.26279E-02 -7.89531E-01  1.74460E+00 -8.80029E-01  8.24703E-02  1.21386E+00  2.31635E+00  1.07813E+00  2.66272E+00 -4.98252E-01
   3.76447E+00 -7.06068E-01  2.06578E-01 -1.76506E+00 -3.93439E-01 -1.00777E+00 -2.57081E+00 -1.89918E-02
 NY points of the fit to the data follow
   7.04236E+00  6.90911E+00  6.96185E+00  7.19890E+00  7.92467E+00  8.81489E+00  9.82250E+00  1.10801E+01  1.25629E+01  1.40241E+01
   1.49447E+01  1.48942E+01  1.38551E+01  1.22755E+01  1.08008E+01  9.79701E+00  9.25444E+00  9.03095E+00  8.87870E+00  8.71552E+00
   8.53093E+00  8.39806E+00  8.13451E+00  7.75653E+00  7.55112E+00  7.44468E+00  7.44567E+00  7.83954E+00  8.90657E+00  1.06457E+01
   1.25192E+01  1.39252E+01  1.44002E+01  1.36920E+01  1.20909E+01  1.00491E+01  8.04747E+00  6.61081E+00  5.94519E+00  6.01072E+00
   6.66603E+00  7.70396E+00  8.81905E+00  9.73374E+00  1.05177E+01  1.13693E+01  1.22403E+01  1.27914E+01  1.25920E+01  1.15024E+01
   9.83326E+00  8.12338E+00  6.81410E+00  6.11761E+00  5.96326E+00  6.12830E+00  6.44809E+00  6.82594E+00  7.22087E+00  7.55998E+00
   7.70719E+00  7.55382E+00  7.07780E+00  6.44282E+00  5.85400E+00  5.48851E+00  5.45620E+00  5.65103E+00  5.91098E+00  6.18358E+00
   6.43661E+00  6.61534E+00  6.70012E+00  6.69232E+00  6.58099E+00  6.36633E+00  6.07171E+00  5.70634E+00  5.32031E+00  5.03725E+00
   5.01724E+00  5.26474E+00  5.57188E+00  5.89124E+00  6.22848E+00  6.48338E+00  6.48142E+00  6.08657E+00  5.36995E+00  4.61132E+00
   4.11814E+00  3.98703E+00  4.09226E+00  4.28807E+00  4.46508E+00  4.69919E+00  5.53403E+00  8.02326E+00  1.14564E+01  1.53785E+01
   2.05876E+01  2.70852E+01  3.32575E+01  3.64903E+01  3.48926E+01  2.88851E+01  2.09264E+01  1.39007E+01  9.27466E+00  6.85573E+00
   5.86760E+00  5.46278E+00  5.22908E+00  5.08961E+00  5.00381E+00  4.95898E+00  4.94509E+00  4.96012E+00  5.02550E+00  5.22567E+00
   5.98090E+00  8.61840E+00  1.25992E+01  1.70494E+01  2.28616E+01  3.02686E+01  3.76099E+01  4.19546E+01  4.09043E+01  3.45487E+01
   2.55500E+01  1.73384E+01  1.17929E+01  8.71884E+00  7.16978E+00  6.19446E+00  5.42369E+00  4.95399E+00  4.86355E+00  5.08606E+00
   5.43334E+00  5.69843E+00  5.73951E+00  5.54539E+00  5.19531E+00  4.80061E+00  4.45304E+00  4.17624E+00  3.92831E+00  3.68702E+00
   3.45199E+00  3.21224E+00  2.97829E+00  2.79056E+00  2.63029E+00  2.43860E+00  2.32002E+00  2.21868E+00  1.97562E+00  1.55659E+00
   9.49314E-01  4.74100E-01  4.58632E-01  8.36111E-01  1.20090E+00  1.16139E+00  6.00968E-01 -2.74026E-01 -1.11987E+00 -1.70066E+00
  -2.06045E+00 -2.22656E+00 -2.29644E+00 -2.54233E+00 -2.99242E+00 -3.46137E+00 -3.55640E+00 -3.16810E+00 -2.58748E+00 -2.25442E+00
  -2.35192E+00 -2.68884E+00 -2.74354E+00 -2.39305E+00 -1.86281E+00 -1.30662E+00 -6.45200E-01  2.71794E-01  1.47824E+00  2.76543E+00
   3.74627E+00  4.12809E+00  3.75650E+00  2.96859E+00  2.17932E+00  1.64068E+00  1.42017E+00  1.57752E+00  2.21381E+00  3.21164E+00
   4.41409E+00  5.60229E+00  6.40709E+00  6.51106E+00  5.73976E+00  4.19237E+00  1.93102E+00 -7.82845E-01 -3.07990E+00 -4.22697E+00
  -3.77243E+00 -1.91250E+00  6.74403E-01  3.70594E+00  6.82240E+00  9.30883E+00  1.01956E+01  8.89083E+00  5.89752E+00  2.24233E+00
  -1.22118E+00 -3.65925E+00 -4.45464E+00 -3.30936E+00 -4.99819E-01  3.02037E+00  6.17045E+00  8.25360E+00  9.09035E+00  8.90354E+00
   8.20862E+00  7.56591E+00  7.27142E+00  7.42987E+00  8.07052E+00  9.03196E+00  1.00272E+01  1.08135E+01  1.12007E+01  1.10213E+01
   1.02985E+01  9.31153E+00  8.60466E+00  8.67053E+00  9.61187E+00  1.10851E+01  1.25962E+01  1.38238E+01  1.46967E+01  1.56614E+01
   1.74772E+01  1.97060E+01  2.25244E+01  2.72246E+01  3.67332E+01  4.81353E+01  5.76080E+01  6.68547E+01  7.74998E+01  8.76751E+01
   9.23170E+01  8.65705E+01  7.04943E+01  4.95933E+01  3.10666E+01  1.89361E+01  1.26173E+01  1.00385E+01  8.95394E+00  8.17856E+00
   7.58474E+00  7.13766E+00  6.83464E+00  6.63025E+00  6.43534E+00  6.14655E+00  5.73889E+00  5.26880E+00  4.81342E+00  4.42892E+00
   4.14232E+00  3.94980E+00  3.83061E+00  3.75394E+00  3.68290E+00  3.59917E+00  3.51295E+00  3.44053E+00  3.40351E+00  3.42805E+00
   3.53204E+00  3.71562E+00  3.95626E+00  4.22082E+00  4.49057E+00  4.75769E+00  5.02448E+00  5.30079E+00  5.59725E+00  5.92304E+00
   6.27753E+00  6.64918E+00  7.01683E+00  7.35793E+00  7.65629E+00  7.90381E+00  8.09605E+00  8.23260E+00  8.31298E+00  8.33901E+00
   8.31381E+00  8.24232E+00  8.13007E+00  7.98490E+00  7.81601E+00  7.63487E+00  7.45290E+00  7.28144E+00  7.13009E+00  7.00796E+00
   6.92268E+00  6.88118E+00  6.88794E+00  6.94571E+00  7.05456E+00  7.21353E+00  7.41973E+00  7.66937E+00  7.95641E+00  8.27394E+00
   8.61367E+00  8.96773E+00  9.32781E+00  9.68620E+00  1.00349E+01  1.03672E+01  1.06777E+01  1.09642E+01  1.12279E+01  1.14767E+01
   1.17351E+01  1.20619E+01  1.23887E+01  1.25650E+01  1.26643E+01  1.26669E+01  1.23803E+01  1.15981E+01  1.02909E+01  8.83550E+00
   7.67775E+00  7.00929E+00  6.93367E+00  7.41268E+00  8.28367E+00  9.25595E+00  9.96070E+00  1.01592E+01  9.83918E+00  9.21237E+00
   8.54506E+00  7.97891E+00  7.54385E+00  7.20414E+00  6.90735E+00  6.63565E+00  6.38154E+00  6.14168E+00  5.91395E+00  5.69801E+00
   5.49411E+00  5.30389E+00  5.12887E+00  4.97110E+00  4.83206E+00  4.71390E+00  4.61855E+00  4.54856E+00  4.50572E+00  4.49194E+00
   4.50832E+00  4.55648E+00  4.63748E+00  4.75263E+00  4.90210E+00  5.08596E+00  5.30327E+00  5.55326E+00  5.83412E+00  6.14368E+00
   6.47819E+00  6.83343E+00  7.20389E+00  7.58396E+00  7.96673E+00  8.34493E+00  8.71006E+00  9.05382E+00  9.36760E+00  9.64370E+00
   9.87441E+00  1.00532E+01  1.01740E+01  1.02329E+01  1.02272E+01  1.01565E+01  1.00214E+01  9.82470E+00  9.57013E+00  9.26351E+00
   8.91142E+00  8.52177E+00  8.10226E+00  7.66114E+00  7.20612E+00  6.74523E+00  6.28545E+00  5.83336E+00  5.39396E+00  4.97170E+00
   4.56973E+00  4.19093E+00  3.83677E+00  3.50830E+00  3.20524E+00  2.92730E+00  2.67344E+00  2.44290E+00  2.23411E+00  2.04567E+00
   1.87557E+00  1.72240E+00  1.58449E+00  1.46072E+00  1.34944E+00  1.24945E+00  1.15919E+00  1.07787E+00  1.00443E+00  9.38360E-01
   8.78571E-01  8.24473E-01  7.75155E-01  7.30444E-01  6.89773E-01  6.52998E-01  6.19370E-01  5.88684E-01  5.60423E-01  5.34729E-01
   5.11239E-01  4.89951E-01  4.70286E-01  4.52259E-01  4.35569E-01  4.20487E-01  4.06694E-01  3.94221E-01  3.82592E-01  3.71963E-01
   3.62147E-01  3.53439E-01  3.45505E-01  3.38393E-01  3.31716E-01  3.25736E-01  3.20311E-01  3.15700E-01  3.11531E-01  3.07880E-01
   3.04452E-01  3.01580E-01  2.99121E-01  2.97285E-01  2.95678E-01  2.94424E-01  2.93306E-01  2.92686E-01  2.92378E-01  2.92537E-01
   2.92775E-01  2.93283E-01  2.93910E-01  2.95014E-01  2.96358E-01  2.98056E-01  2.99757E-01  3.01720E-01  3.03833E-01  3.06417E-01
   3.09180E-01  3.12226E-01  3.15265E-01  3.18622E-01  3.22196E-01  3.26258E-01  3.30479E-01  3.34994E-01
 NY background values follow
     6.248E+00    6.222E+00    6.196E+00    6.171E+00    6.145E+00    6.119E+00    6.093E+00    6.067E+00    6.041E+00    6.016E+00
     5.990E+00    5.964E+00    5.938E+00    5.912E+00    5.886E+00    5.861E+00    5.835E+00    5.809E+00    5.783E+00    5.757E+00
     5.731E+00    5.705E+00    5.679E+00    5.653E+00    5.627E+00    5.601E+00    5.575E+00    5.549E+00    5.523E+00    5.497E+00
     5.471E+00    5.445E+00    5.419E+00    5.392E+00    5.366E+00    5.340E+00    5.314E+00    5.287E+00    5.261E+00    5.234E+00
     5.208E+00    5.181E+00    5.155E+00    5.128E+00    5.102E+00    5.075E+00    5.048E+00    5.022E+00    4.995E+00    4.968E+00
     4.941E+00    4.914E+00    4.887E+00    4.860E+00    4.832E+00    4.805E+00    4.778E+00    4.751E+00    4.723E+00    4.696E+00
     4.668E+00    4.640E+00    4.613E+00    4.585E+00    4.557E+00    4.529E+00    4.501E+00    4.473E+00    4.444E+00    4.416E+00
     4.388E+00    4.359E+00    4.331E+00    4.302E+00    4.273E+00    4.244E+00    4.215E+00    4.186E+00    4.157E+00    4.128E+00
     4.098E+00    4.069E+00    4.039E+00    4.009E+00    3.979E+00    3.949E+00    3.919E+00    3.889E+00    3.859E+00    3.828E+00
     3.798E+00    3.767E+00    3.736E+00    3.705E+00    3.674E+00    3.643E+00    3.611E+00    3.580E+00    3.548E+00    3.517E+00
     3.485E+00    3.453E+00    3.421E+00    3.388E+00    3.356E+00    3.324E+00    3.291E+00    3.258E+00    3.226E+00    3.193E+00
     3.160E+00    3.126E+00    3.093E+00    3.060E+00    3.026E+00    2.993E+00    2.959E+00    2.925E+00    2.891E+00    2.857E+00
     2.823E+00    2.788E+00    2.754E+00    2.720E+00    2.685E+00    2.650E+00    2.615E+00    2.580E+00    2.545E+00    2.510E+00
     2.475E+00    2.440E+00    2.404E+00    2.369E+00    2.333E+00    2.297E+00    2.261E+00    2.225E+00    2.189E+00    2.153E+00
     2.117E+00    2.081E+00    2.045E+00    2.008E+00    1.972E+00    1.936E+00    1.900E+00    1.863E+00    1.827E+00    1.791E+00
     1.755E+00    1.719E+00    1.683E+00    1.647E+00    1.611E+00    1.576E+00    1.540E+00    1.505E+00    1.470E+00    1.434E+00
     1.400E+00    1.365E+00    1.330E+00    1.296E+00    1.262E+00    1.228E+00    1.195E+00    1.162E+00    1.129E+00    1.096E+00
     1.063E+00    1.031E+00    9.994E-01    9.679E-01    9.368E-01    9.060E-01    8.756E-01    8.456E-01    8.159E-01    7.867E-01
     7.578E-01    7.294E-01    7.015E-01    6.739E-01    6.468E-01    6.201E-01    5.938E-01    5.679E-01    5.425E-01    5.174E-01
     4.927E-01    4.685E-01    4.446E-01    4.211E-01    3.980E-01    3.752E-01    3.528E-01    3.308E-01    3.092E-01    2.879E-01
     2.669E-01    2.463E-01    2.261E-01    2.062E-01    1.866E-01    1.674E-01    1.484E-01    1.298E-01    1.116E-01    9.358E-02
     7.592E-02    5.856E-02    4.150E-02    2.474E-02    8.265E-03   -7.924E-03   -2.383E-02   -3.946E-02   -5.482E-02   -6.992E-02
    -8.475E-02   -9.932E-02   -1.136E-01   -1.277E-01   -1.415E-01   -1.551E-01   -1.684E-01   -1.816E-01   -1.944E-01   -2.071E-01
    -2.195E-01   -2.317E-01   -2.437E-01   -2.554E-01   -2.670E-01   -2.783E-01   -2.894E-01   -3.002E-01   -3.109E-01   -3.213E-01
    -3.315E-01   -3.415E-01   -3.513E-01   -3.609E-01   -3.703E-01   -3.795E-01   -3.884E-01   -3.972E-01   -4.057E-01   -4.141E-01
    -4.222E-01   -4.302E-01   -4.379E-01   -4.455E-01   -4.528E-01   -4.600E-01   -4.670E-01   -4.738E-01   -4.803E-01   -4.867E-01
    -4.930E-01   -4.990E-01   -5.048E-01   -5.105E-01   -5.159E-01   -5.212E-01   -5.263E-01   -5.313E-01   -5.360E-01   -5.406E-01
    -5.450E-01   -5.493E-01   -5.533E-01   -5.572E-01   -5.609E-01   -5.645E-01   -5.679E-01   -5.711E-01   -5.742E-01   -5.771E-01
    -5.798E-01   -5.824E-01   -5.849E-01   -5.872E-01   -5.893E-01   -5.913E-01   -5.931E-01   -5.948E-01   -5.964E-01   -5.978E-01
    -5.991E-01   -6.002E-01   -6.012E-01   -6.021E-01   -6.028E-01   -6.034E-01   -6.039E-01   -6.042E-01   -6.044E-01   -6.045E-01
    -6.045E-01   -6.043E-01   -6.040E-01   -6.037E-01   -6.031E-01   -6.025E-01   -6.018E-01   -6.010E-01   -6.000E-01   -5.989E-01
    -5.978E-01   -5.965E-01   -5.951E-01   -5.937E-01   -5.921E-01   -5.904E-01   -5.887E-01   -5.868E-01   -5.849E-01   -5.829E-01
    -5.807E-01   -5.785E-01   -5.762E-01   -5.738E-01   -5.714E-01   -5.688E-01   -5.662E-01   -5.634E-01   -5.606E-01   -5.577E-01
    -5.547E-01   -5.517E-01   -5.485E-01   -5.453E-01   -5.420E-01   -5.386E-01   -5.352E-01   -5.317E-01   -5.281E-01   -5.244E-01
    -5.206E-01   -5.168E-01   -5.129E-01   -5.089E-01   -5.049E-01   -5.008E-01   -4.966E-01   -4.923E-01   -4.880E-01   -4.837E-01
    -4.792E-01   -4.747E-01   -4.701E-01   -4.655E-01   -4.608E-01   -4.560E-01   -4.512E-01   -4.463E-01   -4.414E-01   -4.364E-01
    -4.313E-01   -4.262E-01   -4.210E-01   -4.158E-01   -4.105E-01   -4.052E-01   -3.998E-01   -3.944E-01   -3.889E-01   -3.833E-01
    -3.777E-01   -3.721E-01   -3.664E-01   -3.607E-01   -3.549E-01   -3.491E-01   -3.432E-01   -3.373E-01   -3.313E-01   -3.253E-01
    -3.192E-01   -3.132E-01   -3.070E-01   -3.008E-01   -2.946E-01   -2.884E-01   -2.821E-01   -2.758E-01   -2.694E-01   -2.630E-01
    -2.566E-01   -2.501E-01   -2.436E-01   -2.370E-01   -2.305E-01   -2.239E-01   -2.172E-01   -2.106E-01   -2.039E-01   -1.972E-01
    -1.904E-01   -1.836E-01   -1.768E-01   -1.700E-01   -1.632E-01   -1.563E-01   -1.494E-01   -1.425E-01   -1.355E-01   -1.285E-01
    -1.216E-01   -1.146E-01   -1.075E-01   -1.005E-01   -9.344E-02   -8.638E-02   -7.930E-02   -7.221E-02   -6.512E-02   -5.801E-02
    -5.090E-02   -4.378E-02   -3.666E-02   -2.953E-02   -2.240E-02   -1.528E-02   -8.149E-03   -1.022E-03    6.101E-03    1.322E-02
     2.033E-02    2.744E-02    3.454E-02    4.163E-02    4.871E-02    5.577E-02    6.283E-02    6.987E-02    7.689E-02    8.390E-02
     9.089E-02    9.786E-02    1.048E-01    1.117E-01    1.186E-01    1.255E-01    1.324E-01    1.392E-01    1.460E-01    1.528E-01
     1.595E-01    1.662E-01    1.729E-01    1.795E-01    1.862E-01    1.927E-01    1.993E-01    2.058E-01    2.123E-01    2.187E-01
     2.252E-01    2.316E-01    2.380E-01    2.443E-01    2.506E-01    2.569E-01    2.632E-01    2.695E-01    2.757E-01    2.820E-01
     2.882E-01    2.943E-01    3.005E-01    3.067E-01    3.128E-01    3.189E-01    3.250E-01    3.311E-01    3.372E-01    3.433E-01
     3.493E-01    3.554E-01    3.614E-01    3.675E-01    3.735E-01    3.795E-01    3.855E-01    3.915E-01    3.976E-01    4.036E-01
     4.096E-01    4.156E-01    4.216E-01    4.276E-01    4.336E-01    4.396E-01    4.456E-01    4.516E-01
 Cr       Conc. = 6.31E+01
