 LCModel (Version 6.3-1L) Copyright: S.W. Provencher.          Ref.: Magn. Reson. Med. 30:672-679 (1993).                
 Slice#3 Row#10 Col#12  PD_05_press_1_raw_act
 36 lines in following concentration table = NCONC+1
    Conc.  %SD /Cr+PCr  Metabolite                                         
  136.359  39%   0.770 Ala                                                 
   50.847  92%   0.287 Asp                                                 
    0.000 999%   0.000 Cr                                                  
  177.024  11%   1.000 PCr                                                 
    4.598 646% 2.6E-02 GABA                                                
   37.368  78%   0.211 Glc                                                 
  190.766  48%   1.078 Gln                                                 
  281.546  38%   1.590 Glu                                                 
   37.419  19%   0.211 GPC                                                 
    0.000 999%   0.000 PCh                                                 
   26.119 103%   0.148 GSH                                                 
  287.208  33%   1.622 Ins                                                 
    4.913 999% 2.8E-02 Lac                                                 
  516.065   5%   2.915 NAA                                                 
    0.000 999%   0.000 NAAG                                                
   21.894  34%   0.124 Scyllo                                              
   87.082  54%   0.492 Tau                                                 
  128.294  26%   0.725 -CrCH2                                              
   37.419  19%   0.211 GPC+PCh                                             
  516.065   5%   2.915 NAA+NAAG                                            
  177.024  11%   1.000 Cr+PCr                                              
  472.312  33%   2.668 Glu+Gln                                             
 7.41E+03  10%  41.831 Lip13a                                              
    0.000 999%   0.000 Lip13b                                              
    0.000 999%   0.000-Lip09                                               
  138.006  52%   0.780 MM09                                                
    0.000 999%   0.000 Lip20                                               
    0.000 999%   0.000 MM20                                                
   75.110 119%   0.424 MM12                                                
 1.50E+03  18%   8.470+MM14                                                
  914.362  21%   5.165 MM17                                                
 7.41E+03  10%  41.831 Lip13a+Lip13b                                       
 8.98E+03   8%  50.725 MM14+Lip13a+Lip13b+MM12                             
  138.006  52%   0.780 MM09+Lip09                                          
    0.000 999%   0.000 MM20+Lip20                                          
   6 lines in following misc. output table
  FWHM = 0.061 ppm    S/N =   9                                            
  Data shift = 0.000 ppm                                                   
  Ph: -94 deg     -52.8 deg/ppm                                            
  alphaB,S = 6.2E-01,   1.0E+02                                            
   14 spline knots.   Ns =10(1)                                            
  (13) 2 infls.   (15) 1 extrs.                                            
  498 points on ppm-axis = NY
      4.000000     3.992357     3.984714     3.977070     3.969427     3.961784     3.954141     3.946497     3.938854     3.931211
      3.923568     3.915925     3.908281     3.900638     3.892995     3.885352     3.877708     3.870065     3.862422     3.854779
      3.847136     3.839492     3.831849     3.824206     3.816563     3.808919     3.801276     3.793633     3.785990     3.778347
      3.770703     3.763060     3.755417     3.747774     3.740130     3.732487     3.724844     3.717201     3.709558     3.701914
      3.694271     3.686628     3.678985     3.671341     3.663698     3.656055     3.648412     3.640769     3.633125     3.625482
      3.617839     3.610196     3.602552     3.594909     3.587266     3.579623     3.571980     3.564336     3.556693     3.549050
      3.541407     3.533763     3.526120     3.518477     3.510834     3.503191     3.495547     3.487904     3.480261     3.472618
      3.464974     3.457331     3.449688     3.442045     3.434402     3.426758     3.419115     3.411472     3.403829     3.396185
      3.388542     3.380899     3.373256     3.365613     3.357969     3.350326     3.342683     3.335040     3.327396     3.319753
      3.312110     3.304467     3.296824     3.289180     3.281537     3.273894     3.266251     3.258607     3.250964     3.243321
      3.235678     3.228034     3.220391     3.212748     3.205105     3.197462     3.189818     3.182175     3.174532     3.166889
      3.159245     3.151602     3.143959     3.136316     3.128673     3.121029     3.113386     3.105743     3.098100     3.090456
      3.082813     3.075170     3.067527     3.059884     3.052240     3.044597     3.036954     3.029311     3.021667     3.014024
      3.006381     2.998738     2.991095     2.983451     2.975808     2.968165     2.960522     2.952878     2.945235     2.937592
      2.929949     2.922306     2.914662     2.907019     2.899376     2.891733     2.884089     2.876446     2.868803     2.861160
      2.853517     2.845873     2.838230     2.830587     2.822944     2.815300     2.807657     2.800014     2.792371     2.784728
      2.777084     2.769441     2.761798     2.754155     2.746511     2.738868     2.731225     2.723582     2.715939     2.708295
      2.700652     2.693009     2.685366     2.677722     2.670079     2.662436     2.654793     2.647150     2.639506     2.631863
      2.624220     2.616577     2.608933     2.601290     2.593647     2.586004     2.578361     2.570717     2.563074     2.555431
      2.547788     2.540144     2.532501     2.524858     2.517215     2.509572     2.501928     2.494285     2.486642     2.478999
      2.471355     2.463712     2.456069     2.448426     2.440783     2.433139     2.425496     2.417853     2.410210     2.402566
      2.394923     2.387280     2.379637     2.371994     2.364350     2.356707     2.349064     2.341421     2.333777     2.326134
      2.318491     2.310848     2.303205     2.295561     2.287918     2.280275     2.272632     2.264988     2.257345     2.249702
      2.242059     2.234416     2.226772     2.219129     2.211486     2.203843     2.196199     2.188556     2.180913     2.173270
      2.165627     2.157983     2.150340     2.142697     2.135054     2.127410     2.119767     2.112124     2.104481     2.096838
      2.089194     2.081551     2.073908     2.066265     2.058621     2.050978     2.043335     2.035692     2.028049     2.020405
      2.012762     2.005119     1.997476     1.989833     1.982190     1.974546     1.966903     1.959260     1.951617     1.943974
      1.936331     1.928688     1.921045     1.913402     1.905759     1.898115     1.890472     1.882829     1.875186     1.867543
      1.859900     1.852257     1.844614     1.836971     1.829327     1.821684     1.814041     1.806398     1.798755     1.791112
      1.783469     1.775826     1.768183     1.760540     1.752896     1.745253     1.737610     1.729967     1.722324     1.714681
      1.707038     1.699395     1.691752     1.684108     1.676465     1.668822     1.661179     1.653536     1.645893     1.638250
      1.630607     1.622964     1.615321     1.607677     1.600034     1.592391     1.584748     1.577105     1.569462     1.561819
      1.554176     1.546533     1.538890     1.531246     1.523603     1.515960     1.508317     1.500674     1.493031     1.485388
      1.477745     1.470102     1.462458     1.454815     1.447172     1.439529     1.431886     1.424243     1.416600     1.408957
      1.401314     1.393671     1.386027     1.378384     1.370741     1.363098     1.355455     1.347812     1.340169     1.332526
      1.324883     1.317240     1.309596     1.301953     1.294310     1.286667     1.279024     1.271381     1.263738     1.256095
      1.248452     1.240808     1.233165     1.225522     1.217879     1.210236     1.202593     1.194950     1.187307     1.179664
      1.172021     1.164377     1.156734     1.149091     1.141448     1.133805     1.126162     1.118519     1.110876     1.103233
      1.095590     1.087946     1.080303     1.072660     1.065017     1.057374     1.049731     1.042088     1.034445     1.026802
      1.019158     1.011515     1.003872     0.996229     0.988586     0.980943     0.973300     0.965657     0.958014     0.950371
      0.942727     0.935084     0.927441     0.919798     0.912155     0.904512     0.896869     0.889226     0.881583     0.873940
      0.866296     0.858653     0.851010     0.843367     0.835724     0.828081     0.820438     0.812795     0.805152     0.797508
      0.789865     0.782222     0.774579     0.766936     0.759293     0.751650     0.744007     0.736364     0.728721     0.721077
      0.713434     0.705791     0.698148     0.690505     0.682862     0.675219     0.667576     0.659933     0.652290     0.644646
      0.637003     0.629360     0.621717     0.614074     0.606431     0.598788     0.591145     0.583502     0.575858     0.568215
      0.560572     0.552929     0.545286     0.537643     0.530000     0.522357     0.514714     0.507071     0.499427     0.491784
      0.484141     0.476498     0.468855     0.461212     0.453569     0.445925     0.438282     0.430639     0.422996     0.415353
      0.407710     0.400067     0.392424     0.384780     0.377137     0.369494     0.361851     0.354208     0.346565     0.338922
      0.331278     0.323635     0.315992     0.308349     0.300706     0.293063     0.285420     0.277777     0.270133     0.262490
      0.254847     0.247204     0.239561     0.231918     0.224275     0.216631     0.208988     0.201345
 NY phased data points follow
   6.33198E+00  7.17473E+00  6.93525E+00  6.46996E+00  6.39709E+00  7.41478E+00  7.07099E+00  5.52541E+00  5.97937E+00  6.16695E+00
   6.13303E+00  7.15671E+00  5.23124E+00  6.46706E+00  6.23256E+00  5.83849E+00  5.99127E+00  5.79298E+00  6.35577E+00  6.39728E+00
   7.38855E+00  6.75438E+00  6.78177E+00  6.27520E+00  6.18654E+00  7.35245E+00  8.31384E+00  5.65174E+00  7.43819E+00  7.81295E+00
   6.62276E+00  7.01015E+00  7.03188E+00  6.74458E+00  5.99031E+00  6.96308E+00  8.75692E+00  7.72564E+00  6.65480E+00  6.64841E+00
   6.09263E+00  6.75780E+00  8.77237E+00  8.31420E+00  6.28332E+00  8.22289E+00  7.66031E+00  8.06748E+00  9.27617E+00  8.54701E+00
   9.44820E+00  8.42140E+00  7.48866E+00  9.13183E+00  9.07720E+00  6.78637E+00  7.45883E+00  8.10454E+00  6.87024E+00  8.33469E+00
   8.69452E+00  7.24418E+00  8.56997E+00  8.95469E+00  7.30806E+00  8.60538E+00  8.46326E+00  8.05448E+00  7.33655E+00  8.26765E+00
   8.94796E+00  9.02772E+00  9.90280E+00  9.28760E+00  9.75695E+00  1.03171E+01  1.00712E+01  9.56452E+00  9.72477E+00  1.01999E+01
   1.05446E+01  9.33731E+00  8.50251E+00  1.05067E+01  9.11406E+00  9.81859E+00  1.15339E+01  1.09789E+01  1.03412E+01  8.75487E+00
   9.01608E+00  9.64627E+00  9.29497E+00  1.10359E+01  9.99237E+00  1.08335E+01  1.06015E+01  1.08745E+01  1.24025E+01  1.15204E+01
   1.06493E+01  1.21240E+01  1.19162E+01  1.23386E+01  1.30593E+01  1.11075E+01  1.15365E+01  1.25075E+01  1.01419E+01  9.25191E+00
   9.13949E+00  1.02733E+01  1.04934E+01  9.87961E+00  1.12572E+01  1.09830E+01  9.02922E+00  1.10791E+01  9.58930E+00  1.10626E+01
   1.05087E+01  1.11153E+01  1.16680E+01  1.32982E+01  1.29342E+01  1.50025E+01  1.39631E+01  1.52253E+01  1.53853E+01  1.55442E+01
   1.51641E+01  1.41891E+01  1.35289E+01  1.08385E+01  1.15763E+01  1.04093E+01  1.19383E+01  1.20513E+01  1.01556E+01  9.92712E+00
   1.09140E+01  9.86957E+00  9.95298E+00  9.63646E+00  1.22898E+01  1.13757E+01  1.22511E+01  1.16531E+01  1.11454E+01  1.15295E+01
   1.12371E+01  1.27592E+01  1.27986E+01  1.01658E+01  1.19821E+01  1.16160E+01  1.26967E+01  1.09380E+01  1.13943E+01  1.35052E+01
   1.17990E+01  1.30599E+01  1.24281E+01  1.00777E+01  1.28561E+01  1.10700E+01  1.22872E+01  1.27149E+01  1.20395E+01  1.14499E+01
   1.24622E+01  1.30417E+01  1.00669E+01  1.17909E+01  1.25802E+01  1.19364E+01  1.18009E+01  1.25302E+01  1.25275E+01  1.20032E+01
   1.33061E+01  1.41712E+01  1.36225E+01  1.39559E+01  1.50110E+01  1.35259E+01  1.34305E+01  1.48812E+01  1.55043E+01  1.50336E+01
   1.40894E+01  1.55931E+01  1.48752E+01  1.61161E+01  1.67319E+01  1.59297E+01  1.54806E+01  1.59095E+01  1.52636E+01  1.50810E+01
   1.60900E+01  1.58642E+01  1.69654E+01  1.82478E+01  1.70092E+01  1.79431E+01  1.70790E+01  1.76253E+01  1.70226E+01  1.65171E+01
   1.90444E+01  1.92741E+01  1.81691E+01  1.88709E+01  2.02065E+01  1.92895E+01  1.98862E+01  1.97134E+01  2.02608E+01  1.99458E+01
   1.96656E+01  2.01678E+01  1.69638E+01  1.90343E+01  1.82991E+01  1.94453E+01  2.09725E+01  2.03801E+01  2.02363E+01  2.11694E+01
   1.92806E+01  2.13196E+01  2.03670E+01  1.99310E+01  2.17059E+01  2.04466E+01  2.04010E+01  2.08559E+01  2.08054E+01  2.10176E+01
   2.00565E+01  1.91589E+01  2.08127E+01  1.97145E+01  1.97328E+01  1.94841E+01  1.91789E+01  1.98047E+01  2.20340E+01  2.17291E+01
   2.14476E+01  2.11079E+01  2.28911E+01  2.47081E+01  2.49343E+01  2.67176E+01  2.65306E+01  2.90480E+01  3.23791E+01  3.30710E+01
   3.54157E+01  3.73412E+01  3.68887E+01  3.80644E+01  3.65632E+01  3.26209E+01  3.02576E+01  2.70411E+01  2.56019E+01  2.55765E+01
   2.61739E+01  2.54402E+01  2.53239E+01  2.55934E+01  2.45142E+01  2.47216E+01  2.61508E+01  2.55874E+01  2.65860E+01  2.49904E+01
   2.45866E+01  2.53400E+01  2.60849E+01  2.71710E+01  2.63358E+01  2.53509E+01  2.58119E+01  2.61847E+01  2.48323E+01  2.69556E+01
   2.51103E+01  2.64186E+01  2.70726E+01  2.65598E+01  2.80196E+01  2.84188E+01  2.83153E+01  2.95531E+01  2.97261E+01  2.92940E+01
   3.03732E+01  2.93848E+01  3.19622E+01  3.11764E+01  3.28033E+01  3.36771E+01  3.23257E+01  3.39250E+01  3.41242E+01  3.47205E+01
   3.58037E+01  3.55391E+01  3.45701E+01  3.68867E+01  3.88841E+01  3.87486E+01  3.90631E+01  3.90257E+01  3.88186E+01  3.80683E+01
   3.89828E+01  3.86334E+01  3.97057E+01  4.12043E+01  4.09929E+01  4.02609E+01  4.16120E+01  4.13330E+01  4.11283E+01  4.21339E+01
   4.16620E+01  4.07140E+01  4.29699E+01  4.15538E+01  4.32909E+01  4.28187E+01  4.41239E+01  4.41544E+01  4.34458E+01  4.42317E+01
   4.60434E+01  4.26220E+01  4.34527E+01  4.37805E+01  4.26908E+01  4.38511E+01  4.30704E+01  4.32905E+01  4.28132E+01  4.02941E+01
   4.38868E+01  4.19652E+01  4.23093E+01  4.05361E+01  4.02964E+01  4.04897E+01  4.01750E+01  4.13302E+01  4.06797E+01  4.02376E+01
   3.98514E+01  4.02285E+01  4.03408E+01  3.97500E+01  3.90154E+01  3.82531E+01  3.76186E+01  3.81245E+01  4.09531E+01  3.76635E+01
   3.91212E+01  3.84179E+01  3.49065E+01  3.74905E+01  3.48765E+01  3.43834E+01  3.42050E+01  3.20647E+01  3.34087E+01  3.07690E+01
   3.32091E+01  3.11144E+01  3.16832E+01  3.15934E+01  2.94649E+01  3.02133E+01  2.90339E+01  2.87522E+01  2.69511E+01  2.83370E+01
   2.82710E+01  2.52712E+01  2.78831E+01  2.65335E+01  2.58974E+01  2.64506E+01  2.48458E+01  2.68333E+01  2.50577E+01  2.44867E+01
   2.53249E+01  2.39681E+01  2.29964E+01  2.33804E+01  2.31385E+01  2.26027E+01  2.14581E+01  2.13860E+01  2.27927E+01  2.28841E+01
   2.10332E+01  2.08759E+01  2.10146E+01  2.13337E+01  2.13008E+01  2.09266E+01  2.05175E+01  1.94209E+01  1.91919E+01  1.86259E+01
   1.89612E+01  2.09303E+01  1.91978E+01  1.84467E+01  1.88404E+01  1.95912E+01  1.86840E+01  1.64934E+01  1.74276E+01  1.64870E+01
   1.73456E+01  1.81458E+01  1.80073E+01  1.83717E+01  1.78694E+01  1.74849E+01  1.64195E+01  1.60090E+01  1.62263E+01  1.55065E+01
   1.45936E+01  1.68924E+01  1.58312E+01  1.60191E+01  1.38326E+01  1.50023E+01  1.51619E+01  1.45573E+01  1.33886E+01  1.29548E+01
   1.63440E+01  1.43372E+01  1.18011E+01  1.33433E+01  1.16720E+01  1.36503E+01  1.33627E+01  1.32683E+01  1.40027E+01  1.25466E+01
   1.23923E+01  1.33297E+01  1.14383E+01  1.32437E+01  1.27820E+01  1.42045E+01  1.14999E+01  1.23930E+01  1.17522E+01  1.15073E+01
   1.13061E+01  1.09093E+01  1.21080E+01  1.26175E+01  1.18097E+01  1.09284E+01  1.05563E+01  1.18847E+01  1.16929E+01  1.24083E+01
   1.10435E+01  1.08275E+01  9.87531E+00  1.17616E+01  1.06175E+01  1.13786E+01  1.06231E+01  1.09746E+01  1.10394E+01  1.02890E+01
   1.01922E+01  1.14301E+01  1.03815E+01  9.72165E+00  8.98621E+00  1.01430E+01  9.97154E+00  8.34430E+00
 NY points of the fit to the data follow
   6.15845E+00  6.09458E+00  6.06560E+00  6.07823E+00  6.14350E+00  6.27229E+00  6.42747E+00  6.56538E+00  6.68020E+00  6.75430E+00
   6.76179E+00  6.68659E+00  6.53490E+00  6.35080E+00  6.19383E+00  6.11761E+00  6.14017E+00  6.20821E+00  6.25253E+00  6.25085E+00
   6.26856E+00  6.34872E+00  6.44641E+00  6.55155E+00  6.64840E+00  6.71576E+00  6.74115E+00  6.73094E+00  6.71775E+00  6.75353E+00
   6.87860E+00  7.10494E+00  7.39753E+00  7.68422E+00  7.87761E+00  7.90780E+00  7.77055E+00  7.53682E+00  7.30077E+00  7.15593E+00
   7.13675E+00  7.22875E+00  7.39040E+00  7.58041E+00  7.79378E+00  8.03680E+00  8.30890E+00  8.58088E+00  8.80423E+00  8.93342E+00
   8.94173E+00  8.81753E+00  8.56321E+00  8.23175E+00  7.92793E+00  7.75722E+00  7.76496E+00  7.90636E+00  8.08147E+00  8.22514E+00
   8.34961E+00  8.47280E+00  8.57374E+00  8.62903E+00  8.63578E+00  8.60205E+00  8.55455E+00  8.53706E+00  8.58456E+00  8.69767E+00
   8.83920E+00  8.97795E+00  9.10554E+00  9.21641E+00  9.31204E+00  9.38758E+00  9.43537E+00  9.46313E+00  9.47335E+00  9.45743E+00
   9.42414E+00  9.41261E+00  9.46058E+00  9.57087E+00  9.71685E+00  9.85070E+00  9.92311E+00  9.92078E+00  9.85129E+00  9.71294E+00
   9.52322E+00  9.32791E+00  9.19496E+00  9.21439E+00  9.41425E+00  9.70223E+00  9.96931E+00  1.02118E+01  1.05280E+01  1.09478E+01
   1.13962E+01  1.18062E+01  1.21330E+01  1.23395E+01  1.23938E+01  1.22491E+01  1.18854E+01  1.13662E+01  1.08230E+01  1.04134E+01
   1.02218E+01  1.01874E+01  1.01544E+01  1.00487E+01  9.95768E+00  9.93474E+00  9.94989E+00  1.00423E+01  1.02607E+01  1.05670E+01
   1.09098E+01  1.12982E+01  1.17979E+01  1.24438E+01  1.31721E+01  1.38992E+01  1.45583E+01  1.50644E+01  1.53181E+01  1.52169E+01
   1.47001E+01  1.38474E+01  1.28768E+01  1.20665E+01  1.16126E+01  1.14757E+01  1.14327E+01  1.13027E+01  1.11500E+01  1.11131E+01
   1.11410E+01  1.12004E+01  1.12752E+01  1.13483E+01  1.14083E+01  1.14567E+01  1.15017E+01  1.15472E+01  1.15951E+01  1.16436E+01
   1.16881E+01  1.17291E+01  1.17681E+01  1.18069E+01  1.18494E+01  1.18958E+01  1.19450E+01  1.19908E+01  1.20262E+01  1.20524E+01
   1.20768E+01  1.21100E+01  1.21588E+01  1.22255E+01  1.23162E+01  1.24336E+01  1.25632E+01  1.26739E+01  1.27321E+01  1.27302E+01
   1.26959E+01  1.26687E+01  1.26714E+01  1.26967E+01  1.27334E+01  1.27803E+01  1.28341E+01  1.29038E+01  1.29932E+01  1.31028E+01
   1.32458E+01  1.34155E+01  1.35862E+01  1.37346E+01  1.38619E+01  1.40030E+01  1.41907E+01  1.44239E+01  1.46685E+01  1.48888E+01
   1.50971E+01  1.53164E+01  1.55444E+01  1.57485E+01  1.58954E+01  1.60000E+01  1.61134E+01  1.62799E+01  1.65010E+01  1.67423E+01
   1.69687E+01  1.71690E+01  1.73407E+01  1.74812E+01  1.75672E+01  1.75639E+01  1.74649E+01  1.73077E+01  1.71280E+01  1.69694E+01
   1.68889E+01  1.69529E+01  1.72064E+01  1.76213E+01  1.80981E+01  1.85330E+01  1.88600E+01  1.90242E+01  1.90021E+01  1.88267E+01
   1.85734E+01  1.83121E+01  1.81169E+01  1.81084E+01  1.83284E+01  1.87115E+01  1.91587E+01  1.95972E+01  1.99846E+01  2.02557E+01
   2.03794E+01  2.04007E+01  2.04040E+01  2.04406E+01  2.04978E+01  2.05656E+01  2.06656E+01  2.08022E+01  2.09443E+01  2.10692E+01
   2.11633E+01  2.12142E+01  2.12092E+01  2.11490E+01  2.10741E+01  2.10532E+01  2.11297E+01  2.12900E+01  2.14965E+01  2.17249E+01
   2.19784E+01  2.23820E+01  2.31343E+01  2.41811E+01  2.53179E+01  2.65120E+01  2.79454E+01  2.97543E+01  3.17730E+01  3.37513E+01
   3.55277E+01  3.68928E+01  3.75690E+01  3.72502E+01  3.57104E+01  3.31271E+01  3.01206E+01  2.75251E+01  2.60074E+01  2.55540E+01
   2.55121E+01  2.52428E+01  2.48051E+01  2.46702E+01  2.47098E+01  2.47897E+01  2.48877E+01  2.49873E+01  2.50765E+01  2.51568E+01
   2.52328E+01  2.53125E+01  2.54029E+01  2.55052E+01  2.56169E+01  2.57382E+01  2.58708E+01  2.60148E+01  2.61699E+01  2.63382E+01
   2.65232E+01  2.67288E+01  2.69582E+01  2.72139E+01  2.74996E+01  2.78182E+01  2.81716E+01  2.85616E+01  2.89889E+01  2.94532E+01
   2.99524E+01  3.04831E+01  3.10403E+01  3.16178E+01  3.22079E+01  3.28023E+01  3.33919E+01  3.39678E+01  3.45216E+01  3.50462E+01
   3.55365E+01  3.59896E+01  3.64050E+01  3.67848E+01  3.71344E+01  3.74620E+01  3.77801E+01  3.81070E+01  3.84596E+01  3.88277E+01
   3.91896E+01  3.95491E+01  3.99254E+01  4.03202E+01  4.06953E+01  4.10086E+01  4.12616E+01  4.14658E+01  4.16017E+01  4.16469E+01
   4.16178E+01  4.16010E+01  4.17084E+01  4.20026E+01  4.24823E+01  4.30660E+01  4.36198E+01  4.40395E+01  4.42931E+01  4.43843E+01
   4.42783E+01  4.39871E+01  4.36203E+01  4.32980E+01  4.30660E+01  4.28770E+01  4.26649E+01  4.24486E+01  4.22683E+01  4.21137E+01
   4.19774E+01  4.18569E+01  4.17513E+01  4.16580E+01  4.15722E+01  4.14864E+01  4.13901E+01  4.12738E+01  4.11310E+01  4.09584E+01
   4.07525E+01  4.05115E+01  4.02375E+01  3.99335E+01  3.96002E+01  3.92361E+01  3.88406E+01  3.84168E+01  3.79681E+01  3.74969E+01
   3.70061E+01  3.64989E+01  3.59788E+01  3.54492E+01  3.49134E+01  3.43745E+01  3.38358E+01  3.33000E+01  3.27700E+01  3.22480E+01
   3.17361E+01  3.12362E+01  3.07498E+01  3.02783E+01  2.98226E+01  2.93834E+01  2.89611E+01  2.85559E+01  2.81677E+01  2.77963E+01
   2.74409E+01  2.71008E+01  2.67748E+01  2.64617E+01  2.61601E+01  2.58685E+01  2.55851E+01  2.53083E+01  2.50365E+01  2.47680E+01
   2.45015E+01  2.42358E+01  2.39699E+01  2.37029E+01  2.34346E+01  2.31647E+01  2.28934E+01  2.26211E+01  2.23483E+01  2.20757E+01
   2.18043E+01  2.15350E+01  2.12686E+01  2.10060E+01  2.07479E+01  2.04951E+01  2.02480E+01  2.00070E+01  1.97724E+01  1.95443E+01
   1.93225E+01  1.91070E+01  1.88976E+01  1.86941E+01  1.84961E+01  1.83032E+01  1.81152E+01  1.79317E+01  1.77523E+01  1.75768E+01
   1.74049E+01  1.72362E+01  1.70705E+01  1.69077E+01  1.67475E+01  1.65898E+01  1.64344E+01  1.62812E+01  1.61300E+01  1.59809E+01
   1.58336E+01  1.56882E+01  1.55445E+01  1.54025E+01  1.52622E+01  1.51235E+01  1.49864E+01  1.48508E+01  1.47168E+01  1.45842E+01
   1.44531E+01  1.43235E+01  1.41954E+01  1.40687E+01  1.39433E+01  1.38193E+01  1.36967E+01  1.35752E+01  1.34550E+01  1.33359E+01
   1.32179E+01  1.31011E+01  1.29853E+01  1.28705E+01  1.27566E+01  1.26437E+01  1.25317E+01  1.24206E+01  1.23104E+01  1.22009E+01
   1.20922E+01  1.19843E+01  1.18771E+01  1.17706E+01  1.16648E+01  1.15596E+01  1.14550E+01  1.13511E+01  1.12476E+01  1.11448E+01
   1.10424E+01  1.09405E+01  1.08391E+01  1.07381E+01  1.06376E+01  1.05374E+01  1.04377E+01  1.03382E+01  1.02391E+01  1.01404E+01
   1.00419E+01  9.94370E+00  9.84574E+00  9.74801E+00  9.65051E+00  9.55322E+00  9.45613E+00  9.35921E+00
 NY background values follow
     5.570E+00    5.600E+00    5.629E+00    5.659E+00    5.689E+00    5.719E+00    5.749E+00    5.779E+00    5.809E+00    5.840E+00
     5.870E+00    5.900E+00    5.931E+00    5.962E+00    5.993E+00    6.024E+00    6.055E+00    6.086E+00    6.118E+00    6.149E+00
     6.181E+00    6.213E+00    6.246E+00    6.278E+00    6.311E+00    6.344E+00    6.378E+00    6.411E+00    6.445E+00    6.480E+00
     6.514E+00    6.549E+00    6.585E+00    6.620E+00    6.656E+00    6.692E+00    6.729E+00    6.766E+00    6.804E+00    6.842E+00
     6.880E+00    6.919E+00    6.958E+00    6.998E+00    7.038E+00    7.079E+00    7.120E+00    7.162E+00    7.204E+00    7.247E+00
     7.290E+00    7.333E+00    7.377E+00    7.421E+00    7.465E+00    7.510E+00    7.555E+00    7.600E+00    7.646E+00    7.691E+00
     7.737E+00    7.783E+00    7.829E+00    7.875E+00    7.922E+00    7.968E+00    8.015E+00    8.061E+00    8.108E+00    8.154E+00
     8.200E+00    8.247E+00    8.293E+00    8.339E+00    8.385E+00    8.431E+00    8.476E+00    8.522E+00    8.567E+00    8.612E+00
     8.656E+00    8.701E+00    8.745E+00    8.788E+00    8.832E+00    8.874E+00    8.917E+00    8.959E+00    9.000E+00    9.041E+00
     9.082E+00    9.122E+00    9.161E+00    9.200E+00    9.239E+00    9.277E+00    9.315E+00    9.352E+00    9.389E+00    9.426E+00
     9.463E+00    9.499E+00    9.535E+00    9.571E+00    9.607E+00    9.643E+00    9.679E+00    9.715E+00    9.750E+00    9.786E+00
     9.822E+00    9.859E+00    9.895E+00    9.932E+00    9.968E+00    1.001E+01    1.004E+01    1.008E+01    1.012E+01    1.016E+01
     1.020E+01    1.024E+01    1.028E+01    1.032E+01    1.036E+01    1.040E+01    1.044E+01    1.049E+01    1.053E+01    1.057E+01
     1.062E+01    1.067E+01    1.071E+01    1.076E+01    1.081E+01    1.086E+01    1.091E+01    1.097E+01    1.102E+01    1.107E+01
     1.113E+01    1.119E+01    1.124E+01    1.130E+01    1.136E+01    1.142E+01    1.148E+01    1.155E+01    1.161E+01    1.168E+01
     1.174E+01    1.181E+01    1.188E+01    1.195E+01    1.202E+01    1.209E+01    1.216E+01    1.223E+01    1.231E+01    1.238E+01
     1.246E+01    1.254E+01    1.261E+01    1.269E+01    1.277E+01    1.286E+01    1.294E+01    1.302E+01    1.311E+01    1.319E+01
     1.328E+01    1.337E+01    1.346E+01    1.355E+01    1.364E+01    1.373E+01    1.382E+01    1.392E+01    1.401E+01    1.411E+01
     1.420E+01    1.430E+01    1.440E+01    1.450E+01    1.460E+01    1.471E+01    1.481E+01    1.491E+01    1.502E+01    1.512E+01
     1.523E+01    1.533E+01    1.544E+01    1.555E+01    1.566E+01    1.577E+01    1.588E+01    1.599E+01    1.610E+01    1.621E+01
     1.632E+01    1.643E+01    1.654E+01    1.665E+01    1.676E+01    1.687E+01    1.698E+01    1.710E+01    1.721E+01    1.732E+01
     1.743E+01    1.754E+01    1.765E+01    1.776E+01    1.787E+01    1.798E+01    1.809E+01    1.820E+01    1.831E+01    1.842E+01
     1.852E+01    1.863E+01    1.874E+01    1.884E+01    1.895E+01    1.905E+01    1.915E+01    1.926E+01    1.936E+01    1.946E+01
     1.956E+01    1.966E+01    1.976E+01    1.985E+01    1.995E+01    2.004E+01    2.014E+01    2.023E+01    2.033E+01    2.042E+01
     2.051E+01    2.060E+01    2.069E+01    2.078E+01    2.086E+01    2.095E+01    2.104E+01    2.112E+01    2.121E+01    2.129E+01
     2.137E+01    2.145E+01    2.153E+01    2.161E+01    2.169E+01    2.177E+01    2.185E+01    2.192E+01    2.200E+01    2.207E+01
     2.214E+01    2.221E+01    2.229E+01    2.236E+01    2.243E+01    2.249E+01    2.256E+01    2.263E+01    2.269E+01    2.276E+01
     2.282E+01    2.288E+01    2.295E+01    2.301E+01    2.307E+01    2.313E+01    2.318E+01    2.324E+01    2.330E+01    2.335E+01
     2.340E+01    2.346E+01    2.351E+01    2.356E+01    2.361E+01    2.365E+01    2.370E+01    2.374E+01    2.379E+01    2.383E+01
     2.387E+01    2.391E+01    2.395E+01    2.399E+01    2.403E+01    2.406E+01    2.409E+01    2.413E+01    2.416E+01    2.419E+01
     2.421E+01    2.424E+01    2.426E+01    2.429E+01    2.431E+01    2.433E+01    2.435E+01    2.436E+01    2.438E+01    2.439E+01
     2.440E+01    2.442E+01    2.442E+01    2.443E+01    2.444E+01    2.444E+01    2.444E+01    2.444E+01    2.444E+01    2.444E+01
     2.443E+01    2.442E+01    2.442E+01    2.440E+01    2.439E+01    2.438E+01    2.436E+01    2.435E+01    2.433E+01    2.431E+01
     2.429E+01    2.426E+01    2.424E+01    2.421E+01    2.418E+01    2.415E+01    2.412E+01    2.409E+01    2.405E+01    2.402E+01
     2.398E+01    2.394E+01    2.390E+01    2.386E+01    2.381E+01    2.377E+01    2.372E+01    2.367E+01    2.362E+01    2.357E+01
     2.352E+01    2.347E+01    2.341E+01    2.335E+01    2.330E+01    2.324E+01    2.318E+01    2.311E+01    2.305E+01    2.299E+01
     2.292E+01    2.285E+01    2.279E+01    2.272E+01    2.264E+01    2.257E+01    2.250E+01    2.242E+01    2.235E+01    2.227E+01
     2.219E+01    2.212E+01    2.204E+01    2.195E+01    2.187E+01    2.179E+01    2.170E+01    2.162E+01    2.153E+01    2.144E+01
     2.136E+01    2.127E+01    2.118E+01    2.108E+01    2.099E+01    2.090E+01    2.080E+01    2.071E+01    2.061E+01    2.052E+01
     2.042E+01    2.032E+01    2.022E+01    2.012E+01    2.002E+01    1.992E+01    1.982E+01    1.971E+01    1.961E+01    1.951E+01
     1.940E+01    1.930E+01    1.919E+01    1.908E+01    1.898E+01    1.887E+01    1.876E+01    1.865E+01    1.854E+01    1.843E+01
     1.832E+01    1.821E+01    1.810E+01    1.798E+01    1.787E+01    1.776E+01    1.765E+01    1.753E+01    1.742E+01    1.731E+01
     1.719E+01    1.708E+01    1.696E+01    1.685E+01    1.674E+01    1.662E+01    1.651E+01    1.639E+01    1.628E+01    1.616E+01
     1.605E+01    1.593E+01    1.582E+01    1.571E+01    1.559E+01    1.548E+01    1.536E+01    1.525E+01    1.514E+01    1.502E+01
     1.491E+01    1.480E+01    1.469E+01    1.458E+01    1.447E+01    1.436E+01    1.425E+01    1.414E+01    1.403E+01    1.392E+01
     1.381E+01    1.371E+01    1.360E+01    1.350E+01    1.339E+01    1.329E+01    1.318E+01    1.308E+01    1.298E+01    1.288E+01
     1.278E+01    1.268E+01    1.258E+01    1.248E+01    1.238E+01    1.228E+01    1.218E+01    1.208E+01    1.199E+01    1.189E+01
     1.179E+01    1.170E+01    1.160E+01    1.151E+01    1.141E+01    1.132E+01    1.122E+01    1.113E+01    1.104E+01    1.094E+01
     1.085E+01    1.076E+01    1.066E+01    1.057E+01    1.048E+01    1.039E+01    1.029E+01    1.020E+01    1.011E+01    1.002E+01
     9.927E+00    9.836E+00    9.744E+00    9.653E+00    9.561E+00    9.470E+00    9.379E+00    9.287E+00
 Ala      Conc. = 1.36E+02
