 LCModel (Version 6.3-1L) Copyright: S.W. Provencher.          Ref.: Magn. Reson. Med. 30:672-679 (1993).                
 Slice#1 Row#8 Col#7  PD_05_press_1_raw_act
 36 lines in following concentration table = NCONC+1
    Conc.  %SD /Cr+PCr  Metabolite                                         
    0.000 999%   0.000 Ala                                                 
   75.543 168%   0.125 Asp                                                 
    0.000 999%   0.000 Cr                                                  
  604.008   7%   1.000 PCr                                                 
   41.764 193% 6.9E-02 GABA                                                
   66.665 119%   0.110 Glc                                                 
  774.640  24%   1.282 Gln                                                 
  884.544  24%   1.464 Glu                                                 
  285.382   6%   0.472 GPC                                                 
    0.000 999%   0.000 PCh                                                 
  184.402  32%   0.305 GSH                                                 
  628.196  31%   1.040 Ins                                                 
    0.000 999%   0.000 Lac                                                 
 1.28E+03   4%   2.118 NAA                                                 
    0.000 999%   0.000 NAAG                                                
   73.413  26%   0.122 Scyllo                                              
  298.365  40%   0.494 Tau                                                 
  215.748  35%   0.357 -CrCH2                                              
  285.382   6%   0.472 GPC+PCh                                             
 1.28E+03   4%   2.118 NAA+NAAG                                            
  604.008   7%   1.000 Cr+PCr                                              
 1.66E+03  18%   2.747 Glu+Gln                                             
  178.738 184%   0.296 Lip13a                                              
  546.786  24%   0.905 Lip13b                                              
    0.000 999%   0.000 Lip09                                               
  708.336  18%   1.173 MM09                                                
  181.530  58%   0.301 Lip20                                               
 1.69E+03  15%   2.794 MM20                                                
  220.196  39%   0.365 MM12                                                
  387.629  53%   0.642 MM14                                                
  384.123  36%   0.636 MM17                                                
  725.524  34%   1.201 Lip13a+Lip13b                                       
 1.33E+03  18%   2.208 MM14+Lip13a+Lip13b+MM12                             
  708.336  18%   1.173 MM09+Lip09                                          
 1.87E+03  14%   3.095 MM20+Lip20                                          
   6 lines in following misc. output table
  FWHM = 0.054 ppm    S/N =   8                                            
  Data shift = 0.000 ppm                                                   
  Ph: -87 deg     -21.5 deg/ppm                                            
  alphaB,S = 1.9E+00,   1.1E+02                                            
   14 spline knots.   Ns = 6(1)                                            
  ( 8) 4 infls.   ( 6) 1 extrs.                                            
  498 points on ppm-axis = NY
      4.000000     3.992357     3.984714     3.977070     3.969427     3.961784     3.954141     3.946497     3.938854     3.931211
      3.923568     3.915925     3.908281     3.900638     3.892995     3.885352     3.877708     3.870065     3.862422     3.854779
      3.847136     3.839492     3.831849     3.824206     3.816563     3.808919     3.801276     3.793633     3.785990     3.778347
      3.770703     3.763060     3.755417     3.747774     3.740130     3.732487     3.724844     3.717201     3.709558     3.701914
      3.694271     3.686628     3.678985     3.671341     3.663698     3.656055     3.648412     3.640769     3.633125     3.625482
      3.617839     3.610196     3.602552     3.594909     3.587266     3.579623     3.571980     3.564336     3.556693     3.549050
      3.541407     3.533763     3.526120     3.518477     3.510834     3.503191     3.495547     3.487904     3.480261     3.472618
      3.464974     3.457331     3.449688     3.442045     3.434402     3.426758     3.419115     3.411472     3.403829     3.396185
      3.388542     3.380899     3.373256     3.365613     3.357969     3.350326     3.342683     3.335040     3.327396     3.319753
      3.312110     3.304467     3.296824     3.289180     3.281537     3.273894     3.266251     3.258607     3.250964     3.243321
      3.235678     3.228034     3.220391     3.212748     3.205105     3.197462     3.189818     3.182175     3.174532     3.166889
      3.159245     3.151602     3.143959     3.136316     3.128673     3.121029     3.113386     3.105743     3.098100     3.090456
      3.082813     3.075170     3.067527     3.059884     3.052240     3.044597     3.036954     3.029311     3.021667     3.014024
      3.006381     2.998738     2.991095     2.983451     2.975808     2.968165     2.960522     2.952878     2.945235     2.937592
      2.929949     2.922306     2.914662     2.907019     2.899376     2.891733     2.884089     2.876446     2.868803     2.861160
      2.853517     2.845873     2.838230     2.830587     2.822944     2.815300     2.807657     2.800014     2.792371     2.784728
      2.777084     2.769441     2.761798     2.754155     2.746511     2.738868     2.731225     2.723582     2.715939     2.708295
      2.700652     2.693009     2.685366     2.677722     2.670079     2.662436     2.654793     2.647150     2.639506     2.631863
      2.624220     2.616577     2.608933     2.601290     2.593647     2.586004     2.578361     2.570717     2.563074     2.555431
      2.547788     2.540144     2.532501     2.524858     2.517215     2.509572     2.501928     2.494285     2.486642     2.478999
      2.471355     2.463712     2.456069     2.448426     2.440783     2.433139     2.425496     2.417853     2.410210     2.402566
      2.394923     2.387280     2.379637     2.371994     2.364350     2.356707     2.349064     2.341421     2.333777     2.326134
      2.318491     2.310848     2.303205     2.295561     2.287918     2.280275     2.272632     2.264988     2.257345     2.249702
      2.242059     2.234416     2.226772     2.219129     2.211486     2.203843     2.196199     2.188556     2.180913     2.173270
      2.165627     2.157983     2.150340     2.142697     2.135054     2.127410     2.119767     2.112124     2.104481     2.096838
      2.089194     2.081551     2.073908     2.066265     2.058621     2.050978     2.043335     2.035692     2.028049     2.020405
      2.012762     2.005119     1.997476     1.989833     1.982190     1.974546     1.966903     1.959260     1.951617     1.943974
      1.936331     1.928688     1.921045     1.913402     1.905759     1.898115     1.890472     1.882829     1.875186     1.867543
      1.859900     1.852257     1.844614     1.836971     1.829327     1.821684     1.814041     1.806398     1.798755     1.791112
      1.783469     1.775826     1.768183     1.760540     1.752896     1.745253     1.737610     1.729967     1.722324     1.714681
      1.707038     1.699395     1.691752     1.684108     1.676465     1.668822     1.661179     1.653536     1.645893     1.638250
      1.630607     1.622964     1.615321     1.607677     1.600034     1.592391     1.584748     1.577105     1.569462     1.561819
      1.554176     1.546533     1.538890     1.531246     1.523603     1.515960     1.508317     1.500674     1.493031     1.485388
      1.477745     1.470102     1.462458     1.454815     1.447172     1.439529     1.431886     1.424243     1.416600     1.408957
      1.401314     1.393671     1.386027     1.378384     1.370741     1.363098     1.355455     1.347812     1.340169     1.332526
      1.324883     1.317240     1.309596     1.301953     1.294310     1.286667     1.279024     1.271381     1.263738     1.256095
      1.248452     1.240808     1.233165     1.225522     1.217879     1.210236     1.202593     1.194950     1.187307     1.179664
      1.172021     1.164377     1.156734     1.149091     1.141448     1.133805     1.126162     1.118519     1.110876     1.103233
      1.095590     1.087946     1.080303     1.072660     1.065017     1.057374     1.049731     1.042088     1.034445     1.026802
      1.019158     1.011515     1.003872     0.996229     0.988586     0.980943     0.973300     0.965657     0.958014     0.950371
      0.942727     0.935084     0.927441     0.919798     0.912155     0.904512     0.896869     0.889226     0.881583     0.873940
      0.866296     0.858653     0.851010     0.843367     0.835724     0.828081     0.820438     0.812795     0.805152     0.797508
      0.789865     0.782222     0.774579     0.766936     0.759293     0.751650     0.744007     0.736364     0.728721     0.721077
      0.713434     0.705791     0.698148     0.690505     0.682862     0.675219     0.667576     0.659933     0.652290     0.644646
      0.637003     0.629360     0.621717     0.614074     0.606431     0.598788     0.591145     0.583502     0.575858     0.568215
      0.560572     0.552929     0.545286     0.537643     0.530000     0.522357     0.514714     0.507071     0.499427     0.491784
      0.484141     0.476498     0.468855     0.461212     0.453569     0.445925     0.438282     0.430639     0.422996     0.415353
      0.407710     0.400067     0.392424     0.384780     0.377137     0.369494     0.361851     0.354208     0.346565     0.338922
      0.331278     0.323635     0.315992     0.308349     0.300706     0.293063     0.285420     0.277777     0.270133     0.262490
      0.254847     0.247204     0.239561     0.231918     0.224275     0.216631     0.208988     0.201345
 NY phased data points follow
  -2.15304E+01 -1.61238E+01 -2.23080E+01 -1.92036E+01 -1.48920E+01 -1.41978E+01 -1.26455E+01 -4.72731E+00 -4.66685E+00 -3.84488E+00
  -1.53219E+00 -7.31035E+00 -4.04746E+00 -6.66073E+00 -1.32534E+01 -5.79024E+00 -1.87484E+01 -1.26909E+01 -1.51355E+01 -1.58831E+01
  -9.81510E+00 -1.14666E+01 -1.38305E+01 -1.26573E+01 -1.55060E+01 -1.20060E+01 -1.31065E+01 -1.47649E+01 -5.34161E+00 -9.67052E+00
  -5.91850E+00 -8.26463E+00 -5.91937E+00 -3.02778E+00 -9.96378E+00 -7.45322E+00 -1.23036E+01 -1.06430E+01 -1.00742E+01 -1.00689E+01
  -7.53192E+00 -6.52123E+00 -3.63662E+00 -1.87906E+00 -7.40194E+00 -4.74153E+00 -5.84205E+00 -2.65903E+00 -4.92005E+00 -5.84049E+00
  -2.24321E+00 -4.82227E+00 -8.35611E+00 -5.39424E+00 -1.00987E+01 -5.56361E+00 -9.09683E+00 -4.59568E+00 -6.98082E+00 -1.01981E+01
  -5.50056E+00 -9.45593E+00 -9.89045E+00 -6.87135E+00 -7.23204E+00 -7.31862E+00 -1.00448E+01 -8.11747E+00 -1.07554E+01 -1.16467E+01
  -9.89564E+00 -9.25899E+00 -9.28907E+00 -6.46490E+00 -6.63682E-02 -9.97251E+00 -7.44361E+00 -7.84024E+00 -6.19325E+00 -6.07638E+00
  -9.86635E+00 -1.07811E+01 -7.77593E+00 -8.54388E+00 -8.12469E+00 -3.02049E+00 -2.90747E+00 -5.84609E+00 -7.48332E+00 -3.12786E+00
  -4.50042E+00 -1.77641E+00 -1.39526E+00 -2.74969E+00 -4.51077E+00 -1.91242E+00 -9.11105E+00 -3.69155E+00 -1.54295E+00  8.45818E+00
   1.14995E+01  1.50807E+01  2.28174E+01  1.96726E+01  1.96661E+01  8.36505E+00  5.17984E+00  9.78772E+00  2.33944E+00  5.10328E-01
  -7.83752E-01 -4.35107E+00 -8.57904E+00 -1.63958E+00 -4.58546E+00 -8.72018E+00 -2.90805E+00 -3.49482E+00 -2.86664E+00 -3.61651E+00
  -8.39028E+00 -2.98303E+00 -8.10255E-01 -7.86481E-01  7.72876E+00  7.77693E+00  1.24241E+01  1.64731E+01  1.73577E+01  1.14472E+01
   1.02387E+01  3.76420E+00  8.76699E+00 -3.84494E-01  3.15784E+00 -5.51215E+00 -4.61352E+00 -3.09659E+00 -7.48627E+00 -3.50622E+00
  -6.24990E+00 -6.43086E+00 -8.60496E+00 -8.00424E+00 -1.93446E+00 -3.62094E+00 -4.36910E+00 -4.25245E+00 -6.63613E+00 -5.86595E+00
  -1.05452E+00 -5.88984E+00 -8.28580E+00 -1.68862E+00 -4.51367E+00 -7.14985E+00 -2.71436E+00 -8.39741E-01 -3.23293E+00 -8.15672E+00
  -1.88811E+00 -6.49565E+00 -7.94832E+00 -1.73259E+00 -7.30934E+00 -4.34063E+00 -3.69712E+00 -5.89958E+00 -1.92214E+00 -3.24160E+00
  -7.51243E+00 -6.23444E+00 -8.67337E+00 -8.01338E+00 -9.92494E+00 -9.55848E+00 -8.82573E+00 -1.00983E+01 -1.15316E+01 -1.00992E+01
  -8.33271E+00 -7.61846E+00 -7.54872E+00 -8.98368E+00 -6.70238E+00 -7.37629E+00 -2.75331E+00 -4.68690E+00 -1.31601E+00 -2.76497E+00
  -3.89196E+00 -3.04206E+00 -4.57352E+00 -3.57062E-01  1.47084E+00 -5.43843E+00 -2.69744E+00 -5.62732E+00 -4.16230E+00 -4.49217E+00
  -1.65239E+00 -4.18502E+00 -1.05654E+00  4.03113E+00 -7.04897E-01 -6.31397E-01 -3.03389E+00  1.87064E-01 -2.50530E+00 -4.11460E+00
  -7.72673E+00 -7.46613E+00 -2.78008E+00  9.78487E-01  2.37060E+00  8.95983E+00  6.61633E+00  8.59411E+00  7.66182E+00  4.19765E+00
  -1.10054E+00  1.17047E-01 -2.76158E+00  1.10586E+00  1.28909E+00  1.03310E+00  3.88648E+00  4.44608E+00  6.03826E+00  6.28874E+00
   9.38373E+00  2.73242E+00  2.34223E+00  1.46880E+00  6.28704E+00  3.77549E+00  7.28160E+00  3.24292E+00  6.50972E+00  3.29346E+00
   4.62290E+00  7.19239E+00  4.05998E+00  1.98340E+00  2.15788E+00  5.56928E+00  6.73716E+00  3.79068E+00  5.09964E+00  1.03690E+01
   7.99738E+00  4.19749E+00  3.66617E+00  1.19212E-01  3.21390E+00  1.40993E+01  1.95531E+01  2.58627E+01  2.87213E+01  3.56802E+01
   4.43667E+01  5.11827E+01  4.83048E+01  3.85980E+01  2.96819E+01  2.48368E+01  1.78986E+01  1.65692E+01  1.06839E+01  8.29871E+00
   8.99983E+00  2.95286E+00  4.97369E+00  4.67170E+00  7.38229E+00  2.82814E+00  2.26123E+00  1.87778E+00  4.47721E-01  2.98384E+00
   3.64517E+00  1.67868E+00  4.72658E+00 -3.42322E+00 -2.93926E-01  2.56294E+00  1.28081E+00  1.99824E-01  2.98024E+00 -6.51250E-01
   6.95373E+00  5.70727E+00  2.72306E+00  1.60416E+00  1.74155E+00  1.79200E+00  6.50643E+00  2.14981E+00  1.56653E+00  5.51377E+00
   5.28210E-01  4.91302E+00  3.70303E+00  3.23454E+00  6.47778E+00  5.82263E+00  8.17284E+00  2.53547E+00  2.22022E+00  2.88634E+00
   3.55096E+00  4.57933E+00  2.12658E+00  4.10596E+00  6.13771E+00 -3.04065E+00  1.21442E+00  4.34406E+00  2.15985E+00 -6.62300E-01
   2.84438E+00  3.39039E+00  1.41488E+00  1.43593E+00  4.79810E+00 -6.23155E-01  2.95625E+00  2.57925E+00  3.42709E+00  6.13725E-01
   2.20593E+00  1.69726E+00  1.78129E+00  5.84018E+00  6.41389E+00  4.00687E+00  8.26355E+00  1.88009E-01  2.96975E+00  7.69539E+00
   5.11810E+00  3.03394E+00  8.93946E+00  4.33214E+00  4.00534E+00  7.95194E+00  3.31303E+00  6.86482E+00  8.07622E+00  1.57150E+01
   8.98745E+00  9.50575E+00  1.45783E+01  1.18546E+01  1.41365E+01  1.16829E+01  1.46339E+01  9.45813E+00  4.68278E+00  6.65155E+00
   2.44810E+00  6.73223E+00  5.12151E+00  2.68553E+00  8.67848E+00  7.30654E+00  8.20947E+00  6.49768E+00  4.87309E+00  1.53948E+00
   8.52615E+00  4.43763E+00  3.59636E+00  3.32026E+00  8.88312E+00  5.21192E+00  6.07211E+00  6.35365E+00  3.56046E+00 -2.27967E+00
  -4.49411E+00  5.87080E-02  4.97625E-01  1.73278E+00  5.49131E+00  2.52804E+00  3.83575E-02  3.00994E+00  4.22077E+00  1.02368E+00
   3.40164E+00  6.76170E+00  9.79036E+00  3.45165E+00  5.09724E+00  4.13097E+00  2.91409E+00  9.26424E+00  6.71726E+00  7.09599E+00
   3.76433E+00  5.55921E+00  5.38448E+00  6.66638E+00  7.97476E+00  6.91082E+00  7.56179E+00  7.92312E+00  9.84961E+00  5.70558E+00
   5.17921E+00  9.80610E+00  5.43181E+00  1.36453E+01  1.43435E+00  4.96161E+00  1.10770E+01  4.51328E+00  8.31615E+00  4.75208E+00
   4.08310E+00  5.80207E+00  4.66140E+00  5.03091E+00  1.93455E+00  2.70293E+00  2.88474E+00  1.18400E+00  2.44682E+00  5.54977E+00
   5.74780E+00  3.58757E+00  9.60194E+00  5.98962E+00  7.00903E+00  7.42317E+00  7.47078E+00  6.62372E+00  1.16861E+00  1.47317E+00
   5.74946E+00  3.15613E+00  5.53580E+00 -8.14371E-03  5.61299E+00  1.06742E+00  6.56340E+00  4.24629E+00  3.22253E+00  5.02208E+00
   1.78900E+00  7.68216E+00  3.33184E+00  2.58612E-01  1.70487E+00  2.18543E+00  8.32691E-01  2.28893E+00  5.29767E+00 -4.90830E-01
   5.03770E+00  1.77586E+00  4.47391E+00  3.00985E+00  4.13219E+00  2.96651E-01  5.29664E+00  4.97375E+00  2.22077E+00  3.76202E-01
   3.29873E+00  6.25929E+00  1.05625E+00  2.08422E+00 -1.07637E+00  1.31071E+00  7.22886E+00  8.82880E+00  6.51139E+00 -3.32021E-02
   4.82090E+00  2.14644E+00  4.89659E+00  5.49079E+00  4.05347E+00  4.03390E-01  5.58597E+00  7.05722E+00  6.36597E+00  5.49184E+00
   6.42408E+00  5.94208E-01  3.45724E+00  4.99480E+00  2.90259E+00  1.93191E+00  3.90056E+00  6.23390E+00
 NY points of the fit to the data follow
  -1.41916E+01 -1.42602E+01 -1.41899E+01 -1.37476E+01 -1.26849E+01 -1.11327E+01 -9.31205E+00 -7.40887E+00 -5.63010E+00 -4.31897E+00
  -3.85647E+00 -4.34034E+00 -5.45156E+00 -6.71719E+00 -7.90375E+00 -9.05391E+00 -1.01795E+01 -1.09139E+01 -1.11534E+01 -1.12196E+01
  -1.11868E+01 -1.11447E+01 -1.12164E+01 -1.14466E+01 -1.16775E+01 -1.17575E+01 -1.15570E+01 -1.09409E+01 -9.83517E+00 -8.29521E+00
  -6.63825E+00 -5.32815E+00 -4.72491E+00 -4.89141E+00 -5.71167E+00 -6.96057E+00 -8.41779E+00 -9.75035E+00 -1.06122E+01 -1.09890E+01
  -1.08571E+01 -1.02374E+01 -9.27674E+00 -8.14195E+00 -7.02815E+00 -6.02855E+00 -5.27000E+00 -4.93431E+00 -5.14792E+00 -5.84025E+00
  -6.74793E+00 -7.64535E+00 -8.48315E+00 -9.18280E+00 -9.60256E+00 -9.65370E+00 -9.41136E+00 -9.03051E+00 -8.63340E+00 -8.31514E+00
  -8.15120E+00 -8.17115E+00 -8.33742E+00 -8.53895E+00 -8.68839E+00 -8.76710E+00 -8.76310E+00 -8.65756E+00 -8.49434E+00 -8.27891E+00
  -7.98087E+00 -7.62786E+00 -7.28878E+00 -7.02970E+00 -6.87554E+00 -6.84111E+00 -6.97648E+00 -7.25962E+00 -7.64702E+00 -7.99638E+00
  -8.12858E+00 -7.92182E+00 -7.45530E+00 -6.83538E+00 -6.13453E+00 -5.47914E+00 -4.97973E+00 -4.78786E+00 -5.02193E+00 -5.58306E+00
  -6.20026E+00 -6.73518E+00 -7.22992E+00 -7.69211E+00 -7.97314E+00 -7.76546E+00 -6.55031E+00 -3.69219E+00  5.65557E-01  5.60390E+00
   1.09070E+01  1.58560E+01  1.93766E+01  2.02643E+01  1.82075E+01  1.42119E+01  9.79850E+00  5.74021E+00  1.85235E+00 -1.83401E+00
  -4.26193E+00 -5.11020E+00 -5.46487E+00 -5.67227E+00 -5.81355E+00 -5.92987E+00 -6.00060E+00 -6.03696E+00 -6.04307E+00 -5.98535E+00
  -5.67354E+00 -4.44077E+00 -1.95810E+00  1.45215E+00  5.35386E+00  9.37738E+00  1.29534E+01  1.51498E+01  1.51841E+01  1.31734E+01
   1.01095E+01  6.94865E+00  3.91912E+00  8.44009E-01 -1.98134E+00 -3.60488E+00 -4.27030E+00 -4.57736E+00 -4.63770E+00 -4.52287E+00
  -4.31401E+00 -4.06846E+00 -3.84178E+00 -3.70828E+00 -3.67737E+00 -3.72612E+00 -3.84402E+00 -4.00059E+00 -4.15894E+00 -4.29892E+00
  -4.39851E+00 -4.47355E+00 -4.52599E+00 -4.55237E+00 -4.55273E+00 -4.55947E+00 -4.62368E+00 -4.75127E+00 -4.92525E+00 -5.10313E+00
  -5.23432E+00 -5.29368E+00 -5.25319E+00 -5.10679E+00 -4.90832E+00 -4.76369E+00 -4.75084E+00 -4.85243E+00 -4.99632E+00 -5.16279E+00
  -5.38926E+00 -5.68337E+00 -6.00046E+00 -6.23974E+00 -6.37023E+00 -6.45655E+00 -6.50800E+00 -6.47515E+00 -6.33792E+00 -6.16606E+00
  -6.05409E+00 -6.02231E+00 -6.00629E+00 -5.91437E+00 -5.75230E+00 -5.56451E+00 -5.25887E+00 -4.75139E+00 -4.06826E+00 -3.35068E+00
  -2.80566E+00 -2.52538E+00 -2.52131E+00 -2.73551E+00 -3.06004E+00 -3.37545E+00 -3.54184E+00 -3.39516E+00 -2.87613E+00 -1.96795E+00
  -7.64257E-01  4.89352E-01  1.48767E+00  1.99544E+00  1.73951E+00  7.05368E-01 -9.06142E-01 -2.82652E+00 -4.69279E+00 -6.01447E+00
  -6.30437E+00 -5.42364E+00 -3.66221E+00 -1.48295E+00  6.64921E-01  2.44599E+00  3.47670E+00  3.35881E+00  2.02561E+00  2.00712E-01
  -1.46185E+00 -2.74588E+00 -3.47175E+00 -3.36227E+00 -2.30076E+00 -7.11397E-01  7.85156E-01  1.94107E+00  2.76338E+00  3.24784E+00
   3.25355E+00  2.86389E+00  2.47142E+00  2.35620E+00  2.50114E+00  2.89432E+00  3.53828E+00  4.29547E+00  4.94647E+00  5.25460E+00
   5.13740E+00  4.72460E+00  4.20542E+00  3.71588E+00  3.35948E+00  3.32078E+00  3.58106E+00  4.00547E+00  4.56715E+00  5.29214E+00
   6.07243E+00  6.72658E+00  7.29843E+00  7.88962E+00  9.06320E+00  1.21905E+01  1.75690E+01  2.44275E+01  3.19569E+01  3.94029E+01
   4.53823E+01  4.79112E+01  4.57689E+01  3.98376E+01  3.24498E+01  2.53485E+01  1.87084E+01  1.22974E+01  7.18203E+00  4.89886E+00
   4.07823E+00  3.64087E+00  3.41078E+00  3.31003E+00  3.24991E+00  3.19850E+00  3.12354E+00  3.01204E+00  2.86949E+00  2.70738E+00
   2.53227E+00  2.36914E+00  2.24754E+00  2.17413E+00  2.14312E+00  2.14742E+00  2.17840E+00  2.22965E+00  2.29473E+00  2.36650E+00
   2.44678E+00  2.53595E+00  2.63194E+00  2.73474E+00  2.84484E+00  2.96002E+00  3.07600E+00  3.18931E+00  3.29743E+00  3.39637E+00
   3.48252E+00  3.55383E+00  3.60771E+00  3.64257E+00  3.65756E+00  3.65275E+00  3.62922E+00  3.58897E+00  3.53447E+00  3.46855E+00
   3.39440E+00  3.31578E+00  3.23639E+00  3.15949E+00  3.08811E+00  3.02488E+00  2.97206E+00  2.93153E+00  2.90458E+00  2.89198E+00
   2.89393E+00  2.91025E+00  2.94039E+00  2.98351E+00  3.03842E+00  3.10364E+00  3.17747E+00  3.25821E+00  3.34407E+00  3.43335E+00
   3.52424E+00  3.61511E+00  3.70445E+00  3.79122E+00  3.87477E+00  3.95521E+00  4.03356E+00  4.11247E+00  4.19682E+00  4.29465E+00
   4.41784E+00  4.58264E+00  4.80946E+00  5.12171E+00  5.54280E+00  6.09161E+00  6.77638E+00  7.58850E+00  8.49754E+00  9.44969E+00
   1.03707E+01  1.11746E+01  1.17758E+01  1.21042E+01  1.21183E+01  1.18135E+01  1.12231E+01  1.04118E+01  9.46401E+00  8.46864E+00
   7.50553E+00  6.63550E+00  5.89549E+00  5.29926E+00  4.84159E+00  4.50481E+00  4.26522E+00  4.09846E+00  3.98286E+00  3.90123E+00
   3.84113E+00  3.79448E+00  3.75651E+00  3.72493E+00  3.69895E+00  3.67870E+00  3.66480E+00  3.65819E+00  3.65991E+00  3.67105E+00
   3.69267E+00  3.72579E+00  3.77141E+00  3.83059E+00  3.90432E+00  3.99361E+00  4.09931E+00  4.22220E+00  4.36288E+00  4.52179E+00
   4.69905E+00  4.89437E+00  5.10691E+00  5.33531E+00  5.57755E+00  5.83097E+00  6.09211E+00  6.35684E+00  6.62031E+00  6.87720E+00
   7.12180E+00  7.34827E+00  7.55077E+00  7.72379E+00  7.86236E+00  7.96241E+00  8.02091E+00  8.03607E+00  8.00737E+00  7.93564E+00
   7.82304E+00  7.67296E+00  7.48981E+00  7.27881E+00  7.04566E+00  6.79636E+00  6.53688E+00  6.27304E+00  6.01013E+00  5.75287E+00
   5.50517E+00  5.27022E+00  5.05040E+00  4.84737E+00  4.66202E+00  4.49468E+00  4.34506E+00  4.21257E+00  4.09627E+00  3.99507E+00
   3.90769E+00  3.83281E+00  3.76909E+00  3.71530E+00  3.67026E+00  3.63291E+00  3.60223E+00  3.57735E+00  3.55745E+00  3.54192E+00
   3.53016E+00  3.52168E+00  3.51603E+00  3.51283E+00  3.51175E+00  3.51257E+00  3.51503E+00  3.51896E+00  3.52414E+00  3.53044E+00
   3.53773E+00  3.54594E+00  3.55495E+00  3.56471E+00  3.57508E+00  3.58604E+00  3.59752E+00  3.60952E+00  3.62195E+00  3.63479E+00
   3.64797E+00  3.66148E+00  3.67531E+00  3.68946E+00  3.70386E+00  3.71851E+00  3.73336E+00  3.74843E+00  3.76370E+00  3.77919E+00
   3.79482E+00  3.81062E+00  3.82656E+00  3.84266E+00  3.85891E+00  3.87531E+00  3.89182E+00  3.90845E+00  3.92518E+00  3.94205E+00
   3.95903E+00  3.97614E+00  3.99332E+00  4.01062E+00  4.02801E+00  4.04554E+00  4.06318E+00  4.08092E+00  4.09876E+00  4.11671E+00
   4.13478E+00  4.15301E+00  4.17135E+00  4.18984E+00  4.20844E+00  4.22722E+00  4.24618E+00  4.26535E+00
 NY background values follow
    -1.528E+01   -1.521E+01   -1.514E+01   -1.507E+01   -1.500E+01   -1.493E+01   -1.486E+01   -1.479E+01   -1.472E+01   -1.465E+01
    -1.458E+01   -1.451E+01   -1.444E+01   -1.437E+01   -1.430E+01   -1.423E+01   -1.416E+01   -1.409E+01   -1.402E+01   -1.395E+01
    -1.388E+01   -1.381E+01   -1.374E+01   -1.367E+01   -1.360E+01   -1.353E+01   -1.346E+01   -1.339E+01   -1.332E+01   -1.326E+01
    -1.319E+01   -1.312E+01   -1.305E+01   -1.298E+01   -1.291E+01   -1.284E+01   -1.277E+01   -1.270E+01   -1.263E+01   -1.256E+01
    -1.249E+01   -1.242E+01   -1.235E+01   -1.229E+01   -1.222E+01   -1.215E+01   -1.208E+01   -1.201E+01   -1.194E+01   -1.187E+01
    -1.181E+01   -1.174E+01   -1.167E+01   -1.160E+01   -1.153E+01   -1.146E+01   -1.140E+01   -1.133E+01   -1.126E+01   -1.119E+01
    -1.113E+01   -1.106E+01   -1.099E+01   -1.093E+01   -1.086E+01   -1.079E+01   -1.072E+01   -1.066E+01   -1.059E+01   -1.052E+01
    -1.046E+01   -1.039E+01   -1.033E+01   -1.026E+01   -1.019E+01   -1.013E+01   -1.006E+01   -9.998E+00   -9.933E+00   -9.867E+00
    -9.802E+00   -9.738E+00   -9.673E+00   -9.608E+00   -9.544E+00   -9.479E+00   -9.415E+00   -9.351E+00   -9.287E+00   -9.224E+00
    -9.160E+00   -9.097E+00   -9.033E+00   -8.970E+00   -8.907E+00   -8.844E+00   -8.782E+00   -8.719E+00   -8.657E+00   -8.595E+00
    -8.533E+00   -8.471E+00   -8.409E+00   -8.347E+00   -8.286E+00   -8.225E+00   -8.164E+00   -8.103E+00   -8.042E+00   -7.981E+00
    -7.921E+00   -7.860E+00   -7.800E+00   -7.740E+00   -7.680E+00   -7.620E+00   -7.561E+00   -7.501E+00   -7.442E+00   -7.383E+00
    -7.324E+00   -7.265E+00   -7.207E+00   -7.148E+00   -7.090E+00   -7.032E+00   -6.974E+00   -6.916E+00   -6.858E+00   -6.801E+00
    -6.743E+00   -6.686E+00   -6.629E+00   -6.572E+00   -6.515E+00   -6.458E+00   -6.402E+00   -6.346E+00   -6.289E+00   -6.233E+00
    -6.178E+00   -6.122E+00   -6.066E+00   -6.011E+00   -5.956E+00   -5.901E+00   -5.846E+00   -5.791E+00   -5.736E+00   -5.682E+00
    -5.628E+00   -5.573E+00   -5.519E+00   -5.466E+00   -5.412E+00   -5.358E+00   -5.305E+00   -5.252E+00   -5.199E+00   -5.146E+00
    -5.093E+00   -5.041E+00   -4.988E+00   -4.936E+00   -4.884E+00   -4.832E+00   -4.780E+00   -4.728E+00   -4.677E+00   -4.625E+00
    -4.574E+00   -4.523E+00   -4.472E+00   -4.422E+00   -4.371E+00   -4.321E+00   -4.270E+00   -4.220E+00   -4.170E+00   -4.121E+00
    -4.071E+00   -4.022E+00   -3.972E+00   -3.923E+00   -3.874E+00   -3.825E+00   -3.777E+00   -3.728E+00   -3.680E+00   -3.632E+00
    -3.584E+00   -3.536E+00   -3.488E+00   -3.441E+00   -3.394E+00   -3.347E+00   -3.300E+00   -3.253E+00   -3.206E+00   -3.160E+00
    -3.114E+00   -3.068E+00   -3.022E+00   -2.976E+00   -2.931E+00   -2.886E+00   -2.841E+00   -2.796E+00   -2.751E+00   -2.707E+00
    -2.663E+00   -2.619E+00   -2.575E+00   -2.531E+00   -2.488E+00   -2.445E+00   -2.402E+00   -2.359E+00   -2.317E+00   -2.274E+00
    -2.232E+00   -2.190E+00   -2.149E+00   -2.107E+00   -2.066E+00   -2.025E+00   -1.985E+00   -1.944E+00   -1.904E+00   -1.864E+00
    -1.824E+00   -1.784E+00   -1.745E+00   -1.706E+00   -1.667E+00   -1.628E+00   -1.590E+00   -1.552E+00   -1.514E+00   -1.476E+00
    -1.438E+00   -1.401E+00   -1.364E+00   -1.327E+00   -1.290E+00   -1.254E+00   -1.217E+00   -1.181E+00   -1.145E+00   -1.110E+00
    -1.074E+00   -1.039E+00   -1.004E+00   -9.691E-01   -9.345E-01   -9.000E-01   -8.658E-01   -8.317E-01   -7.978E-01   -7.642E-01
    -7.307E-01   -6.974E-01   -6.643E-01   -6.314E-01   -5.987E-01   -5.661E-01   -5.338E-01   -5.016E-01   -4.697E-01   -4.379E-01
    -4.063E-01   -3.748E-01   -3.436E-01   -3.125E-01   -2.816E-01   -2.509E-01   -2.203E-01   -1.899E-01   -1.597E-01   -1.297E-01
    -9.983E-02   -7.012E-02   -4.058E-02   -1.121E-02    1.801E-02    4.706E-02    7.595E-02    1.047E-01    1.333E-01    1.617E-01
     1.900E-01    2.181E-01    2.460E-01    2.739E-01    3.015E-01    3.291E-01    3.564E-01    3.837E-01    4.108E-01    4.377E-01
     4.645E-01    4.912E-01    5.177E-01    5.442E-01    5.704E-01    5.966E-01    6.226E-01    6.484E-01    6.742E-01    6.998E-01
     7.253E-01    7.507E-01    7.759E-01    8.011E-01    8.261E-01    8.510E-01    8.757E-01    9.004E-01    9.250E-01    9.494E-01
     9.737E-01    9.979E-01    1.022E+00    1.046E+00    1.070E+00    1.094E+00    1.117E+00    1.141E+00    1.164E+00    1.188E+00
     1.211E+00    1.234E+00    1.257E+00    1.280E+00    1.303E+00    1.326E+00    1.349E+00    1.371E+00    1.394E+00    1.416E+00
     1.439E+00    1.461E+00    1.483E+00    1.505E+00    1.527E+00    1.549E+00    1.571E+00    1.593E+00    1.614E+00    1.636E+00
     1.658E+00    1.679E+00    1.700E+00    1.722E+00    1.743E+00    1.764E+00    1.785E+00    1.806E+00    1.827E+00    1.848E+00
     1.869E+00    1.890E+00    1.911E+00    1.931E+00    1.952E+00    1.972E+00    1.993E+00    2.013E+00    2.034E+00    2.054E+00
     2.074E+00    2.095E+00    2.115E+00    2.135E+00    2.155E+00    2.175E+00    2.195E+00    2.215E+00    2.235E+00    2.255E+00
     2.275E+00    2.294E+00    2.314E+00    2.334E+00    2.353E+00    2.373E+00    2.392E+00    2.412E+00    2.431E+00    2.451E+00
     2.470E+00    2.490E+00    2.509E+00    2.528E+00    2.548E+00    2.567E+00    2.586E+00    2.605E+00    2.625E+00    2.644E+00
     2.663E+00    2.682E+00    2.701E+00    2.720E+00    2.739E+00    2.758E+00    2.777E+00    2.796E+00    2.815E+00    2.834E+00
     2.853E+00    2.872E+00    2.891E+00    2.910E+00    2.928E+00    2.947E+00    2.966E+00    2.985E+00    3.004E+00    3.022E+00
     3.041E+00    3.060E+00    3.079E+00    3.097E+00    3.116E+00    3.135E+00    3.153E+00    3.172E+00    3.191E+00    3.209E+00
     3.228E+00    3.247E+00    3.265E+00    3.284E+00    3.302E+00    3.321E+00    3.339E+00    3.358E+00    3.376E+00    3.395E+00
     3.413E+00    3.432E+00    3.450E+00    3.469E+00    3.487E+00    3.505E+00    3.524E+00    3.542E+00    3.561E+00    3.579E+00
     3.597E+00    3.616E+00    3.634E+00    3.652E+00    3.671E+00    3.689E+00    3.707E+00    3.725E+00    3.744E+00    3.762E+00
     3.780E+00    3.798E+00    3.817E+00    3.835E+00    3.853E+00    3.871E+00    3.889E+00    3.908E+00    3.926E+00    3.944E+00
     3.962E+00    3.980E+00    3.998E+00    4.017E+00    4.035E+00    4.053E+00    4.071E+00    4.089E+00    4.107E+00    4.125E+00
     4.143E+00    4.161E+00    4.180E+00    4.198E+00    4.216E+00    4.234E+00    4.252E+00    4.270E+00    4.288E+00    4.306E+00
     4.324E+00    4.342E+00    4.360E+00    4.378E+00    4.396E+00    4.414E+00    4.433E+00    4.451E+00
 Asp      Conc. = 7.55E+01
