 LCModel (Version 6.3-1L) Copyright: S.W. Provencher.          Ref.: Magn. Reson. Med. 30:672-679 (1993).                
 Slice#3 Row#13 Col#10  PD_05_press_1_raw_act
 36 lines in following concentration table = NCONC+1
    Conc.  %SD /Cr+PCr  Metabolite                                         
    0.000 999%   0.000 Ala                                                 
    7.737 110%   0.202 Asp                                                 
   38.296  35%   1.000 Cr                                                  
    0.000 999%   0.000 PCr                                                 
    5.274  97%   0.138 GABA                                                
    4.710 109%   0.123 Glc                                                 
    0.000 999%   0.000 Gln                                                 
    0.000 999%   0.000 Glu                                                 
    0.000 999%   0.000 GPC                                                 
   16.448  32%   0.429 PCh                                                 
    0.000 999%   0.000 GSH                                                 
   34.917 158%   0.912 Ins                                                 
   90.324  44%   2.359 Lac                                                 
   82.984  29%   2.167 NAA                                                 
    3.613 548% 9.4E-02 NAAG                                                
    1.576 106% 4.1E-02 Scyllo                                              
    8.897  95%   0.232 Tau                                                 
   25.862  41%   0.675 -CrCH2                                              
   16.448  32%   0.429 GPC+PCh                                             
   86.598  23%   2.261 NAA+NAAG                                            
   38.296  35%   1.000 Cr+PCr                                              
    0.000 999%   0.000 Glu+Gln                                             
    0.000 999%   0.000 Lip13a                                              
    0.000 999%   0.000 Lip13b                                              
 3.56E-05 999% 9.3E-07 Lip09                                               
    1.149 676% 3.0E-02 MM09                                                
 2.78E-05 999% 7.3E-07 Lip20                                               
    1.569 999% 4.1E-02 MM20                                                
    0.000 999%   0.000 MM12                                                
    0.000 999%   0.000 MM14                                                
    0.000 999%   0.000 MM17                                                
    0.000 999%   0.000 Lip13a+Lip13b                                       
    0.000 999%   0.000 MM14+Lip13a+Lip13b+MM12                             
    1.149 676% 3.0E-02 MM09+Lip09                                          
    1.569 999% 4.1E-02 MM20+Lip20                                          
   6 lines in following misc. output table
  FWHM = 0.061 ppm    S/N =   2                                            
  Data shift = 0.061 ppm                                                   
  Ph:  12 deg       9.5 deg/ppm                                            
  alphaB,S = 1.6E+00,   5.4E+00                                            
   14 spline knots.   Ns = 6(2)                                            
  ( 8) 6 infls.   (10) 4 extrs.                                            
  498 points on ppm-axis = NY
      4.000000     3.992357     3.984714     3.977070     3.969427     3.961784     3.954141     3.946497     3.938854     3.931211
      3.923568     3.915925     3.908281     3.900638     3.892995     3.885352     3.877708     3.870065     3.862422     3.854779
      3.847136     3.839492     3.831849     3.824206     3.816563     3.808919     3.801276     3.793633     3.785990     3.778347
      3.770703     3.763060     3.755417     3.747774     3.740130     3.732487     3.724844     3.717201     3.709558     3.701914
      3.694271     3.686628     3.678985     3.671341     3.663698     3.656055     3.648412     3.640769     3.633125     3.625482
      3.617839     3.610196     3.602552     3.594909     3.587266     3.579623     3.571980     3.564336     3.556693     3.549050
      3.541407     3.533763     3.526120     3.518477     3.510834     3.503191     3.495547     3.487904     3.480261     3.472618
      3.464974     3.457331     3.449688     3.442045     3.434402     3.426758     3.419115     3.411472     3.403829     3.396185
      3.388542     3.380899     3.373256     3.365613     3.357969     3.350326     3.342683     3.335040     3.327396     3.319753
      3.312110     3.304467     3.296824     3.289180     3.281537     3.273894     3.266251     3.258607     3.250964     3.243321
      3.235678     3.228034     3.220391     3.212748     3.205105     3.197462     3.189818     3.182175     3.174532     3.166889
      3.159245     3.151602     3.143959     3.136316     3.128673     3.121029     3.113386     3.105743     3.098100     3.090456
      3.082813     3.075170     3.067527     3.059884     3.052240     3.044597     3.036954     3.029311     3.021667     3.014024
      3.006381     2.998738     2.991095     2.983451     2.975808     2.968165     2.960522     2.952878     2.945235     2.937592
      2.929949     2.922306     2.914662     2.907019     2.899376     2.891733     2.884089     2.876446     2.868803     2.861160
      2.853517     2.845873     2.838230     2.830587     2.822944     2.815300     2.807657     2.800014     2.792371     2.784728
      2.777084     2.769441     2.761798     2.754155     2.746511     2.738868     2.731225     2.723582     2.715939     2.708295
      2.700652     2.693009     2.685366     2.677722     2.670079     2.662436     2.654793     2.647150     2.639506     2.631863
      2.624220     2.616577     2.608933     2.601290     2.593647     2.586004     2.578361     2.570717     2.563074     2.555431
      2.547788     2.540144     2.532501     2.524858     2.517215     2.509572     2.501928     2.494285     2.486642     2.478999
      2.471355     2.463712     2.456069     2.448426     2.440783     2.433139     2.425496     2.417853     2.410210     2.402566
      2.394923     2.387280     2.379637     2.371994     2.364350     2.356707     2.349064     2.341421     2.333777     2.326134
      2.318491     2.310848     2.303205     2.295561     2.287918     2.280275     2.272632     2.264988     2.257345     2.249702
      2.242059     2.234416     2.226772     2.219129     2.211486     2.203843     2.196199     2.188556     2.180913     2.173270
      2.165627     2.157983     2.150340     2.142697     2.135054     2.127410     2.119767     2.112124     2.104481     2.096838
      2.089194     2.081551     2.073908     2.066265     2.058621     2.050978     2.043335     2.035692     2.028049     2.020405
      2.012762     2.005119     1.997476     1.989833     1.982190     1.974546     1.966903     1.959260     1.951617     1.943974
      1.936331     1.928688     1.921045     1.913402     1.905759     1.898115     1.890472     1.882829     1.875186     1.867543
      1.859900     1.852257     1.844614     1.836971     1.829327     1.821684     1.814041     1.806398     1.798755     1.791112
      1.783469     1.775826     1.768183     1.760540     1.752896     1.745253     1.737610     1.729967     1.722324     1.714681
      1.707038     1.699395     1.691752     1.684108     1.676465     1.668822     1.661179     1.653536     1.645893     1.638250
      1.630607     1.622964     1.615321     1.607677     1.600034     1.592391     1.584748     1.577105     1.569462     1.561819
      1.554176     1.546533     1.538890     1.531246     1.523603     1.515960     1.508317     1.500674     1.493031     1.485388
      1.477745     1.470102     1.462458     1.454815     1.447172     1.439529     1.431886     1.424243     1.416600     1.408957
      1.401314     1.393671     1.386027     1.378384     1.370741     1.363098     1.355455     1.347812     1.340169     1.332526
      1.324883     1.317240     1.309596     1.301953     1.294310     1.286667     1.279024     1.271381     1.263738     1.256095
      1.248452     1.240808     1.233165     1.225522     1.217879     1.210236     1.202593     1.194950     1.187307     1.179664
      1.172021     1.164377     1.156734     1.149091     1.141448     1.133805     1.126162     1.118519     1.110876     1.103233
      1.095590     1.087946     1.080303     1.072660     1.065017     1.057374     1.049731     1.042088     1.034445     1.026802
      1.019158     1.011515     1.003872     0.996229     0.988586     0.980943     0.973300     0.965657     0.958014     0.950371
      0.942727     0.935084     0.927441     0.919798     0.912155     0.904512     0.896869     0.889226     0.881583     0.873940
      0.866296     0.858653     0.851010     0.843367     0.835724     0.828081     0.820438     0.812795     0.805152     0.797508
      0.789865     0.782222     0.774579     0.766936     0.759293     0.751650     0.744007     0.736364     0.728721     0.721077
      0.713434     0.705791     0.698148     0.690505     0.682862     0.675219     0.667576     0.659933     0.652290     0.644646
      0.637003     0.629360     0.621717     0.614074     0.606431     0.598788     0.591145     0.583502     0.575858     0.568215
      0.560572     0.552929     0.545286     0.537643     0.530000     0.522357     0.514714     0.507071     0.499427     0.491784
      0.484141     0.476498     0.468855     0.461212     0.453569     0.445925     0.438282     0.430639     0.422996     0.415353
      0.407710     0.400067     0.392424     0.384780     0.377137     0.369494     0.361851     0.354208     0.346565     0.338922
      0.331278     0.323635     0.315992     0.308349     0.300706     0.293063     0.285420     0.277777     0.270133     0.262490
      0.254847     0.247204     0.239561     0.231918     0.224275     0.216631     0.208988     0.201345
 NY phased data points follow
  -6.56886E+00 -6.71508E+00 -6.68496E+00 -4.82647E+00 -5.34253E+00 -4.24664E+00 -5.36706E+00 -4.93871E+00 -6.43384E+00 -4.67871E+00
  -4.26242E+00 -6.17462E+00 -6.51427E+00 -5.29002E+00 -4.92462E+00 -6.45017E+00 -5.53293E+00 -4.29601E+00 -4.68918E+00 -5.74144E+00
  -5.43327E+00 -3.73420E+00 -5.22459E+00 -4.58981E+00 -5.35114E+00 -5.71159E+00 -5.39926E+00 -5.62225E+00 -4.88285E+00 -5.60892E+00
  -5.13266E+00 -5.66443E+00 -4.94548E+00 -4.36473E+00 -4.53709E+00 -4.04912E+00 -3.42064E+00 -3.50791E+00 -3.48974E+00 -5.50225E+00
  -4.31220E+00 -3.19208E+00 -4.76286E+00 -3.52952E+00 -5.22567E+00 -4.10689E+00 -4.92135E+00 -4.11017E+00 -3.55099E+00 -3.15016E+00
  -4.20818E+00 -4.12176E+00 -2.86174E+00 -3.67443E+00 -5.16271E+00 -5.34218E+00 -4.16300E+00 -4.74455E+00 -5.00412E+00 -4.94819E+00
  -4.00670E+00 -3.89875E+00 -4.36176E+00 -3.61556E+00 -3.02411E+00 -3.27952E+00 -3.78183E+00 -3.98842E+00 -3.38767E+00 -4.73068E+00
  -4.12161E+00 -3.52089E+00 -4.03004E+00 -5.39753E+00 -2.55416E+00 -4.34541E+00 -4.83646E+00 -4.54325E+00 -3.41966E+00 -4.93569E+00
  -3.86575E+00 -3.46508E+00 -4.32066E+00 -3.79649E+00 -3.98210E+00 -3.29524E+00 -3.96121E+00 -4.20598E+00 -4.88775E+00 -3.70526E+00
  -3.35463E+00 -4.26319E+00 -4.13623E+00 -3.16558E+00 -3.36877E+00 -2.31874E+00 -2.98036E+00 -2.56087E+00 -3.03903E+00 -1.72563E+00
  -4.44000E+00 -1.34704E+00 -2.48159E+00 -1.48526E+00 -3.16707E+00 -2.16219E+00 -2.81780E+00 -2.88906E+00 -3.88752E+00 -2.66734E+00
  -2.39784E+00 -2.82783E+00 -3.10527E+00 -4.56076E+00 -3.31811E+00 -2.95412E+00 -3.53463E+00 -3.31719E+00 -1.28193E+00 -1.52984E+00
  -6.67940E-01 -2.85240E+00 -4.42759E+00 -2.53760E+00 -2.56666E+00 -4.64438E-01 -2.95191E+00 -2.56861E+00 -1.79730E+00 -2.60093E+00
  -1.69391E+00 -2.32720E+00 -3.21428E+00 -2.40198E+00 -2.26755E+00 -2.96077E+00 -3.27975E+00 -2.63049E+00 -3.46448E+00 -1.95433E+00
  -2.22148E+00 -2.87058E+00 -2.39669E+00 -3.30772E+00 -2.61069E+00 -2.06700E+00 -2.45069E+00 -2.04379E+00 -1.78543E+00 -3.42575E+00
  -3.25583E+00 -3.10386E+00 -2.27922E+00 -2.66115E+00 -2.62700E+00 -4.06954E+00 -1.89227E+00 -2.70363E+00 -2.47997E+00 -1.65951E+00
  -3.20020E+00 -2.70012E+00 -2.08963E+00 -1.92481E+00 -1.98906E+00 -1.35647E+00 -2.00507E+00 -3.06068E+00 -2.99135E+00 -2.37214E+00
  -3.96332E+00 -3.03655E+00 -2.58876E+00 -1.56192E+00 -1.51003E+00 -3.31172E+00 -2.09996E+00 -3.44610E+00 -2.24397E+00 -2.07733E+00
  -2.38838E+00 -1.85292E+00 -2.25921E+00 -1.08896E+00 -2.60914E+00 -9.61266E-01 -1.31785E+00 -1.21902E+00 -1.93875E+00 -3.02367E+00
  -2.52030E+00 -3.00395E+00 -2.73933E+00 -3.68258E+00 -2.23076E+00 -3.63562E+00 -2.50566E+00 -1.72211E+00 -1.97143E+00 -3.01176E+00
  -3.50487E+00 -2.72195E+00 -3.65808E+00 -3.20868E+00 -1.73807E+00 -2.74430E+00 -2.73069E+00 -2.75782E+00 -3.24633E+00 -2.95077E+00
  -3.63300E+00 -2.98047E+00 -4.67306E+00 -2.82618E+00 -2.82630E+00 -2.43514E+00 -2.26670E+00 -3.59575E+00 -2.77201E+00 -3.06599E+00
  -1.21739E+00 -2.77841E+00 -4.02807E+00 -3.60680E+00 -4.29880E+00 -2.78868E+00 -2.89798E+00 -2.72156E+00 -2.47433E+00 -2.24788E+00
  -1.65899E+00 -3.81157E+00 -1.65059E+00 -3.61520E+00 -2.70638E+00 -3.14896E+00 -3.01935E+00 -2.22049E+00 -3.47769E+00 -2.09397E+00
  -2.77860E+00 -4.36919E+00 -2.39715E+00 -3.70634E+00 -1.61193E+00 -1.14695E+00 -2.04545E+00 -3.50538E+00 -1.76689E+00 -1.98496E+00
  -1.04207E+00 -1.86207E+00 -2.63405E-01  1.73080E+00  6.33915E-01 -1.30421E+00 -2.77895E+00 -2.12506E+00 -5.26001E-01 -1.70202E-01
  -6.90083E-01 -2.02992E+00 -2.15438E+00 -2.09934E+00 -2.36452E+00 -2.22340E+00 -3.28498E+00 -2.96086E+00 -3.71918E+00 -3.65943E+00
  -3.46038E+00 -4.23813E+00 -3.15904E+00 -2.39051E+00 -4.18476E+00 -1.55117E+00 -1.79656E+00 -2.90830E+00 -3.25991E+00 -3.45753E+00
  -4.50400E+00 -2.85423E+00 -2.77243E+00 -2.38642E+00 -2.66573E+00 -1.75745E+00 -3.00036E+00 -1.67890E+00 -1.45368E+00 -1.67977E+00
  -1.60996E+00 -1.94554E+00 -2.71818E+00 -2.58817E+00 -9.70629E-01 -1.61809E+00 -3.64752E+00 -3.08238E+00 -2.15655E+00 -2.30559E+00
  -2.56779E+00 -3.12842E+00 -2.41973E+00 -3.09882E+00 -3.63123E+00 -2.93661E+00 -2.62079E+00 -3.48291E+00 -2.07207E+00 -2.92912E+00
  -1.40823E+00 -1.98719E+00 -2.60423E+00 -2.77409E+00 -3.79704E+00 -4.10892E+00 -4.38290E+00 -4.28407E+00 -4.93084E+00 -4.60960E+00
  -3.24530E+00 -2.49990E+00 -1.68213E+00 -3.01285E+00 -6.56972E-01 -4.08806E+00 -3.47489E+00 -2.76149E+00 -2.81059E+00 -1.78721E+00
  -1.63112E+00 -1.76684E+00 -1.67611E+00 -1.46110E+00 -1.03609E+00 -3.15137E+00 -3.33008E-01 -2.47519E+00 -1.45798E+00 -2.73082E+00
  -1.91239E+00 -1.53385E+00 -2.93798E+00 -3.83444E+00 -4.13617E+00 -2.39573E+00 -4.86857E+00 -3.66946E+00 -2.81880E+00 -3.22251E+00
  -2.95039E+00 -1.53546E+00 -3.91389E+00 -3.87201E+00 -1.66754E+00 -6.66220E-01 -2.92103E+00 -3.07265E+00 -3.16602E+00 -3.15245E+00
  -8.73747E-01 -3.31748E+00 -2.00366E+00 -2.40953E+00 -2.46671E+00 -1.92574E+00 -2.80764E+00 -3.41705E+00 -1.25886E+00 -2.95887E+00
  -2.80165E+00 -2.85701E+00 -1.02503E+00 -3.07970E+00 -3.14236E+00 -3.58607E+00 -2.97153E+00 -4.67492E+00 -2.90928E+00 -2.40490E+00
  -2.66113E+00 -2.94871E+00 -3.90431E+00 -3.15859E+00 -2.94635E+00 -2.05557E+00 -3.39955E+00 -2.05167E+00 -3.14843E+00 -7.92284E-01
  -2.49781E+00 -2.99845E+00 -2.67881E-01 -2.29143E+00 -3.18241E+00 -2.06928E+00 -1.25328E+00 -3.70764E+00 -2.87704E-01 -2.08490E+00
  -2.45889E+00 -1.77158E+00 -2.32297E+00 -3.30253E+00 -6.13573E-01 -2.56295E+00 -1.93532E+00 -1.54933E+00 -3.40376E+00 -2.12611E+00
  -1.58868E+00 -2.05674E+00 -1.68726E+00 -2.54537E+00 -2.27795E+00 -3.11117E+00 -2.58522E+00 -1.54983E+00 -3.42338E+00 -7.35565E-01
  -3.74262E+00 -1.64222E+00 -1.84913E+00 -1.90915E+00 -1.73555E+00 -3.03107E+00 -2.58772E+00 -2.46683E+00 -1.91355E+00 -2.32345E+00
  -2.61601E+00 -7.19206E-01 -2.10937E+00 -3.03277E+00 -1.77519E-01 -2.33011E+00 -1.01741E+00 -1.50299E+00 -6.20753E-01 -2.11691E+00
  -1.41813E+00 -2.14929E+00 -2.44804E+00 -1.39604E+00 -2.44935E+00 -8.94711E-01 -3.46390E+00 -2.88082E+00 -2.03965E+00 -2.84076E+00
  -2.10610E+00 -1.29063E+00 -3.25133E+00 -3.07385E+00 -2.17683E+00 -1.87006E+00 -2.04120E+00 -2.86701E+00 -1.29114E+00 -2.20494E+00
  -2.39711E+00 -2.29508E+00 -2.66258E+00 -1.80472E+00 -2.54986E+00 -2.63062E+00 -2.43536E+00 -1.77080E+00 -2.02753E+00 -1.48886E+00
  -2.14541E+00 -1.96865E+00 -2.32377E+00 -7.50109E-01 -2.38317E+00 -8.91545E-01 -2.55407E+00 -2.46385E+00 -4.93603E-01 -3.47658E-01
  -1.23552E+00 -2.59804E+00 -2.76094E+00 -6.07124E-01 -1.78360E+00 -1.16448E+00 -1.32958E+00 -1.32337E+00 -3.14397E+00 -1.27060E+00
  -1.92949E+00 -2.26473E+00 -2.60027E+00 -2.24016E+00 -2.59192E+00 -2.60777E+00  7.18031E-01 -1.25684E-01
 NY points of the fit to the data follow
  -5.11382E+00 -5.27179E+00 -5.16235E+00 -4.67140E+00 -4.60928E+00 -4.54489E+00 -4.68401E+00 -4.97670E+00 -4.90330E+00 -4.46646E+00
  -4.52225E+00 -4.61679E+00 -4.69404E+00 -4.67141E+00 -4.70502E+00 -4.71888E+00 -4.70928E+00 -4.56894E+00 -4.61463E+00 -4.70342E+00
  -4.75280E+00 -4.88022E+00 -4.83141E+00 -4.70675E+00 -4.66364E+00 -4.62088E+00 -4.59573E+00 -4.56849E+00 -4.54334E+00 -4.52408E+00
  -4.50379E+00 -4.51580E+00 -4.53204E+00 -4.52590E+00 -4.51888E+00 -4.47118E+00 -4.43111E+00 -4.38881E+00 -4.36388E+00 -4.26746E+00
  -4.18727E+00 -4.20021E+00 -4.27301E+00 -4.31297E+00 -4.35753E+00 -4.29290E+00 -4.22465E+00 -4.21598E+00 -4.23768E+00 -4.22839E+00
  -4.22642E+00 -4.18744E+00 -4.14892E+00 -4.13564E+00 -4.11015E+00 -4.16231E+00 -4.21121E+00 -4.20666E+00 -4.18257E+00 -4.11616E+00
  -4.05943E+00 -4.03298E+00 -4.02931E+00 -4.02403E+00 -3.99394E+00 -3.97430E+00 -3.95874E+00 -3.93479E+00 -3.93015E+00 -3.94981E+00
  -3.94050E+00 -3.94097E+00 -3.94014E+00 -3.90392E+00 -3.85169E+00 -3.85353E+00 -3.84350E+00 -3.85737E+00 -3.82542E+00 -3.85344E+00
  -3.87867E+00 -3.89252E+00 -3.90042E+00 -3.88972E+00 -3.83467E+00 -3.84074E+00 -3.86363E+00 -3.86076E+00 -3.84177E+00 -3.81934E+00
  -3.80843E+00 -3.73931E+00 -3.52163E+00 -3.37059E+00 -3.11429E+00 -2.85358E+00 -2.21386E+00 -1.95289E+00 -2.31898E+00 -2.45441E+00
  -2.87182E+00 -2.91206E+00 -2.50547E+00 -2.39370E+00 -2.80425E+00 -2.94039E+00 -3.10622E+00 -3.18353E+00 -3.31499E+00 -3.36443E+00
  -3.38768E+00 -3.45017E+00 -3.75451E+00 -3.87045E+00 -3.84347E+00 -3.61546E+00 -3.28062E+00 -2.86953E+00 -2.67870E+00 -1.96746E+00
  -2.25451E+00 -2.29065E+00 -2.62276E+00 -2.77411E+00 -2.73812E+00 -2.29463E+00 -2.56312E+00 -2.73244E+00 -2.89147E+00 -2.94318E+00
  -3.05007E+00 -3.11102E+00 -3.15094E+00 -3.15694E+00 -3.27273E+00 -3.52546E+00 -3.51810E+00 -3.61736E+00 -3.45187E+00 -3.29163E+00
  -3.24723E+00 -3.21711E+00 -3.19931E+00 -3.18101E+00 -3.16744E+00 -3.15599E+00 -3.15351E+00 -3.14574E+00 -3.14125E+00 -3.14740E+00
  -3.14289E+00 -3.14967E+00 -3.15292E+00 -3.17973E+00 -3.17585E+00 -3.14509E+00 -3.12182E+00 -3.06393E+00 -3.09421E+00 -3.13162E+00
  -3.14597E+00 -3.13994E+00 -3.12657E+00 -3.09616E+00 -3.12627E+00 -3.14021E+00 -3.14926E+00 -3.16387E+00 -3.17483E+00 -3.17250E+00
  -3.10417E+00 -3.10392E+00 -3.08744E+00 -3.15616E+00 -3.17269E+00 -3.17106E+00 -3.08848E+00 -3.05255E+00 -3.04177E+00 -3.08179E+00
  -3.03543E+00 -2.96728E+00 -2.93109E+00 -2.88746E+00 -2.87259E+00 -2.87833E+00 -2.85791E+00 -2.80468E+00 -2.81215E+00 -2.75993E+00
  -2.79062E+00 -2.78917E+00 -2.80119E+00 -2.81593E+00 -2.78395E+00 -2.73371E+00 -2.70937E+00 -2.74572E+00 -2.75747E+00 -2.80572E+00
  -2.82234E+00 -2.83218E+00 -2.79930E+00 -2.83553E+00 -2.85642E+00 -2.92386E+00 -2.90274E+00 -2.89658E+00 -2.86744E+00 -2.84020E+00
  -2.84094E+00 -2.87218E+00 -2.86932E+00 -2.83978E+00 -2.83437E+00 -2.80326E+00 -2.78086E+00 -2.76326E+00 -2.76765E+00 -2.77202E+00
  -2.77346E+00 -2.75362E+00 -2.75388E+00 -2.74903E+00 -2.75137E+00 -2.75294E+00 -2.74992E+00 -2.74447E+00 -2.75123E+00 -2.75693E+00
  -2.75386E+00 -2.74690E+00 -2.74933E+00 -2.74731E+00 -2.74745E+00 -2.74251E+00 -2.73766E+00 -2.73149E+00 -2.72582E+00 -2.72059E+00
  -2.72397E+00 -2.72579E+00 -2.72922E+00 -2.72688E+00 -2.70585E+00 -2.69373E+00 -2.65309E+00 -2.56586E+00 -2.11854E+00 -1.82456E+00
  -1.46973E+00 -9.86849E-01 -1.41918E-01  5.43032E-01 -3.08223E-01 -4.28199E-01 -1.30296E+00 -1.37402E+00 -8.26981E-01 -4.45553E-01
  -1.31309E+00 -1.52465E+00 -1.89220E+00 -1.99147E+00 -2.28432E+00 -2.36786E+00 -2.43820E+00 -2.51892E+00 -2.99352E+00 -3.28168E+00
  -3.31333E+00 -3.38721E+00 -2.88859E+00 -2.72555E+00 -2.65097E+00 -2.62312E+00 -2.61540E+00 -2.60786E+00 -2.60034E+00 -2.59757E+00
  -2.59528E+00 -2.59430E+00 -2.59568E+00 -2.59428E+00 -2.59337E+00 -2.59152E+00 -2.59161E+00 -2.58858E+00 -2.58681E+00 -2.58376E+00
  -2.58237E+00 -2.57959E+00 -2.57852E+00 -2.57681E+00 -2.57670E+00 -2.57476E+00 -2.57474E+00 -2.57307E+00 -2.57165E+00 -2.56904E+00
  -2.56799E+00 -2.56532E+00 -2.56366E+00 -2.56101E+00 -2.55896E+00 -2.55597E+00 -2.55416E+00 -2.55094E+00 -2.54898E+00 -2.54559E+00
  -2.54341E+00 -2.53998E+00 -2.53754E+00 -2.53377E+00 -2.53094E+00 -2.52668E+00 -2.52334E+00 -2.51857E+00 -2.51467E+00 -2.50928E+00
  -2.50459E+00 -2.49820E+00 -2.49237E+00 -2.48471E+00 -2.47738E+00 -2.46785E+00 -2.45810E+00 -2.44548E+00 -2.43185E+00 -2.41427E+00
  -2.39394E+00 -2.36683E+00 -2.33230E+00 -2.28271E+00 -2.20789E+00 -2.06763E+00 -1.84486E+00 -1.83119E+00 -1.64895E+00 -1.68250E+00
  -1.45830E+00 -2.19833E+00 -2.74412E+00 -3.13924E+00 -3.18732E+00 -3.07906E+00 -2.54770E+00 -2.95956E+00 -2.36784E+00 -2.34933E+00
  -2.16314E+00 -2.35049E+00 -2.58613E+00 -2.67638E+00 -2.07292E+00 -2.13154E+00 -2.32107E+00 -2.25877E+00 -2.18832E+00 -2.00381E+00
  -1.85321E+00 -1.90110E+00 -1.87688E+00 -1.92181E+00 -2.23020E+00 -2.33029E+00 -2.60114E+00 -2.62629E+00 -2.52370E+00 -2.47138E+00
  -2.43772E+00 -2.41875E+00 -2.40796E+00 -2.39955E+00 -2.39406E+00 -2.38862E+00 -2.38493E+00 -2.38063E+00 -2.37764E+00 -2.37371E+00
  -2.37088E+00 -2.36704E+00 -2.36428E+00 -2.36048E+00 -2.35765E+00 -2.35370E+00 -2.35072E+00 -2.34666E+00 -2.34359E+00 -2.33942E+00
  -2.33619E+00 -2.33182E+00 -2.32843E+00 -2.32397E+00 -2.32051E+00 -2.31596E+00 -2.31238E+00 -2.30774E+00 -2.30412E+00 -2.29951E+00
  -2.29594E+00 -2.29136E+00 -2.28780E+00 -2.28327E+00 -2.27983E+00 -2.27545E+00 -2.27214E+00 -2.26784E+00 -2.26458E+00 -2.26037E+00
  -2.25722E+00 -2.25310E+00 -2.24998E+00 -2.24585E+00 -2.24270E+00 -2.23855E+00 -2.23540E+00 -2.23122E+00 -2.22797E+00 -2.22366E+00
  -2.22031E+00 -2.21594E+00 -2.21253E+00 -2.20807E+00 -2.20452E+00 -2.19994E+00 -2.19631E+00 -2.19168E+00 -2.18799E+00 -2.18328E+00
  -2.17949E+00 -2.17469E+00 -2.17087E+00 -2.16605E+00 -2.16218E+00 -2.15730E+00 -2.15335E+00 -2.14843E+00 -2.14447E+00 -2.13954E+00
  -2.13554E+00 -2.13054E+00 -2.12650E+00 -2.12149E+00 -2.11745E+00 -2.11242E+00 -2.10833E+00 -2.10326E+00 -2.09914E+00 -2.09407E+00
  -2.08995E+00 -2.08486E+00 -2.08070E+00 -2.07557E+00 -2.07139E+00 -2.06627E+00 -2.06209E+00 -2.05694E+00 -2.05272E+00 -2.04755E+00
  -2.04333E+00 -2.03817E+00 -2.03394E+00 -2.02874E+00 -2.02447E+00 -2.01926E+00 -2.01501E+00 -2.00981E+00 -2.00553E+00 -2.00029E+00
  -1.99599E+00 -1.99076E+00 -1.98647E+00 -1.98123E+00 -1.97691E+00 -1.97165E+00 -1.96732E+00 -1.96207E+00 -1.95775E+00 -1.95249E+00
  -1.94814E+00 -1.94285E+00 -1.93850E+00 -1.93324E+00 -1.92889E+00 -1.92360E+00 -1.91922E+00 -1.91393E+00 -1.90956E+00 -1.90428E+00
  -1.89990E+00 -1.89460E+00 -1.89020E+00 -1.88489E+00 -1.88050E+00 -1.87520E+00 -1.87080E+00 -1.86546E+00
 NY background values follow
    -5.013E+00   -4.999E+00   -4.985E+00   -4.971E+00   -4.956E+00   -4.942E+00   -4.928E+00   -4.914E+00   -4.900E+00   -4.885E+00
    -4.871E+00   -4.857E+00   -4.843E+00   -4.828E+00   -4.814E+00   -4.800E+00   -4.786E+00   -4.771E+00   -4.757E+00   -4.743E+00
    -4.729E+00   -4.715E+00   -4.700E+00   -4.686E+00   -4.672E+00   -4.658E+00   -4.644E+00   -4.629E+00   -4.615E+00   -4.601E+00
    -4.587E+00   -4.573E+00   -4.559E+00   -4.545E+00   -4.530E+00   -4.516E+00   -4.502E+00   -4.488E+00   -4.474E+00   -4.460E+00
    -4.446E+00   -4.432E+00   -4.418E+00   -4.404E+00   -4.390E+00   -4.376E+00   -4.362E+00   -4.348E+00   -4.334E+00   -4.321E+00
    -4.307E+00   -4.293E+00   -4.279E+00   -4.265E+00   -4.251E+00   -4.238E+00   -4.224E+00   -4.210E+00   -4.197E+00   -4.183E+00
    -4.169E+00   -4.156E+00   -4.142E+00   -4.129E+00   -4.115E+00   -4.102E+00   -4.088E+00   -4.075E+00   -4.062E+00   -4.048E+00
    -4.035E+00   -4.022E+00   -4.009E+00   -3.995E+00   -3.982E+00   -3.969E+00   -3.956E+00   -3.943E+00   -3.930E+00   -3.917E+00
    -3.904E+00   -3.891E+00   -3.879E+00   -3.866E+00   -3.853E+00   -3.840E+00   -3.828E+00   -3.815E+00   -3.803E+00   -3.790E+00
    -3.778E+00   -3.765E+00   -3.753E+00   -3.741E+00   -3.728E+00   -3.716E+00   -3.704E+00   -3.692E+00   -3.680E+00   -3.668E+00
    -3.656E+00   -3.644E+00   -3.633E+00   -3.621E+00   -3.609E+00   -3.598E+00   -3.586E+00   -3.575E+00   -3.563E+00   -3.552E+00
    -3.540E+00   -3.529E+00   -3.518E+00   -3.507E+00   -3.496E+00   -3.485E+00   -3.474E+00   -3.463E+00   -3.453E+00   -3.442E+00
    -3.431E+00   -3.421E+00   -3.410E+00   -3.400E+00   -3.390E+00   -3.379E+00   -3.369E+00   -3.359E+00   -3.349E+00   -3.339E+00
    -3.329E+00   -3.320E+00   -3.310E+00   -3.300E+00   -3.291E+00   -3.281E+00   -3.272E+00   -3.263E+00   -3.254E+00   -3.245E+00
    -3.236E+00   -3.227E+00   -3.218E+00   -3.209E+00   -3.200E+00   -3.192E+00   -3.183E+00   -3.175E+00   -3.167E+00   -3.158E+00
    -3.150E+00   -3.142E+00   -3.134E+00   -3.126E+00   -3.118E+00   -3.111E+00   -3.103E+00   -3.095E+00   -3.088E+00   -3.080E+00
    -3.073E+00   -3.066E+00   -3.059E+00   -3.052E+00   -3.045E+00   -3.038E+00   -3.031E+00   -3.024E+00   -3.017E+00   -3.011E+00
    -3.004E+00   -2.998E+00   -2.991E+00   -2.985E+00   -2.979E+00   -2.973E+00   -2.967E+00   -2.961E+00   -2.955E+00   -2.949E+00
    -2.944E+00   -2.938E+00   -2.932E+00   -2.927E+00   -2.922E+00   -2.916E+00   -2.911E+00   -2.906E+00   -2.901E+00   -2.896E+00
    -2.891E+00   -2.886E+00   -2.881E+00   -2.877E+00   -2.872E+00   -2.867E+00   -2.863E+00   -2.858E+00   -2.854E+00   -2.850E+00
    -2.846E+00   -2.841E+00   -2.837E+00   -2.833E+00   -2.829E+00   -2.825E+00   -2.821E+00   -2.818E+00   -2.814E+00   -2.810E+00
    -2.806E+00   -2.803E+00   -2.799E+00   -2.796E+00   -2.792E+00   -2.789E+00   -2.786E+00   -2.782E+00   -2.779E+00   -2.776E+00
    -2.773E+00   -2.770E+00   -2.767E+00   -2.764E+00   -2.761E+00   -2.758E+00   -2.755E+00   -2.752E+00   -2.749E+00   -2.746E+00
    -2.744E+00   -2.741E+00   -2.738E+00   -2.736E+00   -2.733E+00   -2.730E+00   -2.728E+00   -2.725E+00   -2.723E+00   -2.721E+00
    -2.718E+00   -2.716E+00   -2.713E+00   -2.711E+00   -2.709E+00   -2.707E+00   -2.704E+00   -2.702E+00   -2.700E+00   -2.698E+00
    -2.696E+00   -2.694E+00   -2.692E+00   -2.689E+00   -2.687E+00   -2.685E+00   -2.683E+00   -2.681E+00   -2.679E+00   -2.678E+00
    -2.676E+00   -2.674E+00   -2.672E+00   -2.670E+00   -2.668E+00   -2.666E+00   -2.664E+00   -2.663E+00   -2.661E+00   -2.659E+00
    -2.657E+00   -2.655E+00   -2.654E+00   -2.652E+00   -2.650E+00   -2.648E+00   -2.646E+00   -2.645E+00   -2.643E+00   -2.641E+00
    -2.640E+00   -2.638E+00   -2.636E+00   -2.634E+00   -2.633E+00   -2.631E+00   -2.629E+00   -2.627E+00   -2.626E+00   -2.624E+00
    -2.622E+00   -2.620E+00   -2.619E+00   -2.617E+00   -2.615E+00   -2.613E+00   -2.612E+00   -2.610E+00   -2.608E+00   -2.606E+00
    -2.605E+00   -2.603E+00   -2.601E+00   -2.599E+00   -2.597E+00   -2.596E+00   -2.594E+00   -2.592E+00   -2.590E+00   -2.588E+00
    -2.586E+00   -2.584E+00   -2.582E+00   -2.580E+00   -2.578E+00   -2.576E+00   -2.574E+00   -2.572E+00   -2.570E+00   -2.568E+00
    -2.566E+00   -2.564E+00   -2.562E+00   -2.560E+00   -2.558E+00   -2.555E+00   -2.553E+00   -2.551E+00   -2.549E+00   -2.546E+00
    -2.544E+00   -2.542E+00   -2.539E+00   -2.537E+00   -2.535E+00   -2.532E+00   -2.530E+00   -2.527E+00   -2.525E+00   -2.522E+00
    -2.520E+00   -2.517E+00   -2.515E+00   -2.512E+00   -2.509E+00   -2.507E+00   -2.504E+00   -2.501E+00   -2.499E+00   -2.496E+00
    -2.493E+00   -2.490E+00   -2.487E+00   -2.485E+00   -2.482E+00   -2.479E+00   -2.476E+00   -2.473E+00   -2.470E+00   -2.467E+00
    -2.464E+00   -2.461E+00   -2.457E+00   -2.454E+00   -2.451E+00   -2.448E+00   -2.445E+00   -2.441E+00   -2.438E+00   -2.435E+00
    -2.431E+00   -2.428E+00   -2.424E+00   -2.421E+00   -2.417E+00   -2.414E+00   -2.410E+00   -2.407E+00   -2.403E+00   -2.400E+00
    -2.396E+00   -2.392E+00   -2.389E+00   -2.385E+00   -2.381E+00   -2.377E+00   -2.374E+00   -2.370E+00   -2.366E+00   -2.362E+00
    -2.358E+00   -2.354E+00   -2.351E+00   -2.347E+00   -2.343E+00   -2.339E+00   -2.335E+00   -2.331E+00   -2.327E+00   -2.323E+00
    -2.318E+00   -2.314E+00   -2.310E+00   -2.306E+00   -2.302E+00   -2.298E+00   -2.294E+00   -2.289E+00   -2.285E+00   -2.281E+00
    -2.277E+00   -2.272E+00   -2.268E+00   -2.264E+00   -2.260E+00   -2.255E+00   -2.251E+00   -2.247E+00   -2.242E+00   -2.238E+00
    -2.233E+00   -2.229E+00   -2.225E+00   -2.220E+00   -2.216E+00   -2.211E+00   -2.207E+00   -2.202E+00   -2.198E+00   -2.193E+00
    -2.189E+00   -2.184E+00   -2.180E+00   -2.175E+00   -2.170E+00   -2.166E+00   -2.161E+00   -2.157E+00   -2.152E+00   -2.147E+00
    -2.143E+00   -2.138E+00   -2.133E+00   -2.129E+00   -2.124E+00   -2.119E+00   -2.115E+00   -2.110E+00   -2.105E+00   -2.101E+00
    -2.096E+00   -2.091E+00   -2.086E+00   -2.082E+00   -2.077E+00   -2.072E+00   -2.067E+00   -2.063E+00   -2.058E+00   -2.053E+00
    -2.048E+00   -2.043E+00   -2.039E+00   -2.034E+00   -2.029E+00   -2.024E+00   -2.019E+00   -2.015E+00   -2.010E+00   -2.005E+00
    -2.000E+00   -1.995E+00   -1.990E+00   -1.986E+00   -1.981E+00   -1.976E+00   -1.971E+00   -1.966E+00   -1.961E+00   -1.956E+00
    -1.952E+00   -1.947E+00   -1.942E+00   -1.937E+00   -1.932E+00   -1.927E+00   -1.922E+00   -1.917E+00   -1.913E+00   -1.908E+00
    -1.903E+00   -1.898E+00   -1.893E+00   -1.888E+00   -1.883E+00   -1.878E+00   -1.873E+00   -1.869E+00
 Asp      Conc. = 7.74E+00
