 LCModel (Version 6.3-1L) Copyright: S.W. Provencher.          Ref.: Magn. Reson. Med. 30:672-679 (1993).                
 Slice#1 Row#2 Col#12  PD_05_press_1_raw_act
 36 lines in following concentration table = NCONC+1
    Conc.  %SD /Cr+PCr  Metabolite                                         
 7.75E+03  14%   0.000 Ala                                                 
   13.740 121%   0.000 Asp                                                 
    0.000 999%   0.000 Cr                                                  
    0.000 999%   0.000 PCr                                                 
    8.003 125%   0.000 GABA                                                
    7.943 126%   0.000 Glc                                                 
    0.000 999%   0.000 Gln                                                 
 2.07E+03  33%   0.000 Glu                                                 
   16.468 132%   0.000 GPC                                                 
    0.000 999%   0.000 PCh                                                 
    0.000 999%   0.000 GSH                                                 
   56.101 417%   0.000 Ins                                                 
 1.74E+03 109%   0.000 Lac                                                 
  213.967  48%   0.000 NAA                                                 
    0.000 999%   0.000 NAAG                                                
    3.017 109%   0.000 Scyllo                                              
   13.775 119%   0.000 Tau                                                 
    0.143 999%   0.000 -CrCH2                                              
   16.468 132%   0.000 GPC+PCh                                             
  213.967  48%   0.000 NAA+NAAG                                            
    0.000 999%   0.000 Cr+PCr                                              
 2.07E+03  33%   0.000 Glu+Gln                                             
 6.12E+03  33%   0.000 Lip13a                                              
    0.000 999%   0.000 Lip13b                                              
 4.03E+03  18%   0.000 Lip09                                               
 4.65E+03  15%   0.000 MM09                                                
  594.084  66%   0.000 Lip20                                               
 1.08E+03  42%   0.000 MM20                                                
 3.33E+03  22%   0.000 MM12                                                
 2.72E+04   9%   0.000+MM14                                                
 1.23E+04  17%   0.000 MM17                                                
 6.12E+03  33%   0.000 Lip13a+Lip13b                                       
 3.67E+04   9%   0.000 MM14+Lip13a+Lip13b+MM12                             
 8.68E+03   9%   0.000 MM09+Lip09                                          
 1.67E+03  26%   0.000 MM20+Lip20                                          
   6 lines in following misc. output table
  FWHM = 0.153 ppm    S/N =  32                                            
  Data shift = 0.359 ppm                                                   
  Ph: 101 deg      25.5 deg/ppm                                            
  alphaB,S = 1.0E+01,   3.0E+02                                            
    6 spline knots.   Ns = 9(2)                                            
  (13) 2 infls.   ( 1) 1 extrs.                                            
  498 points on ppm-axis = NY
      4.000000     3.992357     3.984714     3.977070     3.969427     3.961784     3.954141     3.946497     3.938854     3.931211
      3.923568     3.915925     3.908281     3.900638     3.892995     3.885352     3.877708     3.870065     3.862422     3.854779
      3.847136     3.839492     3.831849     3.824206     3.816563     3.808919     3.801276     3.793633     3.785990     3.778347
      3.770703     3.763060     3.755417     3.747774     3.740130     3.732487     3.724844     3.717201     3.709558     3.701914
      3.694271     3.686628     3.678985     3.671341     3.663698     3.656055     3.648412     3.640769     3.633125     3.625482
      3.617839     3.610196     3.602552     3.594909     3.587266     3.579623     3.571980     3.564336     3.556693     3.549050
      3.541407     3.533763     3.526120     3.518477     3.510834     3.503191     3.495547     3.487904     3.480261     3.472618
      3.464974     3.457331     3.449688     3.442045     3.434402     3.426758     3.419115     3.411472     3.403829     3.396185
      3.388542     3.380899     3.373256     3.365613     3.357969     3.350326     3.342683     3.335040     3.327396     3.319753
      3.312110     3.304467     3.296824     3.289180     3.281537     3.273894     3.266251     3.258607     3.250964     3.243321
      3.235678     3.228034     3.220391     3.212748     3.205105     3.197462     3.189818     3.182175     3.174532     3.166889
      3.159245     3.151602     3.143959     3.136316     3.128673     3.121029     3.113386     3.105743     3.098100     3.090456
      3.082813     3.075170     3.067527     3.059884     3.052240     3.044597     3.036954     3.029311     3.021667     3.014024
      3.006381     2.998738     2.991095     2.983451     2.975808     2.968165     2.960522     2.952878     2.945235     2.937592
      2.929949     2.922306     2.914662     2.907019     2.899376     2.891733     2.884089     2.876446     2.868803     2.861160
      2.853517     2.845873     2.838230     2.830587     2.822944     2.815300     2.807657     2.800014     2.792371     2.784728
      2.777084     2.769441     2.761798     2.754155     2.746511     2.738868     2.731225     2.723582     2.715939     2.708295
      2.700652     2.693009     2.685366     2.677722     2.670079     2.662436     2.654793     2.647150     2.639506     2.631863
      2.624220     2.616577     2.608933     2.601290     2.593647     2.586004     2.578361     2.570717     2.563074     2.555431
      2.547788     2.540144     2.532501     2.524858     2.517215     2.509572     2.501928     2.494285     2.486642     2.478999
      2.471355     2.463712     2.456069     2.448426     2.440783     2.433139     2.425496     2.417853     2.410210     2.402566
      2.394923     2.387280     2.379637     2.371994     2.364350     2.356707     2.349064     2.341421     2.333777     2.326134
      2.318491     2.310848     2.303205     2.295561     2.287918     2.280275     2.272632     2.264988     2.257345     2.249702
      2.242059     2.234416     2.226772     2.219129     2.211486     2.203843     2.196199     2.188556     2.180913     2.173270
      2.165627     2.157983     2.150340     2.142697     2.135054     2.127410     2.119767     2.112124     2.104481     2.096838
      2.089194     2.081551     2.073908     2.066265     2.058621     2.050978     2.043335     2.035692     2.028049     2.020405
      2.012762     2.005119     1.997476     1.989833     1.982190     1.974546     1.966903     1.959260     1.951617     1.943974
      1.936331     1.928688     1.921045     1.913402     1.905759     1.898115     1.890472     1.882829     1.875186     1.867543
      1.859900     1.852257     1.844614     1.836971     1.829327     1.821684     1.814041     1.806398     1.798755     1.791112
      1.783469     1.775826     1.768183     1.760540     1.752896     1.745253     1.737610     1.729967     1.722324     1.714681
      1.707038     1.699395     1.691752     1.684108     1.676465     1.668822     1.661179     1.653536     1.645893     1.638250
      1.630607     1.622964     1.615321     1.607677     1.600034     1.592391     1.584748     1.577105     1.569462     1.561819
      1.554176     1.546533     1.538890     1.531246     1.523603     1.515960     1.508317     1.500674     1.493031     1.485388
      1.477745     1.470102     1.462458     1.454815     1.447172     1.439529     1.431886     1.424243     1.416600     1.408957
      1.401314     1.393671     1.386027     1.378384     1.370741     1.363098     1.355455     1.347812     1.340169     1.332526
      1.324883     1.317240     1.309596     1.301953     1.294310     1.286667     1.279024     1.271381     1.263738     1.256095
      1.248452     1.240808     1.233165     1.225522     1.217879     1.210236     1.202593     1.194950     1.187307     1.179664
      1.172021     1.164377     1.156734     1.149091     1.141448     1.133805     1.126162     1.118519     1.110876     1.103233
      1.095590     1.087946     1.080303     1.072660     1.065017     1.057374     1.049731     1.042088     1.034445     1.026802
      1.019158     1.011515     1.003872     0.996229     0.988586     0.980943     0.973300     0.965657     0.958014     0.950371
      0.942727     0.935084     0.927441     0.919798     0.912155     0.904512     0.896869     0.889226     0.881583     0.873940
      0.866296     0.858653     0.851010     0.843367     0.835724     0.828081     0.820438     0.812795     0.805152     0.797508
      0.789865     0.782222     0.774579     0.766936     0.759293     0.751650     0.744007     0.736364     0.728721     0.721077
      0.713434     0.705791     0.698148     0.690505     0.682862     0.675219     0.667576     0.659933     0.652290     0.644646
      0.637003     0.629360     0.621717     0.614074     0.606431     0.598788     0.591145     0.583502     0.575858     0.568215
      0.560572     0.552929     0.545286     0.537643     0.530000     0.522357     0.514714     0.507071     0.499427     0.491784
      0.484141     0.476498     0.468855     0.461212     0.453569     0.445925     0.438282     0.430639     0.422996     0.415353
      0.407710     0.400067     0.392424     0.384780     0.377137     0.369494     0.361851     0.354208     0.346565     0.338922
      0.331278     0.323635     0.315992     0.308349     0.300706     0.293063     0.285420     0.277777     0.270133     0.262490
      0.254847     0.247204     0.239561     0.231918     0.224275     0.216631     0.208988     0.201345
 NY phased data points follow
  -6.76071E+00 -7.37317E+00 -8.78872E+00 -8.18138E+00 -7.95938E+00 -7.29306E+00 -7.49951E+00 -8.16233E+00 -7.93563E+00 -7.83561E+00
  -7.87358E+00 -7.40233E+00 -8.59613E+00 -6.66275E+00 -7.87190E+00 -8.78069E+00 -5.25380E+00 -1.00379E+01 -6.80097E+00 -6.17900E+00
  -8.48054E+00 -7.33906E+00 -7.49103E+00 -6.26332E+00 -9.09979E+00 -1.05474E+01 -7.40594E+00 -8.39624E+00 -8.22603E+00 -7.97475E+00
  -8.35972E+00 -8.28546E+00 -5.22037E+00 -7.41956E+00 -6.77034E+00 -6.95138E+00 -9.00801E+00 -5.98578E+00 -6.45701E+00 -7.47893E+00
  -8.81383E+00 -1.02517E+01 -6.64186E+00 -5.64828E+00 -6.63555E+00 -9.62823E+00 -7.51854E+00 -8.73115E+00 -6.04398E+00 -6.14124E+00
  -7.25797E+00 -5.09621E+00 -7.85421E+00 -6.61567E+00 -7.72154E+00 -5.31209E+00 -7.16158E+00 -6.50423E+00 -6.66518E+00 -4.72159E+00
  -7.02156E+00 -7.75496E+00 -7.21449E+00 -5.56753E+00 -9.78136E+00 -6.09002E+00 -7.84254E+00 -7.37015E+00 -1.15117E+01 -7.28433E+00
  -6.80701E+00 -8.26348E+00 -7.44658E+00 -7.77312E+00 -7.17516E+00 -8.59648E+00 -9.29319E+00 -7.29649E+00 -3.82646E+00 -5.44165E+00
  -5.98820E+00 -3.63547E+00 -5.30148E+00 -5.66237E+00 -6.40649E+00 -4.59193E+00 -5.36058E+00 -8.48911E+00 -8.27408E+00 -7.12872E+00
  -9.05770E+00 -5.83791E+00 -6.49009E+00 -5.93141E+00 -5.51004E+00 -6.49858E+00 -5.42030E+00 -9.18250E+00 -7.05849E+00 -6.43201E+00
  -3.73244E+00 -5.70063E+00 -8.10387E+00 -5.83508E+00 -6.52172E+00 -3.59494E+00 -7.08268E+00 -3.94468E+00 -8.68202E+00 -7.57920E+00
  -7.31021E+00 -3.80908E+00 -5.38183E+00 -4.42445E+00 -6.14130E+00 -3.64635E+00 -5.03439E+00 -3.25724E+00 -4.81985E+00 -8.03272E+00
  -5.05382E+00 -4.55067E+00 -5.29076E+00 -4.15652E+00 -5.32931E+00 -6.96604E+00 -5.48684E+00 -7.11966E+00 -6.26266E+00 -7.80064E+00
  -6.75175E+00 -5.96811E+00 -9.61438E+00 -4.53940E+00 -5.14197E+00 -3.49012E+00 -5.63859E+00 -5.03566E+00 -5.49854E+00 -4.46305E+00
  -5.09340E+00 -5.75226E+00 -5.35496E+00 -3.45742E+00 -6.77246E+00 -1.68297E+00 -4.20091E+00 -5.34636E+00 -5.77334E+00 -5.20166E+00
  -4.73276E+00 -5.24810E+00 -6.19368E+00 -6.02751E+00 -6.60935E+00 -3.27214E+00 -4.31271E+00 -3.89049E+00 -3.81978E+00 -3.56431E+00
  -7.53007E+00 -2.69298E+00 -1.40500E+00 -4.97651E+00 -4.88635E+00 -3.54783E+00 -4.98301E+00 -5.32322E+00 -3.60875E+00 -4.79152E+00
  -3.82179E+00 -1.78060E+00 -3.94497E+00 -7.44756E+00 -4.68299E+00 -5.43882E+00 -3.01573E+00 -3.47843E+00 -9.58058E-01 -2.83926E+00
  -3.17636E+00 -3.37607E+00 -3.77348E+00 -4.42910E+00 -4.69199E+00 -2.17966E+00 -3.10681E+00 -2.78104E+00 -3.35316E+00 -4.10797E+00
  -1.44602E+00 -2.13026E+00 -2.34114E+00 -3.41943E+00 -2.49070E+00 -2.10851E+00 -3.16024E+00 -4.39018E+00 -4.84249E-01 -2.08839E+00
  -3.49155E+00 -4.30521E+00 -2.89439E+00 -2.07994E+00 -4.13085E+00 -1.55303E+00  1.50020E-01 -1.20545E+00 -2.63630E+00 -2.93846E+00
  -8.66373E-01 -1.26974E+00 -3.61001E-01  1.70076E+00  1.82311E+00 -3.69383E-01 -3.17032E+00 -5.13765E-01 -1.25816E+00 -5.62027E-01
  -3.30794E+00 -2.42213E+00  4.98522E-01 -3.55092E+00 -1.68143E+00 -1.82109E+00 -5.99966E-01 -1.61969E-01  7.93758E-01  2.34774E+00
   1.98868E+00 -8.46232E-01  4.05683E+00  3.82866E+00  4.30278E+00  2.67127E+00  7.36592E+00  6.49284E+00  6.90718E+00  8.54150E+00
   5.40908E+00  6.17476E+00  8.44646E+00  9.09863E+00  9.97120E+00  7.99482E+00  9.44431E+00  1.41646E+01  1.05486E+01  1.15455E+01
   1.09212E+01  1.35359E+01  1.11567E+01  1.52372E+01  1.39735E+01  1.65167E+01  1.63633E+01  1.56919E+01  1.80701E+01  1.67875E+01
   1.77904E+01  1.69789E+01  2.07394E+01  1.90439E+01  2.21202E+01  2.13343E+01  2.10195E+01  2.36499E+01  2.60084E+01  2.59799E+01
   2.48815E+01  2.70426E+01  2.75425E+01  2.75687E+01  3.05123E+01  3.10154E+01  3.18982E+01  3.12101E+01  3.61487E+01  3.84171E+01
   3.50054E+01  3.76815E+01  3.88483E+01  4.11598E+01  4.24555E+01  4.58877E+01  4.77465E+01  5.14331E+01  5.26488E+01  5.20153E+01
   5.43846E+01  6.07509E+01  5.91327E+01  6.37769E+01  6.48170E+01  7.16333E+01  7.08995E+01  7.70249E+01  7.63111E+01  8.28891E+01
   8.63425E+01  8.80667E+01  9.27612E+01  9.42656E+01  1.00168E+02  1.06195E+02  1.09017E+02  1.13675E+02  1.16779E+02  1.23609E+02
   1.24789E+02  1.29098E+02  1.36563E+02  1.36059E+02  1.37946E+02  1.41058E+02  1.39200E+02  1.39204E+02  1.38527E+02  1.33769E+02
   1.27146E+02  1.24839E+02  1.19444E+02  1.13360E+02  1.11524E+02  1.08316E+02  1.06265E+02  1.01168E+02  9.79883E+01  9.65125E+01
   9.52681E+01  9.26754E+01  9.10470E+01  8.48149E+01  8.41301E+01  8.02986E+01  7.73890E+01  7.57553E+01  6.89470E+01  6.85104E+01
   6.44993E+01  6.34042E+01  6.12772E+01  5.98114E+01  5.91561E+01  5.40160E+01  5.45446E+01  5.26575E+01  4.74632E+01  4.71652E+01
   5.07943E+01  4.37544E+01  4.50465E+01  4.67500E+01  4.50038E+01  4.23495E+01  4.50141E+01  4.36535E+01  4.06327E+01  4.06295E+01
   4.11815E+01  4.25542E+01  4.15500E+01  4.03270E+01  4.04767E+01  4.21405E+01  4.14186E+01  4.42171E+01  4.12452E+01  3.90649E+01
   4.01560E+01  4.05439E+01  3.77002E+01  3.86661E+01  3.87079E+01  4.09802E+01  3.92130E+01  3.80144E+01  3.62985E+01  3.78470E+01
   3.88734E+01  3.49230E+01  3.74060E+01  3.66743E+01  3.57036E+01  3.20316E+01  3.15603E+01  3.17267E+01  3.14951E+01  3.17259E+01
   3.00751E+01  3.14527E+01  3.12657E+01  2.98878E+01  3.02337E+01  2.57777E+01  2.91270E+01  2.66010E+01  2.48822E+01  2.63630E+01
   2.62151E+01  2.53346E+01  2.25570E+01  2.45151E+01  2.15905E+01  2.32466E+01  1.90608E+01  1.85518E+01  1.76578E+01  1.79799E+01
   1.61744E+01  1.55782E+01  1.38101E+01  1.49527E+01  1.24911E+01  1.33561E+01  1.20105E+01  1.35441E+01  1.15559E+01  8.75494E+00
   9.05163E+00  5.10621E+00  6.68239E+00  6.57221E+00  5.58214E+00  6.64541E+00  3.85286E+00  4.58663E+00  2.25763E+00  1.15333E+00
   3.16047E-01  2.52772E-02  6.43152E-01 -3.40294E+00 -1.57126E+00 -1.69664E+00 -4.05861E+00 -4.23257E+00 -2.90594E+00 -5.08938E+00
  -5.62526E+00 -6.66548E+00 -5.87075E+00 -9.17133E+00 -6.99523E+00 -8.23678E+00 -9.87869E+00 -9.75400E+00 -8.99695E+00 -1.04256E+01
  -1.23231E+01 -1.25161E+01 -1.05814E+01 -1.32535E+01 -1.24720E+01 -1.32490E+01 -1.35774E+01 -1.35203E+01 -1.60480E+01 -1.52402E+01
  -1.82552E+01 -1.54880E+01 -1.90612E+01 -1.76482E+01 -1.62604E+01 -1.71948E+01 -1.78973E+01 -2.14354E+01 -1.95761E+01 -2.00476E+01
  -1.82484E+01 -1.86103E+01 -1.95710E+01 -1.98388E+01 -2.07847E+01 -1.94264E+01 -2.00092E+01 -1.89052E+01 -2.36317E+01 -2.14947E+01
  -2.25904E+01 -2.56389E+01 -2.31771E+01 -2.24553E+01 -2.28294E+01 -2.11640E+01 -2.30462E+01 -2.32063E+01 -2.18216E+01 -2.21083E+01
  -2.48069E+01 -2.36017E+01 -2.41001E+01 -2.23470E+01 -2.18573E+01 -2.32126E+01 -2.36044E+01 -2.22096E+01
 NY points of the fit to the data follow
  -8.23782E+00 -7.98030E+00 -8.44679E+00 -8.21349E+00 -8.62542E+00 -8.21700E+00 -8.43081E+00 -7.60898E+00 -7.87640E+00 -6.92489E+00
  -7.36019E+00 -6.36379E+00 -7.11713E+00 -6.19248E+00 -7.43739E+00 -6.40033E+00 -7.82301E+00 -6.84087E+00 -8.38238E+00 -7.41585E+00
  -8.87564E+00 -7.84027E+00 -9.00247E+00 -7.96011E+00 -8.69104E+00 -7.80802E+00 -8.16259E+00 -7.54861E+00 -7.55759E+00 -7.32632E+00
  -7.13454E+00 -7.31574E+00 -6.96464E+00 -7.50130E+00 -7.02467E+00 -7.78968E+00 -7.13047E+00 -7.89149E+00 -6.99452E+00 -7.71083E+00
  -6.81464E+00 -7.50491E+00 -6.69205E+00 -7.42202E+00 -6.78248E+00 -7.51625E+00 -6.91786E+00 -7.38671E+00 -6.90078E+00 -7.29534E+00
  -6.93922E+00 -7.26148E+00 -7.04785E+00 -7.37804E+00 -7.34490E+00 -7.46806E+00 -7.34674E+00 -7.37672E+00 -7.27072E+00 -7.26059E+00
  -7.18667E+00 -7.15521E+00 -7.14559E+00 -7.14915E+00 -7.14500E+00 -7.14909E+00 -7.14325E+00 -7.14667E+00 -7.13527E+00 -7.13686E+00
  -7.12140E+00 -7.12382E+00 -7.10622E+00 -7.10935E+00 -7.08915E+00 -7.09389E+00 -7.07252E+00 -7.07906E+00 -7.05684E+00 -7.06453E+00
  -7.04149E+00 -7.04745E+00 -7.02393E+00 -7.02493E+00 -6.98819E+00 -6.95502E+00 -6.91826E+00 -6.85699E+00 -6.82466E+00 -6.72891E+00
  -6.70581E+00 -6.57590E+00 -6.57216E+00 -6.41894E+00 -6.44127E+00 -6.28142E+00 -6.32923E+00 -6.17240E+00 -6.24059E+00 -6.09701E+00
  -6.17600E+00 -6.04719E+00 -6.13141E+00 -6.02053E+00 -6.10164E+00 -6.00645E+00 -6.07702E+00 -5.99150E+00 -6.04752E+00 -5.97265E+00
  -6.01422E+00 -5.95010E+00 -5.97510E+00 -5.92076E+00 -5.92645E+00 -5.87754E+00 -5.86156E+00 -5.80967E+00 -5.77624E+00 -5.72255E+00
  -5.67756E+00 -5.62455E+00 -5.57320E+00 -5.52416E+00 -5.46235E+00 -5.40397E+00 -5.34323E+00 -5.28744E+00 -5.23069E+00 -5.17918E+00
  -5.12750E+00 -5.08101E+00 -5.03477E+00 -4.99328E+00 -4.95218E+00 -4.91535E+00 -4.87892E+00 -4.84605E+00 -4.81334E+00 -4.78324E+00
  -4.75296E+00 -4.72455E+00 -4.69690E+00 -4.67308E+00 -4.64681E+00 -4.62545E+00 -4.59843E+00 -4.57685E+00 -4.55141E+00 -4.53173E+00
  -4.50812E+00 -4.48945E+00 -4.46823E+00 -4.44970E+00 -4.43302E+00 -4.41617E+00 -4.40610E+00 -4.39302E+00 -4.39248E+00 -4.38467E+00
  -4.38815E+00 -4.38549E+00 -4.39259E+00 -4.39883E+00 -4.40681E+00 -4.41937E+00 -4.42321E+00 -4.44009E+00 -4.43802E+00 -4.45985E+00
  -4.44771E+00 -4.46658E+00 -4.44303E+00 -4.45605E+00 -4.42164E+00 -4.42668E+00 -4.37904E+00 -4.37072E+00 -4.30834E+00 -4.28063E+00
  -4.20702E+00 -4.15928E+00 -4.07686E+00 -4.01105E+00 -3.92074E+00 -3.83167E+00 -3.72447E+00 -3.60376E+00 -3.47303E+00 -3.34980E+00
  -3.21491E+00 -3.08522E+00 -3.00894E+00 -2.87996E+00 -2.87389E+00 -2.72695E+00 -2.75854E+00 -2.50948E+00 -2.42239E+00 -2.10373E+00
  -1.97777E+00 -1.62977E+00 -1.44522E+00 -1.16230E+00 -1.05270E+00 -9.62227E-01 -8.87707E-01 -9.29544E-01 -9.79966E-01 -1.13985E+00
  -1.29271E+00 -1.49006E+00 -1.68309E+00 -1.80190E+00 -1.94838E+00 -1.89776E+00 -1.97185E+00 -1.72860E+00 -1.68489E+00 -1.26119E+00
  -1.11755E+00 -5.85809E-01 -4.08981E-01  1.59330E-01  3.08089E-01  8.24913E-01  9.55162E-01  1.44135E+00  1.64311E+00  2.08450E+00
   2.45519E+00  2.84570E+00  3.32810E+00  3.60831E+00  4.16953E+00  4.34768E+00  4.96662E+00  5.08719E+00  5.83986E+00  5.93389E+00
   6.68302E+00  6.81371E+00  7.67886E+00  7.94254E+00  8.74714E+00  9.10780E+00  9.93552E+00  1.04829E+01  1.12749E+01  1.20173E+01
   1.27181E+01  1.36044E+01  1.41278E+01  1.50743E+01  1.53609E+01  1.63245E+01  1.63911E+01  1.73517E+01  1.72875E+01  1.82579E+01
   1.81282E+01  1.91143E+01  1.89862E+01  1.99803E+01  1.99316E+01  2.09344E+01  2.10246E+01  2.20775E+01  2.23494E+01  2.34505E+01
   2.39262E+01  2.50904E+01  2.57696E+01  2.70045E+01  2.79332E+01  2.93000E+01  3.04834E+01  3.19892E+01  3.34083E+01  3.50429E+01
   3.66428E+01  3.84081E+01  4.02448E+01  4.21676E+01  4.41485E+01  4.61902E+01  4.83032E+01  5.04478E+01  5.26701E+01  5.49290E+01
   5.72631E+01  5.96404E+01  6.20966E+01  6.46077E+01  6.72042E+01  6.98813E+01  7.26611E+01  7.55403E+01  7.85358E+01  8.16484E+01
   8.48892E+01  8.82593E+01  9.17618E+01  9.54008E+01  9.91818E+01  1.03117E+02  1.07242E+02  1.11648E+02  1.16596E+02  1.22140E+02
   1.26281E+02  1.31303E+02  1.34111E+02  1.38220E+02  1.38845E+02  1.41033E+02  1.38461E+02  1.39442E+02  1.34994E+02  1.34140E+02
   1.28266E+02  1.26072E+02  1.19870E+02  1.17003E+02  1.11792E+02  1.08775E+02  1.04999E+02  1.01594E+02  9.93385E+01  9.59176E+01
   9.46741E+01  9.07457E+01  8.97921E+01  8.53412E+01  8.44226E+01  7.92705E+01  7.80397E+01  7.28145E+01  7.15949E+01  6.68374E+01
   6.60119E+01  6.21697E+01  6.14149E+01  5.82639E+01  5.74284E+01  5.47568E+01  5.36706E+01  5.14156E+01  5.05209E+01  4.95342E+01
   4.84182E+01  4.76600E+01  4.64970E+01  4.59021E+01  4.47022E+01  4.39004E+01  4.24815E+01  4.23563E+01  4.16792E+01  4.18930E+01
   4.16131E+01  4.19965E+01  4.18716E+01  4.21796E+01  4.20548E+01  4.21089E+01  4.18945E+01  4.16749E+01  4.14377E+01  4.12380E+01
   4.08278E+01  4.04009E+01  3.98722E+01  3.92794E+01  3.86663E+01  3.78954E+01  3.72455E+01  3.66684E+01  3.61423E+01  3.56641E+01
   3.52341E+01  3.48517E+01  3.45140E+01  3.42154E+01  3.39472E+01  3.36984E+01  3.34557E+01  3.32050E+01  3.29316E+01  3.26216E+01
   3.22623E+01  3.18433E+01  3.13568E+01  3.07980E+01  3.01658E+01  2.94619E+01  2.86914E+01  2.78619E+01  2.69832E+01  2.60666E+01
   2.51242E+01  2.41684E+01  2.32110E+01  2.22627E+01  2.13327E+01  2.04283E+01  1.95548E+01  1.87153E+01  1.79106E+01  1.71397E+01
   1.63994E+01  1.56856E+01  1.49926E+01  1.43142E+01  1.36438E+01  1.29747E+01  1.23006E+01  1.16158E+01  1.09154E+01  1.01955E+01
   9.45356E+00  8.68788E+00  7.89811E+00  7.08501E+00  6.25032E+00  5.39667E+00  4.52738E+00  3.64637E+00  2.75789E+00  1.86641E+00
   9.76425E-01  9.23175E-02 -7.81772E-01 -1.64201E+00 -2.48499E+00 -3.30776E+00 -4.10786E+00 -4.88333E+00 -5.63269E+00 -6.35491E+00
  -7.04941E+00 -7.71595E+00 -8.35468E+00 -8.96599E+00 -9.55053E+00 -1.01091E+01 -1.06427E+01 -1.11524E+01 -1.16393E+01 -1.21047E+01
  -1.25497E+01 -1.29755E+01 -1.33834E+01 -1.37743E+01 -1.41495E+01 -1.45100E+01 -1.48568E+01 -1.51907E+01 -1.55127E+01 -1.58237E+01
  -1.61243E+01 -1.64153E+01 -1.66973E+01 -1.69710E+01 -1.72370E+01 -1.74957E+01 -1.77476E+01 -1.79932E+01 -1.82330E+01 -1.84672E+01
  -1.86963E+01 -1.89205E+01 -1.91403E+01 -1.93558E+01 -1.95674E+01 -1.97752E+01 -1.99794E+01 -2.01804E+01 -2.03783E+01 -2.05732E+01
  -2.07654E+01 -2.09549E+01 -2.11419E+01 -2.13266E+01 -2.15091E+01 -2.16894E+01 -2.18676E+01 -2.20439E+01 -2.22184E+01 -2.23911E+01
  -2.25620E+01 -2.27312E+01 -2.28988E+01 -2.30647E+01 -2.32291E+01 -2.33917E+01 -2.35527E+01 -2.37120E+01
 NY background values follow
    -8.162E+00   -8.151E+00   -8.140E+00   -8.129E+00   -8.118E+00   -8.107E+00   -8.096E+00   -8.085E+00   -8.073E+00   -8.062E+00
    -8.051E+00   -8.041E+00   -8.030E+00   -8.019E+00   -8.008E+00   -7.997E+00   -7.986E+00   -7.975E+00   -7.964E+00   -7.953E+00
    -7.942E+00   -7.931E+00   -7.921E+00   -7.910E+00   -7.899E+00   -7.888E+00   -7.877E+00   -7.867E+00   -7.856E+00   -7.845E+00
    -7.835E+00   -7.824E+00   -7.813E+00   -7.802E+00   -7.792E+00   -7.781E+00   -7.771E+00   -7.760E+00   -7.749E+00   -7.739E+00
    -7.728E+00   -7.718E+00   -7.707E+00   -7.697E+00   -7.686E+00   -7.676E+00   -7.665E+00   -7.655E+00   -7.644E+00   -7.634E+00
    -7.623E+00   -7.613E+00   -7.603E+00   -7.592E+00   -7.582E+00   -7.572E+00   -7.561E+00   -7.551E+00   -7.541E+00   -7.530E+00
    -7.520E+00   -7.510E+00   -7.500E+00   -7.489E+00   -7.479E+00   -7.469E+00   -7.459E+00   -7.449E+00   -7.439E+00   -7.428E+00
    -7.418E+00   -7.408E+00   -7.398E+00   -7.388E+00   -7.378E+00   -7.368E+00   -7.358E+00   -7.348E+00   -7.338E+00   -7.328E+00
    -7.318E+00   -7.308E+00   -7.298E+00   -7.288E+00   -7.279E+00   -7.269E+00   -7.259E+00   -7.249E+00   -7.239E+00   -7.230E+00
    -7.220E+00   -7.210E+00   -7.200E+00   -7.191E+00   -7.181E+00   -7.171E+00   -7.161E+00   -7.152E+00   -7.142E+00   -7.133E+00
    -7.123E+00   -7.113E+00   -7.104E+00   -7.094E+00   -7.085E+00   -7.075E+00   -7.066E+00   -7.056E+00   -7.047E+00   -7.037E+00
    -7.028E+00   -7.019E+00   -7.009E+00   -7.000E+00   -6.991E+00   -6.981E+00   -6.972E+00   -6.963E+00   -6.953E+00   -6.944E+00
    -6.935E+00   -6.926E+00   -6.916E+00   -6.907E+00   -6.898E+00   -6.889E+00   -6.880E+00   -6.871E+00   -6.862E+00   -6.853E+00
    -6.844E+00   -6.835E+00   -6.826E+00   -6.817E+00   -6.808E+00   -6.799E+00   -6.790E+00   -6.781E+00   -6.772E+00   -6.763E+00
    -6.754E+00   -6.745E+00   -6.736E+00   -6.728E+00   -6.719E+00   -6.710E+00   -6.701E+00   -6.693E+00   -6.684E+00   -6.675E+00
    -6.667E+00   -6.658E+00   -6.649E+00   -6.641E+00   -6.632E+00   -6.624E+00   -6.615E+00   -6.607E+00   -6.598E+00   -6.590E+00
    -6.581E+00   -6.573E+00   -6.564E+00   -6.556E+00   -6.548E+00   -6.539E+00   -6.531E+00   -6.523E+00   -6.514E+00   -6.506E+00
    -6.498E+00   -6.490E+00   -6.481E+00   -6.473E+00   -6.465E+00   -6.457E+00   -6.449E+00   -6.442E+00   -6.434E+00   -6.426E+00
    -6.418E+00   -6.411E+00   -6.403E+00   -6.396E+00   -6.389E+00   -6.381E+00   -6.374E+00   -6.367E+00   -6.360E+00   -6.354E+00
    -6.347E+00   -6.340E+00   -6.334E+00   -6.328E+00   -6.322E+00   -6.316E+00   -6.310E+00   -6.304E+00   -6.298E+00   -6.293E+00
    -6.288E+00   -6.283E+00   -6.278E+00   -6.273E+00   -6.268E+00   -6.264E+00   -6.260E+00   -6.256E+00   -6.252E+00   -6.248E+00
    -6.245E+00   -6.242E+00   -6.239E+00   -6.236E+00   -6.233E+00   -6.231E+00   -6.229E+00   -6.227E+00   -6.225E+00   -6.224E+00
    -6.223E+00   -6.222E+00   -6.221E+00   -6.221E+00   -6.220E+00   -6.221E+00   -6.221E+00   -6.222E+00   -6.222E+00   -6.224E+00
    -6.225E+00   -6.227E+00   -6.229E+00   -6.231E+00   -6.234E+00   -6.237E+00   -6.240E+00   -6.244E+00   -6.248E+00   -6.252E+00
    -6.256E+00   -6.261E+00   -6.267E+00   -6.272E+00   -6.278E+00   -6.284E+00   -6.291E+00   -6.298E+00   -6.305E+00   -6.313E+00
    -6.321E+00   -6.329E+00   -6.338E+00   -6.347E+00   -6.357E+00   -6.367E+00   -6.377E+00   -6.388E+00   -6.399E+00   -6.411E+00
    -6.422E+00   -6.435E+00   -6.448E+00   -6.461E+00   -6.474E+00   -6.489E+00   -6.503E+00   -6.518E+00   -6.533E+00   -6.549E+00
    -6.565E+00   -6.582E+00   -6.599E+00   -6.617E+00   -6.635E+00   -6.654E+00   -6.673E+00   -6.692E+00   -6.712E+00   -6.733E+00
    -6.754E+00   -6.775E+00   -6.797E+00   -6.820E+00   -6.843E+00   -6.867E+00   -6.891E+00   -6.915E+00   -6.940E+00   -6.966E+00
    -6.992E+00   -7.019E+00   -7.046E+00   -7.074E+00   -7.102E+00   -7.131E+00   -7.161E+00   -7.191E+00   -7.221E+00   -7.252E+00
    -7.284E+00   -7.316E+00   -7.349E+00   -7.383E+00   -7.417E+00   -7.452E+00   -7.487E+00   -7.523E+00   -7.559E+00   -7.596E+00
    -7.634E+00   -7.673E+00   -7.711E+00   -7.751E+00   -7.791E+00   -7.832E+00   -7.874E+00   -7.916E+00   -7.959E+00   -8.002E+00
    -8.046E+00   -8.091E+00   -8.137E+00   -8.183E+00   -8.230E+00   -8.277E+00   -8.325E+00   -8.374E+00   -8.424E+00   -8.474E+00
    -8.525E+00   -8.576E+00   -8.629E+00   -8.682E+00   -8.736E+00   -8.790E+00   -8.845E+00   -8.901E+00   -8.958E+00   -9.015E+00
    -9.073E+00   -9.131E+00   -9.191E+00   -9.251E+00   -9.311E+00   -9.373E+00   -9.435E+00   -9.497E+00   -9.561E+00   -9.625E+00
    -9.689E+00   -9.754E+00   -9.820E+00   -9.887E+00   -9.954E+00   -1.002E+01   -1.009E+01   -1.016E+01   -1.023E+01   -1.030E+01
    -1.037E+01   -1.044E+01   -1.051E+01   -1.059E+01   -1.066E+01   -1.074E+01   -1.081E+01   -1.089E+01   -1.096E+01   -1.104E+01
    -1.111E+01   -1.119E+01   -1.127E+01   -1.135E+01   -1.143E+01   -1.151E+01   -1.159E+01   -1.167E+01   -1.175E+01   -1.183E+01
    -1.192E+01   -1.200E+01   -1.208E+01   -1.217E+01   -1.225E+01   -1.234E+01   -1.243E+01   -1.251E+01   -1.260E+01   -1.269E+01
    -1.278E+01   -1.287E+01   -1.295E+01   -1.304E+01   -1.313E+01   -1.323E+01   -1.332E+01   -1.341E+01   -1.350E+01   -1.359E+01
    -1.369E+01   -1.378E+01   -1.388E+01   -1.397E+01   -1.407E+01   -1.416E+01   -1.426E+01   -1.436E+01   -1.445E+01   -1.455E+01
    -1.465E+01   -1.475E+01   -1.485E+01   -1.495E+01   -1.505E+01   -1.515E+01   -1.525E+01   -1.535E+01   -1.545E+01   -1.556E+01
    -1.566E+01   -1.576E+01   -1.587E+01   -1.597E+01   -1.607E+01   -1.618E+01   -1.629E+01   -1.639E+01   -1.650E+01   -1.660E+01
    -1.671E+01   -1.682E+01   -1.693E+01   -1.704E+01   -1.714E+01   -1.725E+01   -1.736E+01   -1.747E+01   -1.758E+01   -1.769E+01
    -1.780E+01   -1.792E+01   -1.803E+01   -1.814E+01   -1.825E+01   -1.837E+01   -1.848E+01   -1.859E+01   -1.871E+01   -1.882E+01
    -1.894E+01   -1.905E+01   -1.917E+01   -1.928E+01   -1.940E+01   -1.951E+01   -1.963E+01   -1.975E+01   -1.986E+01   -1.998E+01
    -2.010E+01   -2.022E+01   -2.034E+01   -2.046E+01   -2.058E+01   -2.070E+01   -2.082E+01   -2.094E+01   -2.106E+01   -2.118E+01
    -2.130E+01   -2.142E+01   -2.154E+01   -2.166E+01   -2.178E+01   -2.191E+01   -2.203E+01   -2.215E+01   -2.228E+01   -2.240E+01
    -2.252E+01   -2.265E+01   -2.277E+01   -2.290E+01   -2.302E+01   -2.314E+01   -2.327E+01   -2.340E+01   -2.352E+01   -2.365E+01
    -2.377E+01   -2.390E+01   -2.403E+01   -2.415E+01   -2.428E+01   -2.441E+01   -2.453E+01   -2.466E+01
 Ala      Conc. = 7.75E+03
