 LCModel (Version 6.3-1L) Copyright: S.W. Provencher.          Ref.: Magn. Reson. Med. 30:672-679 (1993).                
 Slice#3 Row#13 Col#5  PD_05_press_1_raw_act
 36 lines in following concentration table = NCONC+1
    Conc.  %SD /Cr+PCr  Metabolite                                         
    0.000 999%   0.000 Ala                                                 
   20.103 105%   0.328 Asp                                                 
   61.229  35%   1.000 Cr                                                  
    0.000 999%   0.000 PCr                                                 
    7.326 175%   0.120 GABA                                                
    5.048 253% 8.2E-02 Glc                                                 
   53.702 287%   0.877 Gln                                                 
  243.767  73%   3.981 Glu                                                 
   24.721  33%   0.404 GPC                                                 
    0.000 999%   0.000 PCh                                                 
  187.419  19%   3.061 GSH                                                 
  514.906  27%   8.409 Ins                                                 
    0.000 999%   0.000 Lac                                                 
  128.609  19%   2.100 NAA                                                 
    0.000 999%   0.000 NAAG                                                
    5.805  72% 9.5E-02 Scyllo                                              
    6.159 343%   0.101 Tau                                                 
   27.120  77%   0.443 -CrCH2                                              
   24.721  33%   0.404 GPC+PCh                                             
  128.609  19%   2.100 NAA+NAAG                                            
   61.229  35%   1.000 Cr+PCr                                              
  297.469  98%   4.858 Glu+Gln                                             
    0.000 999%   0.000 Lip13a                                              
    0.000 999%   0.000 Lip13b                                              
 3.73E-03 999% 6.1E-05 Lip09                                               
  267.365  26%   4.367 MM09                                                
    0.000 999%   0.000 Lip20                                               
  164.632  81%   2.689 MM20                                                
   28.032 161%   0.458 MM12                                                
    0.000 999%   0.000 MM14                                                
  541.600  18%   8.845+MM17                                                
    0.000 999%   0.000 Lip13a+Lip13b                                       
   28.032 161%   0.458 MM14+Lip13a+Lip13b+MM12                             
  267.369  26%   4.367 MM09+Lip09                                          
  164.632  81%   2.689 MM20+Lip20                                          
   6 lines in following misc. output table
  FWHM = 0.061 ppm    S/N =   2                                            
  Data shift =-0.008 ppm                                                   
  Ph: -17 deg       2.7 deg/ppm                                            
  alphaB,S = 5.8E-01,   2.1E+01                                            
   14 spline knots.   Ns = 8(1)                                            
  (13) 7 infls.   (13) 3 extrs.                                            
  498 points on ppm-axis = NY
      4.000000     3.992357     3.984714     3.977070     3.969427     3.961784     3.954141     3.946497     3.938854     3.931211
      3.923568     3.915925     3.908281     3.900638     3.892995     3.885352     3.877708     3.870065     3.862422     3.854779
      3.847136     3.839492     3.831849     3.824206     3.816563     3.808919     3.801276     3.793633     3.785990     3.778347
      3.770703     3.763060     3.755417     3.747774     3.740130     3.732487     3.724844     3.717201     3.709558     3.701914
      3.694271     3.686628     3.678985     3.671341     3.663698     3.656055     3.648412     3.640769     3.633125     3.625482
      3.617839     3.610196     3.602552     3.594909     3.587266     3.579623     3.571980     3.564336     3.556693     3.549050
      3.541407     3.533763     3.526120     3.518477     3.510834     3.503191     3.495547     3.487904     3.480261     3.472618
      3.464974     3.457331     3.449688     3.442045     3.434402     3.426758     3.419115     3.411472     3.403829     3.396185
      3.388542     3.380899     3.373256     3.365613     3.357969     3.350326     3.342683     3.335040     3.327396     3.319753
      3.312110     3.304467     3.296824     3.289180     3.281537     3.273894     3.266251     3.258607     3.250964     3.243321
      3.235678     3.228034     3.220391     3.212748     3.205105     3.197462     3.189818     3.182175     3.174532     3.166889
      3.159245     3.151602     3.143959     3.136316     3.128673     3.121029     3.113386     3.105743     3.098100     3.090456
      3.082813     3.075170     3.067527     3.059884     3.052240     3.044597     3.036954     3.029311     3.021667     3.014024
      3.006381     2.998738     2.991095     2.983451     2.975808     2.968165     2.960522     2.952878     2.945235     2.937592
      2.929949     2.922306     2.914662     2.907019     2.899376     2.891733     2.884089     2.876446     2.868803     2.861160
      2.853517     2.845873     2.838230     2.830587     2.822944     2.815300     2.807657     2.800014     2.792371     2.784728
      2.777084     2.769441     2.761798     2.754155     2.746511     2.738868     2.731225     2.723582     2.715939     2.708295
      2.700652     2.693009     2.685366     2.677722     2.670079     2.662436     2.654793     2.647150     2.639506     2.631863
      2.624220     2.616577     2.608933     2.601290     2.593647     2.586004     2.578361     2.570717     2.563074     2.555431
      2.547788     2.540144     2.532501     2.524858     2.517215     2.509572     2.501928     2.494285     2.486642     2.478999
      2.471355     2.463712     2.456069     2.448426     2.440783     2.433139     2.425496     2.417853     2.410210     2.402566
      2.394923     2.387280     2.379637     2.371994     2.364350     2.356707     2.349064     2.341421     2.333777     2.326134
      2.318491     2.310848     2.303205     2.295561     2.287918     2.280275     2.272632     2.264988     2.257345     2.249702
      2.242059     2.234416     2.226772     2.219129     2.211486     2.203843     2.196199     2.188556     2.180913     2.173270
      2.165627     2.157983     2.150340     2.142697     2.135054     2.127410     2.119767     2.112124     2.104481     2.096838
      2.089194     2.081551     2.073908     2.066265     2.058621     2.050978     2.043335     2.035692     2.028049     2.020405
      2.012762     2.005119     1.997476     1.989833     1.982190     1.974546     1.966903     1.959260     1.951617     1.943974
      1.936331     1.928688     1.921045     1.913402     1.905759     1.898115     1.890472     1.882829     1.875186     1.867543
      1.859900     1.852257     1.844614     1.836971     1.829327     1.821684     1.814041     1.806398     1.798755     1.791112
      1.783469     1.775826     1.768183     1.760540     1.752896     1.745253     1.737610     1.729967     1.722324     1.714681
      1.707038     1.699395     1.691752     1.684108     1.676465     1.668822     1.661179     1.653536     1.645893     1.638250
      1.630607     1.622964     1.615321     1.607677     1.600034     1.592391     1.584748     1.577105     1.569462     1.561819
      1.554176     1.546533     1.538890     1.531246     1.523603     1.515960     1.508317     1.500674     1.493031     1.485388
      1.477745     1.470102     1.462458     1.454815     1.447172     1.439529     1.431886     1.424243     1.416600     1.408957
      1.401314     1.393671     1.386027     1.378384     1.370741     1.363098     1.355455     1.347812     1.340169     1.332526
      1.324883     1.317240     1.309596     1.301953     1.294310     1.286667     1.279024     1.271381     1.263738     1.256095
      1.248452     1.240808     1.233165     1.225522     1.217879     1.210236     1.202593     1.194950     1.187307     1.179664
      1.172021     1.164377     1.156734     1.149091     1.141448     1.133805     1.126162     1.118519     1.110876     1.103233
      1.095590     1.087946     1.080303     1.072660     1.065017     1.057374     1.049731     1.042088     1.034445     1.026802
      1.019158     1.011515     1.003872     0.996229     0.988586     0.980943     0.973300     0.965657     0.958014     0.950371
      0.942727     0.935084     0.927441     0.919798     0.912155     0.904512     0.896869     0.889226     0.881583     0.873940
      0.866296     0.858653     0.851010     0.843367     0.835724     0.828081     0.820438     0.812795     0.805152     0.797508
      0.789865     0.782222     0.774579     0.766936     0.759293     0.751650     0.744007     0.736364     0.728721     0.721077
      0.713434     0.705791     0.698148     0.690505     0.682862     0.675219     0.667576     0.659933     0.652290     0.644646
      0.637003     0.629360     0.621717     0.614074     0.606431     0.598788     0.591145     0.583502     0.575858     0.568215
      0.560572     0.552929     0.545286     0.537643     0.530000     0.522357     0.514714     0.507071     0.499427     0.491784
      0.484141     0.476498     0.468855     0.461212     0.453569     0.445925     0.438282     0.430639     0.422996     0.415353
      0.407710     0.400067     0.392424     0.384780     0.377137     0.369494     0.361851     0.354208     0.346565     0.338922
      0.331278     0.323635     0.315992     0.308349     0.300706     0.293063     0.285420     0.277777     0.270133     0.262490
      0.254847     0.247204     0.239561     0.231918     0.224275     0.216631     0.208988     0.201345
 NY phased data points follow
  -7.77673E+01 -7.52726E+01 -7.63643E+01 -7.56614E+01 -7.38575E+01 -7.28318E+01 -7.46733E+01 -7.31814E+01 -7.31832E+01 -7.04873E+01
  -7.08335E+01 -6.82717E+01 -6.80170E+01 -6.83987E+01 -6.83078E+01 -6.60855E+01 -6.66614E+01 -6.51210E+01 -6.42090E+01 -6.33244E+01
  -6.47025E+01 -6.26689E+01 -6.26892E+01 -6.11330E+01 -5.92066E+01 -5.99654E+01 -5.89199E+01 -5.79990E+01 -5.61902E+01 -5.63180E+01
  -5.54499E+01 -5.42682E+01 -5.46904E+01 -5.36010E+01 -5.30574E+01 -5.27793E+01 -5.29053E+01 -5.12260E+01 -5.06786E+01 -5.04441E+01
  -4.88587E+01 -4.99143E+01 -5.00523E+01 -4.89882E+01 -4.81627E+01 -4.79040E+01 -4.81595E+01 -4.62811E+01 -4.64438E+01 -4.38703E+01
  -4.37010E+01 -4.45873E+01 -4.48535E+01 -4.44543E+01 -4.38191E+01 -4.39536E+01 -4.35481E+01 -4.19700E+01 -4.19239E+01 -4.11690E+01
  -4.15830E+01 -3.98819E+01 -4.11742E+01 -4.12908E+01 -3.96469E+01 -4.00625E+01 -3.94445E+01 -3.89925E+01 -3.96586E+01 -3.88216E+01
  -3.76517E+01 -3.66970E+01 -3.74549E+01 -3.52366E+01 -3.61069E+01 -3.58890E+01 -3.63819E+01 -3.59078E+01 -3.56504E+01 -3.33313E+01
  -3.40966E+01 -3.35212E+01 -3.46942E+01 -3.25933E+01 -3.25791E+01 -3.09092E+01 -3.08776E+01 -3.16847E+01 -3.13191E+01 -3.12515E+01
  -3.13581E+01 -3.07939E+01 -3.19222E+01 -2.85728E+01 -2.95947E+01 -2.75571E+01 -2.88719E+01 -2.86350E+01 -2.73723E+01 -2.68147E+01
  -2.72870E+01 -2.70129E+01 -2.69978E+01 -2.47657E+01 -2.56720E+01 -2.61145E+01 -2.56135E+01 -2.60046E+01 -2.47800E+01 -2.44557E+01
  -2.53163E+01 -2.22234E+01 -2.46889E+01 -2.36432E+01 -2.52145E+01 -2.40406E+01 -2.53818E+01 -2.17114E+01 -2.34705E+01 -2.28202E+01
  -2.30751E+01 -2.11209E+01 -1.98297E+01 -2.13042E+01 -2.06857E+01 -2.00516E+01 -1.76439E+01 -1.91283E+01 -1.89414E+01 -1.99615E+01
  -1.74719E+01 -1.58247E+01 -1.82770E+01 -1.83773E+01 -1.73836E+01 -1.73565E+01 -1.86293E+01 -1.77386E+01 -1.60707E+01 -1.94928E+01
  -1.62271E+01 -1.62457E+01 -1.78256E+01 -1.54224E+01 -1.70211E+01 -1.60150E+01 -1.55508E+01 -1.65092E+01 -1.34891E+01 -1.59431E+01
  -1.59195E+01 -1.32069E+01 -1.54561E+01 -1.50301E+01 -1.38771E+01 -1.54453E+01 -1.57556E+01 -1.45977E+01 -1.47438E+01 -1.43295E+01
  -1.41937E+01 -1.26357E+01 -1.35020E+01 -1.41310E+01 -1.28623E+01 -1.23469E+01 -1.23249E+01 -1.27341E+01 -1.24466E+01 -1.18650E+01
  -1.16615E+01 -1.20929E+01 -1.21520E+01 -9.55666E+00 -1.03041E+01 -1.26292E+01 -9.66924E+00 -1.21602E+01 -1.02885E+01 -9.89948E+00
  -1.23452E+01 -1.04209E+01 -1.01140E+01 -1.06230E+01 -8.26376E+00 -9.36961E+00 -1.00513E+01 -8.13802E+00 -1.00927E+01 -1.00117E+01
  -8.80465E+00 -7.64108E+00 -8.49330E+00 -8.46063E+00 -9.13952E+00 -8.44419E+00 -7.30804E+00 -7.48134E+00 -8.82038E+00 -7.40648E+00
  -9.50233E+00 -7.58113E+00 -7.55906E+00 -6.73713E+00 -8.12079E+00 -7.45097E+00 -7.38129E+00 -6.91969E+00 -7.89166E+00 -5.94089E+00
  -9.64562E+00 -6.51148E+00 -6.65539E+00 -8.12961E+00 -6.95887E+00 -7.63994E+00 -9.02336E+00 -8.23462E+00 -8.07497E+00 -6.98159E+00
  -8.27628E+00 -7.34304E+00 -6.41292E+00 -8.31760E+00 -8.23896E+00 -9.58653E+00 -8.02570E+00 -8.58272E+00 -7.63575E+00 -8.27860E+00
  -8.02101E+00 -8.71189E+00 -1.10588E+01 -8.44334E+00 -8.23663E+00 -1.12216E+01 -9.72838E+00 -7.12734E+00 -9.38391E+00 -1.06146E+01
  -9.45278E+00 -8.89166E+00 -9.82035E+00 -8.32307E+00 -1.02847E+01 -1.02903E+01 -7.95222E+00 -7.80448E+00 -1.05308E+01 -9.30485E+00
  -1.00043E+01 -9.31896E+00 -1.00680E+01 -9.85344E+00 -8.81962E+00 -9.15150E+00 -1.04539E+01 -9.60810E+00 -9.99491E+00 -9.43532E+00
  -7.83617E+00 -5.76746E+00 -7.75481E+00 -9.55894E+00 -9.83728E+00 -9.36303E+00 -1.01386E+01 -1.06860E+01 -1.15710E+01 -1.12805E+01
  -1.02829E+01 -1.06725E+01 -1.40255E+01 -1.29600E+01 -1.30763E+01 -1.29428E+01 -1.34114E+01 -1.34989E+01 -1.39694E+01 -1.27351E+01
  -1.22535E+01 -1.30524E+01 -1.26736E+01 -1.38112E+01 -1.40127E+01 -1.40837E+01 -1.42051E+01 -1.66153E+01 -1.55432E+01 -1.58329E+01
  -1.49276E+01 -1.62777E+01 -1.55385E+01 -1.54851E+01 -1.63042E+01 -1.75467E+01 -1.56632E+01 -1.67221E+01 -1.86546E+01 -1.82297E+01
  -1.90188E+01 -1.99782E+01 -1.91830E+01 -1.80400E+01 -2.04582E+01 -1.94245E+01 -1.89759E+01 -1.96455E+01 -2.03198E+01 -2.17609E+01
  -2.19200E+01 -2.16217E+01 -2.38859E+01 -2.37410E+01 -2.32345E+01 -2.33384E+01 -2.54362E+01 -2.46476E+01 -2.47289E+01 -2.53797E+01
  -2.76063E+01 -2.67749E+01 -2.57110E+01 -2.39610E+01 -2.59027E+01 -2.59743E+01 -2.86686E+01 -2.75079E+01 -2.95477E+01 -2.93960E+01
  -2.96280E+01 -2.94936E+01 -2.95374E+01 -2.90958E+01 -3.03378E+01 -2.97380E+01 -3.14229E+01 -3.13233E+01 -3.25344E+01 -3.29248E+01
  -3.10690E+01 -3.29142E+01 -3.12526E+01 -3.14279E+01 -3.21659E+01 -3.32767E+01 -3.26213E+01 -3.20980E+01 -3.08848E+01 -3.09494E+01
  -3.08566E+01 -3.30444E+01 -3.24245E+01 -3.19425E+01 -3.19947E+01 -3.17593E+01 -3.53313E+01 -3.31689E+01 -3.29423E+01 -3.32387E+01
  -3.39098E+01 -3.31742E+01 -3.31370E+01 -3.20860E+01 -3.23349E+01 -3.03753E+01 -3.34656E+01 -3.30120E+01 -3.26736E+01 -3.26071E+01
  -2.98850E+01 -3.09746E+01 -3.12894E+01 -3.18485E+01 -3.21697E+01 -3.19564E+01 -2.99677E+01 -3.00358E+01 -3.02523E+01 -3.04730E+01
  -2.81609E+01 -2.88488E+01 -2.84330E+01 -2.92999E+01 -2.71839E+01 -2.75657E+01 -2.91995E+01 -3.01404E+01 -2.80732E+01 -2.87811E+01
  -2.91097E+01 -2.82551E+01 -2.72892E+01 -2.69020E+01 -2.65913E+01 -2.62655E+01 -2.58418E+01 -2.60266E+01 -2.40172E+01 -2.44711E+01
  -2.60605E+01 -2.64347E+01 -2.56689E+01 -2.62034E+01 -2.48868E+01 -2.55278E+01 -2.36462E+01 -2.46647E+01 -2.61574E+01 -2.48008E+01
  -2.55128E+01 -2.47842E+01 -2.42319E+01 -2.44017E+01 -2.42398E+01 -2.27746E+01 -2.36155E+01 -2.27774E+01 -2.26817E+01 -2.46703E+01
  -2.32869E+01 -2.34291E+01 -2.34519E+01 -2.26209E+01 -2.30515E+01 -2.32400E+01 -2.26993E+01 -2.19439E+01 -2.20816E+01 -2.26901E+01
  -2.21456E+01 -2.24221E+01 -2.22146E+01 -2.10707E+01 -2.19387E+01 -2.35870E+01 -2.16761E+01 -1.97147E+01 -2.24760E+01 -2.16522E+01
  -2.18606E+01 -1.90854E+01 -2.11889E+01 -1.90814E+01 -2.16508E+01 -2.01319E+01 -1.95018E+01 -2.18835E+01 -2.03808E+01 -1.90009E+01
  -2.01318E+01 -2.02087E+01 -2.02466E+01 -1.69533E+01 -1.82374E+01 -2.00350E+01 -1.93897E+01 -1.86875E+01 -1.94289E+01 -1.87738E+01
  -1.85991E+01 -1.80753E+01 -1.67382E+01 -1.76017E+01 -1.86390E+01 -1.84422E+01 -1.81559E+01 -1.89272E+01 -1.93741E+01 -1.67992E+01
  -1.76111E+01 -1.87081E+01 -1.77198E+01 -1.63802E+01 -1.60539E+01 -1.73443E+01 -1.79291E+01 -1.64129E+01 -1.61393E+01 -1.74242E+01
  -1.70693E+01 -1.69177E+01 -1.74014E+01 -1.65370E+01 -1.80274E+01 -1.65837E+01 -1.56268E+01 -1.55921E+01 -1.65231E+01 -1.49686E+01
  -1.53246E+01 -1.62011E+01 -1.55418E+01 -1.48785E+01 -1.55144E+01 -1.42403E+01 -1.53221E+01 -1.42682E+01
 NY points of the fit to the data follow
  -7.56961E+01 -7.54439E+01 -7.51404E+01 -7.45074E+01 -7.37952E+01 -7.32367E+01 -7.27448E+01 -7.22268E+01 -7.16258E+01 -7.09340E+01
  -7.01417E+01 -6.92988E+01 -6.85371E+01 -6.78988E+01 -6.72985E+01 -6.67075E+01 -6.61759E+01 -6.56000E+01 -6.49132E+01 -6.42746E+01
  -6.38191E+01 -6.32715E+01 -6.21241E+01 -6.08832E+01 -6.01107E+01 -5.96075E+01 -5.89873E+01 -5.81722E+01 -5.72345E+01 -5.60673E+01
  -5.48341E+01 -5.40680E+01 -5.37282E+01 -5.33906E+01 -5.30905E+01 -5.28784E+01 -5.25458E+01 -5.20389E+01 -5.16578E+01 -5.14789E+01
  -5.09718E+01 -5.03910E+01 -5.01042E+01 -4.97889E+01 -4.91851E+01 -4.83283E+01 -4.74083E+01 -4.65093E+01 -4.57994E+01 -4.54903E+01
  -4.53776E+01 -4.51726E+01 -4.48379E+01 -4.43924E+01 -4.39162E+01 -4.36286E+01 -4.36096E+01 -4.35294E+01 -4.30839E+01 -4.23607E+01
  -4.16477E+01 -4.10607E+01 -4.06089E+01 -4.02308E+01 -3.98455E+01 -3.94529E+01 -3.90264E+01 -3.85874E+01 -3.82018E+01 -3.78255E+01
  -3.74348E+01 -3.69972E+01 -3.65189E+01 -3.60778E+01 -3.56656E+01 -3.52751E+01 -3.49341E+01 -3.46081E+01 -3.42963E+01 -3.40339E+01
  -3.38867E+01 -3.37614E+01 -3.35176E+01 -3.31987E+01 -3.28808E+01 -3.25989E+01 -3.23568E+01 -3.21622E+01 -3.19420E+01 -3.16724E+01
  -3.13787E+01 -3.10551E+01 -3.06758E+01 -3.02588E+01 -2.97797E+01 -2.91222E+01 -2.85271E+01 -2.81732E+01 -2.79523E+01 -2.76676E+01
  -2.72676E+01 -2.67847E+01 -2.62395E+01 -2.57500E+01 -2.54842E+01 -2.53842E+01 -2.52362E+01 -2.50612E+01 -2.48652E+01 -2.45988E+01
  -2.43250E+01 -2.42108E+01 -2.42714E+01 -2.41507E+01 -2.39094E+01 -2.36456E+01 -2.33672E+01 -2.30723E+01 -2.27422E+01 -2.22656E+01
  -2.17297E+01 -2.13693E+01 -2.11420E+01 -2.08705E+01 -2.04558E+01 -1.98980E+01 -1.92541E+01 -1.87337E+01 -1.85045E+01 -1.84712E+01
  -1.84172E+01 -1.82582E+01 -1.80104E+01 -1.77151E+01 -1.74617E+01 -1.74568E+01 -1.77246E+01 -1.79109E+01 -1.78094E+01 -1.75352E+01
  -1.71587E+01 -1.67982E+01 -1.65650E+01 -1.64315E+01 -1.62326E+01 -1.59696E+01 -1.57060E+01 -1.54489E+01 -1.52307E+01 -1.50683E+01
  -1.49489E+01 -1.48830E+01 -1.47732E+01 -1.46424E+01 -1.45007E+01 -1.43323E+01 -1.41332E+01 -1.39244E+01 -1.37410E+01 -1.35758E+01
  -1.34140E+01 -1.32502E+01 -1.30733E+01 -1.28788E+01 -1.26774E+01 -1.24903E+01 -1.23246E+01 -1.21781E+01 -1.20474E+01 -1.19163E+01
  -1.17535E+01 -1.15758E+01 -1.14196E+01 -1.13025E+01 -1.12143E+01 -1.11163E+01 -1.09977E+01 -1.08918E+01 -1.08030E+01 -1.07188E+01
  -1.06237E+01 -1.04949E+01 -1.03215E+01 -1.01132E+01 -9.91107E+00 -9.76415E+00 -9.67604E+00 -9.59632E+00 -9.47451E+00 -9.32244E+00
  -9.17832E+00 -8.98996E+00 -8.78321E+00 -8.65654E+00 -8.61971E+00 -8.63039E+00 -8.64074E+00 -8.62705E+00 -8.56995E+00 -8.47150E+00
  -8.38396E+00 -8.31504E+00 -8.26379E+00 -8.19895E+00 -8.11319E+00 -8.00575E+00 -7.86231E+00 -7.70438E+00 -7.58171E+00 -7.55088E+00
  -7.66195E+00 -7.79519E+00 -7.83908E+00 -7.83767E+00 -7.85981E+00 -7.87767E+00 -7.81009E+00 -7.73216E+00 -7.76314E+00 -7.84123E+00
  -8.00779E+00 -8.22955E+00 -8.39993E+00 -8.51615E+00 -8.60786E+00 -8.67505E+00 -8.59850E+00 -8.41931E+00 -8.29421E+00 -8.21362E+00
  -8.10885E+00 -8.04177E+00 -8.08179E+00 -8.18767E+00 -8.26067E+00 -8.30615E+00 -8.34680E+00 -8.35178E+00 -8.37636E+00 -8.53265E+00
  -8.72327E+00 -8.87658E+00 -9.07505E+00 -9.27159E+00 -9.36021E+00 -9.34287E+00 -9.37226E+00 -9.46669E+00 -9.50257E+00 -9.52250E+00
  -9.61105E+00 -9.67805E+00 -9.39475E+00 -8.77930E+00 -8.51707E+00 -8.73785E+00 -9.01598E+00 -9.09710E+00 -8.99083E+00 -8.69753E+00
  -8.27696E+00 -8.04700E+00 -8.29518E+00 -8.78179E+00 -9.27644E+00 -9.80471E+00 -1.02546E+01 -1.05203E+01 -1.08265E+01 -1.15083E+01
  -1.23561E+01 -1.27936E+01 -1.30566E+01 -1.32828E+01 -1.34704E+01 -1.36317E+01 -1.38027E+01 -1.39705E+01 -1.41319E+01 -1.42869E+01
  -1.44331E+01 -1.45676E+01 -1.46992E+01 -1.48320E+01 -1.49597E+01 -1.50794E+01 -1.51947E+01 -1.53099E+01 -1.54281E+01 -1.55503E+01
  -1.56796E+01 -1.58251E+01 -1.59892E+01 -1.61740E+01 -1.63827E+01 -1.66179E+01 -1.68795E+01 -1.71678E+01 -1.74831E+01 -1.78246E+01
  -1.81898E+01 -1.85758E+01 -1.89800E+01 -1.93987E+01 -1.98282E+01 -2.02649E+01 -2.07048E+01 -2.11446E+01 -2.15809E+01 -2.20110E+01
  -2.24325E+01 -2.28437E+01 -2.32435E+01 -2.36310E+01 -2.40054E+01 -2.43667E+01 -2.47151E+01 -2.50509E+01 -2.53746E+01 -2.56870E+01
  -2.59886E+01 -2.62802E+01 -2.65624E+01 -2.68358E+01 -2.71009E+01 -2.73583E+01 -2.76083E+01 -2.78513E+01 -2.80875E+01 -2.83172E+01
  -2.85406E+01 -2.87577E+01 -2.89687E+01 -2.91734E+01 -2.93721E+01 -2.95645E+01 -2.97508E+01 -2.99307E+01 -3.01043E+01 -3.02715E+01
  -3.04321E+01 -3.05860E+01 -3.07332E+01 -3.08734E+01 -3.10066E+01 -3.11326E+01 -3.12513E+01 -3.13626E+01 -3.14663E+01 -3.15623E+01
  -3.16506E+01 -3.17309E+01 -3.18032E+01 -3.18675E+01 -3.19236E+01 -3.19714E+01 -3.20108E+01 -3.20419E+01 -3.20645E+01 -3.20786E+01
  -3.20841E+01 -3.20808E+01 -3.20687E+01 -3.20478E+01 -3.20184E+01 -3.19805E+01 -3.19344E+01 -3.18801E+01 -3.18177E+01 -3.17471E+01
  -3.16683E+01 -3.15813E+01 -3.14859E+01 -3.13818E+01 -3.12689E+01 -3.11469E+01 -3.10154E+01 -3.08741E+01 -3.07226E+01 -3.05606E+01
  -3.03877E+01 -3.02036E+01 -3.00080E+01 -2.98009E+01 -2.95824E+01 -2.93527E+01 -2.91122E+01 -2.88619E+01 -2.86029E+01 -2.83365E+01
  -2.80647E+01 -2.77894E+01 -2.75132E+01 -2.72385E+01 -2.69681E+01 -2.67049E+01 -2.64513E+01 -2.62100E+01 -2.59830E+01 -2.57721E+01
  -2.55785E+01 -2.54028E+01 -2.52451E+01 -2.51050E+01 -2.49813E+01 -2.48727E+01 -2.47772E+01 -2.46927E+01 -2.46170E+01 -2.45474E+01
  -2.44816E+01 -2.44175E+01 -2.43529E+01 -2.42861E+01 -2.42160E+01 -2.41413E+01 -2.40614E+01 -2.39758E+01 -2.38845E+01 -2.37875E+01
  -2.36850E+01 -2.35773E+01 -2.34650E+01 -2.33485E+01 -2.32283E+01 -2.31050E+01 -2.29790E+01 -2.28508E+01 -2.27209E+01 -2.25896E+01
  -2.24572E+01 -2.23242E+01 -2.21907E+01 -2.20570E+01 -2.19232E+01 -2.17896E+01 -2.16563E+01 -2.15233E+01 -2.13909E+01 -2.12591E+01
  -2.11280E+01 -2.09976E+01 -2.08680E+01 -2.07393E+01 -2.06114E+01 -2.04845E+01 -2.03586E+01 -2.02337E+01 -2.01098E+01 -1.99870E+01
  -1.98653E+01 -1.97446E+01 -1.96250E+01 -1.95066E+01 -1.93893E+01 -1.92730E+01 -1.91577E+01 -1.90435E+01 -1.89302E+01 -1.88179E+01
  -1.87065E+01 -1.85959E+01 -1.84862E+01 -1.83773E+01 -1.82692E+01 -1.81618E+01 -1.80551E+01 -1.79490E+01 -1.78436E+01 -1.77388E+01
  -1.76345E+01 -1.75308E+01 -1.74275E+01 -1.73247E+01 -1.72223E+01 -1.71203E+01 -1.70186E+01 -1.69171E+01 -1.68160E+01 -1.67150E+01
  -1.66143E+01 -1.65136E+01 -1.64131E+01 -1.63126E+01 -1.62122E+01 -1.61117E+01 -1.60112E+01 -1.59106E+01 -1.58099E+01 -1.57090E+01
  -1.56079E+01 -1.55065E+01 -1.54049E+01 -1.53029E+01 -1.52006E+01 -1.50978E+01 -1.49946E+01 -1.48909E+01
 NY background values follow
    -7.733E+01   -7.669E+01   -7.606E+01   -7.542E+01   -7.479E+01   -7.415E+01   -7.352E+01   -7.288E+01   -7.225E+01   -7.161E+01
    -7.098E+01   -7.035E+01   -6.972E+01   -6.909E+01   -6.847E+01   -6.784E+01   -6.721E+01   -6.659E+01   -6.597E+01   -6.535E+01
    -6.474E+01   -6.412E+01   -6.351E+01   -6.290E+01   -6.229E+01   -6.169E+01   -6.109E+01   -6.049E+01   -5.989E+01   -5.930E+01
    -5.871E+01   -5.812E+01   -5.754E+01   -5.696E+01   -5.638E+01   -5.581E+01   -5.524E+01   -5.468E+01   -5.411E+01   -5.356E+01
    -5.301E+01   -5.246E+01   -5.192E+01   -5.138E+01   -5.084E+01   -5.032E+01   -4.979E+01   -4.927E+01   -4.876E+01   -4.825E+01
    -4.775E+01   -4.725E+01   -4.675E+01   -4.627E+01   -4.578E+01   -4.530E+01   -4.483E+01   -4.435E+01   -4.389E+01   -4.343E+01
    -4.297E+01   -4.252E+01   -4.207E+01   -4.163E+01   -4.119E+01   -4.075E+01   -4.032E+01   -3.990E+01   -3.947E+01   -3.906E+01
    -3.864E+01   -3.823E+01   -3.783E+01   -3.743E+01   -3.703E+01   -3.664E+01   -3.625E+01   -3.586E+01   -3.548E+01   -3.511E+01
    -3.473E+01   -3.436E+01   -3.400E+01   -3.363E+01   -3.328E+01   -3.292E+01   -3.257E+01   -3.222E+01   -3.188E+01   -3.154E+01
    -3.120E+01   -3.087E+01   -3.054E+01   -3.021E+01   -2.989E+01   -2.957E+01   -2.925E+01   -2.894E+01   -2.862E+01   -2.832E+01
    -2.801E+01   -2.771E+01   -2.741E+01   -2.711E+01   -2.682E+01   -2.653E+01   -2.624E+01   -2.596E+01   -2.567E+01   -2.539E+01
    -2.511E+01   -2.484E+01   -2.456E+01   -2.429E+01   -2.402E+01   -2.376E+01   -2.349E+01   -2.323E+01   -2.297E+01   -2.271E+01
    -2.245E+01   -2.220E+01   -2.194E+01   -2.169E+01   -2.144E+01   -2.119E+01   -2.094E+01   -2.070E+01   -2.045E+01   -2.021E+01
    -1.997E+01   -1.973E+01   -1.949E+01   -1.925E+01   -1.902E+01   -1.878E+01   -1.854E+01   -1.831E+01   -1.808E+01   -1.785E+01
    -1.762E+01   -1.739E+01   -1.716E+01   -1.693E+01   -1.671E+01   -1.648E+01   -1.626E+01   -1.604E+01   -1.582E+01   -1.561E+01
    -1.539E+01   -1.518E+01   -1.497E+01   -1.476E+01   -1.455E+01   -1.435E+01   -1.415E+01   -1.395E+01   -1.375E+01   -1.356E+01
    -1.336E+01   -1.318E+01   -1.299E+01   -1.281E+01   -1.263E+01   -1.245E+01   -1.227E+01   -1.210E+01   -1.193E+01   -1.177E+01
    -1.161E+01   -1.145E+01   -1.129E+01   -1.114E+01   -1.099E+01   -1.085E+01   -1.071E+01   -1.057E+01   -1.044E+01   -1.031E+01
    -1.019E+01   -1.007E+01   -9.950E+00   -9.838E+00   -9.730E+00   -9.626E+00   -9.526E+00   -9.429E+00   -9.337E+00   -9.249E+00
    -9.165E+00   -9.084E+00   -9.008E+00   -8.935E+00   -8.866E+00   -8.800E+00   -8.739E+00   -8.681E+00   -8.627E+00   -8.576E+00
    -8.530E+00   -8.486E+00   -8.446E+00   -8.410E+00   -8.377E+00   -8.348E+00   -8.322E+00   -8.300E+00   -8.281E+00   -8.265E+00
    -8.252E+00   -8.243E+00   -8.237E+00   -8.235E+00   -8.235E+00   -8.239E+00   -8.246E+00   -8.256E+00   -8.269E+00   -8.285E+00
    -8.304E+00   -8.326E+00   -8.351E+00   -8.379E+00   -8.410E+00   -8.444E+00   -8.480E+00   -8.520E+00   -8.562E+00   -8.607E+00
    -8.655E+00   -8.706E+00   -8.760E+00   -8.818E+00   -8.878E+00   -8.941E+00   -9.008E+00   -9.078E+00   -9.152E+00   -9.228E+00
    -9.308E+00   -9.392E+00   -9.479E+00   -9.569E+00   -9.663E+00   -9.761E+00   -9.863E+00   -9.968E+00   -1.008E+01   -1.019E+01
    -1.031E+01   -1.043E+01   -1.055E+01   -1.068E+01   -1.081E+01   -1.095E+01   -1.109E+01   -1.123E+01   -1.138E+01   -1.153E+01
    -1.169E+01   -1.185E+01   -1.202E+01   -1.219E+01   -1.236E+01   -1.254E+01   -1.273E+01   -1.292E+01   -1.311E+01   -1.331E+01
    -1.351E+01   -1.372E+01   -1.393E+01   -1.414E+01   -1.437E+01   -1.459E+01   -1.482E+01   -1.506E+01   -1.529E+01   -1.553E+01
    -1.578E+01   -1.603E+01   -1.628E+01   -1.653E+01   -1.679E+01   -1.705E+01   -1.731E+01   -1.758E+01   -1.784E+01   -1.811E+01
    -1.838E+01   -1.865E+01   -1.893E+01   -1.920E+01   -1.948E+01   -1.976E+01   -2.003E+01   -2.031E+01   -2.059E+01   -2.087E+01
    -2.115E+01   -2.143E+01   -2.171E+01   -2.199E+01   -2.227E+01   -2.255E+01   -2.283E+01   -2.310E+01   -2.338E+01   -2.365E+01
    -2.392E+01   -2.419E+01   -2.446E+01   -2.473E+01   -2.500E+01   -2.526E+01   -2.552E+01   -2.578E+01   -2.603E+01   -2.628E+01
    -2.653E+01   -2.678E+01   -2.702E+01   -2.726E+01   -2.749E+01   -2.772E+01   -2.795E+01   -2.817E+01   -2.839E+01   -2.861E+01
    -2.882E+01   -2.902E+01   -2.922E+01   -2.942E+01   -2.961E+01   -2.980E+01   -2.998E+01   -3.015E+01   -3.032E+01   -3.049E+01
    -3.064E+01   -3.080E+01   -3.094E+01   -3.108E+01   -3.122E+01   -3.134E+01   -3.146E+01   -3.158E+01   -3.168E+01   -3.178E+01
    -3.188E+01   -3.196E+01   -3.204E+01   -3.211E+01   -3.217E+01   -3.223E+01   -3.227E+01   -3.231E+01   -3.234E+01   -3.236E+01
    -3.238E+01   -3.238E+01   -3.237E+01   -3.236E+01   -3.234E+01   -3.231E+01   -3.227E+01   -3.222E+01   -3.217E+01   -3.211E+01
    -3.204E+01   -3.196E+01   -3.188E+01   -3.179E+01   -3.170E+01   -3.160E+01   -3.149E+01   -3.138E+01   -3.126E+01   -3.113E+01
    -3.101E+01   -3.087E+01   -3.073E+01   -3.059E+01   -3.045E+01   -3.030E+01   -3.014E+01   -2.998E+01   -2.982E+01   -2.966E+01
    -2.949E+01   -2.933E+01   -2.916E+01   -2.898E+01   -2.881E+01   -2.863E+01   -2.845E+01   -2.827E+01   -2.809E+01   -2.791E+01
    -2.773E+01   -2.755E+01   -2.737E+01   -2.719E+01   -2.701E+01   -2.683E+01   -2.665E+01   -2.647E+01   -2.629E+01   -2.612E+01
    -2.594E+01   -2.577E+01   -2.559E+01   -2.542E+01   -2.525E+01   -2.508E+01   -2.492E+01   -2.475E+01   -2.459E+01   -2.442E+01
    -2.426E+01   -2.410E+01   -2.394E+01   -2.378E+01   -2.362E+01   -2.346E+01   -2.331E+01   -2.316E+01   -2.300E+01   -2.285E+01
    -2.270E+01   -2.255E+01   -2.240E+01   -2.226E+01   -2.211E+01   -2.197E+01   -2.183E+01   -2.168E+01   -2.154E+01   -2.141E+01
    -2.127E+01   -2.113E+01   -2.100E+01   -2.086E+01   -2.073E+01   -2.060E+01   -2.047E+01   -2.034E+01   -2.021E+01   -2.009E+01
    -1.996E+01   -1.984E+01   -1.971E+01   -1.959E+01   -1.947E+01   -1.936E+01   -1.924E+01   -1.912E+01   -1.901E+01   -1.889E+01
    -1.878E+01   -1.867E+01   -1.855E+01   -1.844E+01   -1.833E+01   -1.823E+01   -1.812E+01   -1.801E+01   -1.790E+01   -1.780E+01
    -1.769E+01   -1.759E+01   -1.748E+01   -1.738E+01   -1.728E+01   -1.717E+01   -1.707E+01   -1.697E+01   -1.686E+01   -1.676E+01
    -1.666E+01   -1.656E+01   -1.646E+01   -1.636E+01   -1.626E+01   -1.616E+01   -1.605E+01   -1.595E+01   -1.585E+01   -1.575E+01
    -1.565E+01   -1.555E+01   -1.544E+01   -1.534E+01   -1.524E+01   -1.514E+01   -1.503E+01   -1.493E+01
 Asp      Conc. = 2.01E+01
