 LCModel (Version 6.3-1L) Copyright: S.W. Provencher.          Ref.: Magn. Reson. Med. 30:672-679 (1993).                
 Slice#2 Row#8 Col#2  PD_05_press_1_raw_act
 36 lines in following concentration table = NCONC+1
    Conc.  %SD /Cr+PCr  Metabolite                                         
   15.914 237%   0.102 Ala                                                 
   27.263 120%   0.174 Asp                                                 
  156.678  12%   1.000 Cr                                                  
    0.000 999%   0.000 PCr                                                 
   14.056 142% 9.0E-02 GABA                                                
   10.004 199% 6.4E-02 Glc                                                 
   19.781 398%   0.126 Gln                                                 
  282.307  32%   1.802 Glu                                                 
   52.048  13%   0.332 GPC                                                 
    0.000 999%   0.000 PCh                                                 
  134.065  20%   0.856 GSH                                                 
  162.570  58%   1.038 Ins                                                 
   26.418 162%   0.169 Lac                                                 
  222.870  11%   1.422 NAA                                                 
    3.140 861% 2.0E-02 NAAG                                                
   10.463  56% 6.7E-02 Scyllo                                              
    5.179 633% 3.3E-02 Tau                                                 
   57.017  53%   0.364 -CrCH2                                              
   52.048  13%   0.332 GPC+PCh                                             
  226.011  10%   1.443 NAA+NAAG                                            
  156.678  12%   1.000 Cr+PCr                                              
  302.088  43%   1.928 Glu+Gln                                             
    0.000 999%   0.000 Lip13a                                              
  115.798  31%   0.739 Lip13b                                              
   18.362 126%   0.117 Lip09                                               
  118.945  50%   0.759 MM09                                                
   16.149  98%   0.103 Lip20                                               
  178.427  50%   1.139 MM20                                                
   35.684  50%   0.228 MM12                                                
   89.232  50%   0.570 MM14                                                
   44.596  50%   0.285 MM17                                                
  115.798  31%   0.739 Lip13a+Lip13b                                       
  240.714  30%   1.536 MM14+Lip13a+Lip13b+MM12                             
  137.307  44%   0.876 MM09+Lip09                                          
  194.576  46%   1.242 MM20+Lip20                                          
   6 lines in following misc. output table
  FWHM = 0.054 ppm    S/N =   3                                            
  Data shift =-0.008 ppm                                                   
  Ph: -51 deg     -16.4 deg/ppm                                            
  alphaB,S = 6.0E-01,   2.2E+01                                            
   14 spline knots.   Ns = 6(1)                                            
  (12) 5 infls.   (11) 1 extrs.                                            
  498 points on ppm-axis = NY
      4.000000     3.992357     3.984714     3.977070     3.969427     3.961784     3.954141     3.946497     3.938854     3.931211
      3.923568     3.915925     3.908281     3.900638     3.892995     3.885352     3.877708     3.870065     3.862422     3.854779
      3.847136     3.839492     3.831849     3.824206     3.816563     3.808919     3.801276     3.793633     3.785990     3.778347
      3.770703     3.763060     3.755417     3.747774     3.740130     3.732487     3.724844     3.717201     3.709558     3.701914
      3.694271     3.686628     3.678985     3.671341     3.663698     3.656055     3.648412     3.640769     3.633125     3.625482
      3.617839     3.610196     3.602552     3.594909     3.587266     3.579623     3.571980     3.564336     3.556693     3.549050
      3.541407     3.533763     3.526120     3.518477     3.510834     3.503191     3.495547     3.487904     3.480261     3.472618
      3.464974     3.457331     3.449688     3.442045     3.434402     3.426758     3.419115     3.411472     3.403829     3.396185
      3.388542     3.380899     3.373256     3.365613     3.357969     3.350326     3.342683     3.335040     3.327396     3.319753
      3.312110     3.304467     3.296824     3.289180     3.281537     3.273894     3.266251     3.258607     3.250964     3.243321
      3.235678     3.228034     3.220391     3.212748     3.205105     3.197462     3.189818     3.182175     3.174532     3.166889
      3.159245     3.151602     3.143959     3.136316     3.128673     3.121029     3.113386     3.105743     3.098100     3.090456
      3.082813     3.075170     3.067527     3.059884     3.052240     3.044597     3.036954     3.029311     3.021667     3.014024
      3.006381     2.998738     2.991095     2.983451     2.975808     2.968165     2.960522     2.952878     2.945235     2.937592
      2.929949     2.922306     2.914662     2.907019     2.899376     2.891733     2.884089     2.876446     2.868803     2.861160
      2.853517     2.845873     2.838230     2.830587     2.822944     2.815300     2.807657     2.800014     2.792371     2.784728
      2.777084     2.769441     2.761798     2.754155     2.746511     2.738868     2.731225     2.723582     2.715939     2.708295
      2.700652     2.693009     2.685366     2.677722     2.670079     2.662436     2.654793     2.647150     2.639506     2.631863
      2.624220     2.616577     2.608933     2.601290     2.593647     2.586004     2.578361     2.570717     2.563074     2.555431
      2.547788     2.540144     2.532501     2.524858     2.517215     2.509572     2.501928     2.494285     2.486642     2.478999
      2.471355     2.463712     2.456069     2.448426     2.440783     2.433139     2.425496     2.417853     2.410210     2.402566
      2.394923     2.387280     2.379637     2.371994     2.364350     2.356707     2.349064     2.341421     2.333777     2.326134
      2.318491     2.310848     2.303205     2.295561     2.287918     2.280275     2.272632     2.264988     2.257345     2.249702
      2.242059     2.234416     2.226772     2.219129     2.211486     2.203843     2.196199     2.188556     2.180913     2.173270
      2.165627     2.157983     2.150340     2.142697     2.135054     2.127410     2.119767     2.112124     2.104481     2.096838
      2.089194     2.081551     2.073908     2.066265     2.058621     2.050978     2.043335     2.035692     2.028049     2.020405
      2.012762     2.005119     1.997476     1.989833     1.982190     1.974546     1.966903     1.959260     1.951617     1.943974
      1.936331     1.928688     1.921045     1.913402     1.905759     1.898115     1.890472     1.882829     1.875186     1.867543
      1.859900     1.852257     1.844614     1.836971     1.829327     1.821684     1.814041     1.806398     1.798755     1.791112
      1.783469     1.775826     1.768183     1.760540     1.752896     1.745253     1.737610     1.729967     1.722324     1.714681
      1.707038     1.699395     1.691752     1.684108     1.676465     1.668822     1.661179     1.653536     1.645893     1.638250
      1.630607     1.622964     1.615321     1.607677     1.600034     1.592391     1.584748     1.577105     1.569462     1.561819
      1.554176     1.546533     1.538890     1.531246     1.523603     1.515960     1.508317     1.500674     1.493031     1.485388
      1.477745     1.470102     1.462458     1.454815     1.447172     1.439529     1.431886     1.424243     1.416600     1.408957
      1.401314     1.393671     1.386027     1.378384     1.370741     1.363098     1.355455     1.347812     1.340169     1.332526
      1.324883     1.317240     1.309596     1.301953     1.294310     1.286667     1.279024     1.271381     1.263738     1.256095
      1.248452     1.240808     1.233165     1.225522     1.217879     1.210236     1.202593     1.194950     1.187307     1.179664
      1.172021     1.164377     1.156734     1.149091     1.141448     1.133805     1.126162     1.118519     1.110876     1.103233
      1.095590     1.087946     1.080303     1.072660     1.065017     1.057374     1.049731     1.042088     1.034445     1.026802
      1.019158     1.011515     1.003872     0.996229     0.988586     0.980943     0.973300     0.965657     0.958014     0.950371
      0.942727     0.935084     0.927441     0.919798     0.912155     0.904512     0.896869     0.889226     0.881583     0.873940
      0.866296     0.858653     0.851010     0.843367     0.835724     0.828081     0.820438     0.812795     0.805152     0.797508
      0.789865     0.782222     0.774579     0.766936     0.759293     0.751650     0.744007     0.736364     0.728721     0.721077
      0.713434     0.705791     0.698148     0.690505     0.682862     0.675219     0.667576     0.659933     0.652290     0.644646
      0.637003     0.629360     0.621717     0.614074     0.606431     0.598788     0.591145     0.583502     0.575858     0.568215
      0.560572     0.552929     0.545286     0.537643     0.530000     0.522357     0.514714     0.507071     0.499427     0.491784
      0.484141     0.476498     0.468855     0.461212     0.453569     0.445925     0.438282     0.430639     0.422996     0.415353
      0.407710     0.400067     0.392424     0.384780     0.377137     0.369494     0.361851     0.354208     0.346565     0.338922
      0.331278     0.323635     0.315992     0.308349     0.300706     0.293063     0.285420     0.277777     0.270133     0.262490
      0.254847     0.247204     0.239561     0.231918     0.224275     0.216631     0.208988     0.201345
 NY phased data points follow
  -7.54603E+01 -7.10122E+01 -7.31754E+01 -7.05166E+01 -7.03855E+01 -6.82912E+01 -6.79233E+01 -6.48067E+01 -6.49775E+01 -6.39783E+01
  -6.17943E+01 -6.07010E+01 -5.97611E+01 -6.03344E+01 -5.85317E+01 -6.08116E+01 -6.10599E+01 -6.00430E+01 -5.82563E+01 -5.54059E+01
  -5.73663E+01 -5.68410E+01 -5.66052E+01 -5.55457E+01 -5.52761E+01 -5.34669E+01 -5.27807E+01 -5.18573E+01 -5.12356E+01 -5.02654E+01
  -5.07949E+01 -5.01093E+01 -4.86881E+01 -4.88931E+01 -4.72646E+01 -4.76153E+01 -4.72388E+01 -4.70080E+01 -4.53110E+01 -4.71825E+01
  -4.18617E+01 -4.48989E+01 -4.52702E+01 -4.37160E+01 -4.31289E+01 -4.10215E+01 -4.40938E+01 -4.04153E+01 -4.26296E+01 -4.02003E+01
  -4.10284E+01 -4.14651E+01 -4.29280E+01 -4.03719E+01 -4.14008E+01 -4.01114E+01 -3.72966E+01 -3.96352E+01 -4.13682E+01 -3.94089E+01
  -3.81405E+01 -3.71804E+01 -3.59928E+01 -3.67229E+01 -3.79667E+01 -3.70856E+01 -3.80825E+01 -3.80325E+01 -3.59616E+01 -3.70655E+01
  -3.65804E+01 -3.51717E+01 -3.42194E+01 -3.44713E+01 -3.46462E+01 -3.19698E+01 -3.44224E+01 -3.26001E+01 -3.09062E+01 -3.11695E+01
  -3.24196E+01 -3.18429E+01 -3.04869E+01 -3.01733E+01 -2.95358E+01 -3.01536E+01 -2.89703E+01 -2.99286E+01 -2.91862E+01 -2.71949E+01
  -2.79593E+01 -2.62177E+01 -2.75302E+01 -2.61786E+01 -2.88892E+01 -2.75714E+01 -2.77503E+01 -2.73767E+01 -2.69689E+01 -2.36212E+01
  -2.25307E+01 -2.37153E+01 -2.09770E+01 -2.11971E+01 -2.03780E+01 -2.04330E+01 -2.16018E+01 -2.12265E+01 -2.24652E+01 -2.42151E+01
  -2.29312E+01 -2.19967E+01 -2.21378E+01 -2.24461E+01 -2.09187E+01 -1.98603E+01 -2.27472E+01 -2.27406E+01 -2.03710E+01 -2.17967E+01
  -2.06769E+01 -2.19755E+01 -2.11375E+01 -1.84762E+01 -1.85457E+01 -1.68790E+01 -1.46883E+01 -1.31920E+01 -1.55860E+01 -1.56609E+01
  -1.56177E+01 -1.58186E+01 -1.64707E+01 -1.67322E+01 -1.69169E+01 -1.71383E+01 -1.65187E+01 -1.89431E+01 -1.56514E+01 -1.76940E+01
  -1.71445E+01 -1.70857E+01 -1.63917E+01 -1.78278E+01 -1.65981E+01 -1.66695E+01 -1.73223E+01 -1.72248E+01 -1.74445E+01 -1.60299E+01
  -1.70554E+01 -1.59781E+01 -1.73628E+01 -1.69569E+01 -1.68635E+01 -1.57709E+01 -1.59218E+01 -1.57620E+01 -1.60897E+01 -1.28860E+01
  -1.50406E+01 -1.44197E+01 -1.42868E+01 -1.53875E+01 -1.60082E+01 -1.26606E+01 -1.39859E+01 -1.53528E+01 -1.42550E+01 -1.47030E+01
  -1.44612E+01 -1.50022E+01 -1.40672E+01 -1.35672E+01 -1.31536E+01 -1.38455E+01 -1.40264E+01 -1.43035E+01 -1.29895E+01 -1.14367E+01
  -1.35555E+01 -1.24192E+01 -1.25657E+01 -1.03020E+01 -1.17947E+01 -1.05285E+01 -1.00138E+01 -1.17776E+01 -1.09171E+01 -1.00250E+01
  -1.02056E+01 -7.61445E+00 -9.28038E+00 -1.05094E+01 -1.17715E+01 -1.00860E+01 -9.06040E+00 -1.04106E+01 -1.03345E+01 -9.44133E+00
  -1.05852E+01 -8.04196E+00 -1.11598E+01 -8.62616E+00 -8.82961E+00 -8.10812E+00 -7.44176E+00 -7.57910E+00 -8.58417E+00 -9.26567E+00
  -8.78532E+00 -8.38396E+00 -8.20885E+00 -7.02756E+00 -8.03605E+00 -6.47595E+00 -5.80717E+00 -6.46579E+00 -8.29263E+00 -8.35241E+00
  -8.34743E+00 -8.86878E+00 -7.83519E+00 -7.44682E+00 -8.83242E+00 -6.24009E+00 -7.28071E+00 -9.35089E+00 -7.18119E+00 -5.81959E+00
  -6.61666E+00 -7.41968E+00 -7.14347E+00 -4.74910E+00 -7.39285E+00 -7.34931E+00 -7.49825E+00 -6.80241E+00 -5.75107E+00 -6.56173E+00
  -7.46369E+00 -5.83966E+00 -7.75364E+00 -5.99316E+00 -5.94562E+00 -4.40330E+00 -6.36203E+00 -6.44676E+00 -5.90898E+00 -3.76206E+00
  -3.93619E+00 -4.72391E+00 -4.95262E+00 -3.09873E+00 -4.24905E+00 -5.59335E+00 -2.43273E+00 -3.40733E+00 -2.24530E+00  9.60185E-01
   2.49949E+00  2.68699E+00  1.66045E+00  5.67709E-01 -1.58573E+00 -1.63330E+00 -4.77039E+00 -2.52244E+00 -3.15992E+00 -3.52438E+00
  -5.81528E+00 -4.04861E+00 -4.49487E+00 -5.18468E+00 -5.48673E+00 -3.67070E+00 -4.89907E+00 -5.77963E+00 -5.55551E+00 -5.47115E+00
  -5.88248E+00 -4.55291E+00 -6.76209E+00 -6.62915E+00 -5.17009E+00 -5.81521E+00 -5.74993E+00 -4.12951E+00 -4.85791E+00 -7.77294E+00
  -5.70603E+00 -5.09635E+00 -4.60433E+00 -5.61885E+00 -4.91969E+00 -5.34959E+00 -5.19483E+00 -4.89876E+00 -4.64991E+00 -4.43416E+00
  -3.33381E+00 -3.19327E+00 -3.51382E+00 -3.56967E+00 -2.03511E+00 -4.11126E+00 -4.36025E+00 -2.76159E+00 -2.72434E+00 -4.56281E+00
  -4.43494E+00 -3.50661E+00 -4.46604E+00 -3.14679E+00 -5.21300E+00 -3.32719E+00 -1.90198E+00 -2.10706E+00 -2.11587E+00 -2.44739E+00
  -2.47012E+00 -2.43105E+00 -3.30118E+00 -1.79353E+00 -3.77191E+00 -2.53957E+00 -1.41992E+00 -2.45150E+00 -3.78909E+00 -2.30493E+00
   5.80808E-02 -2.04120E+00 -2.65408E+00 -1.57070E+00 -1.96286E+00 -2.83808E+00 -1.84925E+00 -2.72166E+00 -1.03440E+00 -1.14970E+00
  -1.77294E+00 -1.47859E+00  1.11709E-01 -1.49242E+00 -1.80103E+00 -1.39380E-01 -1.33601E+00 -6.39180E-01 -1.22439E+00 -4.59064E-01
  -4.76720E-03 -7.43212E-01  2.23519E-01 -7.00601E-01  4.13839E-01  1.84189E+00  7.99085E-01  3.04601E-01 -6.41081E-01 -2.96094E+00
   4.64208E-02 -2.23279E-01 -6.16777E-01 -1.09712E+00 -2.45064E+00 -1.28245E+00 -1.01411E+00 -1.38159E+00 -7.59367E-01 -3.67104E-01
  -2.29035E+00 -2.62240E+00 -9.19991E-01 -1.00822E+00 -2.88845E+00 -8.25761E-01 -7.49970E-01 -6.79187E-01 -1.46019E-01  3.36545E-01
   2.29547E-01  3.67439E-01 -4.09908E-01  7.51172E-01 -6.73360E-01 -1.69025E+00  3.52377E-01  9.36258E-02 -1.32451E+00 -1.46077E-01
  -5.70345E-01 -7.15051E-01 -5.74505E-01  1.04936E+00 -1.02254E+00 -5.98466E-01 -6.05995E-01 -2.98130E-01 -1.34776E+00 -1.01319E+00
  -5.36132E-01 -7.67996E-02 -5.59817E-01 -6.64406E-01 -1.91572E+00 -1.38609E+00 -1.37702E+00  1.20450E+00 -4.11987E+00 -2.08448E+00
  -1.08987E-01 -1.39659E+00  3.87555E-01 -1.34076E+00 -4.75379E-01 -1.07768E+00 -1.24470E+00 -1.13213E+00 -8.05095E-01 -1.99274E+00
  -3.17825E-01 -2.00989E+00 -1.24768E+00  2.95767E-01 -1.36548E+00 -9.63520E-01 -7.49496E-01 -1.63782E+00 -1.74266E+00 -9.12873E-01
  -2.26988E+00 -7.92973E-01 -1.19425E+00 -5.55037E-01 -2.59845E-01  6.11258E-01 -2.21417E+00 -1.15213E+00  1.84367E-01 -9.41486E-01
  -3.58690E-01 -8.68940E-01 -2.24771E+00 -1.05539E+00 -1.56518E+00  6.74273E-01 -5.27149E-01  4.60113E-01 -5.84620E-01 -9.06122E-01
   5.53162E-01 -1.34595E+00 -6.65733E-03  6.91387E-01  8.18365E-01 -3.18579E+00  5.59337E-01  4.72631E-01 -8.01918E-01  7.80755E-01
   5.04575E-01  9.44634E-01  1.72000E-01  1.59375E+00 -8.75091E-01  8.65772E-01 -8.14046E-01 -1.10048E+00  1.02201E+00  4.58621E-01
   1.05359E+00 -1.76369E+00  9.32416E-01 -3.64106E-01  1.13445E+00  1.32136E+00 -2.06236E+00  1.64380E-01  2.26655E+00 -5.54954E-01
   1.34439E+00 -6.19573E-01  1.08174E-01 -6.26557E-01  1.92979E+00 -1.37400E+00  1.29977E+00 -3.40327E-01 -1.59334E+00 -6.46114E-01
   1.12032E+00  1.91785E+00  9.54475E-01 -4.09988E-01  1.74044E-01  1.26656E+00  1.24643E-01  1.51891E+00
 NY points of the fit to the data follow
  -7.01438E+01 -6.95888E+01 -6.90203E+01 -6.85215E+01 -6.80714E+01 -6.75002E+01 -6.66519E+01 -6.56819E+01 -6.48003E+01 -6.37188E+01
  -6.22785E+01 -6.09591E+01 -6.01984E+01 -5.98693E+01 -5.96829E+01 -5.94410E+01 -5.90204E+01 -5.85916E+01 -5.84067E+01 -5.83296E+01
  -5.79130E+01 -5.73539E+01 -5.68053E+01 -5.63016E+01 -5.56400E+01 -5.46541E+01 -5.36510E+01 -5.27268E+01 -5.15613E+01 -5.02700E+01
  -4.93564E+01 -4.89028E+01 -4.86492E+01 -4.84995E+01 -4.84583E+01 -4.83286E+01 -4.81943E+01 -4.82985E+01 -4.81446E+01 -4.77122E+01
  -4.72343E+01 -4.67044E+01 -4.60484E+01 -4.53041E+01 -4.46391E+01 -4.39743E+01 -4.32511E+01 -4.26808E+01 -4.23223E+01 -4.20942E+01
  -4.19120E+01 -4.17013E+01 -4.14207E+01 -4.11115E+01 -4.08106E+01 -4.04635E+01 -4.00291E+01 -3.95438E+01 -3.90503E+01 -3.85777E+01
  -3.81589E+01 -3.78032E+01 -3.74994E+01 -3.72205E+01 -3.69204E+01 -3.65819E+01 -3.62256E+01 -3.58449E+01 -3.54537E+01 -3.50668E+01
  -3.46607E+01 -3.42537E+01 -3.38754E+01 -3.35328E+01 -3.32163E+01 -3.29095E+01 -3.26158E+01 -3.23195E+01 -3.20264E+01 -3.17451E+01
  -3.14324E+01 -3.10709E+01 -3.07056E+01 -3.03838E+01 -3.00610E+01 -2.97233E+01 -2.94500E+01 -2.92698E+01 -2.91097E+01 -2.89081E+01
  -2.86605E+01 -2.83732E+01 -2.80755E+01 -2.78308E+01 -2.75865E+01 -2.72862E+01 -2.69608E+01 -2.64877E+01 -2.56230E+01 -2.45517E+01
  -2.36056E+01 -2.25320E+01 -2.12531E+01 -2.04144E+01 -2.03935E+01 -2.08439E+01 -2.13688E+01 -2.18235E+01 -2.21152E+01 -2.22893E+01
  -2.27361E+01 -2.31327E+01 -2.30714E+01 -2.28876E+01 -2.26804E+01 -2.24743E+01 -2.22646E+01 -2.20516E+01 -2.18421E+01 -2.16210E+01
  -2.13391E+01 -2.08582E+01 -1.99577E+01 -1.88364E+01 -1.78531E+01 -1.67618E+01 -1.54661E+01 -1.45850E+01 -1.45171E+01 -1.49418E+01
  -1.54982E+01 -1.60280E+01 -1.64219E+01 -1.67906E+01 -1.75536E+01 -1.82885E+01 -1.84580E+01 -1.83662E+01 -1.81215E+01 -1.77848E+01
  -1.74597E+01 -1.71891E+01 -1.69311E+01 -1.67241E+01 -1.65559E+01 -1.64034E+01 -1.63037E+01 -1.62340E+01 -1.61773E+01 -1.61379E+01
  -1.60640E+01 -1.59668E+01 -1.58543E+01 -1.57375E+01 -1.56072E+01 -1.54655E+01 -1.53381E+01 -1.52229E+01 -1.51086E+01 -1.49985E+01
  -1.48905E+01 -1.47670E+01 -1.46169E+01 -1.44483E+01 -1.42745E+01 -1.41231E+01 -1.40058E+01 -1.39009E+01 -1.37819E+01 -1.36555E+01
  -1.35507E+01 -1.34652E+01 -1.34030E+01 -1.33271E+01 -1.32321E+01 -1.31538E+01 -1.30710E+01 -1.29521E+01 -1.28032E+01 -1.26707E+01
  -1.25851E+01 -1.25144E+01 -1.24191E+01 -1.22895E+01 -1.21167E+01 -1.19301E+01 -1.17046E+01 -1.14109E+01 -1.10469E+01 -1.06679E+01
  -1.03692E+01 -1.02040E+01 -1.01713E+01 -1.02274E+01 -1.02626E+01 -1.02618E+01 -1.02795E+01 -1.02415E+01 -1.00809E+01 -9.82154E+00
  -9.52545E+00 -9.24511E+00 -9.00478E+00 -8.79872E+00 -8.62467E+00 -8.54021E+00 -8.59858E+00 -8.69769E+00 -8.79459E+00 -8.85327E+00
  -8.77335E+00 -8.51942E+00 -8.19312E+00 -7.87100E+00 -7.48355E+00 -7.12699E+00 -7.07639E+00 -7.35274E+00 -7.82056E+00 -8.25718E+00
  -8.57919E+00 -8.82809E+00 -8.90591E+00 -8.75115E+00 -8.33568E+00 -7.81797E+00 -7.42081E+00 -7.15486E+00 -6.96105E+00 -6.78493E+00
  -6.65091E+00 -6.57735E+00 -6.45857E+00 -6.23703E+00 -6.05278E+00 -5.93234E+00 -5.86644E+00 -5.92259E+00 -6.11351E+00 -6.35089E+00
  -6.53280E+00 -6.60176E+00 -6.57366E+00 -6.40880E+00 -6.14496E+00 -5.88445E+00 -5.66235E+00 -5.50431E+00 -5.41235E+00 -5.40492E+00
  -5.38673E+00 -5.34122E+00 -5.28172E+00 -5.18694E+00 -4.89616E+00 -4.14061E+00 -2.89320E+00 -1.76097E+00 -6.96269E-01  7.75556E-01
   2.03789E+00  2.14403E+00  1.24262E+00  4.85166E-02 -1.11349E+00 -2.06966E+00 -2.75313E+00 -3.56052E+00 -4.73717E+00 -5.23378E+00
  -5.33310E+00 -5.36135E+00 -5.33812E+00 -5.26139E+00 -5.19508E+00 -5.14275E+00 -5.10367E+00 -5.07519E+00 -5.05602E+00 -5.03805E+00
  -5.02543E+00 -5.01613E+00 -4.99850E+00 -4.97094E+00 -4.93516E+00 -4.89150E+00 -4.84478E+00 -4.79649E+00 -4.74305E+00 -4.69007E+00
  -4.63751E+00 -4.58341E+00 -4.52828E+00 -4.47297E+00 -4.41633E+00 -4.35736E+00 -4.29685E+00 -4.23596E+00 -4.17405E+00 -4.11140E+00
  -4.04915E+00 -3.98699E+00 -3.92529E+00 -3.86453E+00 -3.80525E+00 -3.74761E+00 -3.69142E+00 -3.63660E+00 -3.58292E+00 -3.53015E+00
  -3.47827E+00 -3.42695E+00 -3.37554E+00 -3.32364E+00 -3.27083E+00 -3.21673E+00 -3.16086E+00 -3.10264E+00 -3.04135E+00 -2.97590E+00
  -2.90410E+00 -2.82181E+00 -2.73071E+00 -2.65127E+00 -2.58928E+00 -2.52887E+00 -2.48241E+00 -2.47627E+00 -2.49878E+00 -2.51163E+00
  -2.48589E+00 -2.42316E+00 -2.34670E+00 -2.25840E+00 -2.14950E+00 -2.01237E+00 -1.88446E+00 -1.79387E+00 -1.72475E+00 -1.66362E+00
  -1.59494E+00 -1.50129E+00 -1.40240E+00 -1.32744E+00 -1.25397E+00 -1.15492E+00 -1.04948E+00 -9.84247E-01 -9.43286E-01 -8.60622E-01
  -6.96513E-01 -4.87121E-01 -2.80837E-01 -8.27749E-02  8.71540E-02  2.15360E-01  2.56858E-01  1.85697E-01  3.78568E-02 -1.52308E-01
  -3.48623E-01 -5.33078E-01 -7.36164E-01 -9.14176E-01 -1.03874E+00 -1.12402E+00 -1.17928E+00 -1.21170E+00 -1.22756E+00 -1.23208E+00
  -1.22930E+00 -1.22208E+00 -1.21224E+00 -1.20081E+00 -1.18828E+00 -1.17477E+00 -1.16020E+00 -1.14436E+00 -1.12697E+00 -1.10772E+00
  -1.08628E+00 -1.06241E+00 -1.03587E+00 -1.00648E+00 -9.74139E-01 -9.38793E-01 -9.00518E-01 -8.59517E-01 -8.16122E-01 -7.70790E-01
  -7.24103E-01 -6.76778E-01 -6.29664E-01 -5.83717E-01 -5.39959E-01 -4.99424E-01 -4.63129E-01 -4.32028E-01 -4.06986E-01 -3.88710E-01
  -3.77712E-01 -3.74262E-01 -3.78389E-01 -3.89882E-01 -4.08308E-01 -4.33005E-01 -4.63125E-01 -4.97656E-01 -5.35527E-01 -5.75657E-01
  -6.16984E-01 -6.58471E-01 -6.99155E-01 -7.38172E-01 -7.74799E-01 -8.08456E-01 -8.38719E-01 -8.65279E-01 -8.87959E-01 -9.06685E-01
  -9.21499E-01 -9.32517E-01 -9.39921E-01 -9.43918E-01 -9.44741E-01 -9.42636E-01 -9.37871E-01 -9.30703E-01 -9.21381E-01 -9.10118E-01
  -8.97120E-01 -8.82573E-01 -8.66661E-01 -8.49541E-01 -8.31354E-01 -8.12208E-01 -7.92213E-01 -7.71462E-01 -7.50054E-01 -7.28065E-01
  -7.05563E-01 -6.82595E-01 -6.59222E-01 -6.35492E-01 -6.11467E-01 -5.87184E-01 -5.62680E-01 -5.37981E-01 -5.13129E-01 -4.88158E-01
  -4.63112E-01 -4.38010E-01 -4.12878E-01 -3.87729E-01 -3.62584E-01 -3.37450E-01 -3.12341E-01 -2.87252E-01 -2.62188E-01 -2.37147E-01
  -2.12147E-01 -1.87191E-01 -1.62288E-01 -1.37426E-01 -1.12613E-01 -8.78457E-02 -6.31430E-02 -3.85015E-02 -1.39286E-02  1.05897E-02
   3.50451E-02  5.94388E-02  8.37535E-02  1.07997E-01  1.32165E-01  1.56271E-01  1.80303E-01  2.04261E-01  2.28131E-01  2.51923E-01
   2.75635E-01  2.99279E-01  3.22839E-01  3.46318E-01  3.69704E-01  3.93012E-01  4.16239E-01  4.39394E-01  4.62461E-01  4.85445E-01
   5.08338E-01  5.31157E-01  5.53898E-01  5.76570E-01  5.99157E-01  6.21669E-01  6.44102E-01  6.66477E-01
 NY background values follow
    -7.054E+01   -6.993E+01   -6.932E+01   -6.871E+01   -6.811E+01   -6.750E+01   -6.690E+01   -6.630E+01   -6.570E+01   -6.510E+01
    -6.450E+01   -6.390E+01   -6.331E+01   -6.271E+01   -6.212E+01   -6.153E+01   -6.094E+01   -6.036E+01   -5.978E+01   -5.920E+01
    -5.862E+01   -5.804E+01   -5.747E+01   -5.690E+01   -5.634E+01   -5.577E+01   -5.521E+01   -5.466E+01   -5.411E+01   -5.356E+01
    -5.301E+01   -5.247E+01   -5.193E+01   -5.140E+01   -5.087E+01   -5.034E+01   -4.982E+01   -4.931E+01   -4.880E+01   -4.829E+01
    -4.779E+01   -4.729E+01   -4.680E+01   -4.631E+01   -4.583E+01   -4.536E+01   -4.489E+01   -4.442E+01   -4.396E+01   -4.351E+01
    -4.306E+01   -4.262E+01   -4.218E+01   -4.175E+01   -4.132E+01   -4.090E+01   -4.048E+01   -4.007E+01   -3.966E+01   -3.926E+01
    -3.886E+01   -3.847E+01   -3.808E+01   -3.770E+01   -3.732E+01   -3.694E+01   -3.657E+01   -3.621E+01   -3.585E+01   -3.549E+01
    -3.513E+01   -3.479E+01   -3.444E+01   -3.410E+01   -3.376E+01   -3.343E+01   -3.310E+01   -3.277E+01   -3.245E+01   -3.213E+01
    -3.182E+01   -3.151E+01   -3.120E+01   -3.090E+01   -3.059E+01   -3.030E+01   -3.000E+01   -2.971E+01   -2.942E+01   -2.914E+01
    -2.886E+01   -2.858E+01   -2.830E+01   -2.803E+01   -2.776E+01   -2.749E+01   -2.723E+01   -2.696E+01   -2.670E+01   -2.645E+01
    -2.619E+01   -2.594E+01   -2.569E+01   -2.545E+01   -2.520E+01   -2.496E+01   -2.472E+01   -2.449E+01   -2.426E+01   -2.402E+01
    -2.380E+01   -2.357E+01   -2.334E+01   -2.312E+01   -2.290E+01   -2.269E+01   -2.247E+01   -2.226E+01   -2.205E+01   -2.184E+01
    -2.163E+01   -2.143E+01   -2.122E+01   -2.102E+01   -2.083E+01   -2.063E+01   -2.043E+01   -2.024E+01   -2.005E+01   -1.986E+01
    -1.967E+01   -1.949E+01   -1.930E+01   -1.912E+01   -1.894E+01   -1.876E+01   -1.859E+01   -1.841E+01   -1.824E+01   -1.806E+01
    -1.789E+01   -1.772E+01   -1.755E+01   -1.739E+01   -1.722E+01   -1.706E+01   -1.690E+01   -1.674E+01   -1.658E+01   -1.642E+01
    -1.626E+01   -1.611E+01   -1.595E+01   -1.580E+01   -1.565E+01   -1.550E+01   -1.535E+01   -1.520E+01   -1.505E+01   -1.491E+01
    -1.477E+01   -1.462E+01   -1.448E+01   -1.434E+01   -1.420E+01   -1.406E+01   -1.393E+01   -1.379E+01   -1.365E+01   -1.352E+01
    -1.339E+01   -1.325E+01   -1.312E+01   -1.299E+01   -1.286E+01   -1.273E+01   -1.261E+01   -1.248E+01   -1.235E+01   -1.223E+01
    -1.211E+01   -1.198E+01   -1.186E+01   -1.174E+01   -1.162E+01   -1.150E+01   -1.138E+01   -1.126E+01   -1.114E+01   -1.103E+01
    -1.091E+01   -1.080E+01   -1.069E+01   -1.057E+01   -1.046E+01   -1.035E+01   -1.024E+01   -1.014E+01   -1.003E+01   -9.924E+00
    -9.820E+00   -9.717E+00   -9.615E+00   -9.515E+00   -9.416E+00   -9.318E+00   -9.221E+00   -9.126E+00   -9.032E+00   -8.940E+00
    -8.849E+00   -8.760E+00   -8.672E+00   -8.585E+00   -8.500E+00   -8.417E+00   -8.335E+00   -8.254E+00   -8.176E+00   -8.098E+00
    -8.023E+00   -7.949E+00   -7.877E+00   -7.806E+00   -7.738E+00   -7.671E+00   -7.605E+00   -7.542E+00   -7.480E+00   -7.420E+00
    -7.362E+00   -7.305E+00   -7.250E+00   -7.196E+00   -7.143E+00   -7.092E+00   -7.042E+00   -6.994E+00   -6.946E+00   -6.900E+00
    -6.855E+00   -6.811E+00   -6.768E+00   -6.726E+00   -6.684E+00   -6.644E+00   -6.604E+00   -6.565E+00   -6.527E+00   -6.489E+00
    -6.452E+00   -6.415E+00   -6.379E+00   -6.343E+00   -6.308E+00   -6.272E+00   -6.237E+00   -6.203E+00   -6.168E+00   -6.134E+00
    -6.099E+00   -6.064E+00   -6.030E+00   -5.995E+00   -5.960E+00   -5.925E+00   -5.889E+00   -5.853E+00   -5.817E+00   -5.780E+00
    -5.743E+00   -5.705E+00   -5.667E+00   -5.628E+00   -5.588E+00   -5.548E+00   -5.507E+00   -5.466E+00   -5.424E+00   -5.382E+00
    -5.339E+00   -5.296E+00   -5.252E+00   -5.207E+00   -5.162E+00   -5.117E+00   -5.071E+00   -5.025E+00   -4.979E+00   -4.932E+00
    -4.884E+00   -4.837E+00   -4.789E+00   -4.740E+00   -4.691E+00   -4.642E+00   -4.593E+00   -4.543E+00   -4.493E+00   -4.443E+00
    -4.393E+00   -4.342E+00   -4.291E+00   -4.240E+00   -4.188E+00   -4.137E+00   -4.085E+00   -4.033E+00   -3.981E+00   -3.929E+00
    -3.876E+00   -3.824E+00   -3.771E+00   -3.719E+00   -3.666E+00   -3.613E+00   -3.560E+00   -3.507E+00   -3.455E+00   -3.402E+00
    -3.349E+00   -3.296E+00   -3.244E+00   -3.191E+00   -3.139E+00   -3.087E+00   -3.035E+00   -2.984E+00   -2.932E+00   -2.881E+00
    -2.831E+00   -2.781E+00   -2.731E+00   -2.682E+00   -2.633E+00   -2.585E+00   -2.538E+00   -2.491E+00   -2.444E+00   -2.399E+00
    -2.354E+00   -2.310E+00   -2.266E+00   -2.223E+00   -2.181E+00   -2.140E+00   -2.100E+00   -2.061E+00   -2.023E+00   -1.985E+00
    -1.949E+00   -1.914E+00   -1.880E+00   -1.847E+00   -1.815E+00   -1.784E+00   -1.754E+00   -1.726E+00   -1.699E+00   -1.673E+00
    -1.649E+00   -1.626E+00   -1.604E+00   -1.584E+00   -1.565E+00   -1.547E+00   -1.531E+00   -1.516E+00   -1.501E+00   -1.488E+00
    -1.476E+00   -1.465E+00   -1.455E+00   -1.446E+00   -1.438E+00   -1.430E+00   -1.423E+00   -1.417E+00   -1.411E+00   -1.406E+00
    -1.402E+00   -1.398E+00   -1.395E+00   -1.391E+00   -1.389E+00   -1.386E+00   -1.384E+00   -1.382E+00   -1.380E+00   -1.378E+00
    -1.376E+00   -1.374E+00   -1.372E+00   -1.371E+00   -1.368E+00   -1.366E+00   -1.363E+00   -1.360E+00   -1.357E+00   -1.354E+00
    -1.349E+00   -1.345E+00   -1.340E+00   -1.334E+00   -1.327E+00   -1.320E+00   -1.312E+00   -1.304E+00   -1.294E+00   -1.284E+00
    -1.273E+00   -1.261E+00   -1.248E+00   -1.235E+00   -1.221E+00   -1.206E+00   -1.191E+00   -1.175E+00   -1.158E+00   -1.141E+00
    -1.123E+00   -1.104E+00   -1.085E+00   -1.066E+00   -1.046E+00   -1.026E+00   -1.005E+00   -9.833E-01   -9.615E-01   -9.393E-01
    -9.167E-01   -8.938E-01   -8.705E-01   -8.469E-01   -8.230E-01   -7.988E-01   -7.744E-01   -7.497E-01   -7.248E-01   -6.996E-01
    -6.743E-01   -6.489E-01   -6.233E-01   -5.975E-01   -5.717E-01   -5.457E-01   -5.198E-01   -4.937E-01   -4.677E-01   -4.416E-01
    -4.155E-01   -3.895E-01   -3.636E-01   -3.377E-01   -3.119E-01   -2.861E-01   -2.604E-01   -2.348E-01   -2.093E-01   -1.839E-01
    -1.585E-01   -1.332E-01   -1.080E-01   -8.287E-02   -5.783E-02   -3.286E-02   -7.980E-03    1.682E-02    4.153E-02    6.616E-02
     9.070E-02    1.152E-01    1.395E-01    1.638E-01    1.880E-01    2.121E-01    2.361E-01    2.600E-01    2.838E-01    3.075E-01
     3.311E-01    3.546E-01    3.781E-01    4.014E-01    4.246E-01    4.477E-01    4.708E-01    4.937E-01    5.165E-01    5.392E-01
     5.618E-01    5.843E-01    6.067E-01    6.290E-01    6.512E-01    6.732E-01    6.952E-01    7.170E-01
 Ala      Conc. = 1.59E+01
