 LCModel (Version 6.3-1L) Copyright: S.W. Provencher.          Ref.: Magn. Reson. Med. 30:672-679 (1993).                
 Slice#3 Row#4 Col#12  PD_05_press_1_raw_act
 36 lines in following concentration table = NCONC+1
    Conc.  %SD /Cr+PCr  Metabolite                                         
   74.289  72%   3.987 Ala                                                 
    2.722 145%   0.146 Asp                                                 
   18.631 116%   1.000 Cr                                                  
    0.000 999%   0.000 PCr                                                 
    1.725 137% 9.3E-02 GABA                                                
    1.620 147% 8.7E-02 Glc                                                 
    0.000 999%   0.000 Gln                                                 
  281.981  34%  15.135 Glu                                                 
    0.000 999%   0.000 GPC                                                 
   11.752  66%   0.631 PCh                                                 
   19.024 157%   1.021 GSH                                                 
    0.000 999%   0.000 Ins                                                 
    0.000 999%   0.000 Lac                                                 
    0.000 999%   0.000 NAA                                                 
    0.000 999%   0.000 NAAG                                                
    0.600 132% 3.2E-02 Scyllo                                              
    2.731 145%   0.147 Tau                                                 
    2.792 211%   0.150 -CrCH2                                              
   11.752  66%   0.631 GPC+PCh                                             
    0.000 999%   0.000 NAA+NAAG                                            
   18.631 116%   1.000 Cr+PCr                                              
  281.981  34%  15.135 Glu+Gln                                             
 1.94E+04  16% 1.0E+03 Lip13a                                              
 1.05E+04  38% 565.776 Lip13b                                              
 1.60E+03  38%  85.955 Lip09                                               
 1.92E+03  25% 103.202 MM09                                                
  689.217  63%  36.992 Lip20                                               
 2.38E+03  19% 127.973 MM20                                                
  589.285  99%  31.629 MM12                                                
 8.64E+03  22% 463.808 MM14                                                
 1.97E+03  38% 105.953 MM17                                                
 3.00E+04   7% 1.6E+03 Lip13a+Lip13b                                       
 3.92E+04   3% 2.1E+03 MM14+Lip13a+Lip13b+MM12                             
 3.52E+03  21% 189.158 MM09+Lip09                                          
 3.07E+03  11% 164.965 MM20+Lip20                                          
   6 lines in following misc. output table
  FWHM = 0.054 ppm    S/N =  46                                            
  Data shift =-0.046 ppm                                                   
  Ph:-136 deg     -63.4 deg/ppm                                            
  alphaB,S = 1.1E+00,   1.0E+02                                            
   14 spline knots.   Ns = 5(1)                                            
  (10) 2 infls.   ( 9) 1 extrs.                                            
  498 points on ppm-axis = NY
      4.000000     3.992357     3.984714     3.977070     3.969427     3.961784     3.954141     3.946497     3.938854     3.931211
      3.923568     3.915925     3.908281     3.900638     3.892995     3.885352     3.877708     3.870065     3.862422     3.854779
      3.847136     3.839492     3.831849     3.824206     3.816563     3.808919     3.801276     3.793633     3.785990     3.778347
      3.770703     3.763060     3.755417     3.747774     3.740130     3.732487     3.724844     3.717201     3.709558     3.701914
      3.694271     3.686628     3.678985     3.671341     3.663698     3.656055     3.648412     3.640769     3.633125     3.625482
      3.617839     3.610196     3.602552     3.594909     3.587266     3.579623     3.571980     3.564336     3.556693     3.549050
      3.541407     3.533763     3.526120     3.518477     3.510834     3.503191     3.495547     3.487904     3.480261     3.472618
      3.464974     3.457331     3.449688     3.442045     3.434402     3.426758     3.419115     3.411472     3.403829     3.396185
      3.388542     3.380899     3.373256     3.365613     3.357969     3.350326     3.342683     3.335040     3.327396     3.319753
      3.312110     3.304467     3.296824     3.289180     3.281537     3.273894     3.266251     3.258607     3.250964     3.243321
      3.235678     3.228034     3.220391     3.212748     3.205105     3.197462     3.189818     3.182175     3.174532     3.166889
      3.159245     3.151602     3.143959     3.136316     3.128673     3.121029     3.113386     3.105743     3.098100     3.090456
      3.082813     3.075170     3.067527     3.059884     3.052240     3.044597     3.036954     3.029311     3.021667     3.014024
      3.006381     2.998738     2.991095     2.983451     2.975808     2.968165     2.960522     2.952878     2.945235     2.937592
      2.929949     2.922306     2.914662     2.907019     2.899376     2.891733     2.884089     2.876446     2.868803     2.861160
      2.853517     2.845873     2.838230     2.830587     2.822944     2.815300     2.807657     2.800014     2.792371     2.784728
      2.777084     2.769441     2.761798     2.754155     2.746511     2.738868     2.731225     2.723582     2.715939     2.708295
      2.700652     2.693009     2.685366     2.677722     2.670079     2.662436     2.654793     2.647150     2.639506     2.631863
      2.624220     2.616577     2.608933     2.601290     2.593647     2.586004     2.578361     2.570717     2.563074     2.555431
      2.547788     2.540144     2.532501     2.524858     2.517215     2.509572     2.501928     2.494285     2.486642     2.478999
      2.471355     2.463712     2.456069     2.448426     2.440783     2.433139     2.425496     2.417853     2.410210     2.402566
      2.394923     2.387280     2.379637     2.371994     2.364350     2.356707     2.349064     2.341421     2.333777     2.326134
      2.318491     2.310848     2.303205     2.295561     2.287918     2.280275     2.272632     2.264988     2.257345     2.249702
      2.242059     2.234416     2.226772     2.219129     2.211486     2.203843     2.196199     2.188556     2.180913     2.173270
      2.165627     2.157983     2.150340     2.142697     2.135054     2.127410     2.119767     2.112124     2.104481     2.096838
      2.089194     2.081551     2.073908     2.066265     2.058621     2.050978     2.043335     2.035692     2.028049     2.020405
      2.012762     2.005119     1.997476     1.989833     1.982190     1.974546     1.966903     1.959260     1.951617     1.943974
      1.936331     1.928688     1.921045     1.913402     1.905759     1.898115     1.890472     1.882829     1.875186     1.867543
      1.859900     1.852257     1.844614     1.836971     1.829327     1.821684     1.814041     1.806398     1.798755     1.791112
      1.783469     1.775826     1.768183     1.760540     1.752896     1.745253     1.737610     1.729967     1.722324     1.714681
      1.707038     1.699395     1.691752     1.684108     1.676465     1.668822     1.661179     1.653536     1.645893     1.638250
      1.630607     1.622964     1.615321     1.607677     1.600034     1.592391     1.584748     1.577105     1.569462     1.561819
      1.554176     1.546533     1.538890     1.531246     1.523603     1.515960     1.508317     1.500674     1.493031     1.485388
      1.477745     1.470102     1.462458     1.454815     1.447172     1.439529     1.431886     1.424243     1.416600     1.408957
      1.401314     1.393671     1.386027     1.378384     1.370741     1.363098     1.355455     1.347812     1.340169     1.332526
      1.324883     1.317240     1.309596     1.301953     1.294310     1.286667     1.279024     1.271381     1.263738     1.256095
      1.248452     1.240808     1.233165     1.225522     1.217879     1.210236     1.202593     1.194950     1.187307     1.179664
      1.172021     1.164377     1.156734     1.149091     1.141448     1.133805     1.126162     1.118519     1.110876     1.103233
      1.095590     1.087946     1.080303     1.072660     1.065017     1.057374     1.049731     1.042088     1.034445     1.026802
      1.019158     1.011515     1.003872     0.996229     0.988586     0.980943     0.973300     0.965657     0.958014     0.950371
      0.942727     0.935084     0.927441     0.919798     0.912155     0.904512     0.896869     0.889226     0.881583     0.873940
      0.866296     0.858653     0.851010     0.843367     0.835724     0.828081     0.820438     0.812795     0.805152     0.797508
      0.789865     0.782222     0.774579     0.766936     0.759293     0.751650     0.744007     0.736364     0.728721     0.721077
      0.713434     0.705791     0.698148     0.690505     0.682862     0.675219     0.667576     0.659933     0.652290     0.644646
      0.637003     0.629360     0.621717     0.614074     0.606431     0.598788     0.591145     0.583502     0.575858     0.568215
      0.560572     0.552929     0.545286     0.537643     0.530000     0.522357     0.514714     0.507071     0.499427     0.491784
      0.484141     0.476498     0.468855     0.461212     0.453569     0.445925     0.438282     0.430639     0.422996     0.415353
      0.407710     0.400067     0.392424     0.384780     0.377137     0.369494     0.361851     0.354208     0.346565     0.338922
      0.331278     0.323635     0.315992     0.308349     0.300706     0.293063     0.285420     0.277777     0.270133     0.262490
      0.254847     0.247204     0.239561     0.231918     0.224275     0.216631     0.208988     0.201345
 NY phased data points follow
   8.21459E+00  9.39144E+00  9.27965E+00  9.46674E+00  6.95959E+00  7.93547E+00  8.85785E+00  9.07700E+00  7.89349E+00  9.16104E+00
   1.04304E+01  1.07397E+01  1.10589E+01  1.11980E+01  1.19040E+01  1.12275E+01  1.08525E+01  1.32031E+01  1.36397E+01  1.15943E+01
   1.30474E+01  1.44979E+01  1.61308E+01  1.35789E+01  1.50142E+01  1.42202E+01  1.43666E+01  1.54637E+01  1.46739E+01  1.92433E+01
   1.72642E+01  1.45910E+01  1.78038E+01  1.72149E+01  1.79605E+01  1.86060E+01  1.82706E+01  1.87710E+01  1.63059E+01  1.92149E+01
   1.90132E+01  1.95636E+01  2.01861E+01  2.10989E+01  2.12524E+01  1.97076E+01  1.89032E+01  2.09937E+01  2.00286E+01  2.12440E+01
   2.41887E+01  2.30755E+01  2.28385E+01  2.20105E+01  2.27448E+01  2.28226E+01  2.15941E+01  2.30994E+01  2.50282E+01  2.56877E+01
   2.53988E+01  2.51955E+01  2.53799E+01  2.54029E+01  2.46915E+01  2.67899E+01  2.63020E+01  2.76116E+01  2.52919E+01  2.74859E+01
   2.80885E+01  3.14784E+01  3.05780E+01  2.74882E+01  3.00560E+01  2.83246E+01  2.93576E+01  2.87578E+01  3.03661E+01  3.38371E+01
   3.23268E+01  2.94137E+01  3.24667E+01  2.96650E+01  3.44857E+01  3.49602E+01  3.43171E+01  3.34207E+01  3.21475E+01  3.49321E+01
   3.47121E+01  3.50850E+01  3.49892E+01  3.60235E+01  3.70805E+01  3.36532E+01  3.70006E+01  3.64756E+01  3.79562E+01  3.65593E+01
   3.70165E+01  3.67661E+01  3.92664E+01  3.95401E+01  3.81022E+01  3.92809E+01  3.96933E+01  4.00657E+01  3.90519E+01  3.91880E+01
   3.91562E+01  3.99990E+01  3.76932E+01  4.13419E+01  4.21023E+01  4.23611E+01  4.02689E+01  4.35630E+01  4.39897E+01  4.39707E+01
   4.44586E+01  4.27597E+01  4.41203E+01  4.41179E+01  4.49662E+01  4.50028E+01  4.58521E+01  4.55074E+01  4.65870E+01  4.83484E+01
   4.66081E+01  4.73222E+01  4.62943E+01  4.87974E+01  4.43502E+01  4.60572E+01  4.44518E+01  4.64934E+01  4.83940E+01  4.80054E+01
   4.63869E+01  4.88439E+01  4.95602E+01  4.81581E+01  5.09109E+01  4.99989E+01  5.19025E+01  5.12059E+01  5.05908E+01  5.19434E+01
   4.94513E+01  5.29320E+01  5.25758E+01  5.23014E+01  5.44524E+01  5.39763E+01  5.37375E+01  5.41491E+01  5.46368E+01  5.42864E+01
   5.62098E+01  5.62849E+01  5.59739E+01  5.48962E+01  5.60530E+01  5.56162E+01  5.68298E+01  6.00500E+01  6.04676E+01  5.91279E+01
   5.91624E+01  5.83252E+01  5.97854E+01  5.91823E+01  6.06452E+01  6.16642E+01  6.16338E+01  6.32572E+01  6.02204E+01  6.04225E+01
   6.16327E+01  6.21560E+01  6.54082E+01  6.47740E+01  6.37534E+01  6.49749E+01  6.46173E+01  6.28737E+01  6.33599E+01  6.43320E+01
   6.47553E+01  6.75214E+01  6.80702E+01  6.79224E+01  6.72457E+01  6.81302E+01  6.74582E+01  6.79920E+01  6.64670E+01  6.83099E+01
   6.93243E+01  6.87715E+01  6.96898E+01  7.01387E+01  7.43305E+01  7.22398E+01  7.25805E+01  7.29907E+01  7.44689E+01  7.40755E+01
   7.40432E+01  7.50296E+01  7.58710E+01  7.72236E+01  7.95484E+01  7.78990E+01  7.96734E+01  7.90693E+01  7.97107E+01  7.91265E+01
   8.21176E+01  8.09901E+01  8.13736E+01  8.07821E+01  8.07775E+01  8.36056E+01  8.31539E+01  8.63345E+01  8.53849E+01  8.67521E+01
   8.84450E+01  9.05452E+01  9.02528E+01  8.96070E+01  9.16276E+01  9.19066E+01  9.40406E+01  9.45360E+01  9.80227E+01  9.46685E+01
   9.86515E+01  9.90445E+01  9.86507E+01  1.00526E+02  1.02315E+02  1.03669E+02  1.04330E+02  1.03633E+02  1.04147E+02  1.03826E+02
   1.05234E+02  1.04946E+02  1.07345E+02  1.05938E+02  1.05843E+02  1.07261E+02  1.08237E+02  1.08423E+02  1.09555E+02  1.09515E+02
   1.09622E+02  1.11540E+02  1.12090E+02  1.14258E+02  1.12438E+02  1.13517E+02  1.15108E+02  1.16175E+02  1.13836E+02  1.11170E+02
   1.13181E+02  1.16202E+02  1.17894E+02  1.16111E+02  1.14512E+02  1.15852E+02  1.15894E+02  1.17130E+02  1.17050E+02  1.15965E+02
   1.16048E+02  1.15886E+02  1.14637E+02  1.14957E+02  1.14831E+02  1.16433E+02  1.15572E+02  1.15184E+02  1.15979E+02  1.14495E+02
   1.18213E+02  1.17015E+02  1.17945E+02  1.17810E+02  1.17205E+02  1.17692E+02  1.19090E+02  1.19408E+02  1.20401E+02  1.22307E+02
   1.22063E+02  1.24571E+02  1.22807E+02  1.24032E+02  1.23405E+02  1.26423E+02  1.25135E+02  1.27198E+02  1.28525E+02  1.31494E+02
   1.32701E+02  1.32215E+02  1.35779E+02  1.34183E+02  1.34951E+02  1.39371E+02  1.38982E+02  1.41503E+02  1.42156E+02  1.43525E+02
   1.43301E+02  1.45868E+02  1.47445E+02  1.51642E+02  1.50384E+02  1.54219E+02  1.55392E+02  1.57933E+02  1.60167E+02  1.64341E+02
   1.66062E+02  1.67951E+02  1.70366E+02  1.73624E+02  1.78897E+02  1.81298E+02  1.85759E+02  1.88858E+02  1.93005E+02  1.94675E+02
   1.98630E+02  2.03009E+02  2.07771E+02  2.11335E+02  2.14864E+02  2.17187E+02  2.21976E+02  2.23909E+02  2.28300E+02  2.32062E+02
   2.33334E+02  2.40755E+02  2.44854E+02  2.45301E+02  2.47479E+02  2.47338E+02  2.47719E+02  2.49793E+02  2.54888E+02  2.57694E+02
   2.56426E+02  2.57748E+02  2.59887E+02  2.62084E+02  2.61970E+02  2.63894E+02  2.65714E+02  2.63564E+02  2.62743E+02  2.56930E+02
   2.56863E+02  2.50131E+02  2.46644E+02  2.38884E+02  2.33274E+02  2.25039E+02  2.15699E+02  2.04517E+02  1.97625E+02  1.88662E+02
   1.81714E+02  1.74992E+02  1.68877E+02  1.62416E+02  1.59608E+02  1.55506E+02  1.46751E+02  1.46897E+02  1.44486E+02  1.42071E+02
   1.39018E+02  1.34645E+02  1.33065E+02  1.32759E+02  1.29275E+02  1.29565E+02  1.29109E+02  1.25146E+02  1.24373E+02  1.19970E+02
   1.21776E+02  1.18827E+02  1.16296E+02  1.13917E+02  1.16047E+02  1.15877E+02  1.13127E+02  1.11562E+02  1.10334E+02  1.08511E+02
   1.08318E+02  1.05719E+02  1.06721E+02  1.04685E+02  1.05974E+02  1.02247E+02  1.02988E+02  1.00929E+02  1.00075E+02  9.90636E+01
   9.80973E+01  9.79655E+01  9.47739E+01  9.48140E+01  9.65250E+01  9.41078E+01  9.41932E+01  9.17260E+01  9.01495E+01  8.87542E+01
   8.92447E+01  8.97092E+01  8.73481E+01  8.65411E+01  8.64306E+01  8.56422E+01  8.51714E+01  8.58828E+01  8.47151E+01  8.39855E+01
   8.09222E+01  8.05022E+01  8.14893E+01  7.82030E+01  7.83656E+01  7.58675E+01  7.54303E+01  7.54724E+01  7.63138E+01  7.57971E+01
   7.21257E+01  7.39929E+01  7.50779E+01  7.18206E+01  7.13521E+01  7.16219E+01  7.04502E+01  7.01416E+01  6.97096E+01  6.85420E+01
   6.84483E+01  6.75619E+01  6.84137E+01  6.74142E+01  6.66886E+01  6.58042E+01  6.37770E+01  6.39448E+01  6.27436E+01  6.33594E+01
   6.33810E+01  6.39832E+01  6.21659E+01  6.09821E+01  6.08373E+01  6.07357E+01  5.86831E+01  6.08467E+01  5.97534E+01  5.88042E+01
   5.90071E+01  5.73792E+01  5.59460E+01  5.72394E+01  5.53465E+01  5.55287E+01  5.38708E+01  5.65717E+01  5.52032E+01  5.44680E+01
   5.30862E+01  5.34367E+01  5.17656E+01  5.12360E+01  5.21752E+01  5.11809E+01  5.06393E+01  5.12619E+01
 NY points of the fit to the data follow
   7.31144E+00  7.60011E+00  7.88938E+00  8.17773E+00  8.46259E+00  8.74930E+00  9.06098E+00  9.41004E+00  9.78071E+00  1.01544E+01
   1.05161E+01  1.08548E+01  1.11623E+01  1.14302E+01  1.16601E+01  1.18640E+01  1.20629E+01  1.22891E+01  1.25724E+01  1.29081E+01
   1.32803E+01  1.36783E+01  1.40783E+01  1.44231E+01  1.46815E+01  1.48798E+01  1.50497E+01  1.52192E+01  1.54454E+01  1.57816E+01
   1.62343E+01  1.67556E+01  1.72875E+01  1.77530E+01  1.80776E+01  1.82425E+01  1.83086E+01  1.83547E+01  1.84195E+01  1.85490E+01
   1.87985E+01  1.91666E+01  1.95944E+01  2.00106E+01  2.03810E+01  2.06919E+01  2.09550E+01  2.12128E+01  2.14835E+01  2.17649E+01
   2.20529E+01  2.23457E+01  2.26418E+01  2.29403E+01  2.32413E+01  2.35434E+01  2.38456E+01  2.41476E+01  2.44489E+01  2.47508E+01
   2.50542E+01  2.53589E+01  2.56646E+01  2.59705E+01  2.62761E+01  2.65809E+01  2.68846E+01  2.71871E+01  2.74887E+01  2.77895E+01
   2.80906E+01  2.83933E+01  2.86973E+01  2.90016E+01  2.93049E+01  2.96060E+01  2.99043E+01  3.01999E+01  3.04933E+01  3.07854E+01
   3.10771E+01  3.13714E+01  3.16701E+01  3.19713E+01  3.22715E+01  3.25684E+01  3.28607E+01  3.31481E+01  3.34305E+01  3.37085E+01
   3.39827E+01  3.42549E+01  3.45278E+01  3.48049E+01  3.50869E+01  3.53727E+01  3.56641E+01  3.59714E+01  3.63431E+01  3.68191E+01
   3.73545E+01  3.78922E+01  3.83859E+01  3.88030E+01  3.91243E+01  3.93442E+01  3.94697E+01  3.95240E+01  3.95513E+01  3.96152E+01
   3.97829E+01  4.00514E+01  4.03523E+01  4.06640E+01  4.09823E+01  4.13052E+01  4.16313E+01  4.19603E+01  4.22920E+01  4.26271E+01
   4.29681E+01  4.33238E+01  4.37255E+01  4.41803E+01  4.46589E+01  4.51314E+01  4.55738E+01  4.59696E+01  4.63126E+01  4.66032E+01
   4.68398E+01  4.70293E+01  4.71932E+01  4.73645E+01  4.75778E+01  4.78237E+01  4.80794E+01  4.83475E+01  4.86310E+01  4.89310E+01
   4.92464E+01  4.95691E+01  4.98839E+01  5.01826E+01  5.04649E+01  5.07341E+01  5.09975E+01  5.12626E+01  5.15333E+01  5.18113E+01
   5.20933E+01  5.23785E+01  5.26673E+01  5.29601E+01  5.32568E+01  5.35570E+01  5.38607E+01  5.41670E+01  5.44751E+01  5.47842E+01
   5.50938E+01  5.54034E+01  5.57138E+01  5.60264E+01  5.63418E+01  5.66598E+01  5.69802E+01  5.73027E+01  5.76278E+01  5.79553E+01
   5.82850E+01  5.86162E+01  5.89487E+01  5.92827E+01  5.96190E+01  5.99579E+01  6.02998E+01  6.06451E+01  6.09945E+01  6.13492E+01
   6.17085E+01  6.20717E+01  6.24386E+01  6.28101E+01  6.31883E+01  6.35769E+01  6.39794E+01  6.43967E+01  6.48257E+01  6.52611E+01
   6.56977E+01  6.61301E+01  6.65520E+01  6.69606E+01  6.73644E+01  6.77750E+01  6.82020E+01  6.86532E+01  6.91318E+01  6.96370E+01
   7.01656E+01  7.07150E+01  7.12717E+01  7.18135E+01  7.23350E+01  7.28167E+01  7.32580E+01  7.36723E+01  7.40832E+01  7.45343E+01
   7.50799E+01  7.58025E+01  7.67145E+01  7.77227E+01  7.87166E+01  7.95999E+01  8.02959E+01  8.07081E+01  8.08132E+01  8.07180E+01
   8.06155E+01  8.06827E+01  8.10556E+01  8.18104E+01  8.28754E+01  8.41150E+01  8.54231E+01  8.66854E+01  8.78004E+01  8.87012E+01
   8.94170E+01  9.00685E+01  9.07535E+01  9.14896E+01  9.22794E+01  9.31086E+01  9.39443E+01  9.47660E+01  9.55450E+01  9.62896E+01
   9.70472E+01  9.78585E+01  9.87375E+01  9.96914E+01  1.00713E+02  1.01757E+02  1.02764E+02  1.03682E+02  1.04499E+02  1.05236E+02
   1.05906E+02  1.06548E+02  1.07192E+02  1.07827E+02  1.08426E+02  1.08991E+02  1.09519E+02  1.09991E+02  1.10401E+02  1.10768E+02
   1.11119E+02  1.11450E+02  1.11755E+02  1.12024E+02  1.12241E+02  1.12390E+02  1.12484E+02  1.12551E+02  1.12614E+02  1.12692E+02
   1.12797E+02  1.12934E+02  1.13095E+02  1.13265E+02  1.13447E+02  1.13636E+02  1.13820E+02  1.13993E+02  1.14153E+02  1.14304E+02
   1.14457E+02  1.14624E+02  1.14810E+02  1.15014E+02  1.15236E+02  1.15474E+02  1.15728E+02  1.15997E+02  1.16279E+02  1.16577E+02
   1.16895E+02  1.17236E+02  1.17603E+02  1.17999E+02  1.18428E+02  1.18892E+02  1.19396E+02  1.19943E+02  1.20537E+02  1.21182E+02
   1.21881E+02  1.22635E+02  1.23446E+02  1.24314E+02  1.25237E+02  1.26213E+02  1.27237E+02  1.28304E+02  1.29407E+02  1.30540E+02
   1.31696E+02  1.32869E+02  1.34055E+02  1.35250E+02  1.36457E+02  1.37677E+02  1.38920E+02  1.40196E+02  1.41523E+02  1.42919E+02
   1.44409E+02  1.46030E+02  1.47830E+02  1.49792E+02  1.51846E+02  1.53958E+02  1.56119E+02  1.58335E+02  1.60615E+02  1.62971E+02
   1.65467E+02  1.68214E+02  1.71255E+02  1.74583E+02  1.78138E+02  1.81782E+02  1.85399E+02  1.88960E+02  1.92450E+02  1.95866E+02
   1.99235E+02  2.02616E+02  2.06120E+02  2.09814E+02  2.13660E+02  2.17605E+02  2.21590E+02  2.25540E+02  2.29369E+02  2.32992E+02
   2.36331E+02  2.39334E+02  2.41979E+02  2.44281E+02  2.46292E+02  2.48090E+02  2.49771E+02  2.51428E+02  2.53138E+02  2.54945E+02
   2.56846E+02  2.58792E+02  2.60684E+02  2.62385E+02  2.63729E+02  2.64539E+02  2.64643E+02  2.63891E+02  2.62165E+02  2.59394E+02
   2.55555E+02  2.50680E+02  2.44848E+02  2.38183E+02  2.30840E+02  2.23001E+02  2.14860E+02  2.06609E+02  1.98432E+02  1.90496E+02
   1.82939E+02  1.75871E+02  1.69370E+02  1.63480E+02  1.58217E+02  1.53568E+02  1.49499E+02  1.45958E+02  1.42882E+02  1.40202E+02
   1.37846E+02  1.35746E+02  1.33839E+02  1.32070E+02  1.30394E+02  1.28778E+02  1.27197E+02  1.25635E+02  1.24086E+02  1.22550E+02
   1.21030E+02  1.19534E+02  1.18070E+02  1.16647E+02  1.15271E+02  1.13948E+02  1.12681E+02  1.11470E+02  1.10313E+02  1.09205E+02
   1.08142E+02  1.07116E+02  1.06120E+02  1.05147E+02  1.04189E+02  1.03240E+02  1.02295E+02  1.01351E+02  1.00404E+02  9.94529E+01
   9.84976E+01  9.75387E+01  9.65776E+01  9.56163E+01  9.46573E+01  9.37031E+01  9.27564E+01  9.18197E+01  9.08954E+01  8.99854E+01
   8.90913E+01  8.82145E+01  8.73558E+01  8.65158E+01  8.56946E+01  8.48922E+01  8.41082E+01  8.33421E+01  8.25932E+01  8.18606E+01
   8.11436E+01  8.04411E+01  7.97523E+01  7.90762E+01  7.84120E+01  7.77588E+01  7.71157E+01  7.64821E+01  7.58573E+01  7.52406E+01
   7.46314E+01  7.40293E+01  7.34337E+01  7.28442E+01  7.22604E+01  7.16818E+01  7.11082E+01  7.05391E+01  6.99743E+01  6.94134E+01
   6.88563E+01  6.83028E+01  6.77525E+01  6.72054E+01  6.66612E+01  6.61199E+01  6.55812E+01  6.50450E+01  6.45113E+01  6.39799E+01
   6.34507E+01  6.29237E+01  6.23987E+01  6.18756E+01  6.13545E+01  6.08352E+01  6.03178E+01  5.98020E+01  5.92879E+01  5.87755E+01
   5.82646E+01  5.77553E+01  5.72475E+01  5.67413E+01  5.62365E+01  5.57331E+01  5.52311E+01  5.47305E+01  5.42313E+01  5.37334E+01
   5.32368E+01  5.27416E+01  5.22476E+01  5.17550E+01  5.12636E+01  5.07735E+01  5.02846E+01  4.97970E+01
 NY background values follow
     7.140E+00    7.425E+00    7.710E+00    7.995E+00    8.280E+00    8.566E+00    8.851E+00    9.137E+00    9.422E+00    9.708E+00
     9.994E+00    1.028E+01    1.057E+01    1.085E+01    1.114E+01    1.143E+01    1.172E+01    1.200E+01    1.229E+01    1.258E+01
     1.287E+01    1.316E+01    1.345E+01    1.374E+01    1.403E+01    1.432E+01    1.461E+01    1.490E+01    1.519E+01    1.548E+01
     1.577E+01    1.607E+01    1.636E+01    1.665E+01    1.695E+01    1.724E+01    1.754E+01    1.783E+01    1.813E+01    1.843E+01
     1.872E+01    1.902E+01    1.932E+01    1.962E+01    1.992E+01    2.022E+01    2.052E+01    2.082E+01    2.112E+01    2.143E+01
     2.173E+01    2.203E+01    2.234E+01    2.264E+01    2.295E+01    2.325E+01    2.356E+01    2.386E+01    2.416E+01    2.447E+01
     2.477E+01    2.508E+01    2.538E+01    2.568E+01    2.599E+01    2.629E+01    2.659E+01    2.689E+01    2.719E+01    2.749E+01
     2.779E+01    2.809E+01    2.839E+01    2.869E+01    2.898E+01    2.928E+01    2.957E+01    2.986E+01    3.015E+01    3.044E+01
     3.073E+01    3.102E+01    3.130E+01    3.159E+01    3.187E+01    3.215E+01    3.243E+01    3.271E+01    3.298E+01    3.326E+01
     3.353E+01    3.380E+01    3.406E+01    3.433E+01    3.459E+01    3.486E+01    3.512E+01    3.538E+01    3.564E+01    3.589E+01
     3.615E+01    3.640E+01    3.666E+01    3.691E+01    3.716E+01    3.741E+01    3.767E+01    3.792E+01    3.817E+01    3.842E+01
     3.867E+01    3.892E+01    3.917E+01    3.942E+01    3.967E+01    3.992E+01    4.017E+01    4.043E+01    4.068E+01    4.094E+01
     4.119E+01    4.145E+01    4.171E+01    4.197E+01    4.223E+01    4.249E+01    4.275E+01    4.302E+01    4.329E+01    4.356E+01
     4.383E+01    4.410E+01    4.438E+01    4.465E+01    4.494E+01    4.522E+01    4.550E+01    4.579E+01    4.608E+01    4.638E+01
     4.668E+01    4.698E+01    4.728E+01    4.758E+01    4.789E+01    4.820E+01    4.851E+01    4.883E+01    4.914E+01    4.946E+01
     4.978E+01    5.011E+01    5.044E+01    5.077E+01    5.110E+01    5.143E+01    5.177E+01    5.211E+01    5.245E+01    5.279E+01
     5.313E+01    5.348E+01    5.383E+01    5.418E+01    5.454E+01    5.489E+01    5.525E+01    5.561E+01    5.597E+01    5.633E+01
     5.670E+01    5.707E+01    5.744E+01    5.781E+01    5.818E+01    5.855E+01    5.893E+01    5.931E+01    5.969E+01    6.007E+01
     6.045E+01    6.084E+01    6.123E+01    6.162E+01    6.201E+01    6.240E+01    6.279E+01    6.319E+01    6.359E+01    6.399E+01
     6.439E+01    6.480E+01    6.520E+01    6.561E+01    6.603E+01    6.644E+01    6.686E+01    6.728E+01    6.771E+01    6.813E+01
     6.856E+01    6.900E+01    6.943E+01    6.987E+01    7.032E+01    7.076E+01    7.121E+01    7.167E+01    7.212E+01    7.259E+01
     7.305E+01    7.352E+01    7.399E+01    7.447E+01    7.495E+01    7.543E+01    7.592E+01    7.642E+01    7.691E+01    7.742E+01
     7.792E+01    7.844E+01    7.895E+01    7.947E+01    8.000E+01    8.053E+01    8.107E+01    8.161E+01    8.215E+01    8.270E+01
     8.326E+01    8.382E+01    8.438E+01    8.494E+01    8.551E+01    8.608E+01    8.665E+01    8.722E+01    8.780E+01    8.837E+01
     8.895E+01    8.953E+01    9.010E+01    9.068E+01    9.126E+01    9.183E+01    9.240E+01    9.297E+01    9.354E+01    9.411E+01
     9.467E+01    9.523E+01    9.579E+01    9.635E+01    9.690E+01    9.744E+01    9.798E+01    9.852E+01    9.905E+01    9.957E+01
     1.001E+02    1.006E+02    1.011E+02    1.016E+02    1.021E+02    1.026E+02    1.030E+02    1.035E+02    1.040E+02    1.044E+02
     1.049E+02    1.053E+02    1.057E+02    1.061E+02    1.065E+02    1.069E+02    1.073E+02    1.076E+02    1.080E+02    1.083E+02
     1.087E+02    1.090E+02    1.093E+02    1.096E+02    1.099E+02    1.102E+02    1.105E+02    1.108E+02    1.110E+02    1.113E+02
     1.115E+02    1.118E+02    1.120E+02    1.122E+02    1.124E+02    1.126E+02    1.128E+02    1.130E+02    1.132E+02    1.133E+02
     1.135E+02    1.136E+02    1.138E+02    1.139E+02    1.140E+02    1.141E+02    1.142E+02    1.143E+02    1.144E+02    1.145E+02
     1.146E+02    1.147E+02    1.147E+02    1.148E+02    1.148E+02    1.148E+02    1.149E+02    1.149E+02    1.149E+02    1.149E+02
     1.149E+02    1.149E+02    1.149E+02    1.148E+02    1.148E+02    1.148E+02    1.147E+02    1.147E+02    1.146E+02    1.146E+02
     1.145E+02    1.144E+02    1.143E+02    1.142E+02    1.141E+02    1.140E+02    1.139E+02    1.138E+02    1.137E+02    1.135E+02
     1.134E+02    1.132E+02    1.131E+02    1.129E+02    1.128E+02    1.126E+02    1.124E+02    1.123E+02    1.121E+02    1.119E+02
     1.117E+02    1.115E+02    1.113E+02    1.111E+02    1.108E+02    1.106E+02    1.104E+02    1.101E+02    1.099E+02    1.097E+02
     1.094E+02    1.092E+02    1.089E+02    1.086E+02    1.084E+02    1.081E+02    1.078E+02    1.075E+02    1.072E+02    1.069E+02
     1.066E+02    1.063E+02    1.060E+02    1.057E+02    1.054E+02    1.051E+02    1.047E+02    1.044E+02    1.041E+02    1.037E+02
     1.034E+02    1.030E+02    1.027E+02    1.023E+02    1.020E+02    1.016E+02    1.012E+02    1.008E+02    1.005E+02    1.001E+02
     9.971E+01    9.932E+01    9.893E+01    9.853E+01    9.813E+01    9.773E+01    9.732E+01    9.691E+01    9.650E+01    9.608E+01
     9.567E+01    9.524E+01    9.482E+01    9.439E+01    9.396E+01    9.352E+01    9.308E+01    9.264E+01    9.220E+01    9.175E+01
     9.130E+01    9.085E+01    9.039E+01    8.993E+01    8.947E+01    8.901E+01    8.854E+01    8.808E+01    8.761E+01    8.714E+01
     8.666E+01    8.619E+01    8.571E+01    8.523E+01    8.475E+01    8.426E+01    8.378E+01    8.329E+01    8.281E+01    8.232E+01
     8.183E+01    8.134E+01    8.084E+01    8.035E+01    7.986E+01    7.936E+01    7.886E+01    7.837E+01    7.787E+01    7.737E+01
     7.687E+01    7.637E+01    7.587E+01    7.537E+01    7.487E+01    7.437E+01    7.387E+01    7.337E+01    7.287E+01    7.237E+01
     7.187E+01    7.137E+01    7.087E+01    7.037E+01    6.987E+01    6.937E+01    6.887E+01    6.837E+01    6.788E+01    6.738E+01
     6.688E+01    6.639E+01    6.589E+01    6.540E+01    6.490E+01    6.441E+01    6.392E+01    6.342E+01    6.293E+01    6.244E+01
     6.195E+01    6.146E+01    6.097E+01    6.048E+01    5.999E+01    5.950E+01    5.901E+01    5.853E+01    5.804E+01    5.755E+01
     5.707E+01    5.658E+01    5.610E+01    5.562E+01    5.514E+01    5.465E+01    5.417E+01    5.369E+01    5.321E+01    5.273E+01
     5.226E+01    5.178E+01    5.130E+01    5.083E+01    5.035E+01    4.988E+01    4.940E+01    4.893E+01
 Ala      Conc. = 7.43E+01
