 LCModel (Version 6.3-1L) Copyright: S.W. Provencher.          Ref.: Magn. Reson. Med. 30:672-679 (1993).                
 Slice#1 Row#8 Col#4  PD_05_press_1_raw_act
 36 lines in following concentration table = NCONC+1
    Conc.  %SD /Cr+PCr  Metabolite                                         
  189.873  40%   0.258 Ala                                                 
    0.000 999%   0.000 Asp                                                 
    0.000 999%   0.000 Cr                                                  
  737.037   5%   1.000 PCr                                                 
   42.171 235% 5.7E-02 GABA                                                
    1.744 999% 2.4E-03 Glc                                                 
  633.933  26%   0.860 Gln                                                 
 1.26E+03  16%   1.705 Glu                                                 
  227.025  39%   0.308 GPC                                                 
   56.655 162% 7.7E-02 PCh                                                 
  208.718  24%   0.283 GSH                                                 
  492.854  34%   0.669 Ins                                                 
    0.000 999%   0.000 Lac                                                 
 1.80E+03   6%   2.446 NAA                                                 
  283.901  38%   0.385 NAAG                                                
   84.349  22%   0.114 Scyllo                                              
  333.147  42%   0.452 Tau                                                 
  257.445  27%   0.349 -CrCH2                                              
  283.680   6%   0.385 GPC+PCh                                             
 2.09E+03   3%   2.832 NAA+NAAG                                            
  737.037   5%   1.000 Cr+PCr                                              
 1.89E+03  15%   2.565 Glu+Gln                                             
  835.788  39%   1.134 Lip13a                                              
    0.000 999%   0.000 Lip13b                                              
   74.702 190%   0.101 Lip09                                               
  926.392  19%   1.257 MM09                                                
  154.259  62%   0.209 Lip20                                               
 2.11E+03  12%   2.866 MM20                                                
  314.854  35%   0.427 MM12                                                
 1.04E+03  23%   1.411 MM14                                                
  328.288  40%   0.445 MM17                                                
  835.788  39%   1.134 Lip13a+Lip13b                                       
 2.19E+03  10%   2.972 MM14+Lip13a+Lip13b+MM12                             
 1.00E+03  12%   1.358 MM09+Lip09                                          
 2.27E+03  10%   3.075 MM20+Lip20                                          
   6 lines in following misc. output table
  FWHM = 0.054 ppm    S/N =  14                                            
  Data shift = 0.008 ppm                                                   
  Ph: -59 deg     -14.1 deg/ppm                                            
  alphaB,S = 8.5E+01,   1.0E+02                                            
   14 spline knots.   Ns = 7(1)                                            
   2 inflections.     1 extrema                                            
  498 points on ppm-axis = NY
      4.000000     3.992357     3.984714     3.977070     3.969427     3.961784     3.954141     3.946497     3.938854     3.931211
      3.923568     3.915925     3.908281     3.900638     3.892995     3.885352     3.877708     3.870065     3.862422     3.854779
      3.847136     3.839492     3.831849     3.824206     3.816563     3.808919     3.801276     3.793633     3.785990     3.778347
      3.770703     3.763060     3.755417     3.747774     3.740130     3.732487     3.724844     3.717201     3.709558     3.701914
      3.694271     3.686628     3.678985     3.671341     3.663698     3.656055     3.648412     3.640769     3.633125     3.625482
      3.617839     3.610196     3.602552     3.594909     3.587266     3.579623     3.571980     3.564336     3.556693     3.549050
      3.541407     3.533763     3.526120     3.518477     3.510834     3.503191     3.495547     3.487904     3.480261     3.472618
      3.464974     3.457331     3.449688     3.442045     3.434402     3.426758     3.419115     3.411472     3.403829     3.396185
      3.388542     3.380899     3.373256     3.365613     3.357969     3.350326     3.342683     3.335040     3.327396     3.319753
      3.312110     3.304467     3.296824     3.289180     3.281537     3.273894     3.266251     3.258607     3.250964     3.243321
      3.235678     3.228034     3.220391     3.212748     3.205105     3.197462     3.189818     3.182175     3.174532     3.166889
      3.159245     3.151602     3.143959     3.136316     3.128673     3.121029     3.113386     3.105743     3.098100     3.090456
      3.082813     3.075170     3.067527     3.059884     3.052240     3.044597     3.036954     3.029311     3.021667     3.014024
      3.006381     2.998738     2.991095     2.983451     2.975808     2.968165     2.960522     2.952878     2.945235     2.937592
      2.929949     2.922306     2.914662     2.907019     2.899376     2.891733     2.884089     2.876446     2.868803     2.861160
      2.853517     2.845873     2.838230     2.830587     2.822944     2.815300     2.807657     2.800014     2.792371     2.784728
      2.777084     2.769441     2.761798     2.754155     2.746511     2.738868     2.731225     2.723582     2.715939     2.708295
      2.700652     2.693009     2.685366     2.677722     2.670079     2.662436     2.654793     2.647150     2.639506     2.631863
      2.624220     2.616577     2.608933     2.601290     2.593647     2.586004     2.578361     2.570717     2.563074     2.555431
      2.547788     2.540144     2.532501     2.524858     2.517215     2.509572     2.501928     2.494285     2.486642     2.478999
      2.471355     2.463712     2.456069     2.448426     2.440783     2.433139     2.425496     2.417853     2.410210     2.402566
      2.394923     2.387280     2.379637     2.371994     2.364350     2.356707     2.349064     2.341421     2.333777     2.326134
      2.318491     2.310848     2.303205     2.295561     2.287918     2.280275     2.272632     2.264988     2.257345     2.249702
      2.242059     2.234416     2.226772     2.219129     2.211486     2.203843     2.196199     2.188556     2.180913     2.173270
      2.165627     2.157983     2.150340     2.142697     2.135054     2.127410     2.119767     2.112124     2.104481     2.096838
      2.089194     2.081551     2.073908     2.066265     2.058621     2.050978     2.043335     2.035692     2.028049     2.020405
      2.012762     2.005119     1.997476     1.989833     1.982190     1.974546     1.966903     1.959260     1.951617     1.943974
      1.936331     1.928688     1.921045     1.913402     1.905759     1.898115     1.890472     1.882829     1.875186     1.867543
      1.859900     1.852257     1.844614     1.836971     1.829327     1.821684     1.814041     1.806398     1.798755     1.791112
      1.783469     1.775826     1.768183     1.760540     1.752896     1.745253     1.737610     1.729967     1.722324     1.714681
      1.707038     1.699395     1.691752     1.684108     1.676465     1.668822     1.661179     1.653536     1.645893     1.638250
      1.630607     1.622964     1.615321     1.607677     1.600034     1.592391     1.584748     1.577105     1.569462     1.561819
      1.554176     1.546533     1.538890     1.531246     1.523603     1.515960     1.508317     1.500674     1.493031     1.485388
      1.477745     1.470102     1.462458     1.454815     1.447172     1.439529     1.431886     1.424243     1.416600     1.408957
      1.401314     1.393671     1.386027     1.378384     1.370741     1.363098     1.355455     1.347812     1.340169     1.332526
      1.324883     1.317240     1.309596     1.301953     1.294310     1.286667     1.279024     1.271381     1.263738     1.256095
      1.248452     1.240808     1.233165     1.225522     1.217879     1.210236     1.202593     1.194950     1.187307     1.179664
      1.172021     1.164377     1.156734     1.149091     1.141448     1.133805     1.126162     1.118519     1.110876     1.103233
      1.095590     1.087946     1.080303     1.072660     1.065017     1.057374     1.049731     1.042088     1.034445     1.026802
      1.019158     1.011515     1.003872     0.996229     0.988586     0.980943     0.973300     0.965657     0.958014     0.950371
      0.942727     0.935084     0.927441     0.919798     0.912155     0.904512     0.896869     0.889226     0.881583     0.873940
      0.866296     0.858653     0.851010     0.843367     0.835724     0.828081     0.820438     0.812795     0.805152     0.797508
      0.789865     0.782222     0.774579     0.766936     0.759293     0.751650     0.744007     0.736364     0.728721     0.721077
      0.713434     0.705791     0.698148     0.690505     0.682862     0.675219     0.667576     0.659933     0.652290     0.644646
      0.637003     0.629360     0.621717     0.614074     0.606431     0.598788     0.591145     0.583502     0.575858     0.568215
      0.560572     0.552929     0.545286     0.537643     0.530000     0.522357     0.514714     0.507071     0.499427     0.491784
      0.484141     0.476498     0.468855     0.461212     0.453569     0.445925     0.438282     0.430639     0.422996     0.415353
      0.407710     0.400067     0.392424     0.384780     0.377137     0.369494     0.361851     0.354208     0.346565     0.338922
      0.331278     0.323635     0.315992     0.308349     0.300706     0.293063     0.285420     0.277777     0.270133     0.262490
      0.254847     0.247204     0.239561     0.231918     0.224275     0.216631     0.208988     0.201345
 NY phased data points follow
  -1.30657E+00 -6.31483E+00 -5.30908E+00 -2.90470E+00 -2.47761E+00 -2.96117E-01  4.58665E+00  2.53084E+00  4.62359E+00  3.59412E+00
   8.03520E+00  3.86066E+00  6.13173E+00  5.03966E+00 -8.93139E-01 -1.04095E+00 -5.23089E+00 -1.83328E+00 -2.07935E+00 -4.46309E+00
  -5.64835E+00 -5.91671E+00  1.31727E-01 -3.13797E+00 -4.37803E+00 -8.18128E-01 -2.54801E+00 -3.02131E+00 -3.15920E+00 -2.80628E+00
   2.08391E+00  8.66991E-01  2.73395E+00  4.49243E+00 -1.10942E+00 -2.84712E+00 -3.78850E+00 -1.00230E+00  7.26465E-01 -2.57824E+00
  -1.13250E+00 -2.35483E+00 -3.19322E+00  1.37752E+00 -6.48145E-02  3.02330E+00  1.50200E+00  3.81918E+00  2.74024E+00  6.32756E-01
  -1.15419E+00 -5.72066E+00 -4.03158E+00 -2.78588E+00 -1.09593E+00 -5.71562E+00 -4.47153E+00 -3.66821E-05 -2.40522E+00 -1.79000E+00
  -1.33739E+00 -7.21334E+00 -2.14006E+00 -2.31974E+00 -5.04226E+00 -5.27212E+00 -9.89940E+00 -1.27703E+00 -1.40086E+00 -4.34780E+00
  -3.30589E+00 -7.40353E+00 -1.01175E+00 -5.22180E+00  1.45691E+00 -4.46240E+00 -2.45173E+00 -5.91647E-01 -1.97068E+00 -2.24871E+00
  -6.46034E+00 -1.35059E+00 -2.57045E+00 -1.97777E+00  1.66944E+00 -6.93513E-01  1.00324E+00 -3.62626E-01  1.38283E+00  8.34885E-01
  -1.01528E+00  3.49720E+00 -3.28694E-01  5.72733E-01  1.96251E+00 -1.23388E+00  7.84444E-01  5.62024E-01  4.62103E+00  1.10939E+01
   1.70650E+01  2.03812E+01  2.36474E+01  2.32491E+01  1.67539E+01  2.06350E+01  1.46334E+01  7.42185E+00  3.42233E+00  6.36596E+00
   5.52499E+00  3.32030E+00 -1.01301E+00  1.42339E+00  3.54269E-01 -1.04167E+00 -1.91222E+00  1.08985E+00  1.21951E+00 -5.74836E-01
   5.66038E-04  2.90535E+00  1.39857E+00  4.04509E+00  1.10006E+01  1.33820E+01  2.41440E+01  2.39579E+01  2.28731E+01  2.11092E+01
   1.44960E+01  1.23838E+01  6.52674E+00  3.40890E+00  1.37723E+00  4.09891E+00 -4.05946E+00 -3.21111E+00 -2.67266E+00  3.27685E-01
  -2.38804E+00 -3.63655E+00  1.07993E+00 -1.37450E+00 -9.16446E-01 -2.54809E+00  9.46934E-01 -3.38685E+00  5.37640E-01  1.37761E+00
  -4.96249E+00 -9.65509E-02 -1.36165E+00  4.94195E-01 -4.35554E-01 -2.03942E+00 -1.31072E+00 -3.46284E+00 -6.36475E+00 -2.87307E+00
   1.70149E+00 -4.06989E+00 -2.21369E+00 -1.58781E+00 -7.12447E-01  3.10916E-01 -6.59396E+00 -5.09051E+00 -4.19189E+00 -6.83165E+00
  -6.64690E+00 -7.29732E+00 -9.01869E+00 -1.39233E+01 -1.06471E+01 -1.13339E+01 -9.41496E+00 -1.17713E+01 -9.26188E+00 -4.70461E+00
  -8.13815E+00 -5.85400E+00 -1.49119E+01 -6.78452E+00 -6.22561E+00 -3.53532E+00 -5.88690E+00 -1.52536E+00 -3.68322E+00  4.57264E-01
  -1.31753E-02 -3.87378E+00 -4.50057E+00 -5.88994E+00 -4.23442E+00 -3.22078E+00 -1.16632E+00 -5.88200E+00 -5.56276E+00 -5.26621E+00
  -5.66314E+00 -4.01513E+00  3.39050E+00 -1.79930E-01  2.62917E+00  4.26449E+00 -2.37956E-01 -3.72819E+00 -1.33903E+00 -3.53604E+00
  -4.57273E+00  9.42553E-01 -1.05362E+00  4.52917E+00  4.96927E+00  7.73156E+00  6.26478E+00  8.43620E+00  6.36108E+00  2.86250E+00
   2.49554E-01 -2.71849E+00 -2.72802E+00 -6.95128E+00 -1.12996E+00 -1.57065E+00  8.58763E-01  2.63697E+00  4.51900E+00  8.94822E-01
   6.28025E+00  2.80443E+00  6.45354E+00  5.93394E+00  2.12563E+00  2.13105E+00  4.77832E+00  5.80960E+00  6.43110E+00  7.20593E+00
   5.33752E+00  1.31503E+00  4.99224E+00  1.06345E-01  4.18319E+00  3.13395E+00  5.98476E+00  6.72774E+00  9.13973E+00  5.65786E+00
   7.56538E+00  1.21266E+01  1.31234E+01  1.70960E+01  2.52504E+01  2.99374E+01  3.43142E+01  4.58450E+01  5.24059E+01  6.33271E+01
   7.12751E+01  7.17157E+01  6.31434E+01  5.03315E+01  3.64649E+01  2.60388E+01  1.91506E+01  1.34450E+01  9.44498E+00  5.44889E+00
   3.68869E+00  7.87806E+00  7.60931E+00  7.19952E+00  7.66055E+00  5.17567E+00  1.95996E+00  6.64755E-01 -2.72578E-01  4.34166E+00
   5.69765E+00  3.37570E+00  8.29819E-01  3.82451E+00 -5.43090E-01  3.64372E+00  3.72899E+00 -1.30722E-01  1.90029E+00  4.48108E+00
   3.17236E+00  4.05053E+00  4.14046E-01  2.29289E+00  2.16665E+00  3.31442E+00  3.28921E+00  5.63508E-01  4.92233E-01  1.10798E+00
   3.10904E+00  2.01558E-02  9.00429E-01  2.82380E-01  1.62294E+00  1.02426E+00  3.08744E+00 -1.61283E+00  1.45544E+00  5.89068E+00
   2.38299E+00  3.25491E+00  4.44936E+00  5.86189E+00  3.88604E+00  4.54515E+00  3.22207E+00  4.69765E+00  5.07973E+00  7.44260E+00
   6.78797E+00  5.28377E+00  3.88984E+00  1.31108E+00  4.15182E+00  4.84292E+00  5.58135E+00  1.96704E+00  5.36639E+00  1.91535E+00
   7.52067E-01  2.36390E+00  5.42613E+00  6.06358E+00  6.70424E+00  7.15759E+00  6.18198E+00  8.48677E+00  9.75444E+00  9.87683E+00
   9.03062E+00  7.86147E+00  4.02436E+00  8.51376E+00  6.90802E+00  1.15557E+01  6.84300E+00  9.89026E+00  8.25439E+00  8.51978E+00
   6.85392E+00  1.02927E+01  9.00751E+00  8.43443E+00  6.87086E+00  9.61052E+00  7.53479E+00  4.60066E+00  4.15667E+00  4.53234E+00
   1.30492E+00  6.92978E+00  4.93122E+00  7.39557E+00  2.97418E+00  2.76310E+00  5.26044E+00  9.06482E+00  9.61551E+00  7.89598E+00
   2.08378E+00  8.20963E+00  8.30626E+00  6.50110E+00  7.08633E+00  5.89641E+00  7.47571E-01  5.52488E+00  4.47615E+00  6.27444E+00
   2.96341E+00  6.14504E+00  5.54592E+00  2.77940E+00  2.00613E+00  4.45535E+00  4.76582E+00  2.66676E+00  4.55254E+00  4.76250E+00
   2.66022E+00  5.03439E+00  4.14035E+00  5.35887E+00  3.71612E+00  5.99977E+00  9.10752E+00  6.31790E+00  5.98207E+00  7.51046E+00
   4.53336E+00  7.21391E+00  6.92743E+00  7.80901E+00  1.22832E+01  9.81030E+00  5.40870E+00  8.83756E+00  6.81890E+00  7.16247E+00
   5.05690E+00  6.08500E+00  4.86815E+00  3.83499E+00  6.70523E+00  4.14400E+00  4.24025E+00  4.87905E+00  5.20719E+00  6.78084E+00
   1.30384E+00  5.01196E+00  5.19460E+00  4.94114E+00  2.88580E+00  8.38946E+00  2.08913E+00  4.15506E+00  3.65887E+00  5.66921E+00
   2.91477E+00  4.45286E+00  4.33086E+00  4.23383E+00  2.10962E+00  1.28650E+00  4.55834E-01 -1.18126E+00 -5.57546E-01  1.31001E+00
   1.87029E+00  3.47030E+00  8.94794E-02  5.00170E+00  1.89219E+00  1.43679E+00  6.86089E-01  3.69232E+00  7.49486E-01  1.69486E+00
   1.67593E+00  3.84185E+00  1.31812E+00  4.34247E+00  1.11809E+00  5.97944E+00  5.77998E-01  3.12046E+00  2.90855E+00  8.30841E-01
   1.85105E+00  8.60079E-02  4.45334E+00 -7.10569E-02  1.17160E+00  5.43428E+00  2.82352E-01  2.81006E+00  7.41310E-01  1.26368E+00
   6.72857E-01  1.39240E+00  3.65294E-03  2.94133E+00  2.95441E+00  2.87506E+00  7.02459E-01  3.30270E+00  3.16230E+00  1.77032E+00
   4.53281E-01  9.95722E-01 -3.37962E-02  9.00869E-01  2.90648E-01  2.70262E+00  2.86380E+00  2.21168E+00  1.16275E+00  3.52154E+00
   4.25653E+00  2.80159E+00  2.12535E+00  3.95447E+00  8.59838E-01 -1.04628E+00  6.80138E-01  4.55275E+00
 NY points of the fit to the data follow
  -4.62980E+00 -4.66189E+00 -4.29552E+00 -3.47043E+00 -2.41336E+00 -1.00422E+00  8.83680E-01  3.08911E+00  5.20453E+00  6.64934E+00
   6.92271E+00  5.96668E+00  4.20612E+00  2.24508E+00  5.86869E-01 -5.69764E-01 -1.37940E+00 -2.05585E+00 -2.48238E+00 -2.56639E+00
  -2.51894E+00 -2.48463E+00 -2.54291E+00 -2.60357E+00 -2.73676E+00 -2.93446E+00 -2.98156E+00 -2.65202E+00 -1.77187E+00 -4.14296E-01
   1.13998E+00  2.47397E+00  3.17374E+00  3.01806E+00  2.09930E+00  6.62346E-01 -9.06766E-01 -2.33154E+00 -3.35422E+00 -3.68925E+00
  -3.40347E+00 -2.76456E+00 -2.01380E+00 -1.25445E+00 -4.83698E-01  2.20803E-01  7.51716E-01  9.59881E-01  7.06058E-01  5.40437E-04
  -9.45933E-01 -1.86515E+00 -2.54562E+00 -2.96404E+00 -3.17969E+00 -3.23593E+00 -3.14182E+00 -2.92255E+00 -2.65144E+00 -2.41903E+00
  -2.29507E+00 -2.33524E+00 -2.49837E+00 -2.70072E+00 -2.85540E+00 -2.88704E+00 -2.81734E+00 -2.73220E+00 -2.64022E+00 -2.50921E+00
  -2.37671E+00 -2.24805E+00 -2.08941E+00 -1.91703E+00 -1.78527E+00 -1.74612E+00 -1.86808E+00 -2.20650E+00 -2.65402E+00 -2.99274E+00
  -2.98860E+00 -2.66333E+00 -2.06083E+00 -1.23771E+00 -3.11335E-01  5.82224E-01  1.19167E+00  1.28055E+00  8.33283E-01  4.32456E-02
  -8.57301E-01 -1.64208E+00 -2.17251E+00 -2.53475E+00 -2.73076E+00 -2.16721E+00 -4.30418E-01  2.08482E+00  5.41486E+00  9.77780E+00
   1.48664E+01  1.98321E+01  2.33674E+01  2.42554E+01  2.22132E+01  1.80448E+01  1.30874E+01  8.61684E+00  5.28721E+00  2.85966E+00
   8.33979E-01 -6.54395E-01 -1.40390E+00 -1.75753E+00 -1.95331E+00 -2.06917E+00 -2.15377E+00 -2.19419E+00 -2.15753E+00 -1.87724E+00
  -7.47003E-01  1.14779E+00  3.50545E+00  6.76616E+00  1.11422E+01  1.61157E+01  2.05938E+01  2.31790E+01  2.29094E+01  1.99942E+01
   1.55912E+01  1.10580E+01  7.36235E+00  4.64983E+00  2.40723E+00  3.45760E-01 -9.90104E-01 -1.51544E+00 -1.61994E+00 -1.45050E+00
  -1.16086E+00 -9.06177E-01 -7.67268E-01 -7.56987E-01 -8.66023E-01 -1.04179E+00 -1.23098E+00 -1.42145E+00 -1.60677E+00 -1.77857E+00
  -1.94242E+00 -2.08466E+00 -2.20264E+00 -2.30074E+00 -2.40947E+00 -2.50466E+00 -2.57331E+00 -2.67405E+00 -2.83924E+00 -3.11501E+00
  -3.45175E+00 -3.67227E+00 -3.66866E+00 -3.50053E+00 -3.32638E+00 -3.32449E+00 -3.59294E+00 -4.06037E+00 -4.55861E+00 -4.98030E+00
  -5.31710E+00 -5.56021E+00 -5.80956E+00 -6.12808E+00 -6.45101E+00 -6.67845E+00 -6.70112E+00 -6.50517E+00 -6.23101E+00 -6.04561E+00
  -6.02575E+00 -6.06755E+00 -6.00433E+00 -5.78601E+00 -5.43757E+00 -5.00869E+00 -4.49275E+00 -3.77094E+00 -2.80373E+00 -1.74811E+00
  -8.74513E-01 -4.38071E-01 -4.58450E-01 -7.74560E-01 -1.18459E+00 -1.53246E+00 -1.73342E+00 -1.64230E+00 -1.18099E+00 -4.02394E-01
   5.97122E-01  1.62693E+00  2.43184E+00  2.69361E+00  2.33975E+00  1.32123E+00 -3.55372E-01 -2.40916E+00 -4.31194E+00 -5.50616E+00
  -5.62129E+00 -4.73848E+00 -3.00366E+00 -6.39131E-01  1.86914E+00  3.86132E+00  4.75629E+00  4.33384E+00  2.73534E+00  2.44520E-01
  -2.42016E+00 -4.48077E+00 -5.48404E+00 -5.24024E+00 -3.89227E+00 -1.83035E+00  4.37172E-01  2.26235E+00  3.32540E+00  3.69658E+00
   3.73533E+00  3.65325E+00  3.49957E+00  3.45697E+00  3.70682E+00  4.18505E+00  4.74440E+00  5.27421E+00  5.62136E+00  5.63823E+00
   5.23953E+00  4.55201E+00  3.92705E+00  3.68855E+00  3.92037E+00  4.49901E+00  5.29696E+00  6.13144E+00  6.93488E+00  7.92500E+00
   9.08891E+00  1.04964E+01  1.25437E+01  1.65071E+01  2.26957E+01  2.93664E+01  3.66919E+01  4.54936E+01  5.53454E+01  6.44700E+01
   7.00284E+01  6.94193E+01  6.22591E+01  5.06709E+01  3.80336E+01  2.74597E+01  1.99725E+01  1.45354E+01  9.84006E+00  6.48121E+00
   5.14507E+00  4.52902E+00  4.16708E+00  3.96317E+00  3.84078E+00  3.69642E+00  3.50083E+00  3.25347E+00  2.97103E+00  2.68936E+00
   2.44212E+00  2.23661E+00  2.07004E+00  1.94495E+00  1.85749E+00  1.79339E+00  1.73603E+00  1.68144E+00  1.63984E+00  1.62106E+00
   1.62468E+00  1.65039E+00  1.69557E+00  1.75242E+00  1.81148E+00  1.86845E+00  1.92370E+00  1.98092E+00  2.04417E+00  2.11529E+00
   2.19452E+00  2.28241E+00  2.37531E+00  2.46683E+00  2.55196E+00  2.62831E+00  2.69634E+00  2.75659E+00  2.80907E+00  2.85645E+00
   2.90173E+00  2.94708E+00  2.99556E+00  3.05080E+00  3.11704E+00  3.19892E+00  3.30227E+00  3.43482E+00  3.60998E+00  3.85683E+00
   4.19767E+00  4.54597E+00  4.89114E+00  5.25518E+00  5.56232E+00  5.68160E+00  5.49177E+00  4.95953E+00  4.27813E+00  3.66752E+00
   3.28388E+00  3.28051E+00  3.72202E+00  4.53609E+00  5.57131E+00  6.65522E+00  7.61363E+00  8.23897E+00  8.49460E+00  8.49533E+00
   8.39462E+00  8.29101E+00  8.18009E+00  8.02379E+00  7.88922E+00  7.80637E+00  7.74532E+00  7.69235E+00  7.64199E+00  7.59124E+00
   7.53837E+00  7.48193E+00  7.42098E+00  7.35444E+00  7.28138E+00  7.20063E+00  7.11124E+00  7.01227E+00  6.90327E+00  6.78379E+00
   6.65383E+00  6.51341E+00  6.36312E+00  6.20377E+00  6.03673E+00  5.86343E+00  5.68567E+00  5.50522E+00  5.32426E+00  5.14495E+00
   4.96972E+00  4.80073E+00  4.64023E+00  4.49021E+00  4.35286E+00  4.23006E+00  4.12376E+00  4.03551E+00  3.96689E+00  3.91916E+00
   3.89375E+00  3.89175E+00  3.91428E+00  3.96201E+00  4.03563E+00  4.13545E+00  4.26174E+00  4.41420E+00  4.59225E+00  4.79453E+00
   5.01936E+00  5.26422E+00  5.52613E+00  5.80116E+00  6.08478E+00  6.37158E+00  6.65582E+00  6.93121E+00  7.19138E+00  7.42970E+00
   7.63990E+00  7.81602E+00  7.95307E+00  8.04687E+00  8.09456E+00  8.09431E+00  8.04586E+00  7.95017E+00  7.80976E+00  7.62816E+00
   7.41009E+00  7.16078E+00  6.88623E+00  6.59255E+00  6.28611E+00  5.97285E+00  5.65844E+00  5.34775E+00  5.04518E+00  4.75426E+00
   4.47792E+00  4.21813E+00  3.97629E+00  3.75297E+00  3.54845E+00  3.36239E+00  3.19427E+00  3.04308E+00  2.90780E+00  2.78711E+00
   2.67991E+00  2.58491E+00  2.50101E+00  2.42696E+00  2.36176E+00  2.30432E+00  2.25392E+00  2.20968E+00  2.17100E+00  2.13712E+00
   2.10756E+00  2.08177E+00  2.05945E+00  2.04017E+00  2.02366E+00  2.00951E+00  1.99755E+00  1.98751E+00  1.97933E+00  1.97273E+00
   1.96763E+00  1.96377E+00  1.96115E+00  1.95960E+00  1.95915E+00  1.95960E+00  1.96094E+00  1.96299E+00  1.96581E+00  1.96929E+00
   1.97347E+00  1.97818E+00  1.98345E+00  1.98916E+00  1.99540E+00  2.00206E+00  2.00921E+00  2.01668E+00  2.02453E+00  2.03266E+00
   2.04119E+00  2.05000E+00  2.05916E+00  2.06851E+00  2.07815E+00  2.08800E+00  2.09816E+00  2.10852E+00  2.11914E+00  2.12987E+00
   2.14084E+00  2.15196E+00  2.16334E+00  2.17486E+00  2.18658E+00  2.19838E+00  2.21039E+00  2.22254E+00  2.23492E+00  2.24740E+00
   2.26005E+00  2.27278E+00  2.28572E+00  2.29880E+00  2.31210E+00  2.32549E+00  2.33907E+00  2.35277E+00
 NY background values follow
    -5.704E+00   -5.688E+00   -5.672E+00   -5.656E+00   -5.640E+00   -5.624E+00   -5.608E+00   -5.593E+00   -5.577E+00   -5.561E+00
    -5.545E+00   -5.529E+00   -5.513E+00   -5.497E+00   -5.481E+00   -5.465E+00   -5.450E+00   -5.434E+00   -5.418E+00   -5.402E+00
    -5.386E+00   -5.370E+00   -5.354E+00   -5.338E+00   -5.322E+00   -5.306E+00   -5.290E+00   -5.275E+00   -5.259E+00   -5.243E+00
    -5.227E+00   -5.211E+00   -5.195E+00   -5.179E+00   -5.163E+00   -5.147E+00   -5.131E+00   -5.115E+00   -5.100E+00   -5.084E+00
    -5.068E+00   -5.052E+00   -5.036E+00   -5.020E+00   -5.004E+00   -4.988E+00   -4.972E+00   -4.956E+00   -4.940E+00   -4.924E+00
    -4.908E+00   -4.893E+00   -4.877E+00   -4.861E+00   -4.845E+00   -4.829E+00   -4.813E+00   -4.797E+00   -4.781E+00   -4.765E+00
    -4.749E+00   -4.733E+00   -4.717E+00   -4.701E+00   -4.685E+00   -4.669E+00   -4.654E+00   -4.638E+00   -4.622E+00   -4.606E+00
    -4.590E+00   -4.574E+00   -4.558E+00   -4.542E+00   -4.526E+00   -4.510E+00   -4.494E+00   -4.478E+00   -4.462E+00   -4.446E+00
    -4.430E+00   -4.414E+00   -4.398E+00   -4.382E+00   -4.366E+00   -4.350E+00   -4.335E+00   -4.319E+00   -4.303E+00   -4.287E+00
    -4.271E+00   -4.255E+00   -4.239E+00   -4.223E+00   -4.207E+00   -4.191E+00   -4.175E+00   -4.159E+00   -4.143E+00   -4.127E+00
    -4.111E+00   -4.095E+00   -4.079E+00   -4.063E+00   -4.047E+00   -4.031E+00   -4.015E+00   -3.999E+00   -3.983E+00   -3.967E+00
    -3.951E+00   -3.935E+00   -3.919E+00   -3.903E+00   -3.887E+00   -3.871E+00   -3.855E+00   -3.839E+00   -3.823E+00   -3.807E+00
    -3.791E+00   -3.776E+00   -3.760E+00   -3.744E+00   -3.728E+00   -3.712E+00   -3.696E+00   -3.680E+00   -3.664E+00   -3.648E+00
    -3.632E+00   -3.616E+00   -3.600E+00   -3.584E+00   -3.568E+00   -3.552E+00   -3.536E+00   -3.520E+00   -3.504E+00   -3.488E+00
    -3.472E+00   -3.456E+00   -3.440E+00   -3.424E+00   -3.408E+00   -3.392E+00   -3.376E+00   -3.360E+00   -3.344E+00   -3.328E+00
    -3.312E+00   -3.296E+00   -3.280E+00   -3.264E+00   -3.248E+00   -3.232E+00   -3.216E+00   -3.200E+00   -3.184E+00   -3.168E+00
    -3.152E+00   -3.136E+00   -3.120E+00   -3.104E+00   -3.088E+00   -3.072E+00   -3.056E+00   -3.040E+00   -3.024E+00   -3.008E+00
    -2.992E+00   -2.976E+00   -2.960E+00   -2.944E+00   -2.927E+00   -2.911E+00   -2.895E+00   -2.879E+00   -2.863E+00   -2.847E+00
    -2.831E+00   -2.815E+00   -2.799E+00   -2.783E+00   -2.767E+00   -2.751E+00   -2.735E+00   -2.719E+00   -2.703E+00   -2.687E+00
    -2.671E+00   -2.655E+00   -2.639E+00   -2.623E+00   -2.607E+00   -2.591E+00   -2.575E+00   -2.559E+00   -2.543E+00   -2.527E+00
    -2.511E+00   -2.495E+00   -2.479E+00   -2.463E+00   -2.447E+00   -2.431E+00   -2.415E+00   -2.399E+00   -2.383E+00   -2.367E+00
    -2.351E+00   -2.335E+00   -2.319E+00   -2.303E+00   -2.286E+00   -2.270E+00   -2.254E+00   -2.238E+00   -2.222E+00   -2.206E+00
    -2.190E+00   -2.174E+00   -2.158E+00   -2.142E+00   -2.126E+00   -2.110E+00   -2.094E+00   -2.078E+00   -2.062E+00   -2.046E+00
    -2.030E+00   -2.014E+00   -1.998E+00   -1.982E+00   -1.966E+00   -1.950E+00   -1.934E+00   -1.918E+00   -1.902E+00   -1.886E+00
    -1.870E+00   -1.853E+00   -1.837E+00   -1.821E+00   -1.805E+00   -1.789E+00   -1.773E+00   -1.757E+00   -1.741E+00   -1.725E+00
    -1.709E+00   -1.693E+00   -1.677E+00   -1.661E+00   -1.645E+00   -1.629E+00   -1.613E+00   -1.597E+00   -1.581E+00   -1.565E+00
    -1.549E+00   -1.533E+00   -1.517E+00   -1.500E+00   -1.484E+00   -1.468E+00   -1.452E+00   -1.436E+00   -1.420E+00   -1.404E+00
    -1.388E+00   -1.372E+00   -1.356E+00   -1.340E+00   -1.324E+00   -1.308E+00   -1.292E+00   -1.276E+00   -1.260E+00   -1.244E+00
    -1.228E+00   -1.212E+00   -1.196E+00   -1.179E+00   -1.163E+00   -1.147E+00   -1.131E+00   -1.115E+00   -1.099E+00   -1.083E+00
    -1.067E+00   -1.051E+00   -1.035E+00   -1.019E+00   -1.003E+00   -9.869E-01   -9.708E-01   -9.548E-01   -9.387E-01   -9.227E-01
    -9.066E-01   -8.906E-01   -8.745E-01   -8.585E-01   -8.424E-01   -8.264E-01   -8.103E-01   -7.942E-01   -7.782E-01   -7.621E-01
    -7.461E-01   -7.300E-01   -7.140E-01   -6.979E-01   -6.819E-01   -6.658E-01   -6.498E-01   -6.337E-01   -6.177E-01   -6.016E-01
    -5.856E-01   -5.695E-01   -5.534E-01   -5.374E-01   -5.213E-01   -5.053E-01   -4.892E-01   -4.732E-01   -4.571E-01   -4.411E-01
    -4.250E-01   -4.090E-01   -3.929E-01   -3.769E-01   -3.608E-01   -3.448E-01   -3.287E-01   -3.126E-01   -2.966E-01   -2.805E-01
    -2.645E-01   -2.484E-01   -2.324E-01   -2.163E-01   -2.003E-01   -1.842E-01   -1.682E-01   -1.521E-01   -1.361E-01   -1.200E-01
    -1.040E-01   -8.791E-02   -7.185E-02   -5.580E-02   -3.975E-02   -2.370E-02   -7.643E-03    8.409E-03    2.446E-02    4.051E-02
     5.656E-02    7.262E-02    8.867E-02    1.047E-01    1.208E-01    1.368E-01    1.529E-01    1.689E-01    1.850E-01    2.010E-01
     2.171E-01    2.331E-01    2.492E-01    2.652E-01    2.813E-01    2.973E-01    3.134E-01    3.294E-01    3.455E-01    3.615E-01
     3.776E-01    3.936E-01    4.097E-01    4.257E-01    4.418E-01    4.578E-01    4.739E-01    4.899E-01    5.060E-01    5.220E-01
     5.381E-01    5.541E-01    5.702E-01    5.862E-01    6.022E-01    6.183E-01    6.343E-01    6.504E-01    6.664E-01    6.825E-01
     6.985E-01    7.146E-01    7.306E-01    7.467E-01    7.627E-01    7.787E-01    7.948E-01    8.108E-01    8.269E-01    8.429E-01
     8.590E-01    8.750E-01    8.911E-01    9.071E-01    9.231E-01    9.392E-01    9.552E-01    9.713E-01    9.873E-01    1.003E+00
     1.019E+00    1.035E+00    1.051E+00    1.068E+00    1.084E+00    1.100E+00    1.116E+00    1.132E+00    1.148E+00    1.164E+00
     1.180E+00    1.196E+00    1.212E+00    1.228E+00    1.244E+00    1.260E+00    1.276E+00    1.292E+00    1.308E+00    1.324E+00
     1.340E+00    1.356E+00    1.372E+00    1.388E+00    1.404E+00    1.420E+00    1.436E+00    1.452E+00    1.468E+00    1.484E+00
     1.500E+00    1.516E+00    1.533E+00    1.549E+00    1.565E+00    1.581E+00    1.597E+00    1.613E+00    1.629E+00    1.645E+00
     1.661E+00    1.677E+00    1.693E+00    1.709E+00    1.725E+00    1.741E+00    1.757E+00    1.773E+00    1.789E+00    1.805E+00
     1.821E+00    1.837E+00    1.853E+00    1.869E+00    1.885E+00    1.901E+00    1.917E+00    1.933E+00    1.949E+00    1.965E+00
     1.981E+00    1.997E+00    2.013E+00    2.029E+00    2.045E+00    2.061E+00    2.077E+00    2.093E+00    2.109E+00    2.125E+00
     2.141E+00    2.157E+00    2.173E+00    2.189E+00    2.205E+00    2.221E+00    2.237E+00    2.253E+00
 Ala      Conc. = 1.90E+02
