 LCModel (Version 6.3-1L) Copyright: S.W. Provencher.          Ref.: Magn. Reson. Med. 30:672-679 (1993).                
 Slice#3 Row#4 Col#4  PD_05_press_1_raw_act
 36 lines in following concentration table = NCONC+1
    Conc.  %SD /Cr+PCr  Metabolite                                         
   94.703  80%   0.120 Ala                                                 
    9.541 999% 1.2E-02 Asp                                                 
  385.684  37%   0.491 Cr                                                  
  400.574  37%   0.509 PCr                                                 
   86.844  96%   0.110 GABA                                                
    0.000 999%   0.000 Glc                                                 
  514.350  31%   0.654 Gln                                                 
  930.982  20%   1.184 Glu                                                 
  212.300   6%   0.270 GPC                                                 
    0.000 999%   0.000 PCh                                                 
  262.154  17%   0.333 GSH                                                 
  299.672  57%   0.381 Ins                                                 
    0.000 999%   0.000 Lac                                                 
 1.22E+03   3%   1.558 NAA                                                 
    0.000 999%   0.000 NAAG                                                
   35.319  44% 4.5E-02 Scyllo                                              
    0.000 999%   0.000 Tau                                                 
   93.643  71%   0.119 -CrCH2                                              
  212.300   6%   0.270 GPC+PCh                                             
 1.22E+03   3%   1.558 NAA+NAAG                                            
  786.258   4%   1.000 Cr+PCr                                              
 1.45E+03  20%   1.838 Glu+Gln                                             
    0.000 999%   0.000 Lip13a                                              
  119.251  44%   0.152 Lip13b                                              
   19.374 126% 2.5E-02 Lip09                                               
  680.340  17%   0.865 MM09                                                
   17.131  94% 2.2E-02 Lip20                                               
 1.11E+03  16%   1.413 MM20                                                
  172.803  29%   0.220 MM12                                                
 1.06E+03  14%   1.345 MM14                                                
  564.072  17%   0.717 MM17                                                
  119.251  44%   0.152 Lip13a+Lip13b                                       
 1.35E+03  13%   1.717 MM14+Lip13a+Lip13b+MM12                             
  699.715  17%   0.890 MM09+Lip09                                          
 1.13E+03  16%   1.435 MM20+Lip20                                          
   6 lines in following misc. output table
  FWHM = 0.061 ppm    S/N =  12                                            
  Data shift =-0.008 ppm                                                   
  Ph:  -8 deg     -11.5 deg/ppm                                            
  alphaB,S = 4.8E-01,   2.0E+02                                            
   14 spline knots.   Ns = 9(1)                                            
  (14) 5 infls.   ( 7) 1 extrs.                                            
  498 points on ppm-axis = NY
      4.000000     3.992357     3.984714     3.977070     3.969427     3.961784     3.954141     3.946497     3.938854     3.931211
      3.923568     3.915925     3.908281     3.900638     3.892995     3.885352     3.877708     3.870065     3.862422     3.854779
      3.847136     3.839492     3.831849     3.824206     3.816563     3.808919     3.801276     3.793633     3.785990     3.778347
      3.770703     3.763060     3.755417     3.747774     3.740130     3.732487     3.724844     3.717201     3.709558     3.701914
      3.694271     3.686628     3.678985     3.671341     3.663698     3.656055     3.648412     3.640769     3.633125     3.625482
      3.617839     3.610196     3.602552     3.594909     3.587266     3.579623     3.571980     3.564336     3.556693     3.549050
      3.541407     3.533763     3.526120     3.518477     3.510834     3.503191     3.495547     3.487904     3.480261     3.472618
      3.464974     3.457331     3.449688     3.442045     3.434402     3.426758     3.419115     3.411472     3.403829     3.396185
      3.388542     3.380899     3.373256     3.365613     3.357969     3.350326     3.342683     3.335040     3.327396     3.319753
      3.312110     3.304467     3.296824     3.289180     3.281537     3.273894     3.266251     3.258607     3.250964     3.243321
      3.235678     3.228034     3.220391     3.212748     3.205105     3.197462     3.189818     3.182175     3.174532     3.166889
      3.159245     3.151602     3.143959     3.136316     3.128673     3.121029     3.113386     3.105743     3.098100     3.090456
      3.082813     3.075170     3.067527     3.059884     3.052240     3.044597     3.036954     3.029311     3.021667     3.014024
      3.006381     2.998738     2.991095     2.983451     2.975808     2.968165     2.960522     2.952878     2.945235     2.937592
      2.929949     2.922306     2.914662     2.907019     2.899376     2.891733     2.884089     2.876446     2.868803     2.861160
      2.853517     2.845873     2.838230     2.830587     2.822944     2.815300     2.807657     2.800014     2.792371     2.784728
      2.777084     2.769441     2.761798     2.754155     2.746511     2.738868     2.731225     2.723582     2.715939     2.708295
      2.700652     2.693009     2.685366     2.677722     2.670079     2.662436     2.654793     2.647150     2.639506     2.631863
      2.624220     2.616577     2.608933     2.601290     2.593647     2.586004     2.578361     2.570717     2.563074     2.555431
      2.547788     2.540144     2.532501     2.524858     2.517215     2.509572     2.501928     2.494285     2.486642     2.478999
      2.471355     2.463712     2.456069     2.448426     2.440783     2.433139     2.425496     2.417853     2.410210     2.402566
      2.394923     2.387280     2.379637     2.371994     2.364350     2.356707     2.349064     2.341421     2.333777     2.326134
      2.318491     2.310848     2.303205     2.295561     2.287918     2.280275     2.272632     2.264988     2.257345     2.249702
      2.242059     2.234416     2.226772     2.219129     2.211486     2.203843     2.196199     2.188556     2.180913     2.173270
      2.165627     2.157983     2.150340     2.142697     2.135054     2.127410     2.119767     2.112124     2.104481     2.096838
      2.089194     2.081551     2.073908     2.066265     2.058621     2.050978     2.043335     2.035692     2.028049     2.020405
      2.012762     2.005119     1.997476     1.989833     1.982190     1.974546     1.966903     1.959260     1.951617     1.943974
      1.936331     1.928688     1.921045     1.913402     1.905759     1.898115     1.890472     1.882829     1.875186     1.867543
      1.859900     1.852257     1.844614     1.836971     1.829327     1.821684     1.814041     1.806398     1.798755     1.791112
      1.783469     1.775826     1.768183     1.760540     1.752896     1.745253     1.737610     1.729967     1.722324     1.714681
      1.707038     1.699395     1.691752     1.684108     1.676465     1.668822     1.661179     1.653536     1.645893     1.638250
      1.630607     1.622964     1.615321     1.607677     1.600034     1.592391     1.584748     1.577105     1.569462     1.561819
      1.554176     1.546533     1.538890     1.531246     1.523603     1.515960     1.508317     1.500674     1.493031     1.485388
      1.477745     1.470102     1.462458     1.454815     1.447172     1.439529     1.431886     1.424243     1.416600     1.408957
      1.401314     1.393671     1.386027     1.378384     1.370741     1.363098     1.355455     1.347812     1.340169     1.332526
      1.324883     1.317240     1.309596     1.301953     1.294310     1.286667     1.279024     1.271381     1.263738     1.256095
      1.248452     1.240808     1.233165     1.225522     1.217879     1.210236     1.202593     1.194950     1.187307     1.179664
      1.172021     1.164377     1.156734     1.149091     1.141448     1.133805     1.126162     1.118519     1.110876     1.103233
      1.095590     1.087946     1.080303     1.072660     1.065017     1.057374     1.049731     1.042088     1.034445     1.026802
      1.019158     1.011515     1.003872     0.996229     0.988586     0.980943     0.973300     0.965657     0.958014     0.950371
      0.942727     0.935084     0.927441     0.919798     0.912155     0.904512     0.896869     0.889226     0.881583     0.873940
      0.866296     0.858653     0.851010     0.843367     0.835724     0.828081     0.820438     0.812795     0.805152     0.797508
      0.789865     0.782222     0.774579     0.766936     0.759293     0.751650     0.744007     0.736364     0.728721     0.721077
      0.713434     0.705791     0.698148     0.690505     0.682862     0.675219     0.667576     0.659933     0.652290     0.644646
      0.637003     0.629360     0.621717     0.614074     0.606431     0.598788     0.591145     0.583502     0.575858     0.568215
      0.560572     0.552929     0.545286     0.537643     0.530000     0.522357     0.514714     0.507071     0.499427     0.491784
      0.484141     0.476498     0.468855     0.461212     0.453569     0.445925     0.438282     0.430639     0.422996     0.415353
      0.407710     0.400067     0.392424     0.384780     0.377137     0.369494     0.361851     0.354208     0.346565     0.338922
      0.331278     0.323635     0.315992     0.308349     0.300706     0.293063     0.285420     0.277777     0.270133     0.262490
      0.254847     0.247204     0.239561     0.231918     0.224275     0.216631     0.208988     0.201345
 NY phased data points follow
  -1.04474E+01 -8.54689E+00 -8.74005E+00 -6.32309E+00 -4.62361E+00 -3.09612E+00 -2.25963E+00  1.44632E+00  3.14325E+00  4.58202E+00
   5.67311E+00  5.29551E+00  4.55070E+00  3.38953E+00  6.15484E-01  1.31346E-01 -3.00383E+00 -2.28467E+00 -4.87574E+00 -2.12018E+00
  -4.81209E+00 -1.22863E+00 -3.23315E+00 -3.12305E+00 -3.81895E+00 -4.52268E+00 -1.47799E+00 -1.04896E+00  9.03978E-01 -2.09000E-01
  -5.32524E-01 -1.44490E+00  7.21207E-01 -2.88703E+00 -1.40218E-02 -1.32342E+00 -1.99216E+00 -2.27064E-01 -2.19582E+00 -3.23515E+00
  -5.69160E-01 -1.98396E+00 -3.28653E-01  6.96530E-01  5.35055E-01  1.27720E+00  5.49827E-01 -6.25416E-01  2.60222E-01  1.62595E-01
   1.80444E-01 -2.08162E+00 -3.00247E-01 -1.07473E+00 -2.63886E+00 -1.00773E+00  1.04578E+00 -2.12853E+00 -8.99095E-01 -2.69109E+00
  -3.65694E+00 -2.62522E+00 -2.71450E+00 -2.48788E+00 -3.94816E+00 -3.40531E+00 -5.03394E+00 -5.68956E+00 -3.14480E+00 -1.29113E+00
  -5.45104E+00 -2.24411E+00 -4.71455E+00 -1.65037E+00 -2.36690E+00 -3.27984E+00 -3.12456E+00 -1.57502E+00  5.51265E-01 -2.19502E+00
  -2.04256E+00 -7.68377E-01 -4.05055E-01 -1.26090E+00  6.85473E-01  1.72788E+00  8.90764E-02 -2.88229E+00 -1.54151E+00 -1.13123E+00
   1.13547E+00  1.35020E+00  1.18830E+00  3.09847E+00  3.39728E+00  3.47365E+00  2.61204E+00  3.28167E+00  6.44445E+00  8.26257E+00
   1.08347E+01  1.24788E+01  1.49276E+01  1.65252E+01  1.58395E+01  1.47930E+01  1.01262E+01  1.03011E+01  8.29732E+00  6.71257E+00
   6.57412E+00  2.64883E+00  5.17580E+00  2.90267E+00  2.98219E+00  4.63227E+00  2.06081E+00  3.35945E+00  4.13958E+00  5.72248E+00
   7.30893E+00  1.01285E+01  1.11030E+01  1.41067E+01  1.75694E+01  2.11464E+01  2.20742E+01  2.22613E+01  2.28082E+01  2.02151E+01
   2.00330E+01  1.66591E+01  1.15290E+01  1.05164E+01  5.83777E+00  6.40045E+00  5.05012E+00  5.61723E+00  2.97699E+00  4.52870E+00
   4.40874E+00  4.71722E+00  4.32246E+00  5.32262E+00  1.87422E+00  3.12698E+00  3.98248E+00  6.07469E+00  4.57040E+00  6.24132E+00
   1.53255E+00  4.50251E+00  4.49650E+00  4.32937E+00  3.80889E+00  3.44010E+00  2.41256E+00  4.12961E-01  1.42063E+00  4.24167E+00
   1.38004E+00  2.07939E+00  1.10595E+00  3.03237E+00  9.09147E-01  1.84539E+00  1.95319E+00 -7.51326E-01  2.11990E+00  1.71981E+00
   4.45512E-01  8.99210E-01  2.55082E+00 -6.45354E-02 -6.02651E-01  2.10144E+00 -6.79509E-01 -3.08690E-01  2.45897E+00  9.29853E-01
  -1.33879E+00  1.92369E+00  1.95627E+00  1.59502E+00  8.18194E-01  1.53336E+00  9.95396E-01  4.00289E+00  3.17448E+00  4.64065E+00
   6.77245E+00  8.84219E+00  7.04315E+00  8.38807E+00  8.39442E+00  6.70389E+00  6.73469E+00  6.70255E+00  8.03768E+00  7.23203E+00
   8.37191E+00  9.11567E+00  8.59926E+00  7.46733E+00  9.28169E+00  8.94803E+00  7.02651E+00  5.17007E+00  6.34398E+00  9.01721E+00
   8.08891E+00  8.61302E+00  9.71202E+00  1.18505E+01  1.07627E+01  1.34069E+01  1.43819E+01  1.22035E+01  9.25173E+00  1.06514E+01
   7.09961E+00  8.10921E+00  1.06934E+01  9.67701E+00  1.25752E+01  1.30742E+01  1.16695E+01  1.25966E+01  1.54420E+01  1.33074E+01
   1.16560E+01  1.18207E+01  1.23495E+01  1.36799E+01  1.35478E+01  1.50987E+01  1.41114E+01  1.41611E+01  1.55043E+01  1.49690E+01
   1.46716E+01  1.42967E+01  1.61973E+01  1.76925E+01  1.53387E+01  1.61898E+01  1.59961E+01  1.65174E+01  1.65975E+01  1.69232E+01
   1.98854E+01  1.93342E+01  2.17379E+01  2.33902E+01  2.48002E+01  2.92554E+01  3.07611E+01  3.97196E+01  4.43713E+01  4.77975E+01
   5.05872E+01  5.07221E+01  4.65409E+01  4.21603E+01  3.89075E+01  3.34159E+01  2.89170E+01  2.64783E+01  2.48045E+01  2.08300E+01
   2.00394E+01  2.03198E+01  1.81757E+01  1.96430E+01  1.70246E+01  1.73690E+01  1.56928E+01  1.42546E+01  1.42195E+01  1.62058E+01
   1.62264E+01  1.52824E+01  1.64040E+01  1.38161E+01  1.71442E+01  1.57472E+01  1.49219E+01  1.62091E+01  1.71593E+01  1.81830E+01
   1.60777E+01  1.79449E+01  1.60353E+01  1.50024E+01  1.51788E+01  1.67273E+01  1.70532E+01  1.77163E+01  1.71893E+01  1.73515E+01
   1.63536E+01  1.77439E+01  1.67127E+01  1.70325E+01  1.79433E+01  1.73623E+01  1.80204E+01  1.71510E+01  1.85501E+01  1.98421E+01
   2.10641E+01  1.94685E+01  1.70950E+01  2.07347E+01  1.97666E+01  1.93488E+01  2.05610E+01  2.07728E+01  1.86717E+01  1.98429E+01
   1.78879E+01  1.70014E+01  1.96898E+01  1.91546E+01  1.91780E+01  1.94142E+01  1.98930E+01  1.95544E+01  1.92553E+01  1.60472E+01
   1.70954E+01  1.88900E+01  1.84257E+01  1.78969E+01  1.58972E+01  1.75704E+01  1.53790E+01  1.65421E+01  1.51151E+01  1.52827E+01
   1.41985E+01  1.12347E+01  1.36758E+01  1.20809E+01  1.34615E+01  1.23971E+01  1.28577E+01  1.29867E+01  8.94853E+00  9.63966E+00
   1.40523E+01  9.84865E+00  8.50795E+00  1.04333E+01  1.00304E+01  8.29126E+00  9.58217E+00  7.53831E+00  8.23884E+00  7.33117E+00
   6.60208E+00  6.91248E+00  7.07333E+00  6.75122E+00  5.10605E+00  4.28468E+00  3.56508E+00  3.50734E+00  3.13250E+00  2.50364E+00
   3.25380E+00  3.68771E+00  1.47581E+00  4.01350E+00  4.17788E+00  2.85630E+00  3.88429E+00  2.92435E+00  3.37908E+00  5.74661E+00
   3.96090E+00  2.81338E+00  3.80823E+00  3.39917E+00  4.88487E+00  2.69828E+00  2.12058E+00  1.65257E+00  3.69629E+00  3.21783E+00
   2.83158E+00  3.70916E+00  2.80958E+00  3.81658E+00  3.92805E+00  3.80809E+00  4.62689E+00  5.28805E+00  6.32059E+00  5.03789E+00
   4.87622E+00  3.00862E+00  3.25208E+00  4.05128E+00  3.30676E+00  4.20310E+00  2.68809E+00  5.14384E+00  5.66485E+00  2.36821E+00
   4.61651E+00  3.54825E+00  5.38852E+00  2.63857E+00  5.78587E+00  4.24158E+00  3.85805E+00  5.24503E+00  3.10652E+00  1.93643E+00
   3.81550E+00  4.88325E+00  2.36731E+00  2.78191E+00  5.30101E+00  2.12896E+00  1.62579E+00  2.21749E+00  1.84790E+00  4.42947E+00
   1.95597E+00  3.42876E+00  2.23035E+00  2.45956E+00  1.49588E+00  1.67017E+00  1.39786E+00  2.20342E+00  2.16188E+00  2.70880E+00
   2.02355E+00  1.03475E+00  2.01358E+00  1.78980E+00  2.36566E+00  2.08603E+00  2.55989E+00  1.99569E+00  1.78294E+00  1.00190E+00
   3.93466E-01  2.00115E+00  1.54222E-01  1.83180E+00  2.45081E+00  9.54545E-01  9.04090E-01  3.81271E+00  3.07634E+00  1.64750E+00
   2.00037E+00  3.84983E+00  4.37268E+00  1.70180E+00  3.71721E+00  3.75595E+00  5.36804E-01 -3.23200E-01  3.65504E+00  3.37249E+00
   2.95902E+00  3.37387E+00  2.26352E+00  6.68621E-01  1.43219E+00  4.04053E+00  1.70402E+00  3.51551E+00  2.23222E+00  1.97686E+00
  -2.14774E-01  1.94774E+00  1.18646E+00  3.24337E+00  1.12419E+00  2.94397E+00  2.67423E+00  9.47705E-01  2.49596E+00  1.67390E+00
   7.47170E-01  3.62036E+00  1.32705E+00  2.23120E+00  2.95378E+00  3.63886E+00  3.39397E+00  2.81412E+00
 NY points of the fit to the data follow
  -8.59962E+00 -8.05856E+00 -7.21011E+00 -6.11092E+00 -4.76229E+00 -3.09625E+00 -1.11376E+00  1.00928E+00  2.94099E+00  4.33535E+00
   4.97804E+00  4.84576E+00  4.07876E+00  2.90866E+00  1.57232E+00  2.64699E-01 -8.64104E-01 -1.77684E+00 -2.54877E+00 -3.28467E+00
  -3.86667E+00 -4.13762E+00 -4.15180E+00 -4.01807E+00 -3.77265E+00 -3.33102E+00 -2.64571E+00 -1.76351E+00 -7.84117E-01  1.18752E-01
   7.64864E-01  1.03411E+00  8.57188E-01  2.85324E-01 -5.29521E-01 -1.38431E+00 -2.07910E+00 -2.50253E+00 -2.65856E+00 -2.67605E+00
  -2.59835E+00 -2.37363E+00 -2.07936E+00 -1.73338E+00 -1.38206E+00 -1.06557E+00 -8.42226E-01 -7.63043E-01 -8.43237E-01 -1.06211E+00
  -1.33952E+00 -1.59447E+00 -1.81490E+00 -1.98045E+00 -2.06895E+00 -2.09544E+00 -2.10242E+00 -2.09485E+00 -2.05311E+00 -2.00463E+00
  -1.99272E+00 -2.02300E+00 -2.07210E+00 -2.11420E+00 -2.13672E+00 -2.12999E+00 -2.08428E+00 -1.99945E+00 -1.89336E+00 -1.78768E+00
  -1.68992E+00 -1.60607E+00 -1.53888E+00 -1.48724E+00 -1.44936E+00 -1.41835E+00 -1.38360E+00 -1.31038E+00 -1.18821E+00 -1.05893E+00
  -9.18935E-01 -7.44284E-01 -5.22290E-01 -2.73568E-01 -5.36111E-02  9.11773E-02  1.39346E-01  1.00999E-01  3.50736E-03 -1.14789E-01
  -2.20041E-01 -2.88936E-01 -2.93185E-01 -1.36319E-01  5.00773E-01  1.54881E+00  2.71064E+00  4.12417E+00  6.04787E+00  8.52115E+00
   1.12587E+01  1.37271E+01  1.54265E+01  1.60569E+01  1.55701E+01  1.41880E+01  1.22829E+01  1.01905E+01  8.17626E+00  6.46879E+00
   5.15127E+00  4.10829E+00  3.14663E+00  2.24095E+00  1.72482E+00  1.61336E+00  1.66648E+00  2.01718E+00  3.08207E+00  4.57384E+00
   6.23921E+00  8.30871E+00  1.10574E+01  1.44628E+01  1.80497E+01  2.10956E+01  2.29844E+01  2.34290E+01  2.24837E+01  2.05011E+01
   1.79450E+01  1.51584E+01  1.24556E+01  1.01169E+01  8.21005E+00  6.61603E+00  5.17842E+00  4.02629E+00  3.59579E+00  3.62796E+00
   3.77063E+00  3.89752E+00  3.95581E+00  3.94057E+00  3.89057E+00  3.82886E+00  3.74353E+00  3.64890E+00  3.54885E+00  3.43443E+00
   3.32275E+00  3.22282E+00  3.13205E+00  3.05156E+00  2.99206E+00  2.95093E+00  2.92086E+00  2.87255E+00  2.78127E+00  2.68380E+00
   2.62854E+00  2.63511E+00  2.69051E+00  2.75720E+00  2.79597E+00  2.78135E+00  2.70466E+00  2.56858E+00  2.38717E+00  2.21858E+00
   2.08669E+00  1.97953E+00  1.85300E+00  1.70008E+00  1.59000E+00  1.55766E+00  1.60364E+00  1.69618E+00  1.77942E+00  1.85234E+00
   1.96095E+00  2.11374E+00  2.30145E+00  2.52841E+00  2.81791E+00  3.21207E+00  3.73381E+00  4.32279E+00  4.89797E+00  5.40932E+00
   5.81222E+00  6.07784E+00  6.20436E+00  6.22286E+00  6.22152E+00  6.32322E+00  6.60109E+00  7.05012E+00  7.59782E+00  8.18815E+00
   8.74894E+00  9.16340E+00  9.42457E+00  9.47479E+00  9.21687E+00  8.67413E+00  8.02546E+00  7.51414E+00  7.22660E+00  7.22528E+00
   7.60439E+00  8.36762E+00  9.35989E+00  1.02845E+01  1.09270E+01  1.12342E+01  1.11549E+01  1.06730E+01  9.94054E+00  9.21875E+00
   8.70962E+00  8.53321E+00  8.79242E+00  9.43385E+00  1.02760E+01  1.11128E+01  1.18231E+01  1.24032E+01  1.28321E+01  1.31348E+01
   1.33803E+01  1.36558E+01  1.40061E+01  1.43427E+01  1.46169E+01  1.48949E+01  1.51740E+01  1.53560E+01  1.53839E+01  1.52913E+01
   1.51627E+01  1.50718E+01  1.50492E+01  1.51428E+01  1.54015E+01  1.57779E+01  1.61749E+01  1.65390E+01  1.69109E+01  1.73000E+01
   1.77895E+01  1.88681E+01  2.10722E+01  2.36355E+01  2.63178E+01  2.96180E+01  3.39257E+01  3.90468E+01  4.40887E+01  4.79715E+01
   4.98941E+01  4.95172E+01  4.70487E+01  4.31686E+01  3.86410E+01  3.40459E+01  2.98984E+01  2.65502E+01  2.39508E+01  2.17206E+01
   1.95678E+01  1.78680E+01  1.72125E+01  1.70042E+01  1.68951E+01  1.68149E+01  1.67197E+01  1.65958E+01  1.64543E+01  1.63053E+01
   1.61610E+01  1.60304E+01  1.59169E+01  1.58188E+01  1.57403E+01  1.56841E+01  1.56449E+01  1.56195E+01  1.56079E+01  1.56092E+01
   1.56229E+01  1.56492E+01  1.56895E+01  1.57481E+01  1.58276E+01  1.59287E+01  1.60532E+01  1.62027E+01  1.63762E+01  1.65706E+01
   1.67827E+01  1.70088E+01  1.72429E+01  1.74786E+01  1.77101E+01  1.79304E+01  1.81334E+01  1.83137E+01  1.84671E+01  1.85911E+01
   1.86845E+01  1.87484E+01  1.87853E+01  1.87996E+01  1.87977E+01  1.87871E+01  1.87772E+01  1.87810E+01  1.88161E+01  1.88652E+01
   1.89050E+01  1.89483E+01  1.89999E+01  1.90381E+01  1.90195E+01  1.89013E+01  1.86898E+01  1.84202E+01  1.80996E+01  1.77531E+01
   1.74248E+01  1.71527E+01  1.69534E+01  1.68106E+01  1.66779E+01  1.64986E+01  1.62293E+01  1.58621E+01  1.54257E+01  1.49259E+01
   1.43613E+01  1.37663E+01  1.31778E+01  1.26194E+01  1.20958E+01  1.16027E+01  1.11633E+01  1.08090E+01  1.05286E+01  1.03070E+01
   1.01276E+01  9.97036E+00  9.81337E+00  9.63578E+00  9.42093E+00  9.15902E+00  8.84859E+00  8.49625E+00  8.11504E+00  7.72151E+00
   7.33262E+00  6.96290E+00  6.62257E+00  6.31686E+00  6.04641E+00  5.80840E+00  5.59802E+00  5.40967E+00  5.23802E+00  5.07859E+00
   4.92808E+00  4.78429E+00  4.64602E+00  4.51274E+00  4.38446E+00  4.26149E+00  4.14440E+00  4.03385E+00  3.93060E+00  3.83536E+00
   3.74887E+00  3.67185E+00  3.60507E+00  3.54923E+00  3.50506E+00  3.47318E+00  3.45421E+00  3.44868E+00  3.45709E+00  3.47978E+00
   3.51694E+00  3.56852E+00  3.63425E+00  3.71358E+00  3.80565E+00  3.90918E+00  4.02253E+00  4.14360E+00  4.26993E+00  4.39870E+00
   4.52678E+00  4.65078E+00  4.76715E+00  4.87232E+00  4.96288E+00  5.03562E+00  5.08776E+00  5.11696E+00  5.12151E+00  5.10029E+00
   5.05298E+00  4.98002E+00  4.88256E+00  4.76242E+00  4.62203E+00  4.46429E+00  4.29247E+00  4.11003E+00  3.92049E+00  3.72729E+00
   3.53371E+00  3.34273E+00  3.15702E+00  2.97881E+00  2.80992E+00  2.65170E+00  2.50513E+00  2.37081E+00  2.24902E+00  2.13969E+00
   2.04257E+00  1.95716E+00  1.88290E+00  1.81908E+00  1.76496E+00  1.71977E+00  1.68270E+00  1.65300E+00  1.62995E+00  1.61287E+00
   1.60113E+00  1.59410E+00  1.59125E+00  1.59206E+00  1.59612E+00  1.60300E+00  1.61233E+00  1.62374E+00  1.63694E+00  1.65163E+00
   1.66758E+00  1.68453E+00  1.70228E+00  1.72060E+00  1.73943E+00  1.75868E+00  1.77829E+00  1.79820E+00  1.81835E+00  1.83867E+00
   1.85915E+00  1.87976E+00  1.90047E+00  1.92126E+00  1.94209E+00  1.96294E+00  1.98381E+00  2.00470E+00  2.02560E+00  2.04649E+00
   2.06736E+00  2.08820E+00  2.10905E+00  2.12989E+00  2.15073E+00  2.17154E+00  2.19235E+00  2.21316E+00  2.23399E+00  2.25483E+00
   2.27570E+00  2.29658E+00  2.31751E+00  2.33849E+00  2.35954E+00  2.38066E+00  2.40187E+00  2.42316E+00  2.44457E+00  2.46611E+00
   2.48780E+00  2.50965E+00  2.53167E+00  2.55387E+00  2.57630E+00  2.59897E+00  2.62191E+00  2.64512E+00
 NY background values follow
    -9.446E+00   -9.328E+00   -9.211E+00   -9.093E+00   -8.976E+00   -8.859E+00   -8.743E+00   -8.626E+00   -8.510E+00   -8.395E+00
    -8.280E+00   -8.165E+00   -8.051E+00   -7.937E+00   -7.823E+00   -7.710E+00   -7.597E+00   -7.485E+00   -7.373E+00   -7.262E+00
    -7.151E+00   -7.041E+00   -6.931E+00   -6.822E+00   -6.713E+00   -6.605E+00   -6.497E+00   -6.390E+00   -6.283E+00   -6.177E+00
    -6.072E+00   -5.967E+00   -5.863E+00   -5.759E+00   -5.656E+00   -5.554E+00   -5.452E+00   -5.351E+00   -5.251E+00   -5.151E+00
    -5.052E+00   -4.954E+00   -4.856E+00   -4.760E+00   -4.664E+00   -4.569E+00   -4.474E+00   -4.380E+00   -4.287E+00   -4.195E+00
    -4.104E+00   -4.013E+00   -3.923E+00   -3.834E+00   -3.745E+00   -3.657E+00   -3.570E+00   -3.483E+00   -3.397E+00   -3.312E+00
    -3.227E+00   -3.143E+00   -3.060E+00   -2.977E+00   -2.895E+00   -2.813E+00   -2.732E+00   -2.652E+00   -2.572E+00   -2.493E+00
    -2.414E+00   -2.336E+00   -2.258E+00   -2.181E+00   -2.104E+00   -2.028E+00   -1.952E+00   -1.877E+00   -1.802E+00   -1.728E+00
    -1.654E+00   -1.581E+00   -1.508E+00   -1.435E+00   -1.363E+00   -1.291E+00   -1.220E+00   -1.149E+00   -1.078E+00   -1.008E+00
    -9.380E-01   -8.685E-01   -7.993E-01   -7.304E-01   -6.620E-01   -5.939E-01   -5.262E-01   -4.588E-01   -3.919E-01   -3.254E-01
    -2.593E-01   -1.937E-01   -1.284E-01   -6.365E-02    6.721E-04    6.453E-02    1.279E-01    1.908E-01    2.532E-01    3.151E-01
     3.766E-01    4.374E-01    4.978E-01    5.576E-01    6.169E-01    6.756E-01    7.338E-01    7.913E-01    8.483E-01    9.047E-01
     9.606E-01    1.016E+00    1.070E+00    1.124E+00    1.178E+00    1.230E+00    1.282E+00    1.334E+00    1.384E+00    1.434E+00
     1.484E+00    1.532E+00    1.580E+00    1.627E+00    1.674E+00    1.720E+00    1.764E+00    1.809E+00    1.852E+00    1.895E+00
     1.938E+00    1.980E+00    2.022E+00    2.064E+00    2.106E+00    2.147E+00    2.189E+00    2.231E+00    2.273E+00    2.315E+00
     2.357E+00    2.400E+00    2.444E+00    2.488E+00    2.533E+00    2.579E+00    2.625E+00    2.673E+00    2.721E+00    2.771E+00
     2.822E+00    2.874E+00    2.928E+00    2.983E+00    3.039E+00    3.097E+00    3.157E+00    3.219E+00    3.282E+00    3.348E+00
     3.415E+00    3.485E+00    3.557E+00    3.631E+00    3.708E+00    3.786E+00    3.868E+00    3.952E+00    4.039E+00    4.129E+00
     4.221E+00    4.316E+00    4.415E+00    4.516E+00    4.620E+00    4.727E+00    4.837E+00    4.948E+00    5.063E+00    5.179E+00
     5.298E+00    5.419E+00    5.542E+00    5.667E+00    5.793E+00    5.922E+00    6.052E+00    6.183E+00    6.316E+00    6.450E+00
     6.585E+00    6.722E+00    6.859E+00    6.998E+00    7.137E+00    7.277E+00    7.417E+00    7.558E+00    7.700E+00    7.841E+00
     7.983E+00    8.125E+00    8.268E+00    8.410E+00    8.552E+00    8.693E+00    8.834E+00    8.975E+00    9.115E+00    9.255E+00
     9.394E+00    9.531E+00    9.668E+00    9.804E+00    9.939E+00    1.007E+01    1.020E+01    1.033E+01    1.046E+01    1.059E+01
     1.072E+01    1.084E+01    1.096E+01    1.109E+01    1.121E+01    1.132E+01    1.144E+01    1.155E+01    1.167E+01    1.178E+01
     1.188E+01    1.199E+01    1.210E+01    1.220E+01    1.230E+01    1.240E+01    1.249E+01    1.259E+01    1.268E+01    1.277E+01
     1.286E+01    1.295E+01    1.303E+01    1.311E+01    1.319E+01    1.327E+01    1.334E+01    1.341E+01    1.348E+01    1.355E+01
     1.361E+01    1.367E+01    1.373E+01    1.379E+01    1.384E+01    1.389E+01    1.394E+01    1.398E+01    1.403E+01    1.407E+01
     1.410E+01    1.414E+01    1.417E+01    1.420E+01    1.422E+01    1.424E+01    1.426E+01    1.428E+01    1.429E+01    1.430E+01
     1.431E+01    1.431E+01    1.431E+01    1.431E+01    1.430E+01    1.429E+01    1.428E+01    1.427E+01    1.425E+01    1.423E+01
     1.420E+01    1.417E+01    1.414E+01    1.410E+01    1.406E+01    1.402E+01    1.398E+01    1.393E+01    1.387E+01    1.382E+01
     1.376E+01    1.370E+01    1.363E+01    1.356E+01    1.348E+01    1.341E+01    1.332E+01    1.324E+01    1.315E+01    1.306E+01
     1.296E+01    1.286E+01    1.276E+01    1.265E+01    1.254E+01    1.243E+01    1.231E+01    1.218E+01    1.206E+01    1.193E+01
     1.179E+01    1.166E+01    1.152E+01    1.137E+01    1.123E+01    1.108E+01    1.092E+01    1.077E+01    1.061E+01    1.045E+01
     1.029E+01    1.013E+01    9.966E+00    9.799E+00    9.631E+00    9.461E+00    9.291E+00    9.119E+00    8.946E+00    8.772E+00
     8.597E+00    8.422E+00    8.247E+00    8.071E+00    7.895E+00    7.719E+00    7.543E+00    7.368E+00    7.192E+00    7.018E+00
     6.844E+00    6.671E+00    6.498E+00    6.327E+00    6.158E+00    5.989E+00    5.822E+00    5.657E+00    5.493E+00    5.332E+00
     5.172E+00    5.015E+00    4.860E+00    4.708E+00    4.558E+00    4.410E+00    4.265E+00    4.122E+00    3.982E+00    3.845E+00
     3.710E+00    3.577E+00    3.448E+00    3.320E+00    3.196E+00    3.074E+00    2.955E+00    2.838E+00    2.724E+00    2.613E+00
     2.505E+00    2.399E+00    2.296E+00    2.196E+00    2.099E+00    2.005E+00    1.913E+00    1.824E+00    1.739E+00    1.656E+00
     1.576E+00    1.499E+00    1.425E+00    1.354E+00    1.286E+00    1.221E+00    1.159E+00    1.100E+00    1.044E+00    9.910E-01
     9.413E-01    8.948E-01    8.514E-01    8.111E-01    7.741E-01    7.402E-01    7.096E-01    6.822E-01    6.580E-01    6.369E-01
     6.189E-01    6.039E-01    5.917E-01    5.824E-01    5.757E-01    5.717E-01    5.702E-01    5.712E-01    5.746E-01    5.802E-01
     5.881E-01    5.980E-01    6.101E-01    6.240E-01    6.398E-01    6.574E-01    6.767E-01    6.977E-01    7.201E-01    7.440E-01
     7.692E-01    7.958E-01    8.235E-01    8.523E-01    8.821E-01    9.129E-01    9.446E-01    9.770E-01    1.010E+00    1.044E+00
     1.078E+00    1.113E+00    1.148E+00    1.183E+00    1.218E+00    1.254E+00    1.289E+00    1.325E+00    1.360E+00    1.395E+00
     1.430E+00    1.464E+00    1.498E+00    1.531E+00    1.564E+00    1.596E+00    1.628E+00    1.659E+00    1.690E+00    1.720E+00
     1.750E+00    1.779E+00    1.808E+00    1.836E+00    1.864E+00    1.892E+00    1.919E+00    1.946E+00    1.973E+00    1.999E+00
     2.026E+00    2.051E+00    2.077E+00    2.102E+00    2.127E+00    2.152E+00    2.177E+00    2.201E+00    2.225E+00    2.249E+00
     2.273E+00    2.297E+00    2.321E+00    2.344E+00    2.368E+00    2.391E+00    2.415E+00    2.438E+00    2.461E+00    2.485E+00
     2.508E+00    2.532E+00    2.555E+00    2.579E+00    2.602E+00    2.626E+00    2.649E+00    2.673E+00
 Ala      Conc. = 9.47E+01
