 LCModel (Version 6.3-1L) Copyright: S.W. Provencher.          Ref.: Magn. Reson. Med. 30:672-679 (1993).                
 Slice#1 Row#11 Col#8  PD_05_press_1_raw_act
 36 lines in following concentration table = NCONC+1
    Conc.  %SD /Cr+PCr  Metabolite                                         
   65.298 107%   0.113 Ala                                                 
   31.389 363% 5.4E-02 Asp                                                 
  385.717  27%   0.667 Cr                                                  
  192.176  54%   0.333 PCr                                                 
   37.154 191% 6.4E-02 GABA                                                
   52.545 137% 9.1E-02 Glc                                                 
  507.669  27%   0.878 Gln                                                 
  832.839  19%   1.441 Glu                                                 
  170.623   8%   0.295 GPC                                                 
    0.000 999%   0.000 PCh                                                 
  203.558  23%   0.352 GSH                                                 
  801.766  19%   1.387 Ins                                                 
    0.000 999%   0.000 Lac                                                 
 1.22E+03   6%   2.102 NAA                                                 
   29.847 253% 5.2E-02 NAAG                                                
   33.178  46% 5.7E-02 Scyllo                                              
    0.000 999%   0.000 Tau                                                 
    0.000 999%   0.000 -CrCH2                                              
  170.623   8%   0.295 GPC+PCh                                             
 1.24E+03   5%   2.154 NAA+NAAG                                            
  577.894   6%   1.000 Cr+PCr                                              
 1.34E+03  16%   2.320 Glu+Gln                                             
  528.316  52%   0.914 Lip13a                                              
    0.000 999%   0.000 Lip13b                                              
    0.000 999%   0.000 Lip09                                               
 1.17E+03  12%   2.017 MM09                                                
   49.566 180% 8.6E-02 Lip20                                               
 2.33E+03  11%   4.039 MM20                                                
  444.325  27%   0.769 MM12                                                
 2.77E+03  11%   4.801 MM14                                                
 1.17E+03  19%   2.016 MM17                                                
  528.316  52%   0.914 Lip13a+Lip13b                                       
 3.75E+03   7%   6.484 MM14+Lip13a+Lip13b+MM12                             
 1.17E+03  12%   2.017 MM09+Lip09                                          
 2.38E+03  10%   4.125 MM20+Lip20                                          
   6 lines in following misc. output table
  FWHM = 0.038 ppm    S/N =  11                                            
  Data shift = 0.015 ppm                                                   
  Ph:  -9 deg      12.8 deg/ppm                                            
  alphaB,S = 3.7E+00,   6.9E+01                                            
   14 spline knots.   Ns = 6(1)                                            
  ( 7) 4 infls.   ( 5) 1 extrs.                                            
  498 points on ppm-axis = NY
      4.000000     3.992357     3.984714     3.977070     3.969427     3.961784     3.954141     3.946497     3.938854     3.931211
      3.923568     3.915925     3.908281     3.900638     3.892995     3.885352     3.877708     3.870065     3.862422     3.854779
      3.847136     3.839492     3.831849     3.824206     3.816563     3.808919     3.801276     3.793633     3.785990     3.778347
      3.770703     3.763060     3.755417     3.747774     3.740130     3.732487     3.724844     3.717201     3.709558     3.701914
      3.694271     3.686628     3.678985     3.671341     3.663698     3.656055     3.648412     3.640769     3.633125     3.625482
      3.617839     3.610196     3.602552     3.594909     3.587266     3.579623     3.571980     3.564336     3.556693     3.549050
      3.541407     3.533763     3.526120     3.518477     3.510834     3.503191     3.495547     3.487904     3.480261     3.472618
      3.464974     3.457331     3.449688     3.442045     3.434402     3.426758     3.419115     3.411472     3.403829     3.396185
      3.388542     3.380899     3.373256     3.365613     3.357969     3.350326     3.342683     3.335040     3.327396     3.319753
      3.312110     3.304467     3.296824     3.289180     3.281537     3.273894     3.266251     3.258607     3.250964     3.243321
      3.235678     3.228034     3.220391     3.212748     3.205105     3.197462     3.189818     3.182175     3.174532     3.166889
      3.159245     3.151602     3.143959     3.136316     3.128673     3.121029     3.113386     3.105743     3.098100     3.090456
      3.082813     3.075170     3.067527     3.059884     3.052240     3.044597     3.036954     3.029311     3.021667     3.014024
      3.006381     2.998738     2.991095     2.983451     2.975808     2.968165     2.960522     2.952878     2.945235     2.937592
      2.929949     2.922306     2.914662     2.907019     2.899376     2.891733     2.884089     2.876446     2.868803     2.861160
      2.853517     2.845873     2.838230     2.830587     2.822944     2.815300     2.807657     2.800014     2.792371     2.784728
      2.777084     2.769441     2.761798     2.754155     2.746511     2.738868     2.731225     2.723582     2.715939     2.708295
      2.700652     2.693009     2.685366     2.677722     2.670079     2.662436     2.654793     2.647150     2.639506     2.631863
      2.624220     2.616577     2.608933     2.601290     2.593647     2.586004     2.578361     2.570717     2.563074     2.555431
      2.547788     2.540144     2.532501     2.524858     2.517215     2.509572     2.501928     2.494285     2.486642     2.478999
      2.471355     2.463712     2.456069     2.448426     2.440783     2.433139     2.425496     2.417853     2.410210     2.402566
      2.394923     2.387280     2.379637     2.371994     2.364350     2.356707     2.349064     2.341421     2.333777     2.326134
      2.318491     2.310848     2.303205     2.295561     2.287918     2.280275     2.272632     2.264988     2.257345     2.249702
      2.242059     2.234416     2.226772     2.219129     2.211486     2.203843     2.196199     2.188556     2.180913     2.173270
      2.165627     2.157983     2.150340     2.142697     2.135054     2.127410     2.119767     2.112124     2.104481     2.096838
      2.089194     2.081551     2.073908     2.066265     2.058621     2.050978     2.043335     2.035692     2.028049     2.020405
      2.012762     2.005119     1.997476     1.989833     1.982190     1.974546     1.966903     1.959260     1.951617     1.943974
      1.936331     1.928688     1.921045     1.913402     1.905759     1.898115     1.890472     1.882829     1.875186     1.867543
      1.859900     1.852257     1.844614     1.836971     1.829327     1.821684     1.814041     1.806398     1.798755     1.791112
      1.783469     1.775826     1.768183     1.760540     1.752896     1.745253     1.737610     1.729967     1.722324     1.714681
      1.707038     1.699395     1.691752     1.684108     1.676465     1.668822     1.661179     1.653536     1.645893     1.638250
      1.630607     1.622964     1.615321     1.607677     1.600034     1.592391     1.584748     1.577105     1.569462     1.561819
      1.554176     1.546533     1.538890     1.531246     1.523603     1.515960     1.508317     1.500674     1.493031     1.485388
      1.477745     1.470102     1.462458     1.454815     1.447172     1.439529     1.431886     1.424243     1.416600     1.408957
      1.401314     1.393671     1.386027     1.378384     1.370741     1.363098     1.355455     1.347812     1.340169     1.332526
      1.324883     1.317240     1.309596     1.301953     1.294310     1.286667     1.279024     1.271381     1.263738     1.256095
      1.248452     1.240808     1.233165     1.225522     1.217879     1.210236     1.202593     1.194950     1.187307     1.179664
      1.172021     1.164377     1.156734     1.149091     1.141448     1.133805     1.126162     1.118519     1.110876     1.103233
      1.095590     1.087946     1.080303     1.072660     1.065017     1.057374     1.049731     1.042088     1.034445     1.026802
      1.019158     1.011515     1.003872     0.996229     0.988586     0.980943     0.973300     0.965657     0.958014     0.950371
      0.942727     0.935084     0.927441     0.919798     0.912155     0.904512     0.896869     0.889226     0.881583     0.873940
      0.866296     0.858653     0.851010     0.843367     0.835724     0.828081     0.820438     0.812795     0.805152     0.797508
      0.789865     0.782222     0.774579     0.766936     0.759293     0.751650     0.744007     0.736364     0.728721     0.721077
      0.713434     0.705791     0.698148     0.690505     0.682862     0.675219     0.667576     0.659933     0.652290     0.644646
      0.637003     0.629360     0.621717     0.614074     0.606431     0.598788     0.591145     0.583502     0.575858     0.568215
      0.560572     0.552929     0.545286     0.537643     0.530000     0.522357     0.514714     0.507071     0.499427     0.491784
      0.484141     0.476498     0.468855     0.461212     0.453569     0.445925     0.438282     0.430639     0.422996     0.415353
      0.407710     0.400067     0.392424     0.384780     0.377137     0.369494     0.361851     0.354208     0.346565     0.338922
      0.331278     0.323635     0.315992     0.308349     0.300706     0.293063     0.285420     0.277777     0.270133     0.262490
      0.254847     0.247204     0.239561     0.231918     0.224275     0.216631     0.208988     0.201345
 NY phased data points follow
   7.16180E+00  1.22240E+01  1.00701E+01  1.04097E+01  7.39606E+00  9.49022E+00  1.21073E+01  1.61890E+01  2.09502E+01  1.96855E+01
   2.04753E+01  1.99659E+01  2.31832E+01  1.65283E+01  1.86814E+01  1.39760E+01  1.47960E+01  1.14183E+01  1.49354E+01  1.26497E+01
   1.14399E+01  1.30229E+01  1.39914E+01  8.28294E+00  7.26995E+00  1.33346E+01  1.08944E+01  1.19501E+01  1.31572E+01  1.02866E+01
   1.32560E+01  1.18219E+01  1.18089E+01  1.17185E+01  9.14340E+00  8.49938E+00  1.04106E+01  9.86220E+00  1.10644E+01  1.10725E+01
   9.53140E+00  8.55115E+00  8.71730E+00  1.08583E+01  1.22825E+01  1.19155E+01  1.26077E+01  1.31311E+01  1.72453E+01  9.56184E+00
   9.15911E+00  9.59153E+00  1.26114E+01  9.59101E+00  9.31454E+00  7.35034E+00  7.54065E+00  9.24268E+00  9.34517E+00  8.13670E+00
   1.08189E+01  4.68494E+00  7.49987E+00  5.63229E+00  6.21150E+00  3.34363E+00  2.52858E+00  1.70850E+00  5.17038E+00  2.75438E+00
   3.92005E+00  4.61840E+00  4.54247E+00  5.39601E+00  7.76445E+00  5.59193E+00  4.99617E+00  6.98953E+00  5.17489E+00  6.84567E+00
   6.90084E+00  5.63476E+00  6.32798E+00  6.63582E+00  8.09430E+00  6.97816E+00  1.77831E+00  5.96013E+00  5.28525E+00  6.21372E+00
   9.93510E+00  1.93009E+00  7.91428E+00  7.52116E+00  2.74118E+00  8.49717E+00  8.17023E+00  8.38004E+00  7.27863E+00  7.87739E+00
   5.51773E+00  1.61370E+01  1.92605E+01  2.37537E+01  2.14248E+01  1.80655E+01  1.57994E+01  1.17211E+01  9.59438E+00  1.03969E+01
   4.36478E+00  6.95264E+00  4.97959E+00  5.17614E+00  7.06268E+00  5.62060E+00  2.09805E-01  8.21889E+00  4.29790E+00  1.99835E+00
   6.55115E+00  3.73192E+00  5.63404E+00  7.09862E+00  1.13007E+01  2.05735E+01  2.49977E+01  3.04662E+01  2.54070E+01  2.06685E+01
   1.74554E+01  1.55538E+01  1.47500E+01  1.08208E+01  9.13150E+00  7.59484E+00  5.32890E+00  8.45337E+00  8.29838E+00  5.35673E+00
   9.27324E+00  4.19507E+00  4.20811E+00  2.68475E+00  2.73103E+00  3.07221E+00 -1.06558E+00  7.41413E+00  3.35063E+00  2.91848E+00
   2.10565E+00  3.51674E+00  4.31302E+00  5.00406E-01  3.88126E+00  1.01491E+00  2.17874E-01 -3.23103E-01  4.20191E+00  7.70395E+00
   4.02236E+00  2.57722E-01  2.10328E+00  4.69873E+00  4.50211E+00 -3.65818E-01  1.09397E+00  1.52129E+00 -2.64249E+00 -1.00070E+00
   2.32997E+00 -1.28042E+00 -2.11796E+00 -1.94562E+00 -4.20560E+00 -3.01400E+00 -6.95955E+00 -4.83454E+00 -1.80933E-01 -5.36279E+00
  -2.49947E+00 -3.05826E+00  1.04112E+00 -1.49236E+00  7.43911E-01  4.87961E+00 -3.29930E-02  1.74310E+00  9.63791E-01 -9.69489E-01
   1.22320E+00  1.77209E+00  3.25675E+00  9.96145E-01  1.20436E+00 -1.47674E+00 -3.92818E+00 -1.50827E-01 -1.50618E+00 -4.05922E+00
  -1.07963E+00  3.28670E+00  6.49009E+00  5.55579E+00  1.59726E+00  4.29460E-01  2.04603E+00  3.58967E+00 -2.46530E-01  1.82576E-01
  -2.58711E+00  1.49845E+00  3.48223E+00  1.02633E+01  6.93188E+00  8.51824E+00  8.28462E+00  9.19014E+00  7.61966E+00  4.15518E+00
  -1.62212E+00 -7.70756E-01 -9.67695E-01  2.28981E+00  5.06194E+00  9.51800E+00  5.23192E+00  4.37615E+00  8.17545E+00  5.79415E+00
   5.43123E+00  7.88162E+00  5.63470E+00  8.95693E+00  5.89563E+00  6.98915E+00  6.62307E+00  9.48056E+00  8.95045E+00  1.13320E+01
   7.11053E+00  6.23871E+00  3.29953E+00  9.66016E+00  8.18997E+00  9.31246E+00  9.99794E+00  1.29227E+01  1.25712E+01  1.38164E+01
   1.28002E+01  1.62030E+01  1.61141E+01  1.50972E+01  1.66299E+01  1.48319E+01  2.28709E+01  3.08290E+01  4.64164E+01  5.81044E+01
   6.32877E+01  5.37972E+01  3.95089E+01  2.89234E+01  2.47947E+01  1.88246E+01  1.00703E+01  1.05661E+01  1.15925E+01  8.31685E+00
   4.95666E+00  6.80691E+00  4.10083E+00  3.49803E+00  3.03243E+00  2.50655E+00  1.12677E+00  4.28808E+00  5.83342E+00  5.63877E+00
   3.16216E+00  2.81371E+00  2.92447E+00  6.14063E+00 -2.00702E+00  8.83027E-01  5.67380E+00  5.05861E+00  3.72192E-01  1.54738E+00
   3.63330E+00  2.91722E+00  6.21667E+00  5.37639E+00  1.06787E+01  2.70758E+00  5.89020E+00  5.74568E+00  3.83376E+00  4.61190E+00
   1.72302E+00  7.82493E+00  5.08837E+00  9.00730E+00  7.55598E+00  5.48056E+00  1.05737E+01  7.00104E+00  8.08411E+00  7.49499E+00
   8.30472E+00  1.01159E+01  8.69367E+00  1.20760E+01  1.21747E+01  1.00958E+01  1.15812E+01  9.55589E+00  1.00991E+01  9.33563E+00
   1.16946E+01  9.16181E+00  1.01711E+01  9.24385E+00  1.17781E+01  1.35854E+01  1.50724E+01  1.51067E+01  1.45933E+01  1.54466E+01
   1.67058E+01  2.08994E+01  1.84713E+01  1.58807E+01  2.14678E+01  1.93936E+01  2.42077E+01  2.12912E+01  2.12455E+01  1.95538E+01
   2.23850E+01  2.03245E+01  1.65185E+01  1.81946E+01  1.65373E+01  1.32949E+01  1.74758E+01  1.41159E+01  1.45828E+01  1.26348E+01
   1.21511E+01  8.54565E+00  1.02607E+01  7.20360E+00  1.14932E+01  4.73707E-01  6.83341E+00  1.05392E+01  4.03606E+00  2.99734E+00
   3.82724E+00  3.46782E+00  4.46856E+00  7.60765E+00  3.95970E+00  8.07599E+00  5.38798E+00  3.61599E+00  4.26410E+00  6.96393E+00
   4.70494E+00  5.54819E+00  8.96718E+00  2.92748E+00  3.86003E+00  5.84337E+00  6.54505E+00  5.97397E-01  6.86819E+00 -2.77804E-01
   2.92844E+00 -2.80490E-02  2.59467E+00  8.06535E-01  3.91376E+00  5.24999E+00 -1.11987E+00  1.60588E+00  4.66898E-01  2.05212E+00
   1.97635E+00  6.39339E+00  3.60272E+00  4.94590E+00  5.38551E+00  1.98846E+00  5.54872E+00  4.44704E+00  7.01512E+00  3.18766E+00
   6.17521E+00  5.25158E+00  5.72874E+00  5.44906E+00  5.76809E+00  8.93846E+00  9.22090E+00  6.41827E+00  5.66291E+00  1.04592E+01
   8.56711E+00  3.55600E+00  5.40346E+00  9.27357E+00  9.16441E+00  5.48106E+00  4.85673E+00  4.90695E+00  5.82160E+00 -7.13911E-02
   2.18606E+00  2.28821E-01  2.42690E+00 -1.18120E+00  7.05024E-01  3.48012E+00  5.98043E-01  2.07260E-01 -6.76145E-01 -3.58948E-01
  -3.37592E+00 -5.14311E-01 -4.20392E+00 -4.08473E+00  2.46621E+00 -6.93931E-01  6.39264E-01 -1.60979E+00  4.42078E+00 -2.23783E+00
   1.24860E+00 -8.61081E-01 -1.04482E+00  9.84903E-01  2.81082E+00 -3.19207E+00 -4.85914E-01 -2.82058E+00  2.16129E+00 -1.39894E+00
   1.40625E+00 -4.90690E-01 -2.81075E+00  7.18865E-01 -1.78162E+00  1.34814E+00 -1.21510E+00  2.84998E-01 -2.70341E+00  2.39156E+00
  -6.05643E-01 -3.04445E+00  2.00787E-01 -1.50001E+00 -1.78096E+00 -9.53591E-02  2.59951E+00  2.17029E+00 -2.59989E+00 -2.60493E+00
  -1.53574E+00 -5.78621E-01 -1.28400E+00 -3.42645E+00 -1.89404E-01  1.75917E-01 -2.38804E+00 -1.41465E+00 -1.30296E+00  1.83673E+00
   2.70095E+00 -2.16250E-02 -2.06495E+00  1.30796E-02 -1.35351E+00 -2.28552E+00 -2.03060E+00 -2.78759E+00 -2.44926E+00 -7.76723E-01
  -1.00748E+00 -1.96548E+00  3.12400E+00 -3.60679E+00 -3.72364E-02  2.49694E+00 -5.15427E-01 -2.70533E+00
 NY points of the fit to the data follow
   8.76207E+00  8.51032E+00  8.44370E+00  8.58008E+00  9.06830E+00  1.00502E+01  1.16808E+01  1.39089E+01  1.64899E+01  1.90038E+01
   2.08404E+01  2.13933E+01  2.03746E+01  1.81221E+01  1.55163E+01  1.33491E+01  1.18025E+01  1.06906E+01  9.81319E+00  9.11095E+00
   8.82856E+00  8.81720E+00  8.76814E+00  8.60716E+00  8.38142E+00  8.31311E+00  8.78496E+00  9.97016E+00  1.16223E+01  1.31535E+01
   1.40353E+01  1.40976E+01  1.34404E+01  1.22285E+01  1.06586E+01  9.10061E+00  7.89836E+00  7.31232E+00  7.21218E+00  7.23314E+00
   7.31411E+00  7.50546E+00  7.96942E+00  8.85556E+00  1.02466E+01  1.19855E+01  1.35036E+01  1.40418E+01  1.32405E+01  1.14797E+01
   9.58886E+00  8.18611E+00  7.33048E+00  6.77242E+00  6.38314E+00  6.28465E+00  6.60913E+00  7.25535E+00  7.99018E+00  8.55678E+00
   8.69477E+00  8.31280E+00  7.57663E+00  6.79996E+00  6.25024E+00  6.01654E+00  6.03572E+00  6.21871E+00  6.51478E+00  6.86845E+00
   7.23310E+00  7.50474E+00  7.58924E+00  7.47445E+00  7.24237E+00  7.00701E+00  6.81822E+00  6.65615E+00  6.49788E+00  6.34171E+00
   6.25436E+00  6.27031E+00  6.41261E+00  6.64959E+00  6.80159E+00  6.61105E+00  5.96454E+00  5.06798E+00  4.33672E+00  4.05962E+00
   4.20334E+00  4.53617E+00  4.87129E+00  5.14761E+00  5.37341E+00  5.47058E+00  5.38276E+00  5.31557E+00  5.79522E+00  7.43409E+00
   1.08288E+01  1.57550E+01  2.06540E+01  2.33245E+01  2.25223E+01  1.90633E+01  1.50498E+01  1.20029E+01  9.97029E+00  8.30488E+00
   6.70968E+00  5.44017E+00  5.00320E+00  4.97400E+00  5.02306E+00  5.08415E+00  5.13812E+00  5.18332E+00  5.24538E+00  5.37119E+00
   5.63636E+00  6.23400E+00  7.56052E+00  1.01702E+01  1.45774E+01  2.03754E+01  2.57525E+01  2.83909E+01  2.72054E+01  2.33152E+01
   1.89704E+01  1.55263E+01  1.27981E+01  1.01160E+01  7.42142E+00  5.38431E+00  4.59296E+00  4.62119E+00  4.94980E+00  5.29986E+00
   5.50738E+00  5.53554E+00  5.41280E+00  5.20908E+00  4.99781E+00  4.78512E+00  4.54902E+00  4.30667E+00  4.06283E+00  3.84880E+00
   3.66138E+00  3.49801E+00  3.36975E+00  3.28804E+00  3.25121E+00  3.22020E+00  3.13082E+00  2.89951E+00  2.50171E+00  2.05808E+00
   1.78642E+00  1.86737E+00  2.24626E+00  2.62519E+00  2.70718E+00  2.43279E+00  1.99886E+00  1.64588E+00  1.45062E+00  1.29550E+00
   1.08801E+00  7.96941E-01  4.27782E-01  5.21418E-02 -2.31725E-01 -2.77833E-01 -4.46786E-02  2.74839E-01  4.05038E-01  2.76976E-01
   8.88511E-02  5.33758E-02  1.63934E-01  2.35832E-01  1.88290E-01  2.52411E-01  7.63843E-01  1.74145E+00  2.87017E+00  3.68878E+00
   3.96065E+00  3.75962E+00  3.29032E+00  2.75349E+00  2.27579E+00  1.91168E+00  1.77983E+00  1.99764E+00  2.60229E+00  3.53691E+00
   4.65240E+00  5.72281E+00  6.49688E+00  6.72312E+00  6.16776E+00  4.81207E+00  2.83485E+00  7.03970E-01 -9.56011E-01 -1.63384E+00
  -1.15033E+00  3.05757E-01  2.43746E+00  4.87056E+00  7.05005E+00  8.26108E+00  8.04488E+00  6.53570E+00  4.28410E+00  2.00221E+00
   1.68044E-01 -8.17720E-01 -5.53749E-01  8.80600E-01  2.90615E+00  4.68020E+00  5.80768E+00  6.37541E+00  6.56110E+00  6.49353E+00
   6.28598E+00  6.12979E+00  6.16863E+00  6.40373E+00  6.78948E+00  7.37350E+00  8.09746E+00  8.73136E+00  9.02246E+00  8.85266E+00
   8.36930E+00  7.90201E+00  7.77197E+00  8.10785E+00  8.76402E+00  9.50083E+00  1.00849E+01  1.04952E+01  1.08371E+01  1.12251E+01
   1.16990E+01  1.22589E+01  1.29308E+01  1.37197E+01  1.50336E+01  1.78160E+01  2.36962E+01  3.39124E+01  4.66537E+01  5.67841E+01
   5.90975E+01  5.27092E+01  4.19445E+01  3.21807E+01  2.54165E+01  2.03440E+01  1.54669E+01  1.07524E+01  7.69187E+00  6.52897E+00
   5.90546E+00  5.52839E+00  5.33341E+00  5.21450E+00  5.07048E+00  4.87269E+00  4.62348E+00  4.34326E+00  4.04994E+00  3.76069E+00
   3.49297E+00  3.27091E+00  3.10745E+00  2.99280E+00  2.91441E+00  2.86648E+00  2.84672E+00  2.85498E+00  2.89171E+00  2.95749E+00
   3.05654E+00  3.19049E+00  3.35949E+00  3.56425E+00  3.80600E+00  4.08424E+00  4.39654E+00  4.74014E+00  5.11149E+00  5.50471E+00
   5.91278E+00  6.32731E+00  6.73784E+00  7.13403E+00  7.50606E+00  7.84514E+00  8.14415E+00  8.39792E+00  8.60387E+00  8.76190E+00
   8.87457E+00  8.94774E+00  8.99052E+00  9.01507E+00  9.03613E+00  9.06999E+00  9.13384E+00  9.24539E+00  9.42246E+00  9.68266E+00
   1.00442E+01  1.05283E+01  1.11494E+01  1.19062E+01  1.27549E+01  1.35870E+01  1.42863E+01  1.48191E+01  1.52689E+01  1.57704E+01
   1.63925E+01  1.71148E+01  1.79158E+01  1.87935E+01  1.96933E+01  2.04765E+01  2.09612E+01  2.10712E+01  2.08910E+01  2.05233E+01
   2.00073E+01  1.93389E+01  1.85204E+01  1.75994E+01  1.66384E+01  1.56498E+01  1.46477E+01  1.36510E+01  1.26783E+01  1.17456E+01
   1.08660E+01  1.00493E+01  9.30209E+00  8.62755E+00  8.02573E+00  7.49396E+00  7.02755E+00  6.62043E+00  6.26563E+00  5.95563E+00
   5.68265E+00  5.43916E+00  5.21831E+00  5.01424E+00  4.82207E+00  4.63780E+00  4.45830E+00  4.28147E+00  4.10627E+00  3.93256E+00
   3.76089E+00  3.59223E+00  3.42789E+00  3.26963E+00  3.11956E+00  2.97999E+00  2.85319E+00  2.74127E+00  2.64631E+00  2.57046E+00
   2.51587E+00  2.48459E+00  2.47841E+00  2.49894E+00  2.54767E+00  2.62606E+00  2.73537E+00  2.87650E+00  3.04980E+00  3.25509E+00
   3.49166E+00  3.75816E+00  4.05237E+00  4.37101E+00  4.70964E+00  5.06284E+00  5.42426E+00  5.78671E+00  6.14219E+00  6.48204E+00
   6.79734E+00  7.07933E+00  7.31985E+00  7.51157E+00  7.64826E+00  7.72505E+00  7.73884E+00  7.68849E+00  7.57486E+00  7.40064E+00
   7.17012E+00  6.88903E+00  6.56435E+00  6.20398E+00  5.81632E+00  5.40979E+00  4.99247E+00  4.57190E+00  4.15495E+00  3.74764E+00
   3.35494E+00  2.98064E+00  2.62745E+00  2.29713E+00  1.99069E+00  1.70841E+00  1.44989E+00  1.21419E+00  9.99987E-01  8.05803E-01
   6.30122E-01  4.71365E-01  3.27881E-01  1.98006E-01  8.02024E-02 -2.68637E-02 -1.24350E-01 -2.13337E-01 -2.94874E-01 -3.69924E-01
  -4.39274E-01 -5.03530E-01 -5.63204E-01 -6.18813E-01 -6.70880E-01 -7.19855E-01 -7.66051E-01 -8.09683E-01 -8.50962E-01 -8.90154E-01
  -9.27536E-01 -9.63309E-01 -9.97568E-01 -1.03037E+00 -1.06183E+00 -1.09212E+00 -1.12141E+00 -1.14977E+00 -1.17720E+00 -1.20374E+00
  -1.22945E+00 -1.25448E+00 -1.27891E+00 -1.30275E+00 -1.32596E+00 -1.34856E+00 -1.37066E+00 -1.39235E+00 -1.41366E+00 -1.43455E+00
  -1.45499E+00 -1.47502E+00 -1.49473E+00 -1.51419E+00 -1.53338E+00 -1.55224E+00 -1.57076E+00 -1.58901E+00 -1.60707E+00 -1.62498E+00
  -1.64266E+00 -1.66009E+00 -1.67727E+00 -1.69428E+00 -1.71118E+00 -1.72797E+00 -1.74456E+00 -1.76094E+00 -1.77716E+00 -1.79328E+00
  -1.80935E+00 -1.82530E+00 -1.84109E+00 -1.85671E+00 -1.87223E+00 -1.88772E+00 -1.90317E+00 -1.91850E+00
 NY background values follow
     6.226E+00    6.201E+00    6.177E+00    6.153E+00    6.128E+00    6.104E+00    6.079E+00    6.055E+00    6.031E+00    6.006E+00
     5.982E+00    5.957E+00    5.933E+00    5.908E+00    5.884E+00    5.860E+00    5.835E+00    5.811E+00    5.786E+00    5.762E+00
     5.737E+00    5.713E+00    5.689E+00    5.664E+00    5.640E+00    5.615E+00    5.591E+00    5.567E+00    5.542E+00    5.518E+00
     5.493E+00    5.469E+00    5.445E+00    5.420E+00    5.396E+00    5.372E+00    5.347E+00    5.323E+00    5.299E+00    5.274E+00
     5.250E+00    5.226E+00    5.201E+00    5.177E+00    5.153E+00    5.128E+00    5.104E+00    5.080E+00    5.055E+00    5.031E+00
     5.007E+00    4.983E+00    4.959E+00    4.934E+00    4.910E+00    4.886E+00    4.862E+00    4.838E+00    4.813E+00    4.789E+00
     4.765E+00    4.741E+00    4.717E+00    4.693E+00    4.669E+00    4.645E+00    4.621E+00    4.597E+00    4.573E+00    4.549E+00
     4.525E+00    4.501E+00    4.477E+00    4.453E+00    4.429E+00    4.405E+00    4.382E+00    4.358E+00    4.334E+00    4.310E+00
     4.287E+00    4.263E+00    4.239E+00    4.216E+00    4.192E+00    4.168E+00    4.145E+00    4.121E+00    4.098E+00    4.074E+00
     4.051E+00    4.027E+00    4.004E+00    3.981E+00    3.957E+00    3.934E+00    3.911E+00    3.887E+00    3.864E+00    3.841E+00
     3.818E+00    3.795E+00    3.772E+00    3.748E+00    3.725E+00    3.702E+00    3.680E+00    3.657E+00    3.634E+00    3.611E+00
     3.588E+00    3.565E+00    3.542E+00    3.520E+00    3.497E+00    3.474E+00    3.452E+00    3.429E+00    3.407E+00    3.384E+00
     3.362E+00    3.339E+00    3.317E+00    3.295E+00    3.273E+00    3.250E+00    3.228E+00    3.206E+00    3.184E+00    3.162E+00
     3.140E+00    3.118E+00    3.096E+00    3.074E+00    3.052E+00    3.030E+00    3.008E+00    2.987E+00    2.965E+00    2.943E+00
     2.922E+00    2.900E+00    2.879E+00    2.857E+00    2.836E+00    2.815E+00    2.793E+00    2.772E+00    2.751E+00    2.730E+00
     2.709E+00    2.687E+00    2.666E+00    2.646E+00    2.625E+00    2.604E+00    2.583E+00    2.562E+00    2.541E+00    2.521E+00
     2.500E+00    2.480E+00    2.459E+00    2.439E+00    2.418E+00    2.398E+00    2.378E+00    2.358E+00    2.337E+00    2.317E+00
     2.297E+00    2.277E+00    2.257E+00    2.237E+00    2.217E+00    2.198E+00    2.178E+00    2.158E+00    2.139E+00    2.119E+00
     2.100E+00    2.080E+00    2.061E+00    2.041E+00    2.022E+00    2.003E+00    1.984E+00    1.965E+00    1.946E+00    1.927E+00
     1.908E+00    1.889E+00    1.870E+00    1.851E+00    1.833E+00    1.814E+00    1.796E+00    1.777E+00    1.758E+00    1.740E+00
     1.722E+00    1.703E+00    1.685E+00    1.667E+00    1.649E+00    1.631E+00    1.613E+00    1.595E+00    1.577E+00    1.559E+00
     1.541E+00    1.523E+00    1.505E+00    1.488E+00    1.470E+00    1.452E+00    1.435E+00    1.417E+00    1.400E+00    1.383E+00
     1.365E+00    1.348E+00    1.331E+00    1.313E+00    1.296E+00    1.279E+00    1.262E+00    1.245E+00    1.228E+00    1.211E+00
     1.194E+00    1.177E+00    1.161E+00    1.144E+00    1.127E+00    1.111E+00    1.094E+00    1.077E+00    1.061E+00    1.044E+00
     1.028E+00    1.012E+00    9.952E-01    9.789E-01    9.627E-01    9.464E-01    9.303E-01    9.141E-01    8.980E-01    8.820E-01
     8.660E-01    8.500E-01    8.341E-01    8.182E-01    8.024E-01    7.866E-01    7.708E-01    7.551E-01    7.394E-01    7.237E-01
     7.081E-01    6.926E-01    6.770E-01    6.616E-01    6.461E-01    6.307E-01    6.153E-01    6.000E-01    5.847E-01    5.694E-01
     5.542E-01    5.390E-01    5.239E-01    5.088E-01    4.937E-01    4.786E-01    4.636E-01    4.487E-01    4.337E-01    4.188E-01
     4.040E-01    3.891E-01    3.743E-01    3.596E-01    3.448E-01    3.301E-01    3.155E-01    3.009E-01    2.863E-01    2.717E-01
     2.572E-01    2.427E-01    2.282E-01    2.138E-01    1.994E-01    1.850E-01    1.707E-01    1.564E-01    1.421E-01    1.279E-01
     1.136E-01    9.946E-02    8.530E-02    7.118E-02    5.708E-02    4.302E-02    2.899E-02    1.498E-02    1.001E-03   -1.295E-02
    -2.687E-02   -4.076E-02   -5.463E-02   -6.846E-02   -8.227E-02   -9.606E-02   -1.098E-01   -1.235E-01   -1.372E-01   -1.509E-01
    -1.646E-01   -1.782E-01   -1.918E-01   -2.054E-01   -2.189E-01   -2.324E-01   -2.459E-01   -2.594E-01   -2.728E-01   -2.863E-01
    -2.997E-01   -3.130E-01   -3.264E-01   -3.397E-01   -3.530E-01   -3.663E-01   -3.795E-01   -3.927E-01   -4.059E-01   -4.191E-01
    -4.323E-01   -4.454E-01   -4.585E-01   -4.716E-01   -4.847E-01   -4.977E-01   -5.107E-01   -5.237E-01   -5.367E-01   -5.497E-01
    -5.626E-01   -5.755E-01   -5.884E-01   -6.013E-01   -6.141E-01   -6.269E-01   -6.397E-01   -6.525E-01   -6.653E-01   -6.780E-01
    -6.907E-01   -7.034E-01   -7.161E-01   -7.288E-01   -7.414E-01   -7.541E-01   -7.667E-01   -7.792E-01   -7.918E-01   -8.044E-01
    -8.169E-01   -8.294E-01   -8.419E-01   -8.543E-01   -8.668E-01   -8.792E-01   -8.916E-01   -9.040E-01   -9.164E-01   -9.287E-01
    -9.411E-01   -9.534E-01   -9.657E-01   -9.780E-01   -9.902E-01   -1.002E+00   -1.015E+00   -1.027E+00   -1.039E+00   -1.051E+00
    -1.063E+00   -1.076E+00   -1.088E+00   -1.100E+00   -1.112E+00   -1.124E+00   -1.136E+00   -1.148E+00   -1.160E+00   -1.172E+00
    -1.184E+00   -1.196E+00   -1.208E+00   -1.220E+00   -1.232E+00   -1.243E+00   -1.255E+00   -1.267E+00   -1.279E+00   -1.291E+00
    -1.303E+00   -1.314E+00   -1.326E+00   -1.338E+00   -1.350E+00   -1.361E+00   -1.373E+00   -1.385E+00   -1.396E+00   -1.408E+00
    -1.420E+00   -1.431E+00   -1.443E+00   -1.454E+00   -1.466E+00   -1.478E+00   -1.489E+00   -1.501E+00   -1.512E+00   -1.524E+00
    -1.535E+00   -1.547E+00   -1.558E+00   -1.570E+00   -1.581E+00   -1.593E+00   -1.604E+00   -1.615E+00   -1.627E+00   -1.638E+00
    -1.650E+00   -1.661E+00   -1.672E+00   -1.684E+00   -1.695E+00   -1.706E+00   -1.718E+00   -1.729E+00   -1.741E+00   -1.752E+00
    -1.763E+00   -1.774E+00   -1.786E+00   -1.797E+00   -1.808E+00   -1.820E+00   -1.831E+00   -1.842E+00   -1.853E+00   -1.865E+00
    -1.876E+00   -1.887E+00   -1.898E+00   -1.910E+00   -1.921E+00   -1.932E+00   -1.943E+00   -1.954E+00   -1.966E+00   -1.977E+00
    -1.988E+00   -1.999E+00   -2.011E+00   -2.022E+00   -2.033E+00   -2.044E+00   -2.055E+00   -2.066E+00   -2.078E+00   -2.089E+00
    -2.100E+00   -2.111E+00   -2.122E+00   -2.134E+00   -2.145E+00   -2.156E+00   -2.167E+00   -2.178E+00   -2.189E+00   -2.201E+00
    -2.212E+00   -2.223E+00   -2.234E+00   -2.245E+00   -2.256E+00   -2.267E+00   -2.279E+00   -2.290E+00
 Ala      Conc. = 6.53E+01
