 LCModel (Version 6.3-1L) Copyright: S.W. Provencher.          Ref.: Magn. Reson. Med. 30:672-679 (1993).                
 Slice#3 Row#13 Col#4  PD_05_press_1_raw_act
 36 lines in following concentration table = NCONC+1
    Conc.  %SD /Cr+PCr  Metabolite                                         
 1.53E+03  52%   7.560 Ala                                                 
    0.000 999%   0.000 Asp                                                 
    0.000 999%   0.000 Cr                                                  
  202.699  25%   1.000 PCr                                                 
    4.784 889% 2.4E-02 GABA                                                
    0.000 999%   0.000 Glc                                                 
 3.43E+03  12%  16.945 Gln                                                 
    0.000 999%   0.000 Glu                                                 
   14.880 127% 7.3E-02 GPC                                                 
    0.000 999%   0.000 PCh                                                 
    0.000 999%   0.000 GSH                                                 
  371.109  50%   1.831 Ins                                                 
  865.144  84%   4.268 Lac                                                 
    0.000 999%   0.000 NAA                                                 
    0.000 999%   0.000 NAAG                                                
   14.795  85% 7.3E-02 Scyllo                                              
   40.896 165%   0.202 Tau                                                 
    0.000 999%   0.000 -CrCH2                                              
   14.880 127% 7.3E-02 GPC+PCh                                             
    0.000 999%   0.000 NAA+NAAG                                            
  202.699  25%   1.000 Cr+PCr                                              
 3.43E+03  12%  16.945 Glu+Gln                                             
 1.94E+04  11%  95.859 Lip13a                                              
    0.000 999%   0.000 Lip13b                                              
 4.58E+03  14%  22.609 Lip09                                               
 1.29E+03  22%   6.344 MM09                                                
 3.34E+03  11%  16.457 Lip20                                               
    0.000 999%   0.000 MM20                                                
  414.024  62%   2.043 MM12                                                
 3.61E+03  21%  17.830 MM14                                                
 1.57E+03  34%   7.745 MM17                                                
 1.94E+04  11%  95.859 Lip13a+Lip13b                                       
 2.35E+04   8% 115.731 MM14+Lip13a+Lip13b+MM12                             
 5.87E+03  11%  28.953 MM09+Lip09                                          
 3.34E+03  11%  16.457 MM20+Lip20                                          
   6 lines in following misc. output table
  FWHM = 0.153 ppm    S/N =  21                                            
  Data shift = 0.115 ppm                                                   
  Ph: 119 deg     -18.6 deg/ppm                                            
  alphaB,S = 1.4E+00,   1.0E+02                                            
    8 spline knots.   Ns = 9(2)                                            
  (17) 7 infls.   ( 5) 1 extrs.                                            
  498 points on ppm-axis = NY
      4.000000     3.992357     3.984714     3.977070     3.969427     3.961784     3.954141     3.946497     3.938854     3.931211
      3.923568     3.915925     3.908281     3.900638     3.892995     3.885352     3.877708     3.870065     3.862422     3.854779
      3.847136     3.839492     3.831849     3.824206     3.816563     3.808919     3.801276     3.793633     3.785990     3.778347
      3.770703     3.763060     3.755417     3.747774     3.740130     3.732487     3.724844     3.717201     3.709558     3.701914
      3.694271     3.686628     3.678985     3.671341     3.663698     3.656055     3.648412     3.640769     3.633125     3.625482
      3.617839     3.610196     3.602552     3.594909     3.587266     3.579623     3.571980     3.564336     3.556693     3.549050
      3.541407     3.533763     3.526120     3.518477     3.510834     3.503191     3.495547     3.487904     3.480261     3.472618
      3.464974     3.457331     3.449688     3.442045     3.434402     3.426758     3.419115     3.411472     3.403829     3.396185
      3.388542     3.380899     3.373256     3.365613     3.357969     3.350326     3.342683     3.335040     3.327396     3.319753
      3.312110     3.304467     3.296824     3.289180     3.281537     3.273894     3.266251     3.258607     3.250964     3.243321
      3.235678     3.228034     3.220391     3.212748     3.205105     3.197462     3.189818     3.182175     3.174532     3.166889
      3.159245     3.151602     3.143959     3.136316     3.128673     3.121029     3.113386     3.105743     3.098100     3.090456
      3.082813     3.075170     3.067527     3.059884     3.052240     3.044597     3.036954     3.029311     3.021667     3.014024
      3.006381     2.998738     2.991095     2.983451     2.975808     2.968165     2.960522     2.952878     2.945235     2.937592
      2.929949     2.922306     2.914662     2.907019     2.899376     2.891733     2.884089     2.876446     2.868803     2.861160
      2.853517     2.845873     2.838230     2.830587     2.822944     2.815300     2.807657     2.800014     2.792371     2.784728
      2.777084     2.769441     2.761798     2.754155     2.746511     2.738868     2.731225     2.723582     2.715939     2.708295
      2.700652     2.693009     2.685366     2.677722     2.670079     2.662436     2.654793     2.647150     2.639506     2.631863
      2.624220     2.616577     2.608933     2.601290     2.593647     2.586004     2.578361     2.570717     2.563074     2.555431
      2.547788     2.540144     2.532501     2.524858     2.517215     2.509572     2.501928     2.494285     2.486642     2.478999
      2.471355     2.463712     2.456069     2.448426     2.440783     2.433139     2.425496     2.417853     2.410210     2.402566
      2.394923     2.387280     2.379637     2.371994     2.364350     2.356707     2.349064     2.341421     2.333777     2.326134
      2.318491     2.310848     2.303205     2.295561     2.287918     2.280275     2.272632     2.264988     2.257345     2.249702
      2.242059     2.234416     2.226772     2.219129     2.211486     2.203843     2.196199     2.188556     2.180913     2.173270
      2.165627     2.157983     2.150340     2.142697     2.135054     2.127410     2.119767     2.112124     2.104481     2.096838
      2.089194     2.081551     2.073908     2.066265     2.058621     2.050978     2.043335     2.035692     2.028049     2.020405
      2.012762     2.005119     1.997476     1.989833     1.982190     1.974546     1.966903     1.959260     1.951617     1.943974
      1.936331     1.928688     1.921045     1.913402     1.905759     1.898115     1.890472     1.882829     1.875186     1.867543
      1.859900     1.852257     1.844614     1.836971     1.829327     1.821684     1.814041     1.806398     1.798755     1.791112
      1.783469     1.775826     1.768183     1.760540     1.752896     1.745253     1.737610     1.729967     1.722324     1.714681
      1.707038     1.699395     1.691752     1.684108     1.676465     1.668822     1.661179     1.653536     1.645893     1.638250
      1.630607     1.622964     1.615321     1.607677     1.600034     1.592391     1.584748     1.577105     1.569462     1.561819
      1.554176     1.546533     1.538890     1.531246     1.523603     1.515960     1.508317     1.500674     1.493031     1.485388
      1.477745     1.470102     1.462458     1.454815     1.447172     1.439529     1.431886     1.424243     1.416600     1.408957
      1.401314     1.393671     1.386027     1.378384     1.370741     1.363098     1.355455     1.347812     1.340169     1.332526
      1.324883     1.317240     1.309596     1.301953     1.294310     1.286667     1.279024     1.271381     1.263738     1.256095
      1.248452     1.240808     1.233165     1.225522     1.217879     1.210236     1.202593     1.194950     1.187307     1.179664
      1.172021     1.164377     1.156734     1.149091     1.141448     1.133805     1.126162     1.118519     1.110876     1.103233
      1.095590     1.087946     1.080303     1.072660     1.065017     1.057374     1.049731     1.042088     1.034445     1.026802
      1.019158     1.011515     1.003872     0.996229     0.988586     0.980943     0.973300     0.965657     0.958014     0.950371
      0.942727     0.935084     0.927441     0.919798     0.912155     0.904512     0.896869     0.889226     0.881583     0.873940
      0.866296     0.858653     0.851010     0.843367     0.835724     0.828081     0.820438     0.812795     0.805152     0.797508
      0.789865     0.782222     0.774579     0.766936     0.759293     0.751650     0.744007     0.736364     0.728721     0.721077
      0.713434     0.705791     0.698148     0.690505     0.682862     0.675219     0.667576     0.659933     0.652290     0.644646
      0.637003     0.629360     0.621717     0.614074     0.606431     0.598788     0.591145     0.583502     0.575858     0.568215
      0.560572     0.552929     0.545286     0.537643     0.530000     0.522357     0.514714     0.507071     0.499427     0.491784
      0.484141     0.476498     0.468855     0.461212     0.453569     0.445925     0.438282     0.430639     0.422996     0.415353
      0.407710     0.400067     0.392424     0.384780     0.377137     0.369494     0.361851     0.354208     0.346565     0.338922
      0.331278     0.323635     0.315992     0.308349     0.300706     0.293063     0.285420     0.277777     0.270133     0.262490
      0.254847     0.247204     0.239561     0.231918     0.224275     0.216631     0.208988     0.201345
 NY phased data points follow
   5.37357E+01  5.39123E+01  5.21470E+01  5.08380E+01  4.98098E+01  5.08997E+01  4.89678E+01  4.87012E+01  4.70361E+01  4.50612E+01
   4.55176E+01  4.47728E+01  4.38153E+01  4.32457E+01  4.28736E+01  4.15880E+01  4.22695E+01  4.15217E+01  4.05557E+01  3.95194E+01
   3.85951E+01  3.96617E+01  3.84579E+01  3.70374E+01  3.69484E+01  3.64658E+01  3.50070E+01  3.64900E+01  3.56402E+01  3.34952E+01
   3.30361E+01  3.38851E+01  3.09800E+01  3.18641E+01  3.09448E+01  2.89511E+01  3.12045E+01  3.00919E+01  2.98270E+01  2.89324E+01
   2.83581E+01  2.78392E+01  2.56620E+01  2.68812E+01  2.56661E+01  2.54891E+01  2.48862E+01  2.59714E+01  2.36650E+01  2.38098E+01
   2.43206E+01  2.29710E+01  2.17784E+01  2.25969E+01  2.25822E+01  2.15333E+01  2.00101E+01  2.03719E+01  1.98142E+01  1.87069E+01
   1.90379E+01  1.82202E+01  2.01367E+01  1.84796E+01  1.74441E+01  1.79424E+01  1.56071E+01  1.63345E+01  1.54546E+01  1.55874E+01
   1.45730E+01  1.30965E+01  1.42626E+01  1.41094E+01  1.51454E+01  1.22655E+01  1.23802E+01  1.17389E+01  1.14686E+01  1.18858E+01
   8.17614E+00  1.03314E+01  9.88906E+00  9.80326E+00  7.97543E+00  8.42037E+00  7.34557E+00  7.13734E+00  5.32044E+00  5.86846E+00
   6.54131E+00  7.10421E+00  7.24397E+00  6.16023E+00  5.00845E+00  6.43849E+00  3.94630E+00  4.35357E+00  4.17295E+00  4.35159E+00
   3.15961E+00  4.31938E+00  5.52303E-01  2.09529E+00  8.57371E-01  1.94375E+00  1.35761E+00 -1.69578E-01 -1.78645E+00 -1.54461E+00
  -2.69413E+00 -2.72135E+00 -2.81954E+00 -2.17318E+00 -3.23135E+00 -3.19436E+00 -5.98957E+00 -3.18554E+00 -4.49221E+00 -2.44693E+00
  -4.08829E+00 -2.65874E+00 -4.64316E+00 -5.44976E+00 -2.83871E+00 -5.53967E+00 -5.58553E+00 -6.16690E+00 -6.05311E+00 -5.63326E+00
  -5.39710E+00 -6.43238E+00 -7.07703E+00 -7.83777E+00 -7.43863E+00 -7.06912E+00 -7.76299E+00 -8.06136E+00 -8.30168E+00 -7.93187E+00
  -7.93469E+00 -9.62559E+00 -8.99219E+00 -9.45899E+00 -1.04456E+01 -9.71124E+00 -1.04829E+01 -1.10677E+01 -1.09746E+01 -1.05808E+01
  -1.30957E+01 -1.36815E+01 -1.15046E+01 -1.38502E+01 -1.31030E+01 -1.33059E+01 -1.52683E+01 -1.49016E+01 -1.57079E+01 -1.60002E+01
  -1.54028E+01 -1.55868E+01 -1.77080E+01 -1.75371E+01 -1.90658E+01 -1.81803E+01 -1.80274E+01 -2.01139E+01 -1.98089E+01 -2.10152E+01
  -2.22309E+01 -2.07949E+01 -2.16573E+01 -2.36276E+01 -2.22442E+01 -2.32300E+01 -2.47104E+01 -2.55371E+01 -2.52400E+01 -2.57549E+01
  -2.65011E+01 -2.76579E+01 -2.78471E+01 -2.75752E+01 -2.84453E+01 -2.86719E+01 -2.99338E+01 -3.11280E+01 -3.16384E+01 -3.19510E+01
  -3.16326E+01 -3.15943E+01 -3.30504E+01 -3.27286E+01 -3.40355E+01 -3.38518E+01 -3.30483E+01 -3.56641E+01 -3.45317E+01 -3.42390E+01
  -3.70634E+01 -3.51391E+01 -3.58698E+01 -3.50602E+01 -3.61891E+01 -3.53372E+01 -3.54793E+01 -3.35070E+01 -3.41492E+01 -3.44524E+01
  -3.33936E+01 -3.37895E+01 -3.39517E+01 -3.19325E+01 -3.36713E+01 -3.24062E+01 -3.22864E+01 -3.04969E+01 -3.09247E+01 -3.22289E+01
  -3.00737E+01 -3.02813E+01 -2.92372E+01 -3.12178E+01 -2.91946E+01 -2.95301E+01 -2.96560E+01 -2.92389E+01 -3.09018E+01 -2.98939E+01
  -3.00457E+01 -3.00889E+01 -3.02674E+01 -2.99805E+01 -3.00914E+01 -2.84545E+01 -2.94880E+01 -3.03195E+01 -2.87648E+01 -3.02807E+01
  -3.10375E+01 -2.91259E+01 -3.03996E+01 -3.08810E+01 -3.05884E+01 -3.09918E+01 -3.16501E+01 -3.20846E+01 -3.13886E+01 -2.99202E+01
  -3.11235E+01 -3.09282E+01 -3.11727E+01 -3.31910E+01 -3.28663E+01 -3.37218E+01 -3.29394E+01 -3.22938E+01 -3.42436E+01 -3.26826E+01
  -3.31733E+01 -3.41241E+01 -3.40390E+01 -3.38802E+01 -3.43796E+01 -3.46788E+01 -3.67819E+01 -3.58968E+01 -3.40181E+01 -3.44409E+01
  -3.46366E+01 -3.38631E+01 -3.40219E+01 -3.44778E+01 -3.39228E+01 -3.44272E+01 -3.43555E+01 -3.44627E+01 -3.54272E+01 -3.58598E+01
  -3.46014E+01 -3.54814E+01 -3.63861E+01 -3.48864E+01 -3.44908E+01 -3.32025E+01 -3.25529E+01 -3.28386E+01 -3.30605E+01 -3.43414E+01
  -3.19066E+01 -3.26544E+01 -3.27425E+01 -3.21043E+01 -3.21881E+01 -3.01512E+01 -3.07472E+01 -3.04355E+01 -2.88949E+01 -2.91643E+01
  -2.88321E+01 -2.87959E+01 -2.70107E+01 -2.61760E+01 -2.55562E+01 -2.39479E+01 -2.30213E+01 -2.12922E+01 -2.21205E+01 -2.01811E+01
  -2.13148E+01 -1.58959E+01 -1.55165E+01 -1.30499E+01 -1.05174E+01 -7.66590E+00 -6.64421E+00 -5.48575E+00 -1.99719E+00  2.35818E+00
   4.35710E+00  7.36812E+00  9.70465E+00  1.18580E+01  1.56101E+01  1.72482E+01  1.86066E+01  2.05836E+01  2.27115E+01  2.27178E+01
   2.40633E+01  2.56632E+01  2.75128E+01  2.79469E+01  2.75419E+01  2.95612E+01  3.05033E+01  3.17001E+01  3.21630E+01  3.22129E+01
   3.15956E+01  3.36479E+01  3.48281E+01  3.35625E+01  3.41968E+01  3.48854E+01  3.52038E+01  3.60800E+01  3.68248E+01  3.72676E+01
   3.55745E+01  3.69468E+01  3.79992E+01  3.58464E+01  3.57886E+01  3.53778E+01  3.47591E+01  3.59477E+01  3.52209E+01  3.61692E+01
   3.70638E+01  3.47867E+01  3.46505E+01  3.48173E+01  3.40025E+01  3.48978E+01  3.48481E+01  3.40580E+01  3.54466E+01  3.44095E+01
   3.22212E+01  3.23166E+01  3.14823E+01  3.40207E+01  3.26560E+01  3.26099E+01  3.18854E+01  3.25848E+01  3.07994E+01  2.93226E+01
   3.12375E+01  3.02737E+01  3.03330E+01  3.01794E+01  2.85879E+01  2.75050E+01  2.95166E+01  2.95229E+01  2.82298E+01  2.82682E+01
   3.01649E+01  2.78173E+01  2.68176E+01  2.87595E+01  2.70618E+01  2.82052E+01  2.70632E+01  2.63904E+01  2.53324E+01  2.65900E+01
   2.40019E+01  2.42566E+01  2.30721E+01  2.36299E+01  2.47105E+01  2.41097E+01  2.32958E+01  2.41296E+01  2.26677E+01  2.31781E+01
   2.29457E+01  2.21371E+01  2.15797E+01  2.06870E+01  2.01805E+01  2.09604E+01  2.07312E+01  2.01320E+01  2.04065E+01  1.89801E+01
   1.94387E+01  2.05611E+01  1.86433E+01  1.95234E+01  1.82064E+01  1.93304E+01  1.66880E+01  1.81244E+01  1.74504E+01  1.72106E+01
   1.79439E+01  1.63684E+01  1.71041E+01  1.82701E+01  1.74451E+01  1.63604E+01  1.58811E+01  1.69988E+01  1.68284E+01  1.58712E+01
   1.40241E+01  1.48399E+01  1.50756E+01  1.45216E+01  1.48838E+01  1.54964E+01  1.52654E+01  1.31797E+01  1.23014E+01  1.29236E+01
   1.33941E+01  1.42179E+01  1.35837E+01  1.44758E+01  1.42158E+01  1.26985E+01  1.19046E+01  1.24723E+01  1.37097E+01  1.19422E+01
   1.19249E+01  1.12502E+01  1.30747E+01  1.13560E+01  1.03339E+01  1.13577E+01  1.16433E+01  1.22602E+01  1.08652E+01  1.06180E+01
   1.18066E+01  1.08576E+01  1.10485E+01  1.02698E+01  1.02653E+01  1.04531E+01  1.02646E+01  1.09841E+01  9.80470E+00  8.87387E+00
   8.61277E+00  8.28457E+00  8.09195E+00  9.47226E+00  8.60923E+00  8.99788E+00  8.47835E+00  8.58699E+00  9.54874E+00  7.63927E+00
   6.90616E+00  7.30397E+00  7.67468E+00  7.56422E+00  8.49016E+00  6.81503E+00  7.23751E+00  7.61098E+00
 NY points of the fit to the data follow
   5.13181E+01  5.09900E+01  5.01420E+01  4.97784E+01  4.90587E+01  4.87134E+01  4.80448E+01  4.76931E+01  4.68967E+01  4.64277E+01
   4.55966E+01  4.50104E+01  4.42101E+01  4.37355E+01  4.31320E+01  4.27549E+01  4.21176E+01  4.16953E+01  4.09691E+01  4.04213E+01
   3.96183E+01  3.91019E+01  3.82873E+01  3.77601E+01  3.70811E+01  3.66381E+01  3.59655E+01  3.54843E+01  3.47957E+01  3.42321E+01
   3.35284E+01  3.30627E+01  3.25334E+01  3.21147E+01  3.16353E+01  3.12305E+01  3.07480E+01  3.02655E+01  2.97707E+01  2.92798E+01
   2.87913E+01  2.84105E+01  2.79067E+01  2.75239E+01  2.69184E+01  2.64426E+01  2.60039E+01  2.57577E+01  2.51824E+01  2.48149E+01
   2.41919E+01  2.36706E+01  2.28613E+01  2.22558E+01  2.18187E+01  2.13958E+01  2.10432E+01  2.06033E+01  2.02368E+01  1.95802E+01
   1.91609E+01  1.86090E+01  1.81741E+01  1.76299E+01  1.72344E+01  1.67111E+01  1.63245E+01  1.57968E+01  1.54153E+01  1.49363E+01
   1.46136E+01  1.41557E+01  1.38244E+01  1.33566E+01  1.30138E+01  1.25452E+01  1.21954E+01  1.17285E+01  1.13762E+01  1.09069E+01
   1.05283E+01  1.00665E+01  9.68457E+00  9.23932E+00  8.86381E+00  8.44226E+00  8.04998E+00  7.63249E+00  7.21832E+00  6.81079E+00
   6.38521E+00  6.00501E+00  5.55590E+00  5.20109E+00  4.75649E+00  4.43323E+00  3.97560E+00  3.68253E+00  3.20704E+00  2.93184E+00
   2.43615E+00  2.17171E+00  1.67364E+00  1.42331E+00  9.16072E-01  6.64615E-01  1.46207E-01 -9.65328E-02 -5.56607E-01 -7.16264E-01
  -1.17266E+00 -1.36230E+00 -1.81517E+00 -2.01291E+00 -2.44512E+00 -2.61843E+00 -3.02153E+00 -3.16863E+00 -3.52798E+00 -3.62093E+00
  -3.96066E+00 -4.02595E+00 -4.37632E+00 -4.44640E+00 -4.78024E+00 -4.84465E+00 -5.18848E+00 -5.22276E+00 -5.57985E+00 -5.63616E+00
  -6.01226E+00 -6.10947E+00 -6.51235E+00 -6.69059E+00 -7.10688E+00 -7.33509E+00 -7.74766E+00 -8.01378E+00 -8.42594E+00 -8.76143E+00
  -9.16760E+00 -9.55083E+00 -9.92383E+00 -1.02794E+01 -1.06242E+01 -1.09892E+01 -1.13424E+01 -1.17927E+01 -1.20902E+01 -1.23604E+01
  -1.26400E+01 -1.29339E+01 -1.32477E+01 -1.35803E+01 -1.39348E+01 -1.43092E+01 -1.47068E+01 -1.51230E+01 -1.55616E+01 -1.60172E+01
  -1.64927E+01 -1.69813E+01 -1.74852E+01 -1.79981E+01 -1.85216E+01 -1.90494E+01 -1.95824E+01 -2.01154E+01 -2.06497E+01 -2.11772E+01
  -2.17030E+01 -2.22223E+01 -2.27328E+01 -2.32349E+01 -2.37239E+01 -2.42144E+01 -2.47241E+01 -2.52020E+01 -2.57553E+01 -2.62416E+01
  -2.67852E+01 -2.72541E+01 -2.77787E+01 -2.81397E+01 -2.85745E+01 -2.88720E+01 -2.93315E+01 -2.95387E+01 -3.00423E+01 -3.02379E+01
  -3.08006E+01 -3.10728E+01 -3.18762E+01 -3.19632E+01 -3.25931E+01 -3.24957E+01 -3.30985E+01 -3.29121E+01 -3.36071E+01 -3.33706E+01
  -3.41335E+01 -3.38227E+01 -3.45864E+01 -3.41718E+01 -3.48926E+01 -3.43251E+01 -3.49409E+01 -3.42816E+01 -3.47622E+01 -3.41181E+01
  -3.46260E+01 -3.39535E+01 -3.43125E+01 -3.36186E+01 -3.37886E+01 -3.30648E+01 -3.30045E+01 -3.23675E+01 -3.24191E+01 -3.18594E+01
  -3.17909E+01 -3.12224E+01 -3.09632E+01 -3.02493E+01 -2.98550E+01 -2.94801E+01 -2.93405E+01 -2.90424E+01 -2.90243E+01 -2.87790E+01
  -2.87550E+01 -2.89941E+01 -2.96658E+01 -2.98757E+01 -3.03052E+01 -3.05682E+01 -3.09382E+01 -3.12509E+01 -3.14860E+01 -3.18435E+01
  -3.18465E+01 -3.21420E+01 -3.18617E+01 -3.22025E+01 -3.17170E+01 -3.21470E+01 -3.15554E+01 -3.20977E+01 -3.13555E+01 -3.19506E+01
  -3.11161E+01 -3.17859E+01 -3.10116E+01 -3.17753E+01 -3.10572E+01 -3.17454E+01 -3.09337E+01 -3.17005E+01 -3.13463E+01 -3.21457E+01
  -3.18940E+01 -3.26476E+01 -3.23365E+01 -3.26874E+01 -3.24915E+01 -3.29661E+01 -3.28506E+01 -3.33992E+01 -3.34314E+01 -3.39616E+01
  -3.40508E+01 -3.45639E+01 -3.46514E+01 -3.49449E+01 -3.49592E+01 -3.51006E+01 -3.50500E+01 -3.50580E+01 -3.50097E+01 -3.49367E+01
  -3.48776E+01 -3.48031E+01 -3.47076E+01 -3.45887E+01 -3.44477E+01 -3.42879E+01 -3.41029E+01 -3.38967E+01 -3.36685E+01 -3.34188E+01
  -3.31470E+01 -3.28541E+01 -3.25384E+01 -3.21994E+01 -3.18356E+01 -3.14455E+01 -3.10281E+01 -3.05791E+01 -3.00943E+01 -2.95688E+01
  -2.89973E+01 -2.83716E+01 -2.76827E+01 -2.69207E+01 -2.60725E+01 -2.51227E+01 -2.40508E+01 -2.28276E+01 -2.13898E+01 -1.97056E+01
  -1.81974E+01 -1.63597E+01 -1.46614E+01 -1.25601E+01 -1.06273E+01 -8.24379E+00 -6.23192E+00 -3.35401E+00 -1.05390E+00  2.00311E+00
   4.23844E+00  7.21664E+00  9.19898E+00  1.20242E+01  1.37323E+01  1.62892E+01  1.78308E+01  2.02570E+01  2.15945E+01  2.37682E+01
   2.47901E+01  2.64333E+01  2.72003E+01  2.82348E+01  2.88561E+01  2.96392E+01  3.02964E+01  3.10059E+01  3.17158E+01  3.21650E+01
   3.29393E+01  3.30778E+01  3.38648E+01  3.39662E+01  3.46258E+01  3.46176E+01  3.52091E+01  3.51316E+01  3.59648E+01  3.62849E+01
   3.65649E+01  3.67502E+01  3.67729E+01  3.68071E+01  3.66475E+01  3.63798E+01  3.57589E+01  3.59514E+01  3.56072E+01  3.58389E+01
   3.55703E+01  3.56971E+01  3.54559E+01  3.55467E+01  3.52435E+01  3.51912E+01  3.48061E+01  3.44930E+01  3.42377E+01  3.40631E+01
   3.36329E+01  3.32695E+01  3.28037E+01  3.23575E+01  3.18923E+01  3.11730E+01  3.06741E+01  3.03123E+01  3.00377E+01  2.98304E+01
   2.96781E+01  2.95700E+01  2.94954E+01  2.94433E+01  2.94023E+01  2.93610E+01  2.93084E+01  2.92346E+01  2.91311E+01  2.89912E+01
   2.88104E+01  2.85868E+01  2.83204E+01  2.80138E+01  2.76714E+01  2.72993E+01  2.69047E+01  2.64954E+01  2.60795E+01  2.56645E+01
   2.52575E+01  2.48645E+01  2.44900E+01  2.41375E+01  2.38087E+01  2.35042E+01  2.32232E+01  2.29640E+01  2.27242E+01  2.25005E+01
   2.22896E+01  2.20879E+01  2.18919E+01  2.16982E+01  2.15039E+01  2.13064E+01  2.11035E+01  2.08936E+01  2.06755E+01  2.04485E+01
   2.02125E+01  1.99674E+01  1.97136E+01  1.94520E+01  1.91835E+01  1.89091E+01  1.86301E+01  1.83477E+01  1.80634E+01  1.77783E+01
   1.74937E+01  1.72109E+01  1.69309E+01  1.66547E+01  1.63833E+01  1.61174E+01  1.58577E+01  1.56047E+01  1.53589E+01  1.51206E+01
   1.48900E+01  1.46673E+01  1.44525E+01  1.42456E+01  1.40464E+01  1.38549E+01  1.36708E+01  1.34940E+01  1.33240E+01  1.31608E+01
   1.30038E+01  1.28528E+01  1.27076E+01  1.25676E+01  1.24326E+01  1.23022E+01  1.21760E+01  1.20539E+01  1.19353E+01  1.18200E+01
   1.17077E+01  1.15981E+01  1.14908E+01  1.13857E+01  1.12824E+01  1.11806E+01  1.10802E+01  1.09808E+01  1.08823E+01  1.07845E+01
   1.06871E+01  1.05899E+01  1.04928E+01  1.03955E+01  1.02980E+01  1.02001E+01  1.01015E+01  1.00022E+01  9.90195E+00  9.80073E+00
   9.69838E+00  9.59477E+00  9.48979E+00  9.38334E+00  9.27531E+00  9.16561E+00  9.05416E+00  8.94087E+00  8.82565E+00  8.70843E+00
   8.58914E+00  8.46772E+00  8.34409E+00  8.21821E+00  8.09001E+00  7.95946E+00  7.82651E+00  7.69114E+00
 NY background values follow
     4.900E+01    4.830E+01    4.762E+01    4.694E+01    4.627E+01    4.560E+01    4.494E+01    4.429E+01    4.364E+01    4.301E+01
     4.237E+01    4.175E+01    4.112E+01    4.051E+01    3.990E+01    3.930E+01    3.870E+01    3.811E+01    3.752E+01    3.694E+01
     3.637E+01    3.580E+01    3.524E+01    3.468E+01    3.412E+01    3.358E+01    3.303E+01    3.249E+01    3.196E+01    3.143E+01
     3.091E+01    3.039E+01    2.987E+01    2.936E+01    2.886E+01    2.836E+01    2.786E+01    2.737E+01    2.688E+01    2.639E+01
     2.591E+01    2.543E+01    2.496E+01    2.449E+01    2.402E+01    2.356E+01    2.310E+01    2.265E+01    2.219E+01    2.175E+01
     2.130E+01    2.086E+01    2.042E+01    1.998E+01    1.954E+01    1.911E+01    1.868E+01    1.826E+01    1.783E+01    1.741E+01
     1.699E+01    1.658E+01    1.616E+01    1.575E+01    1.534E+01    1.493E+01    1.452E+01    1.412E+01    1.371E+01    1.331E+01
     1.291E+01    1.251E+01    1.212E+01    1.172E+01    1.133E+01    1.093E+01    1.054E+01    1.015E+01    9.757E+00    9.368E+00
     8.979E+00    8.591E+00    8.203E+00    7.816E+00    7.429E+00    7.043E+00    6.657E+00    6.271E+00    5.886E+00    5.500E+00
     5.115E+00    4.729E+00    4.343E+00    3.957E+00    3.571E+00    3.184E+00    2.796E+00    2.408E+00    2.020E+00    1.631E+00
     1.240E+00    8.495E-01    4.577E-01    6.527E-02   -3.279E-01   -7.217E-01   -1.116E+00   -1.511E+00   -1.907E+00   -2.303E+00
    -2.699E+00   -3.096E+00   -3.493E+00   -3.890E+00   -4.288E+00   -4.686E+00   -5.084E+00   -5.482E+00   -5.881E+00   -6.279E+00
    -6.678E+00   -7.076E+00   -7.474E+00   -7.873E+00   -8.271E+00   -8.668E+00   -9.066E+00   -9.463E+00   -9.860E+00   -1.026E+01
    -1.065E+01   -1.105E+01   -1.144E+01   -1.184E+01   -1.223E+01   -1.263E+01   -1.302E+01   -1.341E+01   -1.380E+01   -1.419E+01
    -1.458E+01   -1.497E+01   -1.536E+01   -1.575E+01   -1.613E+01   -1.652E+01   -1.690E+01   -1.728E+01   -1.766E+01   -1.804E+01
    -1.842E+01   -1.880E+01   -1.918E+01   -1.955E+01   -1.993E+01   -2.030E+01   -2.067E+01   -2.104E+01   -2.140E+01   -2.177E+01
    -2.213E+01   -2.249E+01   -2.286E+01   -2.321E+01   -2.357E+01   -2.392E+01   -2.428E+01   -2.463E+01   -2.498E+01   -2.532E+01
    -2.567E+01   -2.601E+01   -2.635E+01   -2.669E+01   -2.702E+01   -2.736E+01   -2.769E+01   -2.802E+01   -2.834E+01   -2.867E+01
    -2.899E+01   -2.931E+01   -2.962E+01   -2.993E+01   -3.025E+01   -3.055E+01   -3.086E+01   -3.116E+01   -3.146E+01   -3.175E+01
    -3.205E+01   -3.234E+01   -3.263E+01   -3.291E+01   -3.319E+01   -3.347E+01   -3.374E+01   -3.401E+01   -3.428E+01   -3.455E+01
    -3.481E+01   -3.506E+01   -3.532E+01   -3.557E+01   -3.582E+01   -3.606E+01   -3.630E+01   -3.654E+01   -3.677E+01   -3.700E+01
    -3.722E+01   -3.745E+01   -3.766E+01   -3.788E+01   -3.809E+01   -3.830E+01   -3.850E+01   -3.870E+01   -3.889E+01   -3.909E+01
    -3.927E+01   -3.946E+01   -3.964E+01   -3.981E+01   -3.998E+01   -4.015E+01   -4.031E+01   -4.047E+01   -4.063E+01   -4.078E+01
    -4.093E+01   -4.107E+01   -4.121E+01   -4.134E+01   -4.147E+01   -4.160E+01   -4.172E+01   -4.183E+01   -4.195E+01   -4.205E+01
    -4.216E+01   -4.226E+01   -4.235E+01   -4.244E+01   -4.253E+01   -4.261E+01   -4.268E+01   -4.275E+01   -4.282E+01   -4.288E+01
    -4.294E+01   -4.299E+01   -4.304E+01   -4.308E+01   -4.312E+01   -4.316E+01   -4.318E+01   -4.321E+01   -4.323E+01   -4.324E+01
    -4.325E+01   -4.325E+01   -4.325E+01   -4.324E+01   -4.323E+01   -4.321E+01   -4.319E+01   -4.317E+01   -4.313E+01   -4.310E+01
    -4.305E+01   -4.301E+01   -4.295E+01   -4.289E+01   -4.283E+01   -4.276E+01   -4.268E+01   -4.260E+01   -4.252E+01   -4.243E+01
    -4.233E+01   -4.223E+01   -4.212E+01   -4.201E+01   -4.189E+01   -4.176E+01   -4.163E+01   -4.150E+01   -4.135E+01   -4.121E+01
    -4.105E+01   -4.089E+01   -4.073E+01   -4.056E+01   -4.038E+01   -4.020E+01   -4.001E+01   -3.981E+01   -3.961E+01   -3.941E+01
    -3.919E+01   -3.897E+01   -3.875E+01   -3.852E+01   -3.828E+01   -3.804E+01   -3.780E+01   -3.755E+01   -3.729E+01   -3.703E+01
    -3.676E+01   -3.649E+01   -3.621E+01   -3.593E+01   -3.565E+01   -3.536E+01   -3.506E+01   -3.476E+01   -3.446E+01   -3.415E+01
    -3.384E+01   -3.353E+01   -3.321E+01   -3.289E+01   -3.256E+01   -3.223E+01   -3.190E+01   -3.157E+01   -3.123E+01   -3.089E+01
    -3.054E+01   -3.020E+01   -2.985E+01   -2.949E+01   -2.914E+01   -2.878E+01   -2.842E+01   -2.806E+01   -2.769E+01   -2.733E+01
    -2.696E+01   -2.659E+01   -2.622E+01   -2.584E+01   -2.547E+01   -2.509E+01   -2.472E+01   -2.434E+01   -2.396E+01   -2.358E+01
    -2.319E+01   -2.281E+01   -2.243E+01   -2.204E+01   -2.166E+01   -2.128E+01   -2.089E+01   -2.051E+01   -2.012E+01   -1.973E+01
    -1.935E+01   -1.896E+01   -1.858E+01   -1.819E+01   -1.781E+01   -1.743E+01   -1.705E+01   -1.666E+01   -1.628E+01   -1.590E+01
    -1.552E+01   -1.515E+01   -1.477E+01   -1.440E+01   -1.402E+01   -1.365E+01   -1.328E+01   -1.291E+01   -1.255E+01   -1.218E+01
    -1.182E+01   -1.146E+01   -1.110E+01   -1.075E+01   -1.039E+01   -1.004E+01   -9.697E+00   -9.352E+00   -9.011E+00   -8.672E+00
    -8.337E+00   -8.004E+00   -7.676E+00   -7.350E+00   -7.028E+00   -6.710E+00   -6.395E+00   -6.085E+00   -5.778E+00   -5.475E+00
    -5.176E+00   -4.882E+00   -4.591E+00   -4.304E+00   -4.021E+00   -3.742E+00   -3.468E+00   -3.197E+00   -2.930E+00   -2.667E+00
    -2.408E+00   -2.153E+00   -1.902E+00   -1.655E+00   -1.413E+00   -1.174E+00   -9.386E-01   -7.076E-01   -4.806E-01   -2.576E-01
    -3.859E-02    1.765E-01    3.875E-01    5.946E-01    7.977E-01    9.968E-01    1.192E+00    1.383E+00    1.570E+00    1.754E+00
     1.933E+00    2.108E+00    2.279E+00    2.447E+00    2.610E+00    2.769E+00    2.925E+00    3.076E+00    3.223E+00    3.367E+00
     3.506E+00    3.642E+00    3.773E+00    3.901E+00    4.025E+00    4.144E+00    4.260E+00    4.371E+00    4.479E+00    4.583E+00
     4.683E+00    4.779E+00    4.870E+00    4.958E+00    5.042E+00    5.122E+00    5.198E+00    5.270E+00    5.338E+00    5.402E+00
     5.462E+00    5.519E+00    5.571E+00    5.619E+00    5.663E+00    5.704E+00    5.740E+00    5.772E+00    5.801E+00    5.825E+00
     5.846E+00    5.862E+00    5.875E+00    5.884E+00    5.888E+00    5.889E+00    5.886E+00    5.879E+00    5.868E+00    5.853E+00
     5.834E+00    5.811E+00    5.784E+00    5.753E+00    5.718E+00    5.679E+00    5.637E+00    5.590E+00    5.539E+00    5.485E+00
     5.426E+00    5.364E+00    5.297E+00    5.227E+00    5.153E+00    5.075E+00    4.992E+00    4.906E+00
 Ala      Conc. = 1.53E+03
