 LCModel (Version 6.3-1L) Copyright: S.W. Provencher.          Ref.: Magn. Reson. Med. 30:672-679 (1993).                
 Slice#1 Row#13 Col#4  PD_05_press_1_raw_act
 36 lines in following concentration table = NCONC+1
    Conc.  %SD /Cr+PCr  Metabolite                                         
    0.000 999%   0.000 Ala                                                 
    4.683  41%   0.184 Asp                                                 
    0.000 999%   0.000 Cr                                                  
   25.388  46%   1.000 PCr                                                 
    2.797  41%   0.110 GABA                                                
    2.806  41%   0.111 Glc                                                 
   16.129 208%   0.635 Gln                                                 
   51.377  75%   2.024 Glu                                                 
    7.098  61%   0.280 GPC                                                 
    0.000 999%   0.000 PCh                                                 
   22.601  64%   0.890 GSH                                                 
    0.000 999%   0.000 Ins                                                 
   10.893 168%   0.429 Lac                                                 
   46.667  33%   1.838 NAA                                                 
    0.000 999%   0.000 NAAG                                                
    0.917  42% 3.6E-02 Scyllo                                              
    4.636  41%   0.183 Tau                                                 
    2.534 106%   0.100 -CrCH2                                              
    7.098  61%   0.280 GPC+PCh                                             
   46.667  33%   1.838 NAA+NAAG                                            
   25.388  46%   1.000 Cr+PCr                                              
   67.506  70%   2.659 Glu+Gln                                             
    0.000 999%   0.000 Lip13a                                              
    0.000 999%   0.000 Lip13b                                              
    0.548 999% 2.2E-02 Lip09                                               
  125.489  47%   4.943 MM09                                                
    0.000 999%   0.000 Lip20                                               
   10.564 992%   0.416 MM20                                                
   31.079 129%   1.224 MM12                                                
  161.213  57%   6.350 MM14                                                
    2.625 999%   0.103 MM17                                                
    0.000 999%   0.000 Lip13a+Lip13b                                       
  192.292  57%   7.574 MM14+Lip13a+Lip13b+MM12                             
  126.037  46%   4.964 MM09+Lip09                                          
   10.564 992%   0.416 MM20+Lip20                                          
   6 lines in following misc. output table
  FWHM = 0.038 ppm    S/N =   1                                            
  Data shift = 0.015 ppm                                                   
  Ph: 100 deg       4.3 deg/ppm                                            
  alphaB,S = 6.7E-01,   6.0E+00                                            
   14 spline knots.   Ns = 5(1)                                            
  ( 7) 2 infls.   ( 4) 2 extrs.                                            
  498 points on ppm-axis = NY
      4.000000     3.992357     3.984714     3.977070     3.969427     3.961784     3.954141     3.946497     3.938854     3.931211
      3.923568     3.915925     3.908281     3.900638     3.892995     3.885352     3.877708     3.870065     3.862422     3.854779
      3.847136     3.839492     3.831849     3.824206     3.816563     3.808919     3.801276     3.793633     3.785990     3.778347
      3.770703     3.763060     3.755417     3.747774     3.740130     3.732487     3.724844     3.717201     3.709558     3.701914
      3.694271     3.686628     3.678985     3.671341     3.663698     3.656055     3.648412     3.640769     3.633125     3.625482
      3.617839     3.610196     3.602552     3.594909     3.587266     3.579623     3.571980     3.564336     3.556693     3.549050
      3.541407     3.533763     3.526120     3.518477     3.510834     3.503191     3.495547     3.487904     3.480261     3.472618
      3.464974     3.457331     3.449688     3.442045     3.434402     3.426758     3.419115     3.411472     3.403829     3.396185
      3.388542     3.380899     3.373256     3.365613     3.357969     3.350326     3.342683     3.335040     3.327396     3.319753
      3.312110     3.304467     3.296824     3.289180     3.281537     3.273894     3.266251     3.258607     3.250964     3.243321
      3.235678     3.228034     3.220391     3.212748     3.205105     3.197462     3.189818     3.182175     3.174532     3.166889
      3.159245     3.151602     3.143959     3.136316     3.128673     3.121029     3.113386     3.105743     3.098100     3.090456
      3.082813     3.075170     3.067527     3.059884     3.052240     3.044597     3.036954     3.029311     3.021667     3.014024
      3.006381     2.998738     2.991095     2.983451     2.975808     2.968165     2.960522     2.952878     2.945235     2.937592
      2.929949     2.922306     2.914662     2.907019     2.899376     2.891733     2.884089     2.876446     2.868803     2.861160
      2.853517     2.845873     2.838230     2.830587     2.822944     2.815300     2.807657     2.800014     2.792371     2.784728
      2.777084     2.769441     2.761798     2.754155     2.746511     2.738868     2.731225     2.723582     2.715939     2.708295
      2.700652     2.693009     2.685366     2.677722     2.670079     2.662436     2.654793     2.647150     2.639506     2.631863
      2.624220     2.616577     2.608933     2.601290     2.593647     2.586004     2.578361     2.570717     2.563074     2.555431
      2.547788     2.540144     2.532501     2.524858     2.517215     2.509572     2.501928     2.494285     2.486642     2.478999
      2.471355     2.463712     2.456069     2.448426     2.440783     2.433139     2.425496     2.417853     2.410210     2.402566
      2.394923     2.387280     2.379637     2.371994     2.364350     2.356707     2.349064     2.341421     2.333777     2.326134
      2.318491     2.310848     2.303205     2.295561     2.287918     2.280275     2.272632     2.264988     2.257345     2.249702
      2.242059     2.234416     2.226772     2.219129     2.211486     2.203843     2.196199     2.188556     2.180913     2.173270
      2.165627     2.157983     2.150340     2.142697     2.135054     2.127410     2.119767     2.112124     2.104481     2.096838
      2.089194     2.081551     2.073908     2.066265     2.058621     2.050978     2.043335     2.035692     2.028049     2.020405
      2.012762     2.005119     1.997476     1.989833     1.982190     1.974546     1.966903     1.959260     1.951617     1.943974
      1.936331     1.928688     1.921045     1.913402     1.905759     1.898115     1.890472     1.882829     1.875186     1.867543
      1.859900     1.852257     1.844614     1.836971     1.829327     1.821684     1.814041     1.806398     1.798755     1.791112
      1.783469     1.775826     1.768183     1.760540     1.752896     1.745253     1.737610     1.729967     1.722324     1.714681
      1.707038     1.699395     1.691752     1.684108     1.676465     1.668822     1.661179     1.653536     1.645893     1.638250
      1.630607     1.622964     1.615321     1.607677     1.600034     1.592391     1.584748     1.577105     1.569462     1.561819
      1.554176     1.546533     1.538890     1.531246     1.523603     1.515960     1.508317     1.500674     1.493031     1.485388
      1.477745     1.470102     1.462458     1.454815     1.447172     1.439529     1.431886     1.424243     1.416600     1.408957
      1.401314     1.393671     1.386027     1.378384     1.370741     1.363098     1.355455     1.347812     1.340169     1.332526
      1.324883     1.317240     1.309596     1.301953     1.294310     1.286667     1.279024     1.271381     1.263738     1.256095
      1.248452     1.240808     1.233165     1.225522     1.217879     1.210236     1.202593     1.194950     1.187307     1.179664
      1.172021     1.164377     1.156734     1.149091     1.141448     1.133805     1.126162     1.118519     1.110876     1.103233
      1.095590     1.087946     1.080303     1.072660     1.065017     1.057374     1.049731     1.042088     1.034445     1.026802
      1.019158     1.011515     1.003872     0.996229     0.988586     0.980943     0.973300     0.965657     0.958014     0.950371
      0.942727     0.935084     0.927441     0.919798     0.912155     0.904512     0.896869     0.889226     0.881583     0.873940
      0.866296     0.858653     0.851010     0.843367     0.835724     0.828081     0.820438     0.812795     0.805152     0.797508
      0.789865     0.782222     0.774579     0.766936     0.759293     0.751650     0.744007     0.736364     0.728721     0.721077
      0.713434     0.705791     0.698148     0.690505     0.682862     0.675219     0.667576     0.659933     0.652290     0.644646
      0.637003     0.629360     0.621717     0.614074     0.606431     0.598788     0.591145     0.583502     0.575858     0.568215
      0.560572     0.552929     0.545286     0.537643     0.530000     0.522357     0.514714     0.507071     0.499427     0.491784
      0.484141     0.476498     0.468855     0.461212     0.453569     0.445925     0.438282     0.430639     0.422996     0.415353
      0.407710     0.400067     0.392424     0.384780     0.377137     0.369494     0.361851     0.354208     0.346565     0.338922
      0.331278     0.323635     0.315992     0.308349     0.300706     0.293063     0.285420     0.277777     0.270133     0.262490
      0.254847     0.247204     0.239561     0.231918     0.224275     0.216631     0.208988     0.201345
 NY phased data points follow
   6.81847E+01  6.40646E+01  6.46281E+01  6.52146E+01  6.43974E+01  6.10515E+01  6.13861E+01  6.25953E+01  6.11288E+01  6.05487E+01
   5.87048E+01  5.70350E+01  5.86555E+01  5.65191E+01  5.69063E+01  5.52390E+01  5.54903E+01  5.32735E+01  5.28580E+01  5.21392E+01
   5.30092E+01  5.12813E+01  5.00479E+01  5.23724E+01  5.09278E+01  5.08723E+01  4.96135E+01  4.94539E+01  5.02045E+01  4.92608E+01
   4.94677E+01  5.12916E+01  5.03560E+01  5.01604E+01  4.89165E+01  4.94160E+01  4.72317E+01  4.75837E+01  4.57155E+01  4.78227E+01
   4.80501E+01  4.60315E+01  4.57316E+01  4.49273E+01  4.84391E+01  4.43076E+01  4.34210E+01  4.32511E+01  4.29196E+01  4.34899E+01
   4.17390E+01  4.15333E+01  4.17012E+01  4.30193E+01  4.22841E+01  4.01137E+01  4.13766E+01  4.16183E+01  4.14515E+01  4.09278E+01
   4.04231E+01  3.92859E+01  3.75303E+01  3.83074E+01  3.89686E+01  3.82026E+01  4.03846E+01  3.79002E+01  3.78614E+01  3.28557E+01
   3.63109E+01  3.44886E+01  3.60872E+01  3.52103E+01  3.42100E+01  3.62339E+01  3.46264E+01  3.58470E+01  3.57519E+01  3.49001E+01
   3.36354E+01  3.18757E+01  3.12280E+01  3.16549E+01  3.34776E+01  3.29349E+01  3.23394E+01  3.15605E+01  3.10158E+01  3.17497E+01
   3.34525E+01  3.04481E+01  3.07886E+01  2.98422E+01  3.21890E+01  3.21395E+01  2.98589E+01  3.21744E+01  3.02074E+01  3.16010E+01
   3.11312E+01  3.14546E+01  3.06774E+01  3.17782E+01  3.07795E+01  3.29788E+01  2.92806E+01  2.98669E+01  2.86948E+01  2.87203E+01
   2.98980E+01  2.62625E+01  3.08485E+01  2.88593E+01  2.86110E+01  2.91538E+01  2.55723E+01  2.75218E+01  2.89081E+01  2.71377E+01
   2.76728E+01  2.78774E+01  2.75795E+01  2.55399E+01  2.80769E+01  2.68184E+01  2.47502E+01  3.06539E+01  2.68664E+01  2.83759E+01
   2.88840E+01  2.71571E+01  2.77414E+01  2.59782E+01  2.56836E+01  2.41522E+01  2.85532E+01  2.82466E+01  2.66570E+01  2.59411E+01
   2.68752E+01  2.50053E+01  2.68593E+01  2.66339E+01  2.69655E+01  2.49036E+01  2.60602E+01  2.67157E+01  2.60235E+01  2.41198E+01
   2.50772E+01  2.44310E+01  2.49722E+01  2.54912E+01  2.49700E+01  2.59061E+01  2.41430E+01  2.47728E+01  2.42313E+01  2.32410E+01
   2.46593E+01  2.34574E+01  2.33930E+01  2.47271E+01  2.45783E+01  2.27731E+01  2.18235E+01  2.46277E+01  2.13810E+01  2.31902E+01
   2.31671E+01  2.29456E+01  2.26439E+01  2.13127E+01  2.25017E+01  2.32579E+01  2.32357E+01  2.19276E+01  2.27928E+01  2.29657E+01
   2.10975E+01  2.08762E+01  2.40517E+01  2.29185E+01  2.19059E+01  2.14240E+01  1.99861E+01  2.06447E+01  2.18467E+01  2.41907E+01
   2.11635E+01  2.13849E+01  2.12365E+01  2.16392E+01  2.20875E+01  2.19836E+01  2.09740E+01  1.87794E+01  1.95945E+01  2.04462E+01
   2.05693E+01  2.02365E+01  2.14186E+01  2.01440E+01  1.77970E+01  2.03774E+01  2.08932E+01  1.94952E+01  1.96828E+01  1.96354E+01
   2.11744E+01  1.95697E+01  1.71531E+01  1.88782E+01  1.91332E+01  1.95294E+01  1.99065E+01  2.07752E+01  1.89247E+01  1.95158E+01
   2.01823E+01  1.85418E+01  1.90058E+01  1.69191E+01  1.65353E+01  1.84029E+01  1.70304E+01  1.74563E+01  1.82798E+01  1.67922E+01
   1.66164E+01  1.74586E+01  1.60829E+01  1.70713E+01  1.65898E+01  1.58746E+01  1.68164E+01  1.66088E+01  1.86010E+01  1.83146E+01
   1.80276E+01  1.67588E+01  1.70680E+01  1.71363E+01  1.82941E+01  1.69463E+01  1.64876E+01  1.69805E+01  1.59188E+01  1.57289E+01
   1.60055E+01  1.44285E+01  1.57558E+01  1.50938E+01  1.42824E+01  1.71420E+01  1.26449E+01  1.37461E+01  1.56129E+01  1.57972E+01
   1.68197E+01  1.77057E+01  1.93566E+01  1.64803E+01  1.75654E+01  1.70298E+01  1.45833E+01  1.65733E+01  1.47286E+01  1.50232E+01
   1.48229E+01  1.51483E+01  1.51440E+01  1.59654E+01  1.45371E+01  1.41648E+01  1.42073E+01  1.39859E+01  1.44672E+01  1.56848E+01
   1.59738E+01  1.64274E+01  1.18298E+01  1.32149E+01  1.59026E+01  1.47732E+01  1.42076E+01  1.44859E+01  1.30114E+01  1.51482E+01
   1.42894E+01  1.43525E+01  1.51022E+01  1.38568E+01  1.31536E+01  1.37425E+01  1.33479E+01  1.16875E+01  1.32014E+01  1.37088E+01
   1.21680E+01  1.32391E+01  1.34266E+01  1.30080E+01  1.37662E+01  1.43525E+01  1.31506E+01  1.42900E+01  1.30475E+01  1.23742E+01
   1.38227E+01  1.22405E+01  1.27099E+01  1.30267E+01  1.46183E+01  1.23742E+01  1.36632E+01  1.34124E+01  1.19569E+01  1.36880E+01
   1.49855E+01  1.35611E+01  1.27740E+01  1.39254E+01  1.33351E+01  1.21403E+01  1.41806E+01  1.20387E+01  1.42358E+01  1.37660E+01
   1.29266E+01  1.35814E+01  1.52867E+01  1.28270E+01  1.39863E+01  1.36125E+01  1.36356E+01  1.12887E+01  1.39850E+01  1.25892E+01
   1.25374E+01  1.22279E+01  1.29996E+01  1.33064E+01  1.45934E+01  1.26814E+01  1.21321E+01  1.11741E+01  1.23027E+01  1.36415E+01
   9.80589E+00  1.00917E+01  9.84862E+00  1.36051E+01  1.08622E+01  1.25833E+01  1.15024E+01  1.28070E+01  1.17048E+01  1.09250E+01
   1.09543E+01  1.07401E+01  1.33212E+01  1.10728E+01  1.17980E+01  1.29081E+01  1.10279E+01  1.10826E+01  1.14240E+01  1.21425E+01
   1.13153E+01  1.06069E+01  9.69677E+00  1.18655E+01  1.34082E+01  1.27321E+01  1.24350E+01  9.96015E+00  1.15472E+01  9.18948E+00
   1.26474E+01  1.17541E+01  1.17255E+01  1.19466E+01  1.36500E+01  1.08763E+01  1.14703E+01  1.19985E+01  1.26635E+01  1.20562E+01
   1.09381E+01  1.27185E+01  1.11561E+01  9.65286E+00  7.79561E+00  9.98264E+00  1.48467E+01  1.25366E+01  1.17539E+01  1.28642E+01
   1.15906E+01  1.06919E+01  1.07103E+01  1.12117E+01  1.08002E+01  1.21284E+01  1.06408E+01  1.24670E+01  1.05123E+01  1.24736E+01
   1.27759E+01  1.36806E+01  9.90014E+00  8.90345E+00  1.07729E+01  1.05774E+01  1.08493E+01  8.35371E+00  1.12478E+01  1.31836E+01
   8.95691E+00  1.17403E+01  1.01544E+01  1.08030E+01  7.53326E+00  9.57234E+00  9.69924E+00  9.45970E+00  8.65701E+00  9.31282E+00
   8.25820E+00  9.47432E+00  9.18496E+00  7.39963E+00  9.12801E+00  1.09707E+01  8.50662E+00  7.77193E+00  9.40446E+00  8.80087E+00
   8.53599E+00  9.61554E+00  9.41061E+00  7.25976E+00  8.02731E+00  9.30447E+00  1.11948E+01  9.38730E+00  9.75953E+00  9.37687E+00
   8.48161E+00  8.30555E+00  8.81907E+00  8.17064E+00  1.07950E+01  9.35923E+00  1.08953E+01  8.24171E+00  8.24336E+00  6.66568E+00
   7.73662E+00  6.37911E+00  7.36254E+00  8.80455E+00  6.93892E+00  6.32358E+00  8.32471E+00  7.22431E+00  7.62952E+00  5.77225E+00
   8.78009E+00  5.96953E+00  6.35533E+00  7.90914E+00  5.51190E+00  5.23079E+00  6.50873E+00  7.79426E+00  8.95926E+00  6.59385E+00
   5.10613E+00  7.72676E+00  7.81228E+00  6.90863E+00  5.98960E+00  7.32676E+00  5.49605E+00  6.11991E+00  5.97982E+00  4.70550E+00
   6.27027E+00  4.97038E+00  7.02982E+00  6.03231E+00  6.49732E+00  5.22398E+00  6.28179E+00  5.34637E+00
 NY points of the fit to the data follow
   6.17354E+01  6.13344E+01  6.09327E+01  6.05042E+01  5.99827E+01  5.95147E+01  5.92738E+01  5.91641E+01  5.90611E+01  5.89371E+01
   5.86999E+01  5.82721E+01  5.76884E+01  5.70445E+01  5.64332E+01  5.59249E+01  5.54926E+01  5.50785E+01  5.46683E+01  5.42760E+01
   5.38970E+01  5.35156E+01  5.31421E+01  5.27963E+01  5.24111E+01  5.18517E+01  5.12481E+01  5.08615E+01  5.06646E+01  5.05635E+01
   5.05609E+01  5.05728E+01  5.04278E+01  5.00454E+01  4.94522E+01  4.87308E+01  4.80281E+01  4.74362E+01  4.69489E+01  4.65716E+01
   4.62905E+01  4.60429E+01  4.57805E+01  4.54921E+01  4.51624E+01  4.47923E+01  4.44185E+01  4.40595E+01  4.37136E+01  4.33809E+01
   4.30576E+01  4.27390E+01  4.24238E+01  4.21069E+01  4.17849E+01  4.14614E+01  4.11418E+01  4.08272E+01  4.05166E+01  4.02097E+01
   3.99074E+01  3.96099E+01  3.93169E+01  3.90314E+01  3.87503E+01  3.84728E+01  3.82004E+01  3.79279E+01  3.76519E+01  3.73763E+01
   3.70979E+01  3.68179E+01  3.65544E+01  3.63132E+01  3.60824E+01  3.58558E+01  3.56264E+01  3.53823E+01  3.51241E+01  3.48630E+01
   3.46055E+01  3.43493E+01  3.41091E+01  3.39048E+01  3.37243E+01  3.35463E+01  3.33644E+01  3.31716E+01  3.29637E+01  3.27465E+01
   3.25238E+01  3.23002E+01  3.20845E+01  3.18733E+01  3.16595E+01  3.14555E+01  3.12609E+01  3.10032E+01  3.06313E+01  3.04329E+01
   3.05563E+01  3.08045E+01  3.10500E+01  3.12469E+01  3.12530E+01  3.10037E+01  3.05619E+01  3.00564E+01  2.96230E+01  2.93441E+01
   2.91564E+01  2.89967E+01  2.88464E+01  2.87012E+01  2.85619E+01  2.84319E+01  2.83067E+01  2.81782E+01  2.80470E+01  2.79118E+01
   2.77592E+01  2.75342E+01  2.71542E+01  2.69243E+01  2.70994E+01  2.74851E+01  2.78849E+01  2.82402E+01  2.83763E+01  2.81848E+01
   2.77808E+01  2.73414E+01  2.69717E+01  2.67465E+01  2.65882E+01  2.63764E+01  2.61077E+01  2.58323E+01  2.56171E+01  2.55107E+01
   2.55015E+01  2.55306E+01  2.55504E+01  2.55279E+01  2.54473E+01  2.53233E+01  2.51891E+01  2.50596E+01  2.49428E+01  2.48358E+01
   2.47335E+01  2.46289E+01  2.45189E+01  2.44092E+01  2.43064E+01  2.42148E+01  2.41412E+01  2.40730E+01  2.39853E+01  2.38753E+01
   2.37488E+01  2.36253E+01  2.35284E+01  2.34553E+01  2.33951E+01  2.33407E+01  2.32757E+01  2.31870E+01  2.30802E+01  2.29702E+01
   2.28707E+01  2.27912E+01  2.27172E+01  2.26156E+01  2.24929E+01  2.23772E+01  2.22810E+01  2.21976E+01  2.21153E+01  2.20308E+01
   2.19512E+01  2.18750E+01  2.17930E+01  2.16935E+01  2.15722E+01  2.14369E+01  2.13019E+01  2.11872E+01  2.11255E+01  2.11354E+01
   2.11856E+01  2.12280E+01  2.12298E+01  2.11822E+01  2.10518E+01  2.08333E+01  2.05903E+01  2.03798E+01  2.02176E+01  2.01157E+01
   2.00814E+01  2.01040E+01  2.01625E+01  2.02198E+01  2.02297E+01  2.02106E+01  2.01372E+01  1.99513E+01  1.96995E+01  1.94333E+01
   1.91581E+01  1.88968E+01  1.87604E+01  1.88259E+01  1.90133E+01  1.92142E+01  1.93735E+01  1.94524E+01  1.93866E+01  1.91021E+01
   1.86448E+01  1.81898E+01  1.78575E+01  1.76653E+01  1.76248E+01  1.77250E+01  1.79049E+01  1.80813E+01  1.81452E+01  1.80593E+01
   1.78935E+01  1.77179E+01  1.75354E+01  1.73649E+01  1.72825E+01  1.73133E+01  1.73830E+01  1.74194E+01  1.74232E+01  1.73590E+01
   1.71807E+01  1.69216E+01  1.66700E+01  1.64796E+01  1.63777E+01  1.63701E+01  1.64219E+01  1.64716E+01  1.64726E+01  1.64028E+01
   1.62836E+01  1.61541E+01  1.60457E+01  1.59736E+01  1.58944E+01  1.55678E+01  1.50124E+01  1.49503E+01  1.55589E+01  1.63843E+01
   1.72411E+01  1.79957E+01  1.82785E+01  1.79706E+01  1.72557E+01  1.64282E+01  1.57862E+01  1.54631E+01  1.52962E+01  1.51690E+01
   1.50593E+01  1.49685E+01  1.48927E+01  1.48349E+01  1.47944E+01  1.47629E+01  1.47311E+01  1.46904E+01  1.46364E+01  1.45731E+01
   1.45068E+01  1.44402E+01  1.43769E+01  1.43198E+01  1.42685E+01  1.42212E+01  1.41762E+01  1.41322E+01  1.40879E+01  1.40432E+01
   1.39984E+01  1.39537E+01  1.39095E+01  1.38660E+01  1.38232E+01  1.37811E+01  1.37401E+01  1.37001E+01  1.36608E+01  1.36224E+01
   1.35849E+01  1.35484E+01  1.35128E+01  1.34783E+01  1.34449E+01  1.34125E+01  1.33812E+01  1.33511E+01  1.33224E+01  1.32952E+01
   1.32698E+01  1.32463E+01  1.32249E+01  1.32056E+01  1.31887E+01  1.31741E+01  1.31620E+01  1.31525E+01  1.31454E+01  1.31408E+01
   1.31385E+01  1.31382E+01  1.31397E+01  1.31426E+01  1.31465E+01  1.31509E+01  1.31552E+01  1.31589E+01  1.31613E+01  1.31618E+01
   1.31598E+01  1.31548E+01  1.31462E+01  1.31335E+01  1.31166E+01  1.30950E+01  1.30687E+01  1.30376E+01  1.30016E+01  1.29605E+01
   1.29128E+01  1.28525E+01  1.27778E+01  1.27533E+01  1.28009E+01  1.28470E+01  1.28484E+01  1.28067E+01  1.27071E+01  1.25404E+01
   1.22975E+01  1.20554E+01  1.19172E+01  1.18919E+01  1.19313E+01  1.20121E+01  1.21011E+01  1.21568E+01  1.21573E+01  1.21059E+01
   1.20252E+01  1.19518E+01  1.18952E+01  1.18483E+01  1.18065E+01  1.17676E+01  1.17305E+01  1.16947E+01  1.16598E+01  1.16255E+01
   1.15917E+01  1.15584E+01  1.15256E+01  1.14934E+01  1.14619E+01  1.14312E+01  1.14014E+01  1.13729E+01  1.13457E+01  1.13203E+01
   1.12968E+01  1.12755E+01  1.12568E+01  1.12409E+01  1.12282E+01  1.12190E+01  1.12135E+01  1.12120E+01  1.12146E+01  1.12214E+01
   1.12323E+01  1.12470E+01  1.12652E+01  1.12864E+01  1.13097E+01  1.13342E+01  1.13589E+01  1.13825E+01  1.14036E+01  1.14210E+01
   1.14331E+01  1.14389E+01  1.14370E+01  1.14266E+01  1.14070E+01  1.13778E+01  1.13389E+01  1.12906E+01  1.12333E+01  1.11678E+01
   1.10951E+01  1.10164E+01  1.09328E+01  1.08457E+01  1.07562E+01  1.06656E+01  1.05749E+01  1.04849E+01  1.03965E+01  1.03102E+01
   1.02263E+01  1.01452E+01  1.00670E+01  9.99168E+00  9.91914E+00  9.84927E+00  9.78186E+00  9.71669E+00  9.65352E+00  9.59211E+00
   9.53223E+00  9.47367E+00  9.41622E+00  9.35971E+00  9.30396E+00  9.24885E+00  9.19425E+00  9.14005E+00  9.08617E+00  9.03251E+00
   8.97903E+00  8.92566E+00  8.87236E+00  8.81908E+00  8.76579E+00  8.71246E+00  8.65907E+00  8.60560E+00  8.55203E+00  8.49834E+00
   8.44452E+00  8.39055E+00  8.33644E+00  8.28217E+00  8.22773E+00  8.17314E+00  8.11838E+00  8.06346E+00  8.00838E+00  7.95314E+00
   7.89775E+00  7.84220E+00  7.78649E+00  7.73064E+00  7.67465E+00  7.61852E+00  7.56225E+00  7.50586E+00  7.44933E+00  7.39270E+00
   7.33594E+00  7.27908E+00  7.22211E+00  7.16505E+00  7.10790E+00  7.05066E+00  6.99335E+00  6.93597E+00  6.87852E+00  6.82101E+00
   6.76344E+00  6.70584E+00  6.64820E+00  6.59052E+00  6.53282E+00  6.47510E+00  6.41736E+00  6.35963E+00  6.30190E+00  6.24418E+00
   6.18647E+00  6.12879E+00  6.07114E+00  6.01353E+00  5.95596E+00  5.89844E+00  5.84098E+00  5.78360E+00
 NY background values follow
     6.176E+01    6.135E+01    6.095E+01    6.055E+01    6.015E+01    5.975E+01    5.934E+01    5.894E+01    5.854E+01    5.814E+01
     5.775E+01    5.735E+01    5.695E+01    5.655E+01    5.616E+01    5.576E+01    5.537E+01    5.497E+01    5.458E+01    5.419E+01
     5.380E+01    5.341E+01    5.303E+01    5.264E+01    5.226E+01    5.188E+01    5.149E+01    5.112E+01    5.074E+01    5.036E+01
     4.999E+01    4.962E+01    4.925E+01    4.888E+01    4.851E+01    4.815E+01    4.779E+01    4.743E+01    4.707E+01    4.671E+01
     4.636E+01    4.601E+01    4.566E+01    4.532E+01    4.498E+01    4.464E+01    4.430E+01    4.397E+01    4.363E+01    4.331E+01
     4.298E+01    4.266E+01    4.234E+01    4.202E+01    4.171E+01    4.140E+01    4.109E+01    4.078E+01    4.048E+01    4.018E+01
     3.988E+01    3.959E+01    3.930E+01    3.901E+01    3.873E+01    3.845E+01    3.817E+01    3.789E+01    3.762E+01    3.735E+01
     3.709E+01    3.683E+01    3.657E+01    3.631E+01    3.606E+01    3.581E+01    3.556E+01    3.532E+01    3.508E+01    3.484E+01
     3.460E+01    3.437E+01    3.415E+01    3.392E+01    3.370E+01    3.348E+01    3.327E+01    3.306E+01    3.285E+01    3.265E+01
     3.245E+01    3.225E+01    3.206E+01    3.187E+01    3.168E+01    3.150E+01    3.132E+01    3.114E+01    3.096E+01    3.079E+01
     3.062E+01    3.046E+01    3.029E+01    3.013E+01    2.998E+01    2.982E+01    2.967E+01    2.952E+01    2.937E+01    2.923E+01
     2.908E+01    2.894E+01    2.881E+01    2.867E+01    2.854E+01    2.840E+01    2.827E+01    2.815E+01    2.802E+01    2.790E+01
     2.777E+01    2.765E+01    2.754E+01    2.742E+01    2.730E+01    2.719E+01    2.708E+01    2.696E+01    2.685E+01    2.675E+01
     2.664E+01    2.653E+01    2.643E+01    2.632E+01    2.622E+01    2.612E+01    2.602E+01    2.592E+01    2.582E+01    2.572E+01
     2.562E+01    2.552E+01    2.542E+01    2.533E+01    2.523E+01    2.514E+01    2.504E+01    2.495E+01    2.486E+01    2.476E+01
     2.467E+01    2.458E+01    2.449E+01    2.440E+01    2.431E+01    2.422E+01    2.413E+01    2.404E+01    2.395E+01    2.387E+01
     2.378E+01    2.369E+01    2.360E+01    2.352E+01    2.343E+01    2.334E+01    2.326E+01    2.317E+01    2.308E+01    2.300E+01
     2.291E+01    2.282E+01    2.274E+01    2.265E+01    2.257E+01    2.248E+01    2.239E+01    2.231E+01    2.222E+01    2.213E+01
     2.205E+01    2.196E+01    2.187E+01    2.178E+01    2.170E+01    2.161E+01    2.152E+01    2.143E+01    2.134E+01    2.126E+01
     2.117E+01    2.108E+01    2.099E+01    2.090E+01    2.081E+01    2.072E+01    2.064E+01    2.055E+01    2.046E+01    2.037E+01
     2.028E+01    2.019E+01    2.010E+01    2.002E+01    1.993E+01    1.984E+01    1.975E+01    1.966E+01    1.958E+01    1.949E+01
     1.940E+01    1.931E+01    1.923E+01    1.914E+01    1.905E+01    1.897E+01    1.888E+01    1.880E+01    1.871E+01    1.863E+01
     1.854E+01    1.846E+01    1.838E+01    1.829E+01    1.821E+01    1.813E+01    1.804E+01    1.796E+01    1.788E+01    1.780E+01
     1.772E+01    1.764E+01    1.756E+01    1.748E+01    1.740E+01    1.733E+01    1.725E+01    1.717E+01    1.710E+01    1.702E+01
     1.695E+01    1.687E+01    1.680E+01    1.672E+01    1.665E+01    1.658E+01    1.650E+01    1.643E+01    1.636E+01    1.629E+01
     1.622E+01    1.615E+01    1.608E+01    1.602E+01    1.595E+01    1.588E+01    1.582E+01    1.575E+01    1.568E+01    1.562E+01
     1.556E+01    1.549E+01    1.543E+01    1.537E+01    1.531E+01    1.525E+01    1.519E+01    1.513E+01    1.507E+01    1.501E+01
     1.495E+01    1.490E+01    1.484E+01    1.479E+01    1.473E+01    1.468E+01    1.462E+01    1.457E+01    1.452E+01    1.447E+01
     1.442E+01    1.437E+01    1.432E+01    1.427E+01    1.422E+01    1.417E+01    1.412E+01    1.408E+01    1.403E+01    1.399E+01
     1.394E+01    1.390E+01    1.385E+01    1.381E+01    1.376E+01    1.372E+01    1.368E+01    1.364E+01    1.360E+01    1.356E+01
     1.352E+01    1.347E+01    1.344E+01    1.340E+01    1.336E+01    1.332E+01    1.328E+01    1.324E+01    1.321E+01    1.317E+01
     1.313E+01    1.309E+01    1.306E+01    1.302E+01    1.299E+01    1.295E+01    1.292E+01    1.288E+01    1.285E+01    1.281E+01
     1.278E+01    1.275E+01    1.271E+01    1.268E+01    1.265E+01    1.261E+01    1.258E+01    1.255E+01    1.252E+01    1.249E+01
     1.245E+01    1.242E+01    1.239E+01    1.236E+01    1.233E+01    1.230E+01    1.227E+01    1.224E+01    1.221E+01    1.218E+01
     1.215E+01    1.212E+01    1.209E+01    1.206E+01    1.203E+01    1.200E+01    1.197E+01    1.195E+01    1.192E+01    1.189E+01
     1.186E+01    1.183E+01    1.180E+01    1.178E+01    1.175E+01    1.172E+01    1.169E+01    1.167E+01    1.164E+01    1.161E+01
     1.159E+01    1.156E+01    1.153E+01    1.151E+01    1.148E+01    1.145E+01    1.143E+01    1.140E+01    1.137E+01    1.135E+01
     1.132E+01    1.129E+01    1.127E+01    1.124E+01    1.121E+01    1.119E+01    1.116E+01    1.113E+01    1.110E+01    1.108E+01
     1.105E+01    1.102E+01    1.100E+01    1.097E+01    1.094E+01    1.091E+01    1.088E+01    1.086E+01    1.083E+01    1.080E+01
     1.077E+01    1.074E+01    1.071E+01    1.068E+01    1.065E+01    1.062E+01    1.059E+01    1.056E+01    1.053E+01    1.049E+01
     1.046E+01    1.043E+01    1.040E+01    1.036E+01    1.033E+01    1.029E+01    1.026E+01    1.022E+01    1.019E+01    1.015E+01
     1.012E+01    1.008E+01    1.004E+01    1.001E+01    9.967E+00    9.928E+00    9.890E+00    9.850E+00    9.810E+00    9.770E+00
     9.730E+00    9.689E+00    9.647E+00    9.606E+00    9.563E+00    9.521E+00    9.478E+00    9.435E+00    9.391E+00    9.347E+00
     9.302E+00    9.258E+00    9.213E+00    9.167E+00    9.121E+00    9.075E+00    9.028E+00    8.982E+00    8.934E+00    8.887E+00
     8.839E+00    8.790E+00    8.742E+00    8.693E+00    8.644E+00    8.594E+00    8.544E+00    8.494E+00    8.444E+00    8.393E+00
     8.342E+00    8.291E+00    8.239E+00    8.187E+00    8.135E+00    8.082E+00    8.029E+00    7.976E+00    7.923E+00    7.870E+00
     7.816E+00    7.762E+00    7.708E+00    7.653E+00    7.599E+00    7.544E+00    7.489E+00    7.434E+00    7.379E+00    7.323E+00
     7.268E+00    7.212E+00    7.156E+00    7.100E+00    7.044E+00    6.987E+00    6.931E+00    6.874E+00    6.818E+00    6.761E+00
     6.705E+00    6.648E+00    6.591E+00    6.534E+00    6.477E+00    6.420E+00    6.363E+00    6.306E+00    6.249E+00    6.192E+00
     6.135E+00    6.078E+00    6.021E+00    5.964E+00    5.907E+00    5.850E+00    5.793E+00    5.736E+00
 Asp      Conc. = 4.68E+00
