 LCModel (Version 6.3-1L) Copyright: S.W. Provencher.          Ref.: Magn. Reson. Med. 30:672-679 (1993).                
 Slice#2 Row#1 Col#12  PD_05_press_1_raw_act
 36 lines in following concentration table = NCONC+1
    Conc.  %SD /Cr+PCr  Metabolite                                         
  156.241 457%   0.000 Ala                                                 
   22.737  34%   0.000 Asp                                                 
    0.000 999%   0.000 Cr                                                  
    0.000 999%   0.000 PCr                                                 
   13.699  34%   0.000 GABA                                                
   13.737  34%   0.000 Glc                                                 
    0.000 999%   0.000 Gln                                                 
 1.04E+03  55%   0.000 Glu                                                 
    0.000 999%   0.000 GPC                                                 
   44.213  37%   0.000 PCh                                                 
    0.000 999%   0.000 GSH                                                 
  337.033  53%   0.000 Ins                                                 
 1.90E+03  38%   0.000 Lac                                                 
  225.633  68%   0.000 NAA                                                 
   97.933 181%   0.000 NAAG                                                
    4.641  33%   0.000 Scyllo                                              
   23.170  33%   0.000 Tau                                                 
    0.000 999%   0.000 -CrCH2                                              
   44.213  37%   0.000 GPC+PCh                                             
  323.566  28%   0.000 NAA+NAAG                                            
    0.000 999%   0.000 Cr+PCr                                              
 1.04E+03  55%   0.000 Glu+Gln                                             
  857.823  64%   0.000 Lip13a                                              
    0.000 999%   0.000 Lip13b                                              
    0.000 999%   0.000 Lip09                                               
 2.11E+03  12%   0.000 MM09                                                
    0.000 999%   0.000 Lip20                                               
  248.414 134%   0.000 MM20                                                
 1.11E+03  24%   0.000 MM12                                                
 1.17E+04   7%   0.000+MM14                                                
 6.08E+03  13%   0.000+MM17                                                
  857.823  64%   0.000 Lip13a+Lip13b                                       
 1.36E+04   8%   0.000 MM14+Lip13a+Lip13b+MM12                             
 2.11E+03  12%   0.000 MM09+Lip09                                          
  248.414 134%   0.000 MM20+Lip20                                          
   6 lines in following misc. output table
  FWHM = 0.168 ppm    S/N =  22                                            
  Data shift = 0.413 ppm                                                   
  Ph: 104 deg      14.2 deg/ppm                                            
  alphaB,S = 2.0E+01,   5.0E+02                                            
    6 spline knots.   Ns = 9(2)                                            
  (15) 2 infls.   (11) 1 extrs.                                            
  498 points on ppm-axis = NY
      4.000000     3.992357     3.984714     3.977070     3.969427     3.961784     3.954141     3.946497     3.938854     3.931211
      3.923568     3.915925     3.908281     3.900638     3.892995     3.885352     3.877708     3.870065     3.862422     3.854779
      3.847136     3.839492     3.831849     3.824206     3.816563     3.808919     3.801276     3.793633     3.785990     3.778347
      3.770703     3.763060     3.755417     3.747774     3.740130     3.732487     3.724844     3.717201     3.709558     3.701914
      3.694271     3.686628     3.678985     3.671341     3.663698     3.656055     3.648412     3.640769     3.633125     3.625482
      3.617839     3.610196     3.602552     3.594909     3.587266     3.579623     3.571980     3.564336     3.556693     3.549050
      3.541407     3.533763     3.526120     3.518477     3.510834     3.503191     3.495547     3.487904     3.480261     3.472618
      3.464974     3.457331     3.449688     3.442045     3.434402     3.426758     3.419115     3.411472     3.403829     3.396185
      3.388542     3.380899     3.373256     3.365613     3.357969     3.350326     3.342683     3.335040     3.327396     3.319753
      3.312110     3.304467     3.296824     3.289180     3.281537     3.273894     3.266251     3.258607     3.250964     3.243321
      3.235678     3.228034     3.220391     3.212748     3.205105     3.197462     3.189818     3.182175     3.174532     3.166889
      3.159245     3.151602     3.143959     3.136316     3.128673     3.121029     3.113386     3.105743     3.098100     3.090456
      3.082813     3.075170     3.067527     3.059884     3.052240     3.044597     3.036954     3.029311     3.021667     3.014024
      3.006381     2.998738     2.991095     2.983451     2.975808     2.968165     2.960522     2.952878     2.945235     2.937592
      2.929949     2.922306     2.914662     2.907019     2.899376     2.891733     2.884089     2.876446     2.868803     2.861160
      2.853517     2.845873     2.838230     2.830587     2.822944     2.815300     2.807657     2.800014     2.792371     2.784728
      2.777084     2.769441     2.761798     2.754155     2.746511     2.738868     2.731225     2.723582     2.715939     2.708295
      2.700652     2.693009     2.685366     2.677722     2.670079     2.662436     2.654793     2.647150     2.639506     2.631863
      2.624220     2.616577     2.608933     2.601290     2.593647     2.586004     2.578361     2.570717     2.563074     2.555431
      2.547788     2.540144     2.532501     2.524858     2.517215     2.509572     2.501928     2.494285     2.486642     2.478999
      2.471355     2.463712     2.456069     2.448426     2.440783     2.433139     2.425496     2.417853     2.410210     2.402566
      2.394923     2.387280     2.379637     2.371994     2.364350     2.356707     2.349064     2.341421     2.333777     2.326134
      2.318491     2.310848     2.303205     2.295561     2.287918     2.280275     2.272632     2.264988     2.257345     2.249702
      2.242059     2.234416     2.226772     2.219129     2.211486     2.203843     2.196199     2.188556     2.180913     2.173270
      2.165627     2.157983     2.150340     2.142697     2.135054     2.127410     2.119767     2.112124     2.104481     2.096838
      2.089194     2.081551     2.073908     2.066265     2.058621     2.050978     2.043335     2.035692     2.028049     2.020405
      2.012762     2.005119     1.997476     1.989833     1.982190     1.974546     1.966903     1.959260     1.951617     1.943974
      1.936331     1.928688     1.921045     1.913402     1.905759     1.898115     1.890472     1.882829     1.875186     1.867543
      1.859900     1.852257     1.844614     1.836971     1.829327     1.821684     1.814041     1.806398     1.798755     1.791112
      1.783469     1.775826     1.768183     1.760540     1.752896     1.745253     1.737610     1.729967     1.722324     1.714681
      1.707038     1.699395     1.691752     1.684108     1.676465     1.668822     1.661179     1.653536     1.645893     1.638250
      1.630607     1.622964     1.615321     1.607677     1.600034     1.592391     1.584748     1.577105     1.569462     1.561819
      1.554176     1.546533     1.538890     1.531246     1.523603     1.515960     1.508317     1.500674     1.493031     1.485388
      1.477745     1.470102     1.462458     1.454815     1.447172     1.439529     1.431886     1.424243     1.416600     1.408957
      1.401314     1.393671     1.386027     1.378384     1.370741     1.363098     1.355455     1.347812     1.340169     1.332526
      1.324883     1.317240     1.309596     1.301953     1.294310     1.286667     1.279024     1.271381     1.263738     1.256095
      1.248452     1.240808     1.233165     1.225522     1.217879     1.210236     1.202593     1.194950     1.187307     1.179664
      1.172021     1.164377     1.156734     1.149091     1.141448     1.133805     1.126162     1.118519     1.110876     1.103233
      1.095590     1.087946     1.080303     1.072660     1.065017     1.057374     1.049731     1.042088     1.034445     1.026802
      1.019158     1.011515     1.003872     0.996229     0.988586     0.980943     0.973300     0.965657     0.958014     0.950371
      0.942727     0.935084     0.927441     0.919798     0.912155     0.904512     0.896869     0.889226     0.881583     0.873940
      0.866296     0.858653     0.851010     0.843367     0.835724     0.828081     0.820438     0.812795     0.805152     0.797508
      0.789865     0.782222     0.774579     0.766936     0.759293     0.751650     0.744007     0.736364     0.728721     0.721077
      0.713434     0.705791     0.698148     0.690505     0.682862     0.675219     0.667576     0.659933     0.652290     0.644646
      0.637003     0.629360     0.621717     0.614074     0.606431     0.598788     0.591145     0.583502     0.575858     0.568215
      0.560572     0.552929     0.545286     0.537643     0.530000     0.522357     0.514714     0.507071     0.499427     0.491784
      0.484141     0.476498     0.468855     0.461212     0.453569     0.445925     0.438282     0.430639     0.422996     0.415353
      0.407710     0.400067     0.392424     0.384780     0.377137     0.369494     0.361851     0.354208     0.346565     0.338922
      0.331278     0.323635     0.315992     0.308349     0.300706     0.293063     0.285420     0.277777     0.270133     0.262490
      0.254847     0.247204     0.239561     0.231918     0.224275     0.216631     0.208988     0.201345
 NY phased data points follow
  -1.33821E+00 -1.52072E+00 -2.47631E+00 -9.61721E-01 -3.06903E+00 -2.90611E+00 -2.03850E+00 -3.16887E+00 -1.87457E+00 -1.89060E+00
  -2.99317E+00 -4.71497E+00 -3.04492E+00 -1.84848E+00 -1.60049E+00 -1.06413E+00 -5.98998E-01 -2.68799E+00 -1.49239E+00 -1.02068E+00
  -1.64471E+00 -1.88815E+00 -4.22856E+00 -2.80552E+00 -3.51648E+00 -3.55884E+00 -3.00999E+00 -4.19775E+00 -2.08640E+00 -9.53251E-02
  -2.02253E+00 -3.57144E+00 -3.42848E+00 -2.39973E+00 -1.17900E+00 -2.71316E+00 -1.22103E+00 -2.73948E+00 -1.53699E+00 -1.82909E+00
  -3.12802E+00 -6.53272E-01 -1.45850E+00 -1.59464E+00 -4.47326E-01 -1.87624E-01 -2.19760E+00 -1.96764E+00 -2.16834E+00 -3.79371E+00
  -3.36503E+00 -2.39209E+00 -4.76045E-01 -2.34509E+00 -2.12570E+00 -1.52085E+00 -2.34138E+00 -4.13060E-01 -1.88295E+00 -1.40883E+00
  -1.74176E+00 -1.65106E+00 -1.60201E+00 -1.74849E+00 -3.04017E+00  8.00101E-01 -2.40969E+00 -5.56864E-01 -2.68144E+00 -2.00602E-01
  -1.07537E+00 -7.35085E-02 -2.76469E+00 -1.31698E+00 -4.79968E-01 -1.28677E-01 -2.60262E+00 -1.65151E+00 -2.13324E+00  4.15836E-01
  -1.70066E-01 -1.91253E+00 -4.63757E+00 -2.65554E+00  8.56933E-02 -7.37633E-01 -9.90391E-01 -1.59858E+00 -1.99640E+00 -3.14870E+00
  -1.69680E+00 -1.74067E+00 -1.36411E+00 -2.04154E+00  5.25560E-02 -2.35086E+00 -1.36200E+00  1.15037E+00 -1.80770E+00  9.45016E-02
  -2.97530E-01 -2.49005E+00 -4.79126E-01 -8.48178E-01 -6.59256E-02 -1.04695E+00 -9.49826E-01 -1.50362E+00 -1.80783E+00  1.14790E-01
  -7.87372E-01 -9.51927E-01 -1.85475E+00 -1.04676E-01 -2.45769E+00 -2.28461E+00 -1.86844E+00 -3.72287E+00 -6.50441E-01 -1.93643E+00
  -2.05869E+00 -3.24628E+00 -8.68667E-01 -1.95958E+00 -1.21938E+00 -2.82978E+00 -2.17001E-01 -1.19449E+00 -8.09966E-01 -4.27837E+00
  -3.05495E+00 -2.26681E+00 -4.16608E-01 -3.25529E+00 -2.84490E+00 -1.60054E+00 -2.41750E+00 -1.38066E+00 -2.74882E+00 -2.87055E+00
  -2.84474E+00 -2.81358E+00 -3.40102E+00 -2.24300E+00 -2.40843E+00 -3.27122E+00 -1.10285E+00 -2.22719E+00 -2.32574E+00 -1.33376E+00
  -2.89909E+00 -4.28689E-01 -1.69948E+00 -2.09487E+00 -8.05795E-01 -6.15471E-01 -6.06761E-01 -6.32748E-01 -1.26712E+00 -6.78752E-01
  -1.08091E+00 -2.84891E+00 -1.78530E+00  3.39329E-01 -2.70146E+00 -3.62635E+00 -1.85995E+00 -1.26236E+00 -2.74577E+00  4.66569E-01
  -9.25689E-01 -3.18486E+00 -3.01517E+00 -2.65527E-01 -4.74530E-01 -9.79253E-01 -2.07218E+00 -2.20138E+00 -1.19088E+00 -1.27943E+00
  -2.35350E+00 -2.91004E-01 -2.72513E+00 -2.01924E+00 -8.99791E-01 -2.29466E+00  8.01538E-01 -8.17673E-01  1.04196E+00 -2.30519E+00
  -2.01672E+00 -1.08206E+00 -5.22201E-01 -7.76463E-01 -3.93109E-01 -2.07075E+00 -1.52053E+00 -1.88910E+00 -5.73273E-01  5.36656E-02
   7.28877E-01  5.28422E-02  1.06343E-01 -1.12392E+00 -2.31168E+00 -3.80338E-01 -2.56112E+00  1.57237E+00  1.05989E+00  1.03380E+00
   6.77149E-01 -1.78599E+00  5.35751E-01 -1.63643E+00 -1.72910E+00  8.74922E-01 -7.68932E-01 -1.00060E+00 -1.99783E+00 -8.06205E-01
  -1.30662E+00 -1.06997E-01 -9.21566E-01 -1.30739E-01 -2.60936E-01 -1.56666E+00 -1.20360E+00 -1.88845E+00 -7.49182E-01  5.82534E-01
  -1.79237E+00  1.71496E+00 -8.67669E-01  1.90285E-01 -3.02311E-02 -1.97983E+00  1.08081E+00  1.08333E+00  2.61270E-01 -3.66104E-01
   1.69852E+00  1.09968E+00  2.08727E+00  1.73737E+00  3.98863E+00  1.26989E+00  5.44336E+00  2.08258E+00  4.73361E+00  5.90987E+00
   4.09451E+00  4.35189E+00  6.22534E+00  6.44860E+00  3.71381E+00  6.04996E+00  5.41183E+00  6.23621E+00  5.49904E+00  4.59343E+00
   5.51391E+00  6.87792E+00  5.93944E+00  7.89684E+00  7.34044E+00  6.77551E+00  6.75697E+00  8.36512E+00  7.16156E+00  8.90934E+00
   9.78700E+00  1.23271E+01  1.26031E+01  1.02964E+01  9.90490E+00  1.08870E+01  1.07502E+01  9.37513E+00  1.43700E+01  1.46859E+01
   1.67132E+01  1.81982E+01  1.96696E+01  1.95688E+01  2.32806E+01  2.59706E+01  2.63689E+01  2.94015E+01  3.08720E+01  3.25578E+01
   3.34829E+01  3.60084E+01  3.83717E+01  4.31711E+01  4.37260E+01  4.66118E+01  4.84073E+01  5.12693E+01  5.49651E+01  5.77351E+01
   5.89690E+01  6.21696E+01  6.33185E+01  6.57134E+01  7.03192E+01  7.37321E+01  7.02077E+01  7.28510E+01  7.47350E+01  7.65249E+01
   7.69421E+01  7.66420E+01  7.74116E+01  7.55181E+01  7.53109E+01  7.38354E+01  7.06756E+01  7.05790E+01  6.78325E+01  6.55298E+01
   6.16053E+01  6.01316E+01  5.63342E+01  5.35937E+01  4.78810E+01  4.62158E+01  4.35081E+01  4.16704E+01  3.91661E+01  3.52547E+01
   3.31498E+01  3.16904E+01  3.01392E+01  2.55142E+01  2.71760E+01  2.63680E+01  2.20110E+01  2.21146E+01  2.09005E+01  2.12690E+01
   1.96488E+01  1.75026E+01  1.69093E+01  1.84463E+01  1.37191E+01  1.56084E+01  1.59146E+01  1.43810E+01  1.54713E+01  1.74769E+01
   1.44649E+01  1.48160E+01  1.58778E+01  1.59912E+01  1.54784E+01  1.57397E+01  1.43686E+01  1.47720E+01  1.64565E+01  1.74056E+01
   1.74275E+01  1.70520E+01  1.64692E+01  1.87996E+01  1.64206E+01  1.74181E+01  1.68245E+01  1.51431E+01  1.50532E+01  1.72334E+01
   1.75630E+01  1.74505E+01  1.60111E+01  1.65927E+01  1.71344E+01  1.50885E+01  1.48667E+01  1.59926E+01  1.63394E+01  1.64897E+01
   1.46489E+01  1.57574E+01  1.43874E+01  1.34473E+01  1.45893E+01  1.28989E+01  1.58780E+01  1.58356E+01  1.52836E+01  1.43835E+01
   1.18937E+01  1.32573E+01  1.44738E+01  1.17755E+01  1.43642E+01  1.26382E+01  1.25841E+01  1.08195E+01  1.35840E+01  1.16339E+01
   1.08778E+01  1.21047E+01  1.12919E+01  1.08536E+01  1.00209E+01  1.14152E+01  1.14361E+01  1.08602E+01  1.05533E+01  1.26207E+01
   1.05000E+01  9.28515E+00  1.05376E+01  1.03972E+01  1.06134E+01  7.14260E+00  9.11524E+00  7.11573E+00  6.40640E+00  8.80906E+00
   6.60370E+00  7.84209E+00  7.41758E+00  6.93630E+00  5.66588E+00  6.60806E+00  9.61486E+00  7.16391E+00  8.68220E+00  5.66668E+00
   8.45069E+00  6.33660E+00  5.44954E+00  4.67414E+00  3.24976E+00  6.09929E+00  4.43050E+00  7.58836E+00  4.91533E+00  5.57527E+00
   3.65630E+00  6.30543E+00  3.23547E+00  6.53693E+00  4.19051E+00  3.45888E+00  2.77377E+00  4.30368E+00  4.08973E+00  3.23240E+00
   4.24988E+00  5.14783E+00  5.10604E+00  2.20328E+00  3.45996E+00  2.51930E+00  1.52191E+00  2.77410E+00  3.74063E+00  3.41310E+00
   2.43936E-01  2.02837E+00  2.89215E+00  4.12221E+00  3.54075E+00  2.47656E+00  1.89640E+00  3.19027E+00  1.11281E+00  1.47315E-01
   2.44070E+00 -6.91038E-01  2.30911E+00  2.17196E+00  1.12102E+00 -4.64758E-01  8.79361E-01 -1.43546E+00  2.48297E+00 -1.64554E+00
   2.06687E+00  3.90111E-01  2.02764E-01  1.00852E+00 -9.42998E-01  1.00539E+00 -1.64511E-01 -1.07059E+00 -1.19718E+00  2.77917E-01
   7.02777E-02  1.22653E+00 -7.45555E-02 -7.94052E-01 -1.96250E+00 -5.74986E-02  1.00559E-01  1.77793E+00
 NY points of the fit to the data follow
  -2.83279E+00 -2.36526E+00 -2.79229E+00 -2.39387E+00 -2.69808E+00 -2.36785E+00 -2.64659E+00 -2.44125E+00 -2.66580E+00 -2.56076E+00
  -2.75616E+00 -2.70189E+00 -2.84716E+00 -2.71675E+00 -2.80373E+00 -2.61121E+00 -2.66949E+00 -2.44039E+00 -2.51652E+00 -2.28481E+00
  -2.43311E+00 -2.18270E+00 -2.35739E+00 -2.08472E+00 -2.27497E+00 -1.99296E+00 -2.19504E+00 -1.92052E+00 -2.12187E+00 -1.84337E+00
  -2.02200E+00 -1.75334E+00 -1.90855E+00 -1.66133E+00 -1.78827E+00 -1.57026E+00 -1.67153E+00 -1.49467E+00 -1.57727E+00 -1.45274E+00
  -1.52169E+00 -1.44135E+00 -1.48496E+00 -1.43776E+00 -1.44944E+00 -1.43106E+00 -1.41604E+00 -1.42372E+00 -1.40416E+00 -1.44455E+00
  -1.45703E+00 -1.52123E+00 -1.53917E+00 -1.59790E+00 -1.59290E+00 -1.61824E+00 -1.59796E+00 -1.61679E+00 -1.61914E+00 -1.64573E+00
  -1.66531E+00 -1.70455E+00 -1.71325E+00 -1.74994E+00 -1.75106E+00 -1.78794E+00 -1.77931E+00 -1.80791E+00 -1.78145E+00 -1.79567E+00
  -1.75991E+00 -1.79067E+00 -1.76888E+00 -1.82023E+00 -1.80566E+00 -1.87215E+00 -1.86036E+00 -1.93687E+00 -1.92036E+00 -2.00138E+00
  -1.97944E+00 -2.05501E+00 -2.02423E+00 -2.09493E+00 -2.04793E+00 -2.06737E+00 -1.99317E+00 -1.98110E+00 -1.88493E+00 -1.85200E+00
  -1.73623E+00 -1.68794E+00 -1.55477E+00 -1.50363E+00 -1.35446E+00 -1.31679E+00 -1.16332E+00 -1.15242E+00 -1.00326E+00 -1.02526E+00
  -8.88256E-01 -9.40992E-01 -8.19241E-01 -8.94793E-01 -7.88128E-01 -8.83255E-01 -7.94774E-01 -9.13393E-01 -8.47037E-01 -9.92452E-01
  -9.52275E-01 -1.11347E+00 -1.09114E+00 -1.25329E+00 -1.24308E+00 -1.39624E+00 -1.39488E+00 -1.53613E+00 -1.54207E+00 -1.66952E+00
  -1.68395E+00 -1.78691E+00 -1.80197E+00 -1.86205E+00 -1.86269E+00 -1.85545E+00 -1.83950E+00 -1.82760E+00 -1.81143E+00 -1.79979E+00
  -1.78447E+00 -1.77419E+00 -1.76030E+00 -1.75142E+00 -1.73900E+00 -1.73176E+00 -1.72203E+00 -1.71692E+00 -1.70940E+00 -1.70577E+00
  -1.69945E+00 -1.69627E+00 -1.69317E+00 -1.69321E+00 -1.69298E+00 -1.69526E+00 -1.69567E+00 -1.69642E+00 -1.69818E+00 -1.69765E+00
  -1.70158E+00 -1.70056E+00 -1.70783E+00 -1.70483E+00 -1.71482E+00 -1.70981E+00 -1.72245E+00 -1.71756E+00 -1.73485E+00 -1.72995E+00
  -1.74760E+00 -1.74198E+00 -1.75876E+00 -1.75610E+00 -1.77166E+00 -1.77094E+00 -1.77997E+00 -1.77961E+00 -1.78106E+00 -1.78368E+00
  -1.77488E+00 -1.77677E+00 -1.75605E+00 -1.75487E+00 -1.72151E+00 -1.71701E+00 -1.67247E+00 -1.66328E+00 -1.60659E+00 -1.58935E+00
  -1.52397E+00 -1.49885E+00 -1.42938E+00 -1.39955E+00 -1.32688E+00 -1.28631E+00 -1.20654E+00 -1.15203E+00 -1.06434E+00 -1.00831E+00
  -9.23223E-01 -8.66548E-01 -8.13375E-01 -7.56627E-01 -7.44631E-01 -6.83426E-01 -6.96795E-01 -5.99972E-01 -5.71673E-01 -4.40616E-01
  -3.95607E-01 -2.53778E-01 -2.19744E-01 -1.05597E-01 -1.37606E-01 -9.22609E-02 -1.66422E-01 -1.53717E-01 -2.65491E-01 -2.65781E-01
  -4.13148E-01 -4.07598E-01 -5.77205E-01 -5.55411E-01 -7.29515E-01 -6.73175E-01 -8.27170E-01 -7.22731E-01 -8.47997E-01 -7.01538E-01
  -8.13334E-01 -6.38019E-01 -7.51808E-01 -5.67867E-01 -6.76071E-01 -4.97765E-01 -5.63537E-01 -3.80233E-01 -3.88166E-01 -2.20744E-01
  -1.82325E-01 -4.08421E-02  1.66319E-02  1.13246E-01  2.13648E-01  2.89991E-01  4.84615E-01  5.83066E-01  9.32277E-01  1.01106E+00
   1.39180E+00  1.41913E+00  1.87853E+00  1.90047E+00  2.37527E+00  2.41366E+00  2.93499E+00  3.06332E+00  3.58700E+00  3.80549E+00
   4.27785E+00  4.56643E+00  4.93632E+00  5.27048E+00  5.50018E+00  5.87606E+00  5.97452E+00  6.39144E+00  6.37211E+00  6.82211E+00
   6.69953E+00  7.17549E+00  6.97142E+00  7.45757E+00  7.21079E+00  7.70529E+00  7.47255E+00  8.00023E+00  7.82956E+00  8.39324E+00
   8.32862E+00  8.94913E+00  9.02674E+00  9.73137E+00  1.00109E+01  1.08565E+01  1.14042E+01  1.24290E+01  1.33073E+01  1.45236E+01
   1.57259E+01  1.71706E+01  1.87457E+01  2.04602E+01  2.22858E+01  2.42046E+01  2.62403E+01  2.83269E+01  3.05161E+01  3.27358E+01
   3.50348E+01  3.73450E+01  3.97141E+01  4.20835E+01  4.44951E+01  4.69045E+01  4.93449E+01  5.17766E+01  5.42219E+01  5.66471E+01
   5.90616E+01  6.14323E+01  6.37530E+01  6.59873E+01  6.81166E+01  7.00983E+01  7.19031E+01  7.34868E+01  7.48202E+01  7.58642E+01
   7.65486E+01  7.68923E+01  7.67970E+01  7.63401E+01  7.54024E+01  7.41186E+01  7.23511E+01  7.03273E+01  6.78621E+01  6.52404E+01
   6.22617E+01  5.92370E+01  5.59715E+01  5.27727E+01  4.94623E+01  4.63194E+01  4.31981E+01  4.03421E+01  3.76926E+01  3.54937E+01
   3.32104E+01  3.14348E+01  2.94378E+01  2.79487E+01  2.61540E+01  2.47883E+01  2.30771E+01  2.21213E+01  2.05926E+01  2.00113E+01
   1.86283E+01  1.83440E+01  1.70927E+01  1.71168E+01  1.60185E+01  1.63488E+01  1.54166E+01  1.60230E+01  1.52313E+01  1.59955E+01
   1.52618E+01  1.60235E+01  1.53356E+01  1.60451E+01  1.54188E+01  1.60964E+01  1.55713E+01  1.62582E+01  1.58794E+01  1.65157E+01
   1.62427E+01  1.67562E+01  1.65605E+01  1.69237E+01  1.68094E+01  1.70691E+01  1.70547E+01  1.73029E+01  1.73752E+01  1.76354E+01
   1.75124E+01  1.73266E+01  1.70252E+01  1.65158E+01  1.60842E+01  1.54381E+01  1.49815E+01  1.46399E+01  1.43655E+01  1.41403E+01
   1.39563E+01  1.38088E+01  1.36948E+01  1.36115E+01  1.35563E+01  1.35260E+01  1.35172E+01  1.35259E+01  1.35479E+01  1.35786E+01
   1.36132E+01  1.36469E+01  1.36749E+01  1.36928E+01  1.36961E+01  1.36813E+01  1.36451E+01  1.35848E+01  1.34986E+01  1.33850E+01
   1.32437E+01  1.30747E+01  1.28789E+01  1.26576E+01  1.24126E+01  1.21464E+01  1.18614E+01  1.15606E+01  1.12470E+01  1.09236E+01
   1.05933E+01  1.02591E+01  9.92357E+00  9.58923E+00  9.25827E+00  8.93262E+00  8.61391E+00  8.30350E+00  8.00247E+00  7.71164E+00
   7.43157E+00  7.16263E+00  6.90500E+00  6.65870E+00  6.42361E+00  6.19952E+00  5.98610E+00  5.78298E+00  5.58974E+00  5.40594E+00
   5.23111E+00  5.06477E+00  4.90645E+00  4.75567E+00  4.61199E+00  4.47497E+00  4.34420E+00  4.21927E+00  4.09981E+00  3.98547E+00
   3.87592E+00  3.77086E+00  3.66999E+00  3.57303E+00  3.47974E+00  3.38990E+00  3.30327E+00  3.21967E+00  3.13889E+00  3.06077E+00
   2.98515E+00  2.91187E+00  2.84080E+00  2.77181E+00  2.70477E+00  2.63957E+00  2.57611E+00  2.51429E+00  2.45402E+00  2.39522E+00
   2.33779E+00  2.28167E+00  2.22678E+00  2.17308E+00  2.12048E+00  2.06894E+00  2.01840E+00  1.96880E+00  1.92010E+00  1.87227E+00
   1.82524E+00  1.77899E+00  1.73347E+00  1.68864E+00  1.64449E+00  1.60097E+00  1.55804E+00  1.51569E+00  1.47388E+00  1.43259E+00
   1.39179E+00  1.35146E+00  1.31156E+00  1.27209E+00  1.23302E+00  1.19432E+00  1.15598E+00  1.11797E+00  1.08028E+00  1.04287E+00
   1.00574E+00  9.68866E-01  9.32218E-01  8.95775E-01  8.59513E-01  8.23410E-01  7.87437E-01  7.51568E-01
 NY background values follow
    -4.122E+00   -4.108E+00   -4.095E+00   -4.082E+00   -4.069E+00   -4.056E+00   -4.042E+00   -4.029E+00   -4.016E+00   -4.003E+00
    -3.989E+00   -3.976E+00   -3.963E+00   -3.949E+00   -3.936E+00   -3.923E+00   -3.909E+00   -3.896E+00   -3.883E+00   -3.869E+00
    -3.856E+00   -3.842E+00   -3.829E+00   -3.815E+00   -3.802E+00   -3.788E+00   -3.775E+00   -3.761E+00   -3.748E+00   -3.734E+00
    -3.721E+00   -3.707E+00   -3.694E+00   -3.680E+00   -3.666E+00   -3.653E+00   -3.639E+00   -3.625E+00   -3.612E+00   -3.598E+00
    -3.584E+00   -3.571E+00   -3.557E+00   -3.543E+00   -3.529E+00   -3.515E+00   -3.502E+00   -3.488E+00   -3.474E+00   -3.460E+00
    -3.446E+00   -3.432E+00   -3.419E+00   -3.405E+00   -3.391E+00   -3.377E+00   -3.363E+00   -3.349E+00   -3.335E+00   -3.321E+00
    -3.307E+00   -3.293E+00   -3.279E+00   -3.265E+00   -3.250E+00   -3.236E+00   -3.222E+00   -3.208E+00   -3.194E+00   -3.180E+00
    -3.166E+00   -3.151E+00   -3.137E+00   -3.123E+00   -3.109E+00   -3.094E+00   -3.080E+00   -3.066E+00   -3.051E+00   -3.037E+00
    -3.023E+00   -3.008E+00   -2.994E+00   -2.979E+00   -2.965E+00   -2.951E+00   -2.936E+00   -2.922E+00   -2.907E+00   -2.893E+00
    -2.878E+00   -2.864E+00   -2.849E+00   -2.834E+00   -2.820E+00   -2.805E+00   -2.790E+00   -2.776E+00   -2.761E+00   -2.746E+00
    -2.732E+00   -2.717E+00   -2.702E+00   -2.687E+00   -2.673E+00   -2.658E+00   -2.643E+00   -2.628E+00   -2.613E+00   -2.598E+00
    -2.583E+00   -2.569E+00   -2.554E+00   -2.539E+00   -2.524E+00   -2.509E+00   -2.494E+00   -2.479E+00   -2.464E+00   -2.448E+00
    -2.433E+00   -2.418E+00   -2.403E+00   -2.388E+00   -2.373E+00   -2.358E+00   -2.342E+00   -2.327E+00   -2.312E+00   -2.297E+00
    -2.281E+00   -2.266E+00   -2.251E+00   -2.235E+00   -2.220E+00   -2.205E+00   -2.189E+00   -2.174E+00   -2.158E+00   -2.143E+00
    -2.127E+00   -2.112E+00   -2.096E+00   -2.081E+00   -2.065E+00   -2.050E+00   -2.034E+00   -2.018E+00   -2.003E+00   -1.987E+00
    -1.971E+00   -1.956E+00   -1.940E+00   -1.924E+00   -1.908E+00   -1.893E+00   -1.877E+00   -1.861E+00   -1.845E+00   -1.829E+00
    -1.813E+00   -1.797E+00   -1.781E+00   -1.765E+00   -1.749E+00   -1.733E+00   -1.717E+00   -1.701E+00   -1.685E+00   -1.669E+00
    -1.653E+00   -1.637E+00   -1.621E+00   -1.605E+00   -1.588E+00   -1.572E+00   -1.556E+00   -1.540E+00   -1.524E+00   -1.507E+00
    -1.491E+00   -1.475E+00   -1.459E+00   -1.442E+00   -1.426E+00   -1.410E+00   -1.394E+00   -1.378E+00   -1.361E+00   -1.345E+00
    -1.329E+00   -1.313E+00   -1.297E+00   -1.280E+00   -1.264E+00   -1.248E+00   -1.232E+00   -1.216E+00   -1.200E+00   -1.184E+00
    -1.168E+00   -1.152E+00   -1.136E+00   -1.120E+00   -1.104E+00   -1.088E+00   -1.072E+00   -1.056E+00   -1.040E+00   -1.024E+00
    -1.009E+00   -9.928E-01   -9.770E-01   -9.614E-01   -9.457E-01   -9.301E-01   -9.145E-01   -8.990E-01   -8.835E-01   -8.681E-01
    -8.527E-01   -8.373E-01   -8.220E-01   -8.068E-01   -7.916E-01   -7.764E-01   -7.613E-01   -7.463E-01   -7.313E-01   -7.163E-01
    -7.015E-01   -6.866E-01   -6.719E-01   -6.572E-01   -6.425E-01   -6.279E-01   -6.134E-01   -5.990E-01   -5.846E-01   -5.703E-01
    -5.561E-01   -5.419E-01   -5.278E-01   -5.138E-01   -4.998E-01   -4.859E-01   -4.721E-01   -4.584E-01   -4.448E-01   -4.312E-01
    -4.177E-01   -4.043E-01   -3.910E-01   -3.778E-01   -3.647E-01   -3.516E-01   -3.386E-01   -3.258E-01   -3.130E-01   -3.003E-01
    -2.877E-01   -2.752E-01   -2.628E-01   -2.505E-01   -2.383E-01   -2.262E-01   -2.142E-01   -2.023E-01   -1.905E-01   -1.788E-01
    -1.672E-01   -1.557E-01   -1.444E-01   -1.331E-01   -1.220E-01   -1.109E-01   -1.000E-01   -8.919E-02   -7.850E-02   -6.793E-02
    -5.747E-02   -4.714E-02   -3.692E-02   -2.683E-02   -1.686E-02   -7.016E-03    2.703E-03    1.230E-02    2.176E-02    3.109E-02
     4.030E-02    4.937E-02    5.831E-02    6.711E-02    7.578E-02    8.431E-02    9.271E-02    1.010E-01    1.091E-01    1.171E-01
     1.249E-01    1.326E-01    1.401E-01    1.475E-01    1.548E-01    1.619E-01    1.688E-01    1.756E-01    1.822E-01    1.887E-01
     1.951E-01    2.013E-01    2.073E-01    2.131E-01    2.188E-01    2.244E-01    2.298E-01    2.350E-01    2.401E-01    2.449E-01
     2.497E-01    2.542E-01    2.586E-01    2.628E-01    2.669E-01    2.707E-01    2.744E-01    2.780E-01    2.813E-01    2.845E-01
     2.875E-01    2.903E-01    2.929E-01    2.954E-01    2.976E-01    2.997E-01    3.016E-01    3.034E-01    3.049E-01    3.063E-01
     3.075E-01    3.085E-01    3.094E-01    3.101E-01    3.106E-01    3.109E-01    3.111E-01    3.110E-01    3.109E-01    3.105E-01
     3.100E-01    3.093E-01    3.085E-01    3.075E-01    3.063E-01    3.049E-01    3.034E-01    3.017E-01    2.999E-01    2.979E-01
     2.957E-01    2.934E-01    2.909E-01    2.883E-01    2.855E-01    2.825E-01    2.794E-01    2.762E-01    2.727E-01    2.692E-01
     2.654E-01    2.615E-01    2.575E-01    2.533E-01    2.490E-01    2.445E-01    2.398E-01    2.350E-01    2.301E-01    2.250E-01
     2.198E-01    2.144E-01    2.089E-01    2.032E-01    1.974E-01    1.914E-01    1.853E-01    1.791E-01    1.727E-01    1.662E-01
     1.596E-01    1.528E-01    1.458E-01    1.388E-01    1.315E-01    1.242E-01    1.167E-01    1.091E-01    1.014E-01    9.349E-02
     8.548E-02    7.734E-02    6.907E-02    6.067E-02    5.214E-02    4.348E-02    3.469E-02    2.578E-02    1.674E-02    7.578E-03
    -1.710E-03   -1.112E-02   -2.066E-02   -3.032E-02   -4.009E-02   -4.999E-02   -6.002E-02   -7.015E-02   -8.041E-02   -9.079E-02
    -1.013E-01   -1.119E-01   -1.226E-01   -1.335E-01   -1.444E-01   -1.555E-01   -1.667E-01   -1.780E-01   -1.894E-01   -2.009E-01
    -2.125E-01   -2.242E-01   -2.361E-01   -2.480E-01   -2.601E-01   -2.722E-01   -2.845E-01   -2.969E-01   -3.094E-01   -3.219E-01
    -3.346E-01   -3.474E-01   -3.603E-01   -3.733E-01   -3.864E-01   -3.996E-01   -4.128E-01   -4.262E-01   -4.397E-01   -4.533E-01
    -4.669E-01   -4.807E-01   -4.946E-01   -5.085E-01   -5.225E-01   -5.367E-01   -5.509E-01   -5.652E-01   -5.796E-01   -5.941E-01
    -6.087E-01   -6.233E-01   -6.381E-01   -6.529E-01   -6.679E-01   -6.829E-01   -6.980E-01   -7.131E-01   -7.284E-01   -7.437E-01
    -7.591E-01   -7.746E-01   -7.902E-01   -8.059E-01   -8.216E-01   -8.374E-01   -8.533E-01   -8.692E-01   -8.853E-01   -9.014E-01
    -9.176E-01   -9.338E-01   -9.501E-01   -9.665E-01   -9.830E-01   -9.995E-01   -1.016E+00   -1.033E+00   -1.050E+00   -1.066E+00
    -1.083E+00   -1.100E+00   -1.117E+00   -1.134E+00   -1.151E+00   -1.169E+00   -1.186E+00   -1.203E+00
 Ala      Conc. = 1.56E+02
