 LCModel (Version 6.3-1L) Copyright: S.W. Provencher.          Ref.: Magn. Reson. Med. 30:672-679 (1993).                
 Slice#2 Row#10 Col#6  PD_05_press_1_raw_act
 36 lines in following concentration table = NCONC+1
    Conc.  %SD /Cr+PCr  Metabolite                                         
   38.368 195% 2.9E-02 Ala                                                 
    0.000 999%   0.000 Asp                                                 
  310.196  49%   0.237 Cr                                                  
  998.920  16%   0.763 PCr                                                 
    0.000 999%   0.000 GABA                                                
    7.581 999% 5.8E-03 Glc                                                 
  587.079  27%   0.448 Gln                                                 
 1.65E+03  11%   1.262 Glu                                                 
  533.070   3%   0.407 GPC                                                 
    0.000 999%   0.000 PCh                                                 
  423.539  13%   0.324 GSH                                                 
 1.15E+03  17%   0.880 Ins                                                 
   17.665 500% 1.3E-02 Lac                                                 
 2.33E+03   5%   1.779 NAA                                                 
  462.960  21%   0.354 NAAG                                                
  121.770  18% 9.3E-02 Scyllo                                              
    0.000 999%   0.000 Tau                                                 
  157.879  53%   0.121 -CrCH2                                              
  533.070   3%   0.407 GPC+PCh                                             
 2.79E+03   2%   2.133 NAA+NAAG                                            
 1.31E+03   3%   1.000 Cr+PCr                                              
 2.24E+03  11%   1.710 Glu+Gln                                             
  393.281 136%   0.300 Lip13a                                              
  249.273 136%   0.190 Lip13b                                              
    0.000 999%   0.000 Lip09                                               
 1.18E+03  15%   0.898 MM09                                                
   99.515 111% 7.6E-02 Lip20                                               
 2.35E+03  13%   1.795 MM20                                                
  369.771  33%   0.282 MM12                                                
 1.08E+03  26%   0.826 MM14                                                
  763.555  27%   0.583 MM17                                                
  642.555  47%   0.491 Lip13a+Lip13b                                       
 2.09E+03  18%   1.599 MM14+Lip13a+Lip13b+MM12                             
 1.18E+03  15%   0.898 MM09+Lip09                                          
 2.45E+03  13%   1.871 MM20+Lip20                                          
   6 lines in following misc. output table
  FWHM = 0.046 ppm    S/N =  20                                            
  Data shift = 0.015 ppm                                                   
  Ph: -28 deg     -10.3 deg/ppm                                            
  alphaB,S = 7.9E-01,   9.1E+01                                            
   14 spline knots.   Ns = 7(1)                                            
  ( 7) 2 infls.   ( 3) 1 extrs.                                            
  498 points on ppm-axis = NY
      4.000000     3.992357     3.984714     3.977070     3.969427     3.961784     3.954141     3.946497     3.938854     3.931211
      3.923568     3.915925     3.908281     3.900638     3.892995     3.885352     3.877708     3.870065     3.862422     3.854779
      3.847136     3.839492     3.831849     3.824206     3.816563     3.808919     3.801276     3.793633     3.785990     3.778347
      3.770703     3.763060     3.755417     3.747774     3.740130     3.732487     3.724844     3.717201     3.709558     3.701914
      3.694271     3.686628     3.678985     3.671341     3.663698     3.656055     3.648412     3.640769     3.633125     3.625482
      3.617839     3.610196     3.602552     3.594909     3.587266     3.579623     3.571980     3.564336     3.556693     3.549050
      3.541407     3.533763     3.526120     3.518477     3.510834     3.503191     3.495547     3.487904     3.480261     3.472618
      3.464974     3.457331     3.449688     3.442045     3.434402     3.426758     3.419115     3.411472     3.403829     3.396185
      3.388542     3.380899     3.373256     3.365613     3.357969     3.350326     3.342683     3.335040     3.327396     3.319753
      3.312110     3.304467     3.296824     3.289180     3.281537     3.273894     3.266251     3.258607     3.250964     3.243321
      3.235678     3.228034     3.220391     3.212748     3.205105     3.197462     3.189818     3.182175     3.174532     3.166889
      3.159245     3.151602     3.143959     3.136316     3.128673     3.121029     3.113386     3.105743     3.098100     3.090456
      3.082813     3.075170     3.067527     3.059884     3.052240     3.044597     3.036954     3.029311     3.021667     3.014024
      3.006381     2.998738     2.991095     2.983451     2.975808     2.968165     2.960522     2.952878     2.945235     2.937592
      2.929949     2.922306     2.914662     2.907019     2.899376     2.891733     2.884089     2.876446     2.868803     2.861160
      2.853517     2.845873     2.838230     2.830587     2.822944     2.815300     2.807657     2.800014     2.792371     2.784728
      2.777084     2.769441     2.761798     2.754155     2.746511     2.738868     2.731225     2.723582     2.715939     2.708295
      2.700652     2.693009     2.685366     2.677722     2.670079     2.662436     2.654793     2.647150     2.639506     2.631863
      2.624220     2.616577     2.608933     2.601290     2.593647     2.586004     2.578361     2.570717     2.563074     2.555431
      2.547788     2.540144     2.532501     2.524858     2.517215     2.509572     2.501928     2.494285     2.486642     2.478999
      2.471355     2.463712     2.456069     2.448426     2.440783     2.433139     2.425496     2.417853     2.410210     2.402566
      2.394923     2.387280     2.379637     2.371994     2.364350     2.356707     2.349064     2.341421     2.333777     2.326134
      2.318491     2.310848     2.303205     2.295561     2.287918     2.280275     2.272632     2.264988     2.257345     2.249702
      2.242059     2.234416     2.226772     2.219129     2.211486     2.203843     2.196199     2.188556     2.180913     2.173270
      2.165627     2.157983     2.150340     2.142697     2.135054     2.127410     2.119767     2.112124     2.104481     2.096838
      2.089194     2.081551     2.073908     2.066265     2.058621     2.050978     2.043335     2.035692     2.028049     2.020405
      2.012762     2.005119     1.997476     1.989833     1.982190     1.974546     1.966903     1.959260     1.951617     1.943974
      1.936331     1.928688     1.921045     1.913402     1.905759     1.898115     1.890472     1.882829     1.875186     1.867543
      1.859900     1.852257     1.844614     1.836971     1.829327     1.821684     1.814041     1.806398     1.798755     1.791112
      1.783469     1.775826     1.768183     1.760540     1.752896     1.745253     1.737610     1.729967     1.722324     1.714681
      1.707038     1.699395     1.691752     1.684108     1.676465     1.668822     1.661179     1.653536     1.645893     1.638250
      1.630607     1.622964     1.615321     1.607677     1.600034     1.592391     1.584748     1.577105     1.569462     1.561819
      1.554176     1.546533     1.538890     1.531246     1.523603     1.515960     1.508317     1.500674     1.493031     1.485388
      1.477745     1.470102     1.462458     1.454815     1.447172     1.439529     1.431886     1.424243     1.416600     1.408957
      1.401314     1.393671     1.386027     1.378384     1.370741     1.363098     1.355455     1.347812     1.340169     1.332526
      1.324883     1.317240     1.309596     1.301953     1.294310     1.286667     1.279024     1.271381     1.263738     1.256095
      1.248452     1.240808     1.233165     1.225522     1.217879     1.210236     1.202593     1.194950     1.187307     1.179664
      1.172021     1.164377     1.156734     1.149091     1.141448     1.133805     1.126162     1.118519     1.110876     1.103233
      1.095590     1.087946     1.080303     1.072660     1.065017     1.057374     1.049731     1.042088     1.034445     1.026802
      1.019158     1.011515     1.003872     0.996229     0.988586     0.980943     0.973300     0.965657     0.958014     0.950371
      0.942727     0.935084     0.927441     0.919798     0.912155     0.904512     0.896869     0.889226     0.881583     0.873940
      0.866296     0.858653     0.851010     0.843367     0.835724     0.828081     0.820438     0.812795     0.805152     0.797508
      0.789865     0.782222     0.774579     0.766936     0.759293     0.751650     0.744007     0.736364     0.728721     0.721077
      0.713434     0.705791     0.698148     0.690505     0.682862     0.675219     0.667576     0.659933     0.652290     0.644646
      0.637003     0.629360     0.621717     0.614074     0.606431     0.598788     0.591145     0.583502     0.575858     0.568215
      0.560572     0.552929     0.545286     0.537643     0.530000     0.522357     0.514714     0.507071     0.499427     0.491784
      0.484141     0.476498     0.468855     0.461212     0.453569     0.445925     0.438282     0.430639     0.422996     0.415353
      0.407710     0.400067     0.392424     0.384780     0.377137     0.369494     0.361851     0.354208     0.346565     0.338922
      0.331278     0.323635     0.315992     0.308349     0.300706     0.293063     0.285420     0.277777     0.270133     0.262490
      0.254847     0.247204     0.239561     0.231918     0.224275     0.216631     0.208988     0.201345
 NY phased data points follow
  -3.20443E+01 -3.05230E+01 -3.26876E+01 -2.82396E+01 -2.38152E+01 -2.09846E+01 -1.69779E+01 -1.03708E+01 -6.10498E+00 -1.25877E+00
   1.96078E+00 -7.78633E-01 -2.28508E+00 -7.45452E+00 -1.32383E+01 -1.51415E+01 -2.40749E+01 -2.68120E+01 -2.48460E+01 -2.12768E+01
  -2.58791E+01 -2.30695E+01 -2.17496E+01 -2.08683E+01 -2.02780E+01 -1.97950E+01 -1.83746E+01 -1.78065E+01 -1.57821E+01 -1.44049E+01
  -1.27315E+01 -1.29713E+01 -1.34409E+01 -1.31189E+01 -1.53116E+01 -1.78020E+01 -1.66222E+01 -1.43039E+01 -1.41511E+01 -1.46255E+01
  -1.33671E+01 -1.38573E+01 -1.59576E+01 -1.21580E+01 -1.24703E+01 -1.16946E+01 -9.22978E+00 -7.26192E+00 -8.48236E+00 -9.21520E+00
  -9.42569E+00 -1.45729E+01 -1.77499E+01 -1.63568E+01 -1.81967E+01 -1.64452E+01 -1.24581E+01 -1.65281E+01 -1.47949E+01 -1.61597E+01
  -1.55579E+01 -1.34808E+01 -1.70324E+01 -1.99006E+01 -1.74739E+01 -2.02797E+01 -1.85160E+01 -2.06713E+01 -1.79267E+01 -1.76181E+01
  -1.54319E+01 -1.77685E+01 -1.58055E+01 -1.83659E+01 -1.55647E+01 -1.53687E+01 -1.58356E+01 -1.52578E+01 -1.68359E+01 -1.47527E+01
  -1.47150E+01 -1.46398E+01 -1.44734E+01 -1.13986E+01 -1.46258E+01 -1.42814E+01 -1.04570E+01 -8.07849E+00 -1.02840E+01 -1.38440E+01
  -8.67566E+00 -9.81000E+00 -8.44816E+00 -8.82963E+00 -7.77188E+00 -6.67330E+00 -8.53907E+00 -6.08551E+00 -5.31028E+00  2.36506E+00
   1.80955E+01  2.72967E+01  3.55462E+01  3.75844E+01  3.14521E+01  2.40291E+01  1.25792E+01  1.06717E+01  6.35956E+00 -2.36457E+00
  -4.94619E+00 -6.88976E+00 -7.71247E+00 -7.17298E+00 -8.32827E+00 -7.27639E+00 -7.06958E+00 -5.94366E+00 -8.50563E+00 -7.55635E+00
  -7.76536E+00 -5.12686E+00 -3.45518E+00  5.12262E+00  1.02262E+01  2.28609E+01  3.26539E+01  3.69141E+01  3.25001E+01  2.87267E+01
   1.71173E+01  1.07696E+01  5.26671E+00 -1.14063E+00 -4.81797E+00 -6.60278E+00 -1.01868E+01 -9.37829E+00 -1.12061E+01 -9.12015E+00
  -1.09892E+01 -1.01664E+01 -8.65158E+00 -8.93401E+00 -8.93992E+00 -8.45187E+00 -1.00167E+01 -1.04548E+01 -9.40084E+00 -1.33052E+01
  -1.19435E+01 -8.82790E+00 -8.44664E+00 -1.04064E+01 -1.08306E+01 -8.50646E+00 -1.14109E+01 -8.62586E+00 -6.02295E+00 -1.29343E+01
  -1.14876E+01 -1.45523E+01 -1.46045E+01 -1.32645E+01 -9.40355E+00 -1.33394E+01 -1.04284E+01 -1.07267E+01 -1.57966E+01 -1.51287E+01
  -1.33027E+01 -1.26267E+01 -1.42631E+01 -1.93068E+01 -1.95017E+01 -2.20873E+01 -2.18141E+01 -1.65172E+01 -1.77438E+01 -1.52920E+01
  -1.93976E+01 -2.07652E+01 -1.54915E+01 -1.62019E+01 -1.42803E+01 -1.64093E+01 -1.46286E+01 -1.22070E+01 -6.96964E+00 -6.79639E+00
  -5.28121E+00 -2.70518E+00 -5.11978E+00 -3.07017E+00 -3.28844E+00 -4.23469E+00 -6.71455E+00 -1.00004E+01 -9.71515E+00 -9.55659E+00
  -9.54286E+00 -5.68186E+00 -2.56025E+00 -2.87150E+00 -1.22063E+00 -3.53743E+00 -6.29563E+00 -6.06542E+00 -1.11589E+01 -1.06205E+01
  -8.24713E+00 -6.73975E+00 -4.33971E+00 -4.25465E-01  2.77261E+00  7.26113E+00  8.59924E+00  8.20722E+00  3.80710E+00 -3.82104E+00
  -8.09296E+00 -5.03752E+00 -1.08553E+01 -7.81541E+00 -3.95136E+00 -1.40890E+00  1.36866E+00  3.92496E+00  2.38849E+00  2.23951E+00
   3.62512E+00  3.62676E+00  1.34157E+00  3.72745E+00  5.03377E+00  9.38191E-01  3.53718E+00  3.31517E+00  5.19727E+00  3.54953E-01
   2.32395E+00 -3.80337E-01 -3.76773E+00  1.51350E+00  3.51543E+00  5.31082E+00  6.38787E+00  9.21250E+00  5.74413E+00  7.41685E+00
   7.95902E+00  1.17371E+01  1.21158E+01  2.05608E+01  2.97688E+01  3.84843E+01  4.55965E+01  5.09758E+01  6.57490E+01  8.55488E+01
   1.01426E+02  9.36771E+01  7.66653E+01  5.59334E+01  4.46119E+01  3.51735E+01  2.32961E+01  1.77187E+01  1.11569E+01  5.38900E+00
   7.56042E+00  4.06818E+00  5.54588E+00  2.37216E+00  4.40506E+00  2.31065E+00  3.19912E+00  1.12035E+00 -7.54946E-01  2.14820E+00
   1.53769E+00  3.14997E+00  8.70847E-01  2.80925E+00  2.72953E+00 -5.06045E-01  3.58354E+00 -1.47519E+00  1.72847E+00  6.04201E-01
   1.24765E+00  2.78064E+00  5.12521E-01  1.66655E+00  1.62100E+00  1.01937E+00  1.22471E+00 -1.90958E-01  3.79703E+00  9.32706E-01
   2.23702E+00  1.03221E+00  1.91242E+00  2.98402E+00  2.87584E+00  1.60226E+00  5.37735E+00  3.11437E+00  4.05207E+00  4.74905E+00
   5.06938E+00  8.06952E+00  4.24410E+00  8.47942E+00  1.23725E+01  5.33511E+00  5.17620E+00  7.93107E+00  7.88052E+00  6.28418E+00
   7.88127E+00  9.51010E+00  5.15828E+00  6.81657E+00  7.33344E+00  6.89617E+00  7.56777E+00  7.43266E+00  5.41120E+00  4.77209E+00
   6.14019E+00  7.42532E+00  6.37530E+00  7.89409E+00  4.36184E+00  5.13641E+00  4.81407E+00  4.63963E+00  4.00288E+00  6.68106E+00
   7.43121E+00  7.52491E+00  5.86643E+00  4.65087E+00  6.11526E+00  1.09802E+01  9.22378E+00  9.01634E+00  6.98044E+00  7.47444E+00
   9.02948E+00  7.39257E+00  8.58278E+00  6.72355E+00  7.83617E+00  1.06400E+01  1.16009E+01  5.96841E+00  5.15922E+00  5.21932E+00
   7.39488E+00  5.19570E+00  3.86497E+00  3.22663E+00  4.72604E+00  4.66795E+00  6.66904E+00  5.30394E+00  5.70973E+00  8.96539E+00
   5.18700E+00  3.01339E+00  5.03447E+00  2.54003E+00  4.77231E+00  7.36596E+00  5.63910E+00  1.65570E-01  4.29950E+00  7.45854E-01
   2.41945E+00 -5.88549E-01  1.02112E+00  1.11457E+00 -1.24468E+00  2.19971E+00  4.16847E+00  3.83089E+00  1.11315E+00 -6.80002E-01
   8.77864E-01  5.69181E+00  4.36335E+00  9.42595E+00  7.28187E+00  4.87298E+00  4.02328E+00  8.87410E+00  8.73306E+00  3.38581E+00
   8.85328E+00  6.31488E+00  8.05267E+00  7.68507E+00  9.70241E+00  9.18308E+00  9.37789E+00  1.38793E+01  1.13072E+01  1.11048E+01
   9.65289E+00  9.85465E+00  1.07695E+01  1.24473E+01  6.11837E+00  9.89158E+00  7.65215E+00  4.09873E+00  7.13590E+00  6.16734E+00
   5.34725E+00  7.52968E+00  4.59731E+00  3.48325E+00  5.30114E+00  5.14062E+00  3.61114E+00 -3.59189E-01  2.36506E+00  2.64561E+00
   2.76151E+00  3.69373E+00  2.99303E+00  4.09662E+00  4.08050E+00  3.90815E+00  5.29087E+00  4.39814E+00  3.29061E+00  5.94924E+00
   1.48852E+00  4.01061E+00  3.03323E+00  2.76416E+00  2.37156E+00  1.97822E+00  7.47680E-01  6.52739E-02  1.96290E+00  3.44496E+00
   1.75408E+00  3.23134E+00  3.25792E+00  1.15013E+00  4.99269E+00  5.01533E+00  1.72747E+00  3.39962E+00  2.62836E+00 -1.13578E+00
   3.99725E+00  4.97752E+00  2.02945E+00  2.92719E+00  3.23980E+00  5.02117E+00 -1.49217E+00  4.23133E+00  1.91615E+00 -3.30020E-02
   2.64215E+00  3.78593E+00  5.23074E+00  3.69200E+00  4.30788E+00  2.37208E+00  1.88629E+00  3.60046E+00  2.18126E+00  5.03550E+00
   9.79939E-01  3.64979E+00  2.92399E+00  3.37338E+00  4.54029E+00  5.29173E+00  3.79220E+00  1.30593E+00 -1.07012E-01  3.46215E+00
   5.71289E+00  1.33989E+00  2.69378E+00  2.97500E+00  3.11741E+00  1.73870E+00  5.93606E+00  9.56603E-01
 NY points of the fit to the data follow
  -2.86652E+01 -2.86005E+01 -2.77801E+01 -2.61557E+01 -2.40589E+01 -2.12259E+01 -1.70677E+01 -1.12768E+01 -4.84642E+00 -7.97717E-02
   1.07726E+00 -1.31574E+00 -5.44989E+00 -9.43937E+00 -1.26324E+01 -1.52504E+01 -1.75415E+01 -1.96091E+01 -2.11247E+01 -2.18776E+01
  -2.21790E+01 -2.23536E+01 -2.23617E+01 -2.20897E+01 -2.17998E+01 -2.13612E+01 -2.03970E+01 -1.85520E+01 -1.59168E+01 -1.33163E+01
  -1.15880E+01 -1.09455E+01 -1.11812E+01 -1.20433E+01 -1.35741E+01 -1.56381E+01 -1.76135E+01 -1.91787E+01 -2.00505E+01 -1.99940E+01
  -1.92616E+01 -1.81609E+01 -1.70020E+01 -1.56948E+01 -1.38954E+01 -1.16523E+01 -9.63540E+00 -8.82966E+00 -9.66458E+00 -1.15392E+01
  -1.35521E+01 -1.51734E+01 -1.62817E+01 -1.70065E+01 -1.74392E+01 -1.75571E+01 -1.72792E+01 -1.65997E+01 -1.57270E+01 -1.50044E+01
  -1.47509E+01 -1.50757E+01 -1.57780E+01 -1.65271E+01 -1.70308E+01 -1.71478E+01 -1.69630E+01 -1.66177E+01 -1.61610E+01 -1.56225E+01
  -1.50579E+01 -1.45930E+01 -1.43740E+01 -1.44025E+01 -1.45570E+01 -1.47038E+01 -1.47880E+01 -1.48365E+01 -1.48504E+01 -1.48296E+01
  -1.46311E+01 -1.42467E+01 -1.38635E+01 -1.33412E+01 -1.24494E+01 -1.11766E+01 -9.94439E+00 -9.41792E+00 -9.87903E+00 -1.08682E+01
  -1.17178E+01 -1.21146E+01 -1.22096E+01 -1.22100E+01 -1.20736E+01 -1.13138E+01 -9.05616E+00 -6.05832E+00 -2.21666E+00  4.25748E+00
   1.45867E+01  2.70704E+01  3.67626E+01  3.88435E+01  3.30900E+01  2.36909E+01  1.50023E+01  8.32847E+00  2.71160E+00 -2.30082E+00
  -6.52213E+00 -9.64022E+00 -1.10183E+01 -1.14060E+01 -1.15111E+01 -1.15053E+01 -1.14437E+01 -1.13317E+01 -1.11145E+01 -1.04577E+01
  -8.36933E+00 -5.33009E+00 -1.91736E+00  3.18382E+00  1.15424E+01  2.26940E+01  3.28732E+01  3.70105E+01  3.34371E+01  2.53859E+01
   1.74005E+01  1.13914E+01  6.34441E+00  1.23049E+00 -3.69406E+00 -7.82527E+00 -1.00304E+01 -1.04354E+01 -1.00549E+01 -9.38268E+00
  -8.75669E+00 -8.40107E+00 -8.32437E+00 -8.43399E+00 -8.64211E+00 -8.86426E+00 -9.09630E+00 -9.36953E+00 -9.64807E+00 -9.91758E+00
  -1.01545E+01 -1.03645E+01 -1.05485E+01 -1.06840E+01 -1.07640E+01 -1.07362E+01 -1.06135E+01 -1.05700E+01 -1.07741E+01 -1.13261E+01
  -1.20207E+01 -1.23707E+01 -1.21098E+01 -1.14932E+01 -1.10611E+01 -1.11948E+01 -1.18141E+01 -1.25365E+01 -1.30620E+01 -1.33471E+01
  -1.35502E+01 -1.37241E+01 -1.40106E+01 -1.45443E+01 -1.52015E+01 -1.56197E+01 -1.54479E+01 -1.47779E+01 -1.41733E+01 -1.40739E+01
  -1.43793E+01 -1.45158E+01 -1.41018E+01 -1.34244E+01 -1.28773E+01 -1.24653E+01 -1.17977E+01 -1.04083E+01 -8.41704E+00 -6.46377E+00
  -5.18742E+00 -4.85718E+00 -5.21053E+00 -5.86067E+00 -6.52075E+00 -6.98740E+00 -7.17674E+00 -6.94297E+00 -6.21822E+00 -5.13911E+00
  -3.89611E+00 -2.62715E+00 -1.49498E+00 -8.46244E-01 -9.14364E-01 -1.95376E+00 -3.98256E+00 -6.50854E+00 -8.73128E+00 -9.90085E+00
  -9.82052E+00 -8.74294E+00 -6.73715E+00 -3.74290E+00 -2.26513E-01  2.54588E+00  3.23087E+00  1.67727E+00 -1.19904E+00 -4.65607E+00
  -8.03873E+00 -1.06621E+01 -1.16330E+01 -1.03825E+01 -7.53362E+00 -4.26039E+00 -1.49667E+00  4.02679E-01  1.53139E+00  1.98830E+00
   2.06487E+00  2.06866E+00  2.20219E+00  2.58363E+00  3.19011E+00  3.82151E+00  4.28235E+00  4.44168E+00  4.18826E+00  3.51344E+00
   2.53677E+00  1.64733E+00  1.33805E+00  1.91206E+00  3.16149E+00  4.51374E+00  5.60919E+00  6.37497E+00  7.08850E+00  8.14469E+00
   9.36760E+00  1.10539E+01  1.40651E+01  2.01730E+01  2.93329E+01  3.73866E+01  4.42512E+01  5.37702E+01  6.89869E+01  8.66062E+01
   9.71091E+01  9.31913E+01  7.76767E+01  5.94750E+01  4.49786E+01  3.43956E+01  2.51759E+01  1.69809E+01  1.01141E+01  5.43186E+00
   3.81440E+00  3.26021E+00  3.05079E+00  3.00819E+00  2.96233E+00  2.78478E+00  2.51670E+00  2.23351E+00  1.97607E+00  1.74428E+00
   1.54587E+00  1.39849E+00  1.30590E+00  1.24291E+00  1.17884E+00  1.10497E+00  1.02611E+00  9.51720E-01  8.93415E-01  8.69694E-01
   8.94609E-01  9.67743E-01  1.06933E+00  1.18006E+00  1.29132E+00  1.40844E+00  1.53725E+00  1.68194E+00  1.85372E+00  2.06510E+00
   2.32007E+00  2.61531E+00  2.93956E+00  3.28355E+00  3.64127E+00  4.00592E+00  4.37140E+00  4.73168E+00  5.07826E+00  5.40575E+00
   5.70801E+00  5.97880E+00  6.21391E+00  6.41083E+00  6.56824E+00  6.68604E+00  6.76580E+00  6.81131E+00  6.82919E+00  6.82932E+00
   6.82411E+00  6.80702E+00  6.77630E+00  6.75394E+00  6.74653E+00  6.72495E+00  6.63488E+00  6.44487E+00  6.20503E+00  6.00585E+00
   5.88485E+00  5.83848E+00  5.86182E+00  5.97554E+00  6.18338E+00  6.42486E+00  6.61929E+00  6.72158E+00  6.74775E+00  6.74979E+00
   6.75413E+00  6.75550E+00  6.75571E+00  6.77052E+00  6.81805E+00  6.90270E+00  6.99554E+00  7.07727E+00  7.16600E+00  7.28858E+00
   7.45034E+00  7.63616E+00  7.82428E+00  7.99785E+00  8.13022E+00  8.17501E+00  8.09780E+00  7.89549E+00  7.59443E+00  7.23320E+00
   6.83757E+00  6.42693E+00  6.02082E+00  5.63408E+00  5.28211E+00  4.97035E+00  4.69465E+00  4.45038E+00  4.23305E+00  4.03838E+00
   3.86257E+00  3.70246E+00  3.55603E+00  3.42243E+00  3.30189E+00  3.19504E+00  3.10258E+00  3.02525E+00  2.96418E+00  2.92083E+00
   2.89693E+00  2.89398E+00  2.91332E+00  2.95628E+00  3.02461E+00  3.12032E+00  3.24548E+00  3.40178E+00  3.59069E+00  3.81351E+00
   4.07154E+00  4.36564E+00  4.69582E+00  5.06085E+00  5.45836E+00  5.88485E+00  6.33576E+00  6.80497E+00  7.28469E+00  7.76555E+00
   8.23714E+00  8.68845E+00  9.10826E+00  9.48525E+00  9.80848E+00  1.00680E+01  1.02557E+01  1.03658E+01  1.03950E+01  1.03423E+01
   1.02094E+01  1.00002E+01  9.72163E+00  9.38247E+00  8.99305E+00  8.56435E+00  8.10771E+00  7.63443E+00  7.15552E+00  6.68103E+00
   6.21961E+00  5.77816E+00  5.36207E+00  4.97534E+00  4.62074E+00  4.29963E+00  4.01206E+00  3.75699E+00  3.53280E+00  3.33756E+00
   3.16916E+00  3.02516E+00  2.90292E+00  2.79972E+00  2.71326E+00  2.64150E+00  2.58271E+00  2.53506E+00  2.49688E+00  2.46666E+00
   2.44334E+00  2.42610E+00  2.41423E+00  2.40685E+00  2.40318E+00  2.40261E+00  2.40488E+00  2.40974E+00  2.41689E+00  2.42585E+00
   2.43626E+00  2.44791E+00  2.46083E+00  2.47494E+00  2.49008E+00  2.50592E+00  2.52232E+00  2.53929E+00  2.55696E+00  2.57526E+00
   2.59403E+00  2.61303E+00  2.63227E+00  2.65184E+00  2.67188E+00  2.69225E+00  2.71280E+00  2.73337E+00  2.75407E+00  2.77503E+00
   2.79631E+00  2.81775E+00  2.83920E+00  2.86062E+00  2.88218E+00  2.90397E+00  2.92601E+00  2.94807E+00  2.97009E+00  2.99208E+00
   3.01426E+00  3.03666E+00  3.05922E+00  3.08174E+00  3.10422E+00  3.12675E+00  3.14954E+00  3.17254E+00  3.19564E+00  3.21869E+00
   3.24176E+00  3.26501E+00  3.28856E+00  3.31233E+00  3.33619E+00  3.36005E+00  3.38409E+00  3.40844E+00
 NY background values follow
    -3.195E+01   -3.173E+01   -3.152E+01   -3.130E+01   -3.109E+01   -3.087E+01   -3.066E+01   -3.044E+01   -3.023E+01   -3.001E+01
    -2.980E+01   -2.958E+01   -2.937E+01   -2.916E+01   -2.894E+01   -2.873E+01   -2.852E+01   -2.831E+01   -2.810E+01   -2.789E+01
    -2.768E+01   -2.747E+01   -2.726E+01   -2.705E+01   -2.684E+01   -2.663E+01   -2.643E+01   -2.622E+01   -2.602E+01   -2.581E+01
    -2.561E+01   -2.541E+01   -2.521E+01   -2.501E+01   -2.481E+01   -2.461E+01   -2.441E+01   -2.422E+01   -2.402E+01   -2.383E+01
    -2.364E+01   -2.345E+01   -2.326E+01   -2.307E+01   -2.288E+01   -2.269E+01   -2.251E+01   -2.233E+01   -2.214E+01   -2.196E+01
    -2.178E+01   -2.161E+01   -2.143E+01   -2.126E+01   -2.108E+01   -2.091E+01   -2.074E+01   -2.057E+01   -2.040E+01   -2.024E+01
    -2.007E+01   -1.991E+01   -1.975E+01   -1.959E+01   -1.943E+01   -1.927E+01   -1.912E+01   -1.896E+01   -1.881E+01   -1.866E+01
    -1.851E+01   -1.837E+01   -1.822E+01   -1.808E+01   -1.793E+01   -1.779E+01   -1.765E+01   -1.752E+01   -1.738E+01   -1.725E+01
    -1.712E+01   -1.698E+01   -1.686E+01   -1.673E+01   -1.660E+01   -1.648E+01   -1.636E+01   -1.624E+01   -1.612E+01   -1.600E+01
    -1.589E+01   -1.578E+01   -1.566E+01   -1.555E+01   -1.545E+01   -1.534E+01   -1.524E+01   -1.513E+01   -1.503E+01   -1.493E+01
    -1.484E+01   -1.474E+01   -1.465E+01   -1.455E+01   -1.446E+01   -1.437E+01   -1.428E+01   -1.420E+01   -1.411E+01   -1.403E+01
    -1.394E+01   -1.386E+01   -1.378E+01   -1.371E+01   -1.363E+01   -1.355E+01   -1.348E+01   -1.340E+01   -1.333E+01   -1.326E+01
    -1.319E+01   -1.312E+01   -1.305E+01   -1.299E+01   -1.292E+01   -1.286E+01   -1.279E+01   -1.273E+01   -1.267E+01   -1.261E+01
    -1.255E+01   -1.249E+01   -1.243E+01   -1.238E+01   -1.232E+01   -1.227E+01   -1.221E+01   -1.216E+01   -1.210E+01   -1.205E+01
    -1.200E+01   -1.195E+01   -1.190E+01   -1.185E+01   -1.180E+01   -1.175E+01   -1.170E+01   -1.165E+01   -1.160E+01   -1.155E+01
    -1.150E+01   -1.146E+01   -1.141E+01   -1.136E+01   -1.131E+01   -1.126E+01   -1.121E+01   -1.116E+01   -1.111E+01   -1.106E+01
    -1.101E+01   -1.095E+01   -1.090E+01   -1.085E+01   -1.079E+01   -1.074E+01   -1.068E+01   -1.062E+01   -1.056E+01   -1.051E+01
    -1.045E+01   -1.038E+01   -1.032E+01   -1.026E+01   -1.019E+01   -1.012E+01   -1.006E+01   -9.986E+00   -9.914E+00   -9.841E+00
    -9.767E+00   -9.690E+00   -9.612E+00   -9.532E+00   -9.450E+00   -9.366E+00   -9.282E+00   -9.195E+00   -9.108E+00   -9.019E+00
    -8.929E+00   -8.837E+00   -8.745E+00   -8.651E+00   -8.556E+00   -8.461E+00   -8.365E+00   -8.268E+00   -8.170E+00   -8.071E+00
    -7.972E+00   -7.873E+00   -7.772E+00   -7.672E+00   -7.571E+00   -7.470E+00   -7.369E+00   -7.268E+00   -7.166E+00   -7.065E+00
    -6.964E+00   -6.863E+00   -6.762E+00   -6.661E+00   -6.561E+00   -6.461E+00   -6.362E+00   -6.263E+00   -6.165E+00   -6.067E+00
    -5.970E+00   -5.874E+00   -5.779E+00   -5.685E+00   -5.592E+00   -5.500E+00   -5.409E+00   -5.319E+00   -5.230E+00   -5.143E+00
    -5.057E+00   -4.972E+00   -4.888E+00   -4.805E+00   -4.723E+00   -4.643E+00   -4.563E+00   -4.485E+00   -4.408E+00   -4.331E+00
    -4.256E+00   -4.182E+00   -4.109E+00   -4.036E+00   -3.965E+00   -3.895E+00   -3.826E+00   -3.757E+00   -3.690E+00   -3.624E+00
    -3.558E+00   -3.493E+00   -3.430E+00   -3.367E+00   -3.305E+00   -3.244E+00   -3.183E+00   -3.124E+00   -3.065E+00   -3.007E+00
    -2.950E+00   -2.894E+00   -2.838E+00   -2.784E+00   -2.730E+00   -2.676E+00   -2.624E+00   -2.572E+00   -2.520E+00   -2.470E+00
    -2.420E+00   -2.371E+00   -2.322E+00   -2.274E+00   -2.227E+00   -2.180E+00   -2.134E+00   -2.089E+00   -2.044E+00   -2.000E+00
    -1.956E+00   -1.913E+00   -1.871E+00   -1.829E+00   -1.788E+00   -1.747E+00   -1.707E+00   -1.668E+00   -1.629E+00   -1.591E+00
    -1.553E+00   -1.516E+00   -1.480E+00   -1.444E+00   -1.409E+00   -1.374E+00   -1.340E+00   -1.306E+00   -1.273E+00   -1.241E+00
    -1.209E+00   -1.177E+00   -1.147E+00   -1.116E+00   -1.087E+00   -1.058E+00   -1.029E+00   -1.001E+00   -9.735E-01   -9.466E-01
    -9.201E-01   -8.942E-01   -8.688E-01   -8.440E-01   -8.196E-01   -7.958E-01   -7.725E-01   -7.497E-01   -7.274E-01   -7.056E-01
    -6.843E-01   -6.634E-01   -6.430E-01   -6.230E-01   -6.035E-01   -5.843E-01   -5.656E-01   -5.472E-01   -5.292E-01   -5.116E-01
    -4.943E-01   -4.774E-01   -4.608E-01   -4.444E-01   -4.284E-01   -4.127E-01   -3.972E-01   -3.820E-01   -3.670E-01   -3.522E-01
    -3.377E-01   -3.233E-01   -3.092E-01   -2.952E-01   -2.814E-01   -2.677E-01   -2.542E-01   -2.408E-01   -2.275E-01   -2.143E-01
    -2.012E-01   -1.882E-01   -1.752E-01   -1.623E-01   -1.494E-01   -1.365E-01   -1.236E-01   -1.107E-01   -9.782E-02   -8.489E-02
    -7.191E-02   -5.887E-02   -4.576E-02   -3.257E-02   -1.928E-02   -5.893E-03    7.606E-03    2.122E-02    3.497E-02    4.886E-02
     6.289E-02    7.709E-02    9.144E-02    1.060E-01    1.207E-01    1.356E-01    1.507E-01    1.661E-01    1.816E-01    1.974E-01
     2.134E-01    2.297E-01    2.462E-01    2.630E-01    2.801E-01    2.975E-01    3.152E-01    3.331E-01    3.514E-01    3.700E-01
     3.890E-01    4.083E-01    4.279E-01    4.479E-01    4.683E-01    4.890E-01    5.102E-01    5.317E-01    5.537E-01    5.760E-01
     5.988E-01    6.221E-01    6.457E-01    6.699E-01    6.945E-01    7.195E-01    7.451E-01    7.711E-01    7.977E-01    8.247E-01
     8.521E-01    8.800E-01    9.083E-01    9.371E-01    9.662E-01    9.957E-01    1.026E+00    1.056E+00    1.086E+00    1.117E+00
     1.148E+00    1.179E+00    1.211E+00    1.243E+00    1.275E+00    1.307E+00    1.340E+00    1.372E+00    1.405E+00    1.438E+00
     1.471E+00    1.504E+00    1.537E+00    1.571E+00    1.604E+00    1.637E+00    1.671E+00    1.704E+00    1.737E+00    1.770E+00
     1.804E+00    1.837E+00    1.870E+00    1.903E+00    1.936E+00    1.968E+00    2.001E+00    2.033E+00    2.065E+00    2.097E+00
     2.129E+00    2.161E+00    2.192E+00    2.223E+00    2.254E+00    2.284E+00    2.314E+00    2.344E+00    2.374E+00    2.403E+00
     2.432E+00    2.461E+00    2.490E+00    2.519E+00    2.547E+00    2.575E+00    2.603E+00    2.631E+00    2.659E+00    2.686E+00
     2.713E+00    2.741E+00    2.768E+00    2.794E+00    2.821E+00    2.848E+00    2.874E+00    2.900E+00    2.926E+00    2.952E+00
     2.978E+00    3.004E+00    3.030E+00    3.056E+00    3.081E+00    3.107E+00    3.132E+00    3.158E+00    3.183E+00    3.209E+00
     3.234E+00    3.259E+00    3.284E+00    3.309E+00    3.335E+00    3.360E+00    3.385E+00    3.410E+00
 Ala      Conc. = 3.84E+01
