 LCModel (Version 6.3-1L) Copyright: S.W. Provencher.          Ref.: Magn. Reson. Med. 30:672-679 (1993).                
 Slice#3 Row#10 Col#8  PD_05_press_1_raw_act
 36 lines in following concentration table = NCONC+1
    Conc.  %SD /Cr+PCr  Metabolite                                         
  155.915  75%   0.132 Ala                                                 
    0.000 999%   0.000 Asp                                                 
  310.414  63%   0.263 Cr                                                  
  869.290  23%   0.737 PCr                                                 
    3.404 999% 2.9E-03 GABA                                                
    0.000 999%   0.000 Glc                                                 
  962.090  24%   0.816 Gln                                                 
 1.50E+03  18%   1.273 Glu                                                 
  310.024   5%   0.263 GPC                                                 
    0.000 999%   0.000 PCh                                                 
  460.135  13%   0.390 GSH                                                 
  808.390  24%   0.685 Ins                                                 
  181.947  68%   0.154 Lac                                                 
 1.48E+03   7%   1.256 NAA                                                 
  113.341  99% 9.6E-02 NAAG                                                
    0.000 999%   0.000 Scyllo                                              
    0.000 999%   0.000 Tau                                                 
    0.000 999%   0.000 -CrCH2                                              
  310.024   5%   0.263 GPC+PCh                                             
 1.60E+03   4%   1.352 NAA+NAAG                                            
 1.18E+03   4%   1.000 Cr+PCr                                              
 2.46E+03  16%   2.089 Glu+Gln                                             
 1.80E+03  32%   1.528 Lip13a                                              
   10.183 999% 8.6E-03 Lip13b                                              
  145.988 141%   0.124 Lip09                                               
  716.915  31%   0.608 MM09                                                
  298.591  47%   0.253 Lip20                                               
 1.53E+03  20%   1.293 MM20                                                
  250.921  50%   0.213 MM12                                                
 2.00E+03  16%   1.695 MM14                                                
  670.899  28%   0.569 MM17                                                
 1.81E+03  27%   1.536 Lip13a+Lip13b                                       
 4.06E+03   9%   3.444 MM14+Lip13a+Lip13b+MM12                             
  862.904  17%   0.731 MM09+Lip09                                          
 1.82E+03  16%   1.546 MM20+Lip20                                          
   6 lines in following misc. output table
  FWHM = 0.069 ppm    S/N =  10                                            
  Data shift = 0.046 ppm                                                   
  Ph:  10 deg      -2.0 deg/ppm                                            
  alphaB,S = 1.0E+00,   9.8E+01                                            
   14 spline knots.   Ns = 8(1)                                            
  (12) 4 infls.   (11) 1 extrs.                                            
  498 points on ppm-axis = NY
      4.000000     3.992357     3.984714     3.977070     3.969427     3.961784     3.954141     3.946497     3.938854     3.931211
      3.923568     3.915925     3.908281     3.900638     3.892995     3.885352     3.877708     3.870065     3.862422     3.854779
      3.847136     3.839492     3.831849     3.824206     3.816563     3.808919     3.801276     3.793633     3.785990     3.778347
      3.770703     3.763060     3.755417     3.747774     3.740130     3.732487     3.724844     3.717201     3.709558     3.701914
      3.694271     3.686628     3.678985     3.671341     3.663698     3.656055     3.648412     3.640769     3.633125     3.625482
      3.617839     3.610196     3.602552     3.594909     3.587266     3.579623     3.571980     3.564336     3.556693     3.549050
      3.541407     3.533763     3.526120     3.518477     3.510834     3.503191     3.495547     3.487904     3.480261     3.472618
      3.464974     3.457331     3.449688     3.442045     3.434402     3.426758     3.419115     3.411472     3.403829     3.396185
      3.388542     3.380899     3.373256     3.365613     3.357969     3.350326     3.342683     3.335040     3.327396     3.319753
      3.312110     3.304467     3.296824     3.289180     3.281537     3.273894     3.266251     3.258607     3.250964     3.243321
      3.235678     3.228034     3.220391     3.212748     3.205105     3.197462     3.189818     3.182175     3.174532     3.166889
      3.159245     3.151602     3.143959     3.136316     3.128673     3.121029     3.113386     3.105743     3.098100     3.090456
      3.082813     3.075170     3.067527     3.059884     3.052240     3.044597     3.036954     3.029311     3.021667     3.014024
      3.006381     2.998738     2.991095     2.983451     2.975808     2.968165     2.960522     2.952878     2.945235     2.937592
      2.929949     2.922306     2.914662     2.907019     2.899376     2.891733     2.884089     2.876446     2.868803     2.861160
      2.853517     2.845873     2.838230     2.830587     2.822944     2.815300     2.807657     2.800014     2.792371     2.784728
      2.777084     2.769441     2.761798     2.754155     2.746511     2.738868     2.731225     2.723582     2.715939     2.708295
      2.700652     2.693009     2.685366     2.677722     2.670079     2.662436     2.654793     2.647150     2.639506     2.631863
      2.624220     2.616577     2.608933     2.601290     2.593647     2.586004     2.578361     2.570717     2.563074     2.555431
      2.547788     2.540144     2.532501     2.524858     2.517215     2.509572     2.501928     2.494285     2.486642     2.478999
      2.471355     2.463712     2.456069     2.448426     2.440783     2.433139     2.425496     2.417853     2.410210     2.402566
      2.394923     2.387280     2.379637     2.371994     2.364350     2.356707     2.349064     2.341421     2.333777     2.326134
      2.318491     2.310848     2.303205     2.295561     2.287918     2.280275     2.272632     2.264988     2.257345     2.249702
      2.242059     2.234416     2.226772     2.219129     2.211486     2.203843     2.196199     2.188556     2.180913     2.173270
      2.165627     2.157983     2.150340     2.142697     2.135054     2.127410     2.119767     2.112124     2.104481     2.096838
      2.089194     2.081551     2.073908     2.066265     2.058621     2.050978     2.043335     2.035692     2.028049     2.020405
      2.012762     2.005119     1.997476     1.989833     1.982190     1.974546     1.966903     1.959260     1.951617     1.943974
      1.936331     1.928688     1.921045     1.913402     1.905759     1.898115     1.890472     1.882829     1.875186     1.867543
      1.859900     1.852257     1.844614     1.836971     1.829327     1.821684     1.814041     1.806398     1.798755     1.791112
      1.783469     1.775826     1.768183     1.760540     1.752896     1.745253     1.737610     1.729967     1.722324     1.714681
      1.707038     1.699395     1.691752     1.684108     1.676465     1.668822     1.661179     1.653536     1.645893     1.638250
      1.630607     1.622964     1.615321     1.607677     1.600034     1.592391     1.584748     1.577105     1.569462     1.561819
      1.554176     1.546533     1.538890     1.531246     1.523603     1.515960     1.508317     1.500674     1.493031     1.485388
      1.477745     1.470102     1.462458     1.454815     1.447172     1.439529     1.431886     1.424243     1.416600     1.408957
      1.401314     1.393671     1.386027     1.378384     1.370741     1.363098     1.355455     1.347812     1.340169     1.332526
      1.324883     1.317240     1.309596     1.301953     1.294310     1.286667     1.279024     1.271381     1.263738     1.256095
      1.248452     1.240808     1.233165     1.225522     1.217879     1.210236     1.202593     1.194950     1.187307     1.179664
      1.172021     1.164377     1.156734     1.149091     1.141448     1.133805     1.126162     1.118519     1.110876     1.103233
      1.095590     1.087946     1.080303     1.072660     1.065017     1.057374     1.049731     1.042088     1.034445     1.026802
      1.019158     1.011515     1.003872     0.996229     0.988586     0.980943     0.973300     0.965657     0.958014     0.950371
      0.942727     0.935084     0.927441     0.919798     0.912155     0.904512     0.896869     0.889226     0.881583     0.873940
      0.866296     0.858653     0.851010     0.843367     0.835724     0.828081     0.820438     0.812795     0.805152     0.797508
      0.789865     0.782222     0.774579     0.766936     0.759293     0.751650     0.744007     0.736364     0.728721     0.721077
      0.713434     0.705791     0.698148     0.690505     0.682862     0.675219     0.667576     0.659933     0.652290     0.644646
      0.637003     0.629360     0.621717     0.614074     0.606431     0.598788     0.591145     0.583502     0.575858     0.568215
      0.560572     0.552929     0.545286     0.537643     0.530000     0.522357     0.514714     0.507071     0.499427     0.491784
      0.484141     0.476498     0.468855     0.461212     0.453569     0.445925     0.438282     0.430639     0.422996     0.415353
      0.407710     0.400067     0.392424     0.384780     0.377137     0.369494     0.361851     0.354208     0.346565     0.338922
      0.331278     0.323635     0.315992     0.308349     0.300706     0.293063     0.285420     0.277777     0.270133     0.262490
      0.254847     0.247204     0.239561     0.231918     0.224275     0.216631     0.208988     0.201345
 NY phased data points follow
   2.67468E+01  2.52912E+01  2.68505E+01  3.02787E+01  2.85462E+01  3.11721E+01  3.42549E+01  3.84623E+01  4.18643E+01  4.58483E+01
   4.77161E+01  4.54519E+01  4.38823E+01  4.25777E+01  3.90966E+01  3.39984E+01  3.39773E+01  2.94832E+01  2.94459E+01  2.58775E+01
   2.63880E+01  2.27364E+01  2.63021E+01  2.39414E+01  2.54681E+01  2.47058E+01  2.35012E+01  2.39710E+01  2.79316E+01  2.60063E+01
   3.11021E+01  2.70112E+01  2.64461E+01  2.72231E+01  2.83225E+01  2.45121E+01  2.62597E+01  2.54031E+01  2.24960E+01  2.11685E+01
   2.18059E+01  1.92889E+01  2.26457E+01  1.86787E+01  2.60125E+01  2.24834E+01  2.45640E+01  2.36829E+01  2.67255E+01  2.25269E+01
   2.02318E+01  2.19884E+01  1.80669E+01  1.97844E+01  2.02716E+01  2.09171E+01  1.78683E+01  1.96094E+01  2.04029E+01  1.81544E+01
   1.71062E+01  1.77157E+01  1.42332E+01  1.36166E+01  1.16624E+01  1.21508E+01  1.02847E+01  1.04377E+01  1.12314E+01  9.91702E+00
   1.17621E+01  9.83576E+00  7.72026E+00  9.39708E+00  9.81576E+00  1.15330E+01  1.10379E+01  1.16020E+01  9.39847E+00  8.93197E+00
   1.13642E+01  1.34598E+01  6.83755E+00  1.24171E+01  8.57928E+00  8.12695E+00  6.69554E+00  9.85693E+00  9.82581E+00  1.31782E+01
   9.51593E+00  1.12770E+01  1.14684E+01  1.09415E+01  6.41434E+00  9.84150E+00  1.19391E+01  9.57919E+00  1.45422E+01  1.76799E+01
   2.24925E+01  3.08991E+01  3.08375E+01  3.52645E+01  3.22468E+01  2.85577E+01  2.32731E+01  2.81980E+01  2.19393E+01  1.98092E+01
   2.05706E+01  1.40138E+01  1.11383E+01  1.14749E+01  1.09261E+01  7.82522E+00  1.04155E+01  1.17054E+01  1.27120E+01  1.05209E+01
   1.21962E+01  8.49433E+00  1.15088E+01  1.88851E+01  2.63173E+01  3.17259E+01  3.77234E+01  4.08801E+01  3.72606E+01  3.79006E+01
   3.17788E+01  2.75207E+01  2.78083E+01  2.39857E+01  1.88346E+01  1.39626E+01  1.43645E+01  9.51870E+00  1.29338E+01  1.10535E+01
   1.09919E+01  8.16310E+00  6.07983E+00  6.66427E+00  1.06226E+01  6.32329E+00  6.28066E+00  6.78734E+00  6.07644E+00  6.13152E+00
   9.61291E+00  3.35863E+00  6.16932E+00  5.06960E+00  4.69590E+00  6.18056E+00  6.00305E+00  4.92661E+00  4.45653E+00  4.41779E+00
   2.72711E+00  1.14236E+00  2.03596E+00  4.02116E+00  6.53300E+00  5.59534E+00  2.66489E+00  7.47410E+00  2.63781E+00  2.29821E+00
   3.81065E+00  3.23525E+00 -9.63617E-01 -2.64819E+00 -3.76501E+00 -5.31805E+00 -1.30067E+00 -1.32011E+00 -5.06832E+00 -6.46758E+00
  -6.29508E+00 -1.85635E+00 -1.24111E+00 -2.66367E+00 -1.99208E+00 -5.05071E+00  1.48400E-01 -1.96692E+00 -1.21018E+00  4.34619E+00
   4.05039E+00  3.32586E+00  6.47818E+00  6.35031E+00  6.80432E+00  4.77174E+00  4.65928E+00  5.68112E+00  1.62130E+00  4.52561E+00
   3.09334E+00  3.85323E+00  2.53815E+00  9.01524E+00  6.60871E+00  4.33883E+00  8.44721E-01  4.16011E+00  2.93464E-01 -9.67432E-01
   2.65721E-01  1.23644E+00  4.08589E+00  6.37509E+00  7.55259E+00  9.26532E+00  1.02339E+01  9.02116E+00  8.78315E+00  5.36723E+00
   3.50795E+00  2.20881E+00  2.23922E+00  1.73919E+00  4.52609E+00  5.48562E+00  7.37106E+00  6.00456E+00  8.78391E+00  7.62986E+00
   7.96119E+00  3.93751E+00  7.41372E+00  7.85505E+00  1.09917E+01  6.21352E+00  6.20317E+00  1.08506E+01  9.22824E+00  6.92283E+00
   3.54429E+00  3.12380E+00  4.54685E+00  3.00538E+00  4.67261E+00  9.10702E+00  7.62354E+00  7.81252E+00  9.34701E+00  8.06945E+00
   1.05464E+01  1.16164E+01  1.02887E+01  1.57956E+01  1.64126E+01  1.82445E+01  2.93872E+01  3.64609E+01  4.90874E+01  4.74084E+01
   5.23809E+01  5.14566E+01  4.60776E+01  3.34016E+01  3.23209E+01  2.73015E+01  2.27429E+01  2.03050E+01  1.89403E+01  1.33239E+01
   5.86624E+00  8.05046E+00  3.88861E+00  8.19290E+00  7.12255E+00  6.68444E+00  4.73808E+00  8.45759E+00  6.73160E+00  5.91419E+00
   6.27022E+00  4.96868E+00  1.22570E+00  5.65817E+00  6.73657E+00  5.47014E+00  5.81760E+00  3.08207E-01  5.29707E+00  1.10931E+00
   6.30218E+00  4.49342E+00  3.23338E+00  2.15934E+00  6.89281E+00  3.78965E+00  3.17544E+00  5.07044E+00  4.48467E+00  2.13642E+00
   2.70519E+00  5.00618E+00  5.65879E+00  2.33677E+00  6.24007E+00  2.13960E+00  8.55645E+00  9.68134E+00  1.02380E+01  8.31067E+00
   9.12547E+00  8.18071E+00  8.07897E+00  6.70454E+00  9.90723E+00  9.21385E+00  7.75305E+00  9.15325E+00  4.86610E+00  6.17957E+00
   7.50692E+00  8.68464E+00  1.18930E+01  1.05330E+01  1.08917E+01  1.34684E+01  1.25404E+01  1.47713E+01  1.44251E+01  1.41056E+01
   1.53350E+01  1.67185E+01  1.73277E+01  1.76440E+01  2.10637E+01  1.82985E+01  2.11247E+01  2.17803E+01  2.15284E+01  2.27192E+01
   2.34988E+01  2.07069E+01  1.89618E+01  2.02517E+01  2.09173E+01  1.79368E+01  1.70225E+01  1.60048E+01  1.52907E+01  1.53562E+01
   1.15905E+01  9.96806E+00  1.21300E+01  1.41626E+01  1.51658E+01  1.22865E+01  1.32309E+01  1.42286E+01  1.31730E+01  1.16484E+01
   1.07592E+01  1.07669E+01  1.06113E+01  5.21069E+00  7.76380E+00  9.31325E+00  7.98871E+00  1.41974E+01  9.88565E+00  5.95051E+00
   1.33366E+01  8.54277E+00  9.39153E+00  2.42613E+00  2.85913E+00  8.94790E+00  5.46686E+00  4.13384E+00  5.80147E+00  1.08279E+01
   9.28580E+00  7.54939E+00  5.07856E+00  5.45146E+00  4.63415E+00  5.38695E+00  4.31460E+00  4.49899E+00  7.73013E+00  5.30935E+00
   5.24682E+00  7.90158E+00  3.32949E+00  7.24393E+00  4.37051E+00  7.75902E+00  5.41475E+00  3.56903E+00  5.89922E+00  6.96831E+00
   5.93757E+00  4.56070E+00  7.22881E+00  4.07501E+00  8.69367E+00  3.96652E+00  5.93870E+00  7.41935E+00  6.52654E+00  9.16175E+00
   6.02490E+00  7.43234E+00  7.31026E+00  4.67539E+00  6.52932E+00  7.38720E+00  6.59412E+00  1.17978E+01  4.40199E+00  5.68582E+00
   6.70743E+00  6.38276E+00  3.97843E+00  5.56698E-01  5.02608E+00  3.98919E+00  5.69149E+00  3.38087E+00  4.65040E+00  1.48202E+00
   8.35600E-01  1.42903E+00  5.88247E+00 -1.25915E+00  7.15924E+00  3.01799E+00  3.30870E+00  5.54484E+00  2.44606E+00  4.17204E+00
   2.30963E+00  6.53447E-01  2.16723E+00  2.61966E+00  7.02433E-01  3.03956E+00  4.38581E-01  4.25653E+00  4.10560E+00  3.41344E+00
   2.86338E+00  2.05631E+00  6.17494E+00  2.74451E+00  7.44856E-01  4.54787E+00  2.46657E+00  2.21656E+00  2.05272E+00  3.05150E+00
  -2.17706E-01  9.84334E-01  3.74061E+00  3.65350E+00  1.89502E+00  3.17969E+00  5.79996E-01 -1.97769E+00  1.59417E+00  1.50805E+00
   1.12020E+00  1.23958E-01 -4.16860E-01  3.39068E+00  2.36135E+00  4.44062E+00  3.34162E+00  3.57615E+00  4.93914E+00  2.50160E+00
   2.82954E+00  3.57145E-02  1.54302E+00  1.03209E+00  1.56625E+00  3.46518E+00  5.21005E+00  2.85913E+00  3.83741E+00  2.44341E+00
   8.08137E-01  3.22380E+00  5.35507E+00  3.41771E+00 -2.32920E-01  2.41827E+00  3.16313E+00 -4.06299E-01
 NY points of the fit to the data follow
   2.47879E+01  2.46350E+01  2.49866E+01  2.57158E+01  2.69275E+01  2.92687E+01  3.30299E+01  3.75049E+01  4.14977E+01  4.40758E+01
   4.47655E+01  4.35804E+01  4.11456E+01  3.84620E+01  3.61369E+01  3.41727E+01  3.23660E+01  3.04598E+01  2.81674E+01  2.57706E+01
   2.41317E+01  2.32752E+01  2.29654E+01  2.26058E+01  2.22020E+01  2.23120E+01  2.33258E+01  2.51400E+01  2.72352E+01  2.91477E+01
   3.04261E+01  3.05911E+01  2.96298E+01  2.80358E+01  2.62507E+01  2.46047E+01  2.32710E+01  2.22794E+01  2.13583E+01  2.04760E+01
   2.00196E+01  1.98587E+01  2.00148E+01  2.06560E+01  2.16641E+01  2.26632E+01  2.32116E+01  2.31812E+01  2.25681E+01  2.14732E+01
   2.03096E+01  1.93937E+01  1.86718E+01  1.80868E+01  1.76323E+01  1.71823E+01  1.67618E+01  1.65884E+01  1.66495E+01  1.66848E+01
   1.65058E+01  1.61320E+01  1.56573E+01  1.52129E+01  1.48822E+01  1.46728E+01  1.45789E+01  1.45451E+01  1.45033E+01  1.44525E+01
   1.43963E+01  1.43291E+01  1.42489E+01  1.41178E+01  1.39400E+01  1.37401E+01  1.35250E+01  1.33020E+01  1.30641E+01  1.27997E+01
   1.24990E+01  1.21629E+01  1.18015E+01  1.13584E+01  1.08258E+01  1.02688E+01  9.78187E+00  9.44022E+00  9.29887E+00  9.34706E+00
   9.51656E+00  9.74690E+00  9.98304E+00  1.01806E+01  1.03795E+01  1.09360E+01  1.19143E+01  1.28455E+01  1.47915E+01  1.87611E+01
   2.41634E+01  2.93789E+01  3.29798E+01  3.43375E+01  3.33218E+01  3.03966E+01  2.69112E+01  2.40781E+01  2.18848E+01  1.98858E+01
   1.78519E+01  1.53662E+01  1.22820E+01  9.81273E+00  9.03649E+00  8.84713E+00  8.78492E+00  8.79797E+00  8.94998E+00  9.59107E+00
   1.09165E+01  1.23801E+01  1.49373E+01  1.98798E+01  2.67444E+01  3.36849E+01  3.88468E+01  4.12592E+01  4.07513E+01  3.78213E+01
   3.38018E+01  3.01134E+01  2.69263E+01  2.37343E+01  2.03621E+01  1.65524E+01  1.23053E+01  8.94884E+00  7.90541E+00  7.95437E+00
   8.11971E+00  8.12626E+00  7.93347E+00  7.70318E+00  7.59552E+00  7.55377E+00  7.49093E+00  7.35214E+00  7.09506E+00  6.73752E+00
   6.33381E+00  5.94746E+00  5.67402E+00  5.47002E+00  5.34078E+00  5.24749E+00  5.09519E+00  4.84042E+00  4.48911E+00  4.17680E+00
   4.02546E+00  4.02496E+00  4.09056E+00  4.11370E+00  3.99171E+00  3.69453E+00  3.29462E+00  2.89339E+00  2.57712E+00  2.39262E+00
   2.25991E+00  1.96800E+00  1.50835E+00  1.00752E+00  6.63275E-01  5.78919E-01  5.96330E-01  5.83898E-01  5.26776E-01  4.15611E-01
   2.92865E-01  1.99637E-01  1.37215E-01  1.52714E-01  3.31715E-01  7.18216E-01  1.29471E+00  2.08155E+00  3.00654E+00  3.82810E+00
   4.27057E+00  4.24823E+00  3.85575E+00  3.24752E+00  2.65263E+00  2.30752E+00  2.37737E+00  2.82056E+00  3.59490E+00  4.62802E+00
   5.72550E+00  6.65828E+00  7.17845E+00  7.24253E+00  6.63053E+00  5.22828E+00  3.38465E+00  1.64637E+00  3.57087E-01 -2.44280E-01
  -7.08698E-02  1.12020E+00  3.12522E+00  5.26881E+00  6.99919E+00  8.01988E+00  8.21485E+00  7.52230E+00  5.94132E+00  3.88486E+00
   1.90743E+00  7.04682E-01  4.72868E-01  9.41435E-01  1.82851E+00  2.85136E+00  3.81705E+00  4.59499E+00  5.04209E+00  5.42035E+00
   5.83991E+00  6.30328E+00  6.78705E+00  7.20980E+00  7.60637E+00  8.04928E+00  8.47150E+00  8.69181E+00  8.44564E+00  7.65556E+00
   6.69745E+00  5.92140E+00  5.43223E+00  5.38657E+00  5.80624E+00  6.38498E+00  6.75908E+00  7.01228E+00  7.35106E+00  7.79170E+00
   8.48395E+00  9.77653E+00  1.22218E+01  1.49544E+01  1.73241E+01  2.13956E+01  2.84992E+01  3.72598E+01  4.51149E+01  5.02596E+01
   5.18840E+01  4.96337E+01  4.43472E+01  3.83838E+01  3.34263E+01  2.92799E+01  2.55503E+01  2.18206E+01  1.71813E+01  1.16388E+01
   7.80968E+00  6.58158E+00  6.08497E+00  5.77357E+00  5.56671E+00  5.41508E+00  5.21028E+00  4.98317E+00  4.77541E+00  4.59531E+00
   4.44231E+00  4.31266E+00  4.18397E+00  4.04738E+00  3.92288E+00  3.82541E+00  3.75349E+00  3.70403E+00  3.68124E+00  3.69256E+00
   3.73658E+00  3.79842E+00  3.87679E+00  3.97596E+00  4.09582E+00  4.23474E+00  4.39412E+00  4.57418E+00  4.77317E+00  4.98697E+00
   5.21114E+00  5.43961E+00  5.66731E+00  5.88874E+00  6.09873E+00  6.29264E+00  6.46718E+00  6.62094E+00  6.75318E+00  6.86352E+00
   6.95539E+00  7.03456E+00  7.10836E+00  7.18668E+00  7.28162E+00  7.40637E+00  7.57565E+00  7.80619E+00  8.12005E+00  8.54289E+00
   9.04475E+00  9.64604E+00  1.04184E+01  1.13025E+01  1.21454E+01  1.28305E+01  1.33369E+01  1.37419E+01  1.41067E+01  1.44634E+01
   1.49590E+01  1.57012E+01  1.66465E+01  1.76796E+01  1.86658E+01  1.94910E+01  2.01118E+01  2.05689E+01  2.08543E+01  2.09832E+01
   2.09580E+01  2.08381E+01  2.07162E+01  2.04789E+01  1.99055E+01  1.89753E+01  1.78381E+01  1.66005E+01  1.52933E+01  1.40503E+01
   1.31266E+01  1.26242E+01  1.24481E+01  1.24501E+01  1.24907E+01  1.24562E+01  1.23248E+01  1.21893E+01  1.20352E+01  1.18377E+01
   1.16122E+01  1.13645E+01  1.10731E+01  1.06654E+01  1.01269E+01  9.62718E+00  9.20350E+00  8.81516E+00  8.44699E+00  8.09404E+00
   7.75498E+00  7.43011E+00  7.12047E+00  6.82750E+00  6.55270E+00  6.29755E+00  6.06338E+00  5.85131E+00  5.66233E+00  5.49722E+00
   5.35663E+00  5.24105E+00  5.15085E+00  5.08628E+00  5.04752E+00  5.03462E+00  5.04755E+00  5.08610E+00  5.14987E+00  5.23818E+00
   5.35009E+00  5.48425E+00  5.63887E+00  5.81168E+00  5.99984E+00  6.20000E+00  6.40822E+00  6.62009E+00  6.83079E+00  7.03518E+00
   7.22795E+00  7.40382E+00  7.55773E+00  7.68501E+00  7.78159E+00  7.84420E+00  7.87046E+00  7.85902E+00  7.80962E+00  7.72308E+00
   7.60123E+00  7.44684E+00  7.26344E+00  7.05521E+00  6.82670E+00  6.58272E+00  6.32807E+00  6.06739E+00  5.80504E+00  5.54493E+00
   5.29045E+00  5.04445E+00  4.80918E+00  4.58631E+00  4.37698E+00  4.18186E+00  4.00118E+00  3.83484E+00  3.68243E+00  3.54335E+00
   3.41686E+00  3.30211E+00  3.19820E+00  3.10423E+00  3.01929E+00  2.94253E+00  2.87315E+00  2.81040E+00  2.75359E+00  2.70211E+00
   2.65540E+00  2.61295E+00  2.57434E+00  2.53916E+00  2.50707E+00  2.47775E+00  2.45093E+00  2.42637E+00  2.40386E+00  2.38321E+00
   2.36426E+00  2.34684E+00  2.33084E+00  2.31614E+00  2.30262E+00  2.29021E+00  2.27881E+00  2.26834E+00  2.25873E+00  2.24992E+00
   2.24186E+00  2.23450E+00  2.22778E+00  2.22167E+00  2.21612E+00  2.21110E+00  2.20657E+00  2.20250E+00  2.19887E+00  2.19564E+00
   2.19280E+00  2.19032E+00  2.18819E+00  2.18638E+00  2.18487E+00  2.18365E+00  2.18270E+00  2.18202E+00  2.18157E+00  2.18135E+00
   2.18135E+00  2.18155E+00  2.18195E+00  2.18253E+00  2.18328E+00  2.18420E+00  2.18527E+00  2.18649E+00  2.18784E+00  2.18933E+00
   2.19093E+00  2.19265E+00  2.19448E+00  2.19641E+00  2.19843E+00  2.20055E+00  2.20274E+00  2.20501E+00
 NY background values follow
     2.105E+01    2.092E+01    2.078E+01    2.065E+01    2.052E+01    2.038E+01    2.025E+01    2.012E+01    1.998E+01    1.985E+01
     1.972E+01    1.958E+01    1.945E+01    1.932E+01    1.919E+01    1.905E+01    1.892E+01    1.879E+01    1.865E+01    1.852E+01
     1.839E+01    1.825E+01    1.812E+01    1.799E+01    1.786E+01    1.773E+01    1.759E+01    1.746E+01    1.733E+01    1.720E+01
     1.707E+01    1.693E+01    1.680E+01    1.667E+01    1.654E+01    1.641E+01    1.628E+01    1.615E+01    1.602E+01    1.589E+01
     1.576E+01    1.563E+01    1.550E+01    1.537E+01    1.525E+01    1.512E+01    1.499E+01    1.486E+01    1.473E+01    1.461E+01
     1.448E+01    1.435E+01    1.423E+01    1.410E+01    1.398E+01    1.385E+01    1.373E+01    1.360E+01    1.348E+01    1.336E+01
     1.323E+01    1.311E+01    1.299E+01    1.287E+01    1.275E+01    1.262E+01    1.250E+01    1.238E+01    1.226E+01    1.215E+01
     1.203E+01    1.191E+01    1.179E+01    1.167E+01    1.156E+01    1.144E+01    1.133E+01    1.121E+01    1.110E+01    1.099E+01
     1.087E+01    1.076E+01    1.065E+01    1.054E+01    1.043E+01    1.032E+01    1.021E+01    1.010E+01    9.992E+00    9.885E+00
     9.779E+00    9.673E+00    9.568E+00    9.464E+00    9.360E+00    9.257E+00    9.155E+00    9.054E+00    8.953E+00    8.853E+00
     8.754E+00    8.655E+00    8.557E+00    8.460E+00    8.363E+00    8.267E+00    8.172E+00    8.078E+00    7.984E+00    7.891E+00
     7.799E+00    7.707E+00    7.616E+00    7.526E+00    7.436E+00    7.348E+00    7.259E+00    7.172E+00    7.085E+00    6.999E+00
     6.914E+00    6.829E+00    6.745E+00    6.662E+00    6.580E+00    6.498E+00    6.417E+00    6.336E+00    6.257E+00    6.178E+00
     6.099E+00    6.022E+00    5.945E+00    5.869E+00    5.793E+00    5.718E+00    5.644E+00    5.571E+00    5.498E+00    5.426E+00
     5.355E+00    5.284E+00    5.214E+00    5.145E+00    5.076E+00    5.009E+00    4.942E+00    4.875E+00    4.809E+00    4.744E+00
     4.680E+00    4.617E+00    4.554E+00    4.492E+00    4.430E+00    4.369E+00    4.309E+00    4.250E+00    4.191E+00    4.133E+00
     4.076E+00    4.020E+00    3.964E+00    3.909E+00    3.854E+00    3.801E+00    3.748E+00    3.695E+00    3.644E+00    3.593E+00
     3.543E+00    3.493E+00    3.445E+00    3.397E+00    3.349E+00    3.303E+00    3.257E+00    3.212E+00    3.167E+00    3.123E+00
     3.080E+00    3.038E+00    2.996E+00    2.956E+00    2.915E+00    2.876E+00    2.837E+00    2.799E+00    2.761E+00    2.724E+00
     2.688E+00    2.653E+00    2.618E+00    2.583E+00    2.549E+00    2.516E+00    2.484E+00    2.452E+00    2.420E+00    2.389E+00
     2.359E+00    2.329E+00    2.300E+00    2.272E+00    2.243E+00    2.216E+00    2.189E+00    2.162E+00    2.136E+00    2.110E+00
     2.085E+00    2.060E+00    2.036E+00    2.012E+00    1.989E+00    1.966E+00    1.943E+00    1.921E+00    1.899E+00    1.878E+00
     1.857E+00    1.836E+00    1.816E+00    1.796E+00    1.777E+00    1.758E+00    1.739E+00    1.720E+00    1.702E+00    1.684E+00
     1.667E+00    1.650E+00    1.633E+00    1.616E+00    1.600E+00    1.584E+00    1.568E+00    1.553E+00    1.538E+00    1.523E+00
     1.508E+00    1.494E+00    1.480E+00    1.466E+00    1.453E+00    1.440E+00    1.427E+00    1.414E+00    1.402E+00    1.390E+00
     1.378E+00    1.366E+00    1.355E+00    1.344E+00    1.333E+00    1.322E+00    1.312E+00    1.302E+00    1.292E+00    1.282E+00
     1.272E+00    1.263E+00    1.254E+00    1.245E+00    1.237E+00    1.228E+00    1.220E+00    1.212E+00    1.204E+00    1.197E+00
     1.189E+00    1.182E+00    1.175E+00    1.168E+00    1.161E+00    1.155E+00    1.148E+00    1.142E+00    1.136E+00    1.130E+00
     1.125E+00    1.119E+00    1.114E+00    1.109E+00    1.104E+00    1.099E+00    1.094E+00    1.090E+00    1.085E+00    1.081E+00
     1.077E+00    1.073E+00    1.069E+00    1.065E+00    1.062E+00    1.058E+00    1.055E+00    1.052E+00    1.049E+00    1.046E+00
     1.043E+00    1.040E+00    1.038E+00    1.035E+00    1.033E+00    1.030E+00    1.028E+00    1.026E+00    1.024E+00    1.022E+00
     1.021E+00    1.019E+00    1.017E+00    1.016E+00    1.015E+00    1.013E+00    1.012E+00    1.011E+00    1.010E+00    1.009E+00
     1.008E+00    1.007E+00    1.006E+00    1.006E+00    1.005E+00    1.004E+00    1.004E+00    1.004E+00    1.003E+00    1.003E+00
     1.003E+00    1.003E+00    1.002E+00    1.002E+00    1.003E+00    1.003E+00    1.003E+00    1.003E+00    1.003E+00    1.004E+00
     1.004E+00    1.005E+00    1.005E+00    1.006E+00    1.007E+00    1.007E+00    1.008E+00    1.009E+00    1.010E+00    1.011E+00
     1.012E+00    1.013E+00    1.014E+00    1.015E+00    1.016E+00    1.018E+00    1.019E+00    1.020E+00    1.022E+00    1.023E+00
     1.025E+00    1.026E+00    1.028E+00    1.029E+00    1.031E+00    1.033E+00    1.034E+00    1.036E+00    1.038E+00    1.040E+00
     1.042E+00    1.044E+00    1.046E+00    1.048E+00    1.050E+00    1.052E+00    1.055E+00    1.057E+00    1.059E+00    1.062E+00
     1.064E+00    1.067E+00    1.069E+00    1.072E+00    1.075E+00    1.077E+00    1.080E+00    1.083E+00    1.086E+00    1.089E+00
     1.092E+00    1.095E+00    1.099E+00    1.102E+00    1.105E+00    1.109E+00    1.112E+00    1.116E+00    1.119E+00    1.123E+00
     1.127E+00    1.131E+00    1.135E+00    1.139E+00    1.143E+00    1.147E+00    1.152E+00    1.156E+00    1.160E+00    1.165E+00
     1.169E+00    1.174E+00    1.179E+00    1.184E+00    1.189E+00    1.194E+00    1.199E+00    1.204E+00    1.209E+00    1.214E+00
     1.220E+00    1.225E+00    1.230E+00    1.236E+00    1.242E+00    1.247E+00    1.253E+00    1.259E+00    1.265E+00    1.270E+00
     1.276E+00    1.282E+00    1.288E+00    1.294E+00    1.301E+00    1.307E+00    1.313E+00    1.319E+00    1.326E+00    1.332E+00
     1.339E+00    1.345E+00    1.351E+00    1.358E+00    1.365E+00    1.371E+00    1.378E+00    1.385E+00    1.391E+00    1.398E+00
     1.405E+00    1.412E+00    1.419E+00    1.425E+00    1.432E+00    1.439E+00    1.446E+00    1.453E+00    1.460E+00    1.467E+00
     1.474E+00    1.481E+00    1.488E+00    1.496E+00    1.503E+00    1.510E+00    1.517E+00    1.524E+00    1.531E+00    1.539E+00
     1.546E+00    1.553E+00    1.561E+00    1.568E+00    1.575E+00    1.582E+00    1.590E+00    1.597E+00    1.604E+00    1.612E+00
     1.619E+00    1.626E+00    1.634E+00    1.641E+00    1.649E+00    1.656E+00    1.663E+00    1.671E+00    1.678E+00    1.686E+00
     1.693E+00    1.700E+00    1.708E+00    1.715E+00    1.723E+00    1.730E+00    1.737E+00    1.745E+00
 Ala      Conc. = 1.56E+02
