 LCModel (Version 6.3-1L) Copyright: S.W. Provencher.          Ref.: Magn. Reson. Med. 30:672-679 (1993).                
 Slice#3 Row#12 Col#8  PD_05_press_1_raw_act
 36 lines in following concentration table = NCONC+1
    Conc.  %SD /Cr+PCr  Metabolite                                         
  128.578 111%   0.172 Ala                                                 
   54.433 237% 7.3E-02 Asp                                                 
    0.000 999%   0.000 Cr                                                  
  747.480   5%   1.000 PCr                                                 
   18.367 484% 2.5E-02 GABA                                                
   17.581 486% 2.4E-02 Glc                                                 
 1.69E+03  18%   2.265 Gln                                                 
 1.45E+03  24%   1.935 Glu                                                 
  220.763   7%   0.295 GPC                                                 
    0.000 999%   0.000 PCh                                                 
  138.931  46%   0.186 GSH                                                 
  245.302  69%   0.328 Ins                                                 
   12.213 999% 1.6E-02 Lac                                                 
 1.18E+03  10%   1.581 NAA                                                 
   48.567 263% 6.5E-02 NAAG                                                
   40.966  46% 5.5E-02 Scyllo                                              
   61.585 190% 8.2E-02 Tau                                                 
   69.145 112% 9.3E-02 -CrCH2                                              
  220.763   7%   0.295 GPC+PCh                                             
 1.23E+03   5%   1.646 NAA+NAAG                                            
  747.480   5%   1.000 Cr+PCr                                              
 3.14E+03  18%   4.201 Glu+Gln                                             
  592.124  31%   0.792 Lip13a                                              
    0.000 999%   0.000 Lip13b                                              
    0.000 999%   0.000 Lip09                                               
  731.049  13%   0.978 MM09                                                
   89.707  76%   0.120 Lip20                                               
 1.44E+03  14%   1.924 MM20                                                
  260.934  26%   0.349 MM12                                                
 1.34E+03  14%   1.796 MM14                                                
  664.575  20%   0.889 MM17                                                
  592.124  31%   0.792 Lip13a+Lip13b                                       
 2.20E+03   9%   2.937 MM14+Lip13a+Lip13b+MM12                             
  731.049  13%   0.978 MM09+Lip09                                          
 1.53E+03  13%   2.044 MM20+Lip20                                          
   6 lines in following misc. output table
  FWHM = 0.084 ppm    S/N =   8                                            
  Data shift = 0.076 ppm                                                   
  Ph: -44 deg     -16.0 deg/ppm                                            
  alphaB,S = 8.5E+01,   1.6E+02                                            
   14 spline knots.   Ns =11(1)                                            
   5 inflections.     1 extrema                                            
  498 points on ppm-axis = NY
      4.000000     3.992357     3.984714     3.977070     3.969427     3.961784     3.954141     3.946497     3.938854     3.931211
      3.923568     3.915925     3.908281     3.900638     3.892995     3.885352     3.877708     3.870065     3.862422     3.854779
      3.847136     3.839492     3.831849     3.824206     3.816563     3.808919     3.801276     3.793633     3.785990     3.778347
      3.770703     3.763060     3.755417     3.747774     3.740130     3.732487     3.724844     3.717201     3.709558     3.701914
      3.694271     3.686628     3.678985     3.671341     3.663698     3.656055     3.648412     3.640769     3.633125     3.625482
      3.617839     3.610196     3.602552     3.594909     3.587266     3.579623     3.571980     3.564336     3.556693     3.549050
      3.541407     3.533763     3.526120     3.518477     3.510834     3.503191     3.495547     3.487904     3.480261     3.472618
      3.464974     3.457331     3.449688     3.442045     3.434402     3.426758     3.419115     3.411472     3.403829     3.396185
      3.388542     3.380899     3.373256     3.365613     3.357969     3.350326     3.342683     3.335040     3.327396     3.319753
      3.312110     3.304467     3.296824     3.289180     3.281537     3.273894     3.266251     3.258607     3.250964     3.243321
      3.235678     3.228034     3.220391     3.212748     3.205105     3.197462     3.189818     3.182175     3.174532     3.166889
      3.159245     3.151602     3.143959     3.136316     3.128673     3.121029     3.113386     3.105743     3.098100     3.090456
      3.082813     3.075170     3.067527     3.059884     3.052240     3.044597     3.036954     3.029311     3.021667     3.014024
      3.006381     2.998738     2.991095     2.983451     2.975808     2.968165     2.960522     2.952878     2.945235     2.937592
      2.929949     2.922306     2.914662     2.907019     2.899376     2.891733     2.884089     2.876446     2.868803     2.861160
      2.853517     2.845873     2.838230     2.830587     2.822944     2.815300     2.807657     2.800014     2.792371     2.784728
      2.777084     2.769441     2.761798     2.754155     2.746511     2.738868     2.731225     2.723582     2.715939     2.708295
      2.700652     2.693009     2.685366     2.677722     2.670079     2.662436     2.654793     2.647150     2.639506     2.631863
      2.624220     2.616577     2.608933     2.601290     2.593647     2.586004     2.578361     2.570717     2.563074     2.555431
      2.547788     2.540144     2.532501     2.524858     2.517215     2.509572     2.501928     2.494285     2.486642     2.478999
      2.471355     2.463712     2.456069     2.448426     2.440783     2.433139     2.425496     2.417853     2.410210     2.402566
      2.394923     2.387280     2.379637     2.371994     2.364350     2.356707     2.349064     2.341421     2.333777     2.326134
      2.318491     2.310848     2.303205     2.295561     2.287918     2.280275     2.272632     2.264988     2.257345     2.249702
      2.242059     2.234416     2.226772     2.219129     2.211486     2.203843     2.196199     2.188556     2.180913     2.173270
      2.165627     2.157983     2.150340     2.142697     2.135054     2.127410     2.119767     2.112124     2.104481     2.096838
      2.089194     2.081551     2.073908     2.066265     2.058621     2.050978     2.043335     2.035692     2.028049     2.020405
      2.012762     2.005119     1.997476     1.989833     1.982190     1.974546     1.966903     1.959260     1.951617     1.943974
      1.936331     1.928688     1.921045     1.913402     1.905759     1.898115     1.890472     1.882829     1.875186     1.867543
      1.859900     1.852257     1.844614     1.836971     1.829327     1.821684     1.814041     1.806398     1.798755     1.791112
      1.783469     1.775826     1.768183     1.760540     1.752896     1.745253     1.737610     1.729967     1.722324     1.714681
      1.707038     1.699395     1.691752     1.684108     1.676465     1.668822     1.661179     1.653536     1.645893     1.638250
      1.630607     1.622964     1.615321     1.607677     1.600034     1.592391     1.584748     1.577105     1.569462     1.561819
      1.554176     1.546533     1.538890     1.531246     1.523603     1.515960     1.508317     1.500674     1.493031     1.485388
      1.477745     1.470102     1.462458     1.454815     1.447172     1.439529     1.431886     1.424243     1.416600     1.408957
      1.401314     1.393671     1.386027     1.378384     1.370741     1.363098     1.355455     1.347812     1.340169     1.332526
      1.324883     1.317240     1.309596     1.301953     1.294310     1.286667     1.279024     1.271381     1.263738     1.256095
      1.248452     1.240808     1.233165     1.225522     1.217879     1.210236     1.202593     1.194950     1.187307     1.179664
      1.172021     1.164377     1.156734     1.149091     1.141448     1.133805     1.126162     1.118519     1.110876     1.103233
      1.095590     1.087946     1.080303     1.072660     1.065017     1.057374     1.049731     1.042088     1.034445     1.026802
      1.019158     1.011515     1.003872     0.996229     0.988586     0.980943     0.973300     0.965657     0.958014     0.950371
      0.942727     0.935084     0.927441     0.919798     0.912155     0.904512     0.896869     0.889226     0.881583     0.873940
      0.866296     0.858653     0.851010     0.843367     0.835724     0.828081     0.820438     0.812795     0.805152     0.797508
      0.789865     0.782222     0.774579     0.766936     0.759293     0.751650     0.744007     0.736364     0.728721     0.721077
      0.713434     0.705791     0.698148     0.690505     0.682862     0.675219     0.667576     0.659933     0.652290     0.644646
      0.637003     0.629360     0.621717     0.614074     0.606431     0.598788     0.591145     0.583502     0.575858     0.568215
      0.560572     0.552929     0.545286     0.537643     0.530000     0.522357     0.514714     0.507071     0.499427     0.491784
      0.484141     0.476498     0.468855     0.461212     0.453569     0.445925     0.438282     0.430639     0.422996     0.415353
      0.407710     0.400067     0.392424     0.384780     0.377137     0.369494     0.361851     0.354208     0.346565     0.338922
      0.331278     0.323635     0.315992     0.308349     0.300706     0.293063     0.285420     0.277777     0.270133     0.262490
      0.254847     0.247204     0.239561     0.231918     0.224275     0.216631     0.208988     0.201345
 NY phased data points follow
   1.36475E+00  6.64025E-03  1.15267E+00  4.31506E+00  4.85836E+00  5.26184E+00  7.05149E+00  6.38894E+00  9.44706E+00  8.59066E+00
   9.25907E+00  8.19816E+00  4.25915E+00  8.84524E+00  3.93596E+00  1.60758E+00  3.82801E+00  2.55478E+00  1.99982E+00  2.40423E+00
   2.60573E+00  3.69995E+00  2.14550E+00  9.95926E-01  2.51601E+00 -1.48447E-01 -8.83079E-01  1.81165E+00  2.19415E+00  1.35894E-01
  -3.84395E-01  3.38672E+00  1.13285E+00  4.29372E+00  1.49042E+00 -1.05353E+00  1.90062E+00  7.46222E-01  2.13840E+00  2.26999E+00
  -2.11966E-01  4.20912E-02 -2.87789E-01  4.09853E+00  2.00031E+00  2.38463E+00  2.19194E+00  1.22947E+00  7.67768E-02  1.13169E-01
   3.78723E-01  9.35314E-01 -1.56201E+00  2.69500E+00 -7.12769E-01  9.22526E-01  9.57567E-01 -1.20288E+00 -1.71322E-01  8.59617E-01
  -4.00025E-01  2.32688E-01 -3.83540E-01 -1.64833E+00 -3.27799E+00 -4.61027E+00 -2.55402E+00 -3.06843E+00  6.16932E-01 -2.64278E+00
  -2.06929E+00 -3.14053E-01 -1.31377E+00 -1.65599E+00 -3.89195E-01 -2.28443E+00 -2.13033E-01 -2.84379E+00  7.01014E-01 -4.00938E+00
  -1.24488E+00 -5.18216E-01 -1.96983E+00  4.59594E-01  4.07325E-01 -1.19592E+00  5.39754E-02  6.92850E-02 -1.88446E+00  1.10298E-01
   7.30123E-02  1.23086E+00  5.39608E+00  2.02512E+00  1.96066E+00  1.08963E+00  1.65059E+00  3.43905E+00  4.44775E+00  8.79748E+00
   9.38737E+00  1.31923E+01  1.14014E+01  9.29238E+00  1.31370E+01  7.46985E+00  8.83649E+00  1.09165E+01  8.17019E+00  6.30164E+00
   2.10311E+00  6.04421E+00  1.69469E+00  1.46480E+00  4.54628E-01  6.00212E+00  1.96973E+00  6.30221E+00  1.96228E+00  6.50768E+00
   3.49451E+00  2.84908E+00  7.28889E+00  9.48587E+00  9.57014E+00  1.62383E+01  1.53563E+01  1.23526E+01  1.38709E+01  1.35505E+01
   1.57296E+01  1.11612E+01  9.29316E+00  7.44228E+00  6.44171E+00  6.84808E+00  2.37663E+00  4.50337E+00  8.98954E-01  3.82683E+00
   9.86147E-01 -3.12015E-01 -2.07922E+00 -2.18825E+00  6.24062E-01  2.17795E+00  2.82891E-01  1.28092E+00 -1.61918E+00  1.27108E+00
   6.19591E-01 -1.39723E+00 -1.23531E+00 -3.19154E+00 -4.13308E-01 -1.14031E+00 -4.47787E+00 -2.90527E+00 -8.82634E-01 -1.56999E+00
  -2.19573E+00 -2.22647E+00  7.67146E-02 -3.21821E+00 -2.24876E+00 -3.40448E+00 -1.97556E+00 -9.45648E-01 -1.67667E+00 -1.76637E+00
  -3.58047E+00 -4.78823E+00 -3.56112E+00 -6.57255E+00 -7.21464E+00 -3.49129E+00 -6.37639E+00 -5.26965E+00 -5.22775E+00 -6.01912E+00
  -2.40444E+00 -3.22246E+00 -6.99568E+00 -5.09988E+00 -7.75164E+00 -6.62435E+00 -4.61931E+00 -4.20006E+00 -1.02527E+00 -7.69383E-01
   1.40931E+00  5.25205E-01  1.59867E+00  7.41819E-01 -3.57108E+00 -1.23309E+00 -1.55633E+00 -5.95974E-01 -4.04778E+00  1.34460E+00
   1.17670E+00  2.08451E+00  2.63500E+00 -8.59180E-02  1.75751E+00 -1.73635E+00  1.54654E+00 -1.08682E+00 -2.86742E+00 -2.55855E+00
  -3.12247E-01  1.35379E+00 -5.08434E-02  4.27186E+00  4.66351E+00  5.10376E+00  1.41841E+00  3.96558E+00  3.08084E+00  1.98563E+00
   1.99413E+00  8.55042E-01  3.71720E+00  8.87937E-01  1.29979E+00  4.35466E+00  2.55519E+00  3.54337E+00  5.02445E+00  3.27739E+00
   4.05014E+00  4.89132E+00  6.75080E+00  6.48738E+00  4.00939E+00  2.92624E+00  4.27328E+00  4.02136E+00  1.87821E+00  2.84390E+00
   2.21002E+00  3.62551E+00  2.50520E+00  3.60776E+00  2.10754E+00  4.08083E+00  3.85344E+00  5.97557E+00  5.85055E+00  7.61588E+00
   9.69954E+00  1.01905E+01  1.17094E+01  1.34720E+01  1.57265E+01  1.58474E+01  2.05660E+01  2.60655E+01  2.80684E+01  3.30858E+01
   3.16859E+01  2.95537E+01  2.81166E+01  2.59635E+01  2.11983E+01  2.33755E+01  1.71704E+01  1.56598E+01  1.36670E+01  7.71446E+00
   9.55966E+00  1.20481E+01  1.07584E+01  5.63547E+00  8.07757E+00  5.26647E+00  3.07113E+00  4.44770E+00  5.40133E+00  4.02520E+00
   4.41240E+00  5.17002E+00  3.13249E+00  2.07003E+00  6.07839E+00  3.32274E+00  3.12796E+00  4.72464E+00  3.85223E+00  4.26722E+00
   3.68037E+00  2.84140E+00  2.68018E+00  4.55407E+00  3.25421E+00  2.16746E+00  6.96980E+00  2.77746E+00  4.20439E+00  4.18677E+00
   2.67030E+00  5.59792E+00  6.19353E+00  5.94403E+00  6.64463E+00  4.58636E+00  5.46000E+00  7.10713E+00  6.97992E+00  8.15887E+00
   1.16785E+01  4.79978E+00  7.59399E+00  5.22535E+00  7.82971E+00  6.49663E+00  7.71943E+00  8.36015E+00  5.32460E+00  9.10295E+00
   9.69803E+00  9.39875E+00  9.95527E+00  9.47669E+00  7.21523E+00  9.65968E+00  1.05462E+01  8.54036E+00  9.84665E+00  8.54615E+00
   7.89409E+00  1.10250E+01  9.38724E+00  1.29120E+01  9.97945E+00  1.03555E+01  9.85604E+00  9.72711E+00  1.03043E+01  9.47020E+00
   7.80009E+00  9.08734E+00  6.43630E+00  6.84094E+00  9.33988E+00  7.75756E+00  8.02822E+00  7.15478E+00  5.57282E+00  7.65542E+00
   7.22345E+00  6.53042E+00  7.54809E+00  6.53116E+00  6.46282E+00  8.14306E+00  6.47465E+00  6.50148E+00  4.73497E+00  4.09674E+00
   4.43431E+00  5.11637E+00  6.89539E+00  6.90586E+00  6.67388E+00  6.73092E+00  5.20992E+00  4.54315E+00  7.07975E+00  5.60544E+00
   8.23484E+00  7.08015E+00  7.58890E+00  4.03992E+00  3.33033E+00  1.34701E+00  5.07618E+00  7.03406E+00  3.79078E+00  3.57330E+00
   5.66360E+00  3.07587E+00  4.85268E+00  7.04809E+00  3.86032E+00  5.06658E+00  4.87853E+00  7.14741E+00  7.51117E+00  4.76239E+00
   3.39795E+00  4.34047E+00  4.78176E+00  5.66688E+00  3.16743E+00  6.36620E+00  5.78895E+00  4.20654E+00  4.11824E+00  3.41530E+00
   6.91582E+00  5.44393E+00  3.18330E+00  5.71525E+00  5.33923E+00  5.44820E+00  5.11013E+00  5.97473E+00  3.47883E+00  4.93167E+00
   6.27602E+00  6.75665E+00  6.96229E+00  6.36041E+00  5.69866E+00  5.57791E+00  5.28369E+00  5.77626E+00  5.20576E+00  2.99834E+00
   4.33288E+00  3.73169E+00  4.09333E+00  2.54614E+00  4.32841E+00  4.03644E+00  2.79715E+00  5.16803E+00  6.60562E+00  3.31650E+00
   2.87838E+00  2.99199E+00  5.53327E+00  7.21452E+00  2.53696E+00  3.42909E+00  2.47513E+00  2.90179E+00  5.25863E-01  2.08977E+00
   3.12342E+00  3.08918E+00  1.15857E+00  3.75381E+00  3.34756E+00  1.68246E+00  3.63696E+00  2.41477E+00  6.13895E+00  2.64081E+00
   3.45638E+00  5.33145E+00  2.88482E+00  3.43330E+00  2.86845E+00  1.55967E+00  3.38221E+00  8.95585E-01  3.03550E+00  2.17781E+00
   3.16667E+00  2.86780E+00  2.53666E-01  1.17726E+00  2.97764E+00  3.58108E+00  4.02754E+00  3.78340E+00  3.85438E+00  2.88582E+00
   3.10453E+00  3.82752E+00  5.53580E-01  3.63891E+00  3.53477E+00  4.98324E+00  1.81264E+00  3.77627E+00  2.37372E+00 -1.63335E+00
   3.38501E+00  3.35615E+00  1.61297E+00  1.78565E+00  4.42239E-01  3.43873E+00  3.47525E+00  3.42887E+00  2.27774E+00  1.56218E+00
  -2.38483E-01  9.44096E-01  1.81988E+00  2.93625E+00  3.11760E+00  2.43486E+00  2.77523E+00  2.66209E+00
 NY points of the fit to the data follow
   6.82821E-01  9.81738E-01  1.38656E+00  2.14410E+00  3.34447E+00  4.87977E+00  6.47662E+00  7.74098E+00  8.37762E+00  8.40874E+00
   8.09633E+00  7.65749E+00  7.16258E+00  6.59040E+00  5.86017E+00  4.92170E+00  3.95713E+00  3.09131E+00  2.52576E+00  2.31613E+00
   2.13659E+00  1.80199E+00  1.48603E+00  1.16671E+00  7.09751E-01  3.17160E-01  2.49633E-01  6.80004E-01  1.55508E+00  2.56882E+00
   3.30160E+00  3.51468E+00  3.26642E+00  2.73523E+00  2.10287E+00  1.54809E+00  1.16873E+00  9.77168E-01  9.32879E-01  9.56653E-01
   1.07900E+00  1.19404E+00  1.23044E+00  1.17814E+00  1.07450E+00  1.03457E+00  9.68199E-01  9.10635E-01  9.11100E-01  9.13900E-01
   8.10462E-01  5.71715E-01  2.67294E-01 -8.03097E-03 -2.55208E-01 -4.56952E-01 -5.69862E-01 -6.36660E-01 -7.28353E-01 -8.53361E-01
  -9.74679E-01 -1.06658E+00 -1.14252E+00 -1.20062E+00 -1.23469E+00 -1.24442E+00 -1.25223E+00 -1.26597E+00 -1.27144E+00 -1.25925E+00
  -1.23430E+00 -1.21218E+00 -1.19706E+00 -1.18761E+00 -1.17502E+00 -1.10194E+00 -9.98344E-01 -9.60691E-01 -9.76407E-01 -9.78248E-01
  -9.14267E-01 -7.70459E-01 -5.68400E-01 -3.70937E-01 -2.36376E-01 -1.87238E-01 -2.27421E-01 -3.20398E-01 -4.07426E-01 -4.68294E-01
  -4.87280E-01 -2.65795E-01  6.60832E-01  1.69900E+00  2.25686E+00  2.55459E+00  3.03402E+00  4.01154E+00  5.58543E+00  7.62922E+00
   9.73982E+00  1.13407E+01  1.20198E+01  1.18339E+01  1.11717E+01  1.03229E+01  9.36678E+00  8.24828E+00  6.92659E+00  5.54461E+00
   4.29394E+00  3.30844E+00  2.65826E+00  2.15324E+00  1.41073E+00  7.03590E-01  1.33266E+00  2.51834E+00  3.22945E+00  3.64811E+00
   4.28421E+00  5.54825E+00  7.57400E+00  1.00931E+01  1.25540E+01  1.43700E+01  1.51279E+01  1.49198E+01  1.42025E+01  1.32839E+01
   1.22198E+01  1.09244E+01  9.33055E+00  7.61322E+00  6.03575E+00  4.78461E+00  3.93174E+00  3.24249E+00  2.22496E+00  9.13316E-01
   2.06751E-01  1.35700E-02 -6.90861E-02 -1.27908E-01 -1.97612E-01 -2.87279E-01 -3.71965E-01 -4.32442E-01 -4.86627E-01 -5.50557E-01
  -6.56364E-01 -7.93375E-01 -9.05876E-01 -9.75474E-01 -9.98170E-01 -1.03102E+00 -1.13863E+00 -1.29954E+00 -1.46476E+00 -1.58765E+00
  -1.64122E+00 -1.63904E+00 -1.62658E+00 -1.65235E+00 -1.74303E+00 -1.89480E+00 -2.05699E+00 -2.15353E+00 -2.21146E+00 -2.29570E+00
  -2.46518E+00 -2.69133E+00 -2.86910E+00 -2.94944E+00 -2.98127E+00 -3.01052E+00 -3.07000E+00 -3.13874E+00 -3.12171E+00 -3.02496E+00
  -2.88840E+00 -2.73421E+00 -2.62722E+00 -2.58617E+00 -2.54066E+00 -2.47008E+00 -2.29477E+00 -2.03960E+00 -1.78599E+00 -1.59938E+00
  -1.46077E+00 -1.34766E+00 -1.28901E+00 -1.18601E+00 -9.84194E-01 -7.17310E-01 -3.88181E-01  2.43782E-02  3.99946E-01  6.74696E-01
   1.16944E+00  1.74897E+00  2.00865E+00  1.74425E+00  9.93275E-01  4.79581E-02 -1.02929E+00 -2.05437E+00 -2.62351E+00 -2.56229E+00
  -1.96032E+00 -1.14121E+00 -2.52285E-01  7.66630E-01  1.85387E+00  2.59581E+00  2.68315E+00  2.22661E+00  1.50947E+00  7.89456E-01
   3.50782E-01  4.33114E-01  8.59258E-01  1.21948E+00  1.54103E+00  1.86234E+00  2.26270E+00  2.64954E+00  2.94416E+00  3.28925E+00
   3.55232E+00  3.46083E+00  3.15833E+00  3.12066E+00  3.57501E+00  4.26468E+00  4.82047E+00  5.12887E+00  5.13796E+00  4.82891E+00
   4.34793E+00  3.87422E+00  3.57646E+00  3.47308E+00  3.45431E+00  3.49030E+00  3.72785E+00  4.22493E+00  4.98213E+00  6.63852E+00
   9.44112E+00  1.16585E+01  1.28264E+01  1.37446E+01  1.53179E+01  1.78756E+01  2.13447E+01  2.52426E+01  2.87013E+01  3.07729E+01
   3.10296E+01  2.99635E+01  2.82891E+01  2.63795E+01  2.42421E+01  2.17113E+01  1.88587E+01  1.60320E+01  1.35622E+01  1.17216E+01
   1.04929E+01  9.15611E+00  7.07167E+00  5.11915E+00  4.37704E+00  4.06500E+00  3.84067E+00  3.68426E+00  3.55761E+00  3.42467E+00
   3.31169E+00  3.22131E+00  3.15374E+00  3.11176E+00  3.08928E+00  3.06793E+00  3.05232E+00  3.05987E+00  3.09404E+00  3.15180E+00
   3.23094E+00  3.33238E+00  3.45924E+00  3.60714E+00  3.76788E+00  3.94200E+00  4.12938E+00  4.32766E+00  4.53393E+00  4.74624E+00
   4.96168E+00  5.17544E+00  5.38370E+00  5.58356E+00  5.77161E+00  5.94626E+00  6.10707E+00  6.25376E+00  6.38724E+00  6.50967E+00
   6.62454E+00  6.73611E+00  6.84934E+00  6.97076E+00  7.10937E+00  7.28166E+00  7.50321E+00  7.70185E+00  7.84916E+00  8.00234E+00
   8.20280E+00  8.45166E+00  8.71525E+00  8.94248E+00  9.14735E+00  9.32090E+00  9.39153E+00  9.36220E+00  9.29046E+00  9.22567E+00
   9.20170E+00  9.23450E+00  9.32175E+00  9.44819E+00  9.56914E+00  9.63745E+00  9.64220E+00  9.57418E+00  9.42349E+00  9.23102E+00
   9.06016E+00  8.87493E+00  8.64570E+00  8.39545E+00  8.15807E+00  7.94961E+00  7.73494E+00  7.46675E+00  7.19793E+00  6.98840E+00
   6.82498E+00  6.69735E+00  6.59867E+00  6.52238E+00  6.46056E+00  6.40570E+00  6.35374E+00  6.30109E+00  6.24337E+00  6.17947E+00
   6.11304E+00  6.04152E+00  5.95944E+00  5.86798E+00  5.76980E+00  5.66632E+00  5.55493E+00  5.43283E+00  5.30708E+00  5.18295E+00
   5.06050E+00  4.94070E+00  4.82513E+00  4.71539E+00  4.61315E+00  4.51992E+00  4.43718E+00  4.36619E+00  4.30816E+00  4.26405E+00
   4.23474E+00  4.22085E+00  4.22291E+00  4.24123E+00  4.27601E+00  4.32721E+00  4.39462E+00  4.47775E+00  4.57592E+00  4.68815E+00
   4.81322E+00  4.94951E+00  5.09513E+00  5.24782E+00  5.40505E+00  5.56396E+00  5.72152E+00  5.87443E+00  6.01938E+00  6.15298E+00
   6.27206E+00  6.37361E+00  6.45501E+00  6.51401E+00  6.54896E+00  6.55875E+00  6.54299E+00  6.50189E+00  6.43633E+00  6.34774E+00
   6.23814E+00  6.10992E+00  5.96587E+00  5.80896E+00  5.64225E+00  5.46878E+00  5.29151E+00  5.11319E+00  4.93632E+00  4.76305E+00
   4.59522E+00  4.43427E+00  4.28136E+00  4.13727E+00  4.00253E+00  3.87734E+00  3.76172E+00  3.65549E+00  3.55835E+00  3.46988E+00
   3.38960E+00  3.31693E+00  3.25135E+00  3.19225E+00  3.13914E+00  3.09144E+00  3.04870E+00  3.01041E+00  2.97617E+00  2.94556E+00
   2.91827E+00  2.89395E+00  2.87234E+00  2.85314E+00  2.83614E+00  2.82113E+00  2.80794E+00  2.79639E+00  2.78634E+00  2.77763E+00
   2.77018E+00  2.76386E+00  2.75861E+00  2.75431E+00  2.75090E+00  2.74829E+00  2.74644E+00  2.74529E+00  2.74480E+00  2.74489E+00
   2.74555E+00  2.74671E+00  2.74838E+00  2.75050E+00  2.75305E+00  2.75598E+00  2.75929E+00  2.76294E+00  2.76693E+00  2.77123E+00
   2.77582E+00  2.78067E+00  2.78579E+00  2.79115E+00  2.79676E+00  2.80258E+00  2.80862E+00  2.81484E+00  2.82126E+00  2.82785E+00
   2.83464E+00  2.84157E+00  2.84867E+00  2.85590E+00  2.86330E+00  2.87083E+00  2.87852E+00  2.88632E+00  2.89425E+00  2.90230E+00
   2.91049E+00  2.91879E+00  2.92723E+00  2.93577E+00  2.94444E+00  2.95322E+00  2.96216E+00  2.97123E+00
 NY background values follow
    -3.065E+00   -3.054E+00   -3.042E+00   -3.030E+00   -3.018E+00   -3.007E+00   -2.995E+00   -2.983E+00   -2.971E+00   -2.960E+00
    -2.948E+00   -2.936E+00   -2.924E+00   -2.913E+00   -2.901E+00   -2.889E+00   -2.877E+00   -2.866E+00   -2.854E+00   -2.842E+00
    -2.831E+00   -2.819E+00   -2.807E+00   -2.795E+00   -2.784E+00   -2.772E+00   -2.760E+00   -2.748E+00   -2.737E+00   -2.725E+00
    -2.713E+00   -2.701E+00   -2.690E+00   -2.678E+00   -2.666E+00   -2.654E+00   -2.643E+00   -2.631E+00   -2.619E+00   -2.608E+00
    -2.596E+00   -2.584E+00   -2.572E+00   -2.561E+00   -2.549E+00   -2.537E+00   -2.525E+00   -2.514E+00   -2.502E+00   -2.490E+00
    -2.478E+00   -2.467E+00   -2.455E+00   -2.443E+00   -2.431E+00   -2.420E+00   -2.408E+00   -2.396E+00   -2.385E+00   -2.373E+00
    -2.361E+00   -2.349E+00   -2.338E+00   -2.326E+00   -2.314E+00   -2.302E+00   -2.291E+00   -2.279E+00   -2.267E+00   -2.255E+00
    -2.244E+00   -2.232E+00   -2.220E+00   -2.208E+00   -2.197E+00   -2.185E+00   -2.173E+00   -2.162E+00   -2.150E+00   -2.138E+00
    -2.126E+00   -2.115E+00   -2.103E+00   -2.091E+00   -2.079E+00   -2.068E+00   -2.056E+00   -2.044E+00   -2.032E+00   -2.021E+00
    -2.009E+00   -1.997E+00   -1.985E+00   -1.974E+00   -1.962E+00   -1.950E+00   -1.939E+00   -1.927E+00   -1.915E+00   -1.903E+00
    -1.892E+00   -1.880E+00   -1.868E+00   -1.856E+00   -1.845E+00   -1.833E+00   -1.821E+00   -1.809E+00   -1.798E+00   -1.786E+00
    -1.774E+00   -1.762E+00   -1.751E+00   -1.739E+00   -1.727E+00   -1.716E+00   -1.704E+00   -1.692E+00   -1.680E+00   -1.669E+00
    -1.657E+00   -1.645E+00   -1.633E+00   -1.622E+00   -1.610E+00   -1.598E+00   -1.586E+00   -1.575E+00   -1.563E+00   -1.551E+00
    -1.539E+00   -1.528E+00   -1.516E+00   -1.504E+00   -1.493E+00   -1.481E+00   -1.469E+00   -1.457E+00   -1.446E+00   -1.434E+00
    -1.422E+00   -1.410E+00   -1.399E+00   -1.387E+00   -1.375E+00   -1.363E+00   -1.352E+00   -1.340E+00   -1.328E+00   -1.316E+00
    -1.305E+00   -1.293E+00   -1.281E+00   -1.270E+00   -1.258E+00   -1.246E+00   -1.234E+00   -1.223E+00   -1.211E+00   -1.199E+00
    -1.187E+00   -1.176E+00   -1.164E+00   -1.152E+00   -1.140E+00   -1.129E+00   -1.117E+00   -1.105E+00   -1.093E+00   -1.082E+00
    -1.070E+00   -1.058E+00   -1.046E+00   -1.035E+00   -1.023E+00   -1.011E+00   -9.995E-01   -9.878E-01   -9.761E-01   -9.643E-01
    -9.526E-01   -9.409E-01   -9.291E-01   -9.174E-01   -9.056E-01   -8.939E-01   -8.822E-01   -8.704E-01   -8.587E-01   -8.470E-01
    -8.352E-01   -8.235E-01   -8.117E-01   -8.000E-01   -7.883E-01   -7.765E-01   -7.648E-01   -7.531E-01   -7.413E-01   -7.296E-01
    -7.179E-01   -7.061E-01   -6.944E-01   -6.826E-01   -6.709E-01   -6.592E-01   -6.474E-01   -6.357E-01   -6.240E-01   -6.122E-01
    -6.005E-01   -5.887E-01   -5.770E-01   -5.653E-01   -5.535E-01   -5.418E-01   -5.301E-01   -5.183E-01   -5.066E-01   -4.948E-01
    -4.831E-01   -4.714E-01   -4.596E-01   -4.479E-01   -4.362E-01   -4.244E-01   -4.127E-01   -4.010E-01   -3.892E-01   -3.775E-01
    -3.657E-01   -3.540E-01   -3.423E-01   -3.305E-01   -3.188E-01   -3.071E-01   -2.953E-01   -2.836E-01   -2.719E-01   -2.601E-01
    -2.484E-01   -2.366E-01   -2.249E-01   -2.132E-01   -2.014E-01   -1.897E-01   -1.780E-01   -1.662E-01   -1.545E-01   -1.428E-01
    -1.310E-01   -1.193E-01   -1.076E-01   -9.582E-02   -8.408E-02   -7.235E-02   -6.061E-02   -4.888E-02   -3.714E-02   -2.541E-02
    -1.367E-02   -1.937E-03    9.798E-03    2.153E-02    3.327E-02    4.500E-02    5.674E-02    6.847E-02    8.021E-02    9.194E-02
     1.037E-01    1.154E-01    1.271E-01    1.389E-01    1.506E-01    1.623E-01    1.741E-01    1.858E-01    1.976E-01    2.093E-01
     2.210E-01    2.328E-01    2.445E-01    2.562E-01    2.680E-01    2.797E-01    2.914E-01    3.032E-01    3.149E-01    3.266E-01
     3.384E-01    3.501E-01    3.618E-01    3.736E-01    3.853E-01    3.970E-01    4.088E-01    4.205E-01    4.322E-01    4.440E-01
     4.557E-01    4.674E-01    4.792E-01    4.909E-01    5.026E-01    5.144E-01    5.261E-01    5.378E-01    5.496E-01    5.613E-01
     5.730E-01    5.847E-01    5.965E-01    6.082E-01    6.199E-01    6.317E-01    6.434E-01    6.551E-01    6.669E-01    6.786E-01
     6.903E-01    7.021E-01    7.138E-01    7.255E-01    7.373E-01    7.490E-01    7.607E-01    7.725E-01    7.842E-01    7.959E-01
     8.077E-01    8.194E-01    8.311E-01    8.428E-01    8.546E-01    8.663E-01    8.780E-01    8.898E-01    9.015E-01    9.132E-01
     9.250E-01    9.367E-01    9.484E-01    9.602E-01    9.719E-01    9.836E-01    9.954E-01    1.007E+00    1.019E+00    1.031E+00
     1.042E+00    1.054E+00    1.066E+00    1.077E+00    1.089E+00    1.101E+00    1.113E+00    1.124E+00    1.136E+00    1.148E+00
     1.160E+00    1.171E+00    1.183E+00    1.195E+00    1.206E+00    1.218E+00    1.230E+00    1.242E+00    1.253E+00    1.265E+00
     1.277E+00    1.289E+00    1.300E+00    1.312E+00    1.324E+00    1.336E+00    1.347E+00    1.359E+00    1.371E+00    1.382E+00
     1.394E+00    1.406E+00    1.418E+00    1.429E+00    1.441E+00    1.453E+00    1.465E+00    1.476E+00    1.488E+00    1.500E+00
     1.511E+00    1.523E+00    1.535E+00    1.547E+00    1.558E+00    1.570E+00    1.582E+00    1.594E+00    1.605E+00    1.617E+00
     1.629E+00    1.640E+00    1.652E+00    1.664E+00    1.676E+00    1.687E+00    1.699E+00    1.711E+00    1.723E+00    1.734E+00
     1.746E+00    1.758E+00    1.769E+00    1.781E+00    1.793E+00    1.805E+00    1.816E+00    1.828E+00    1.840E+00    1.852E+00
     1.863E+00    1.875E+00    1.887E+00    1.898E+00    1.910E+00    1.922E+00    1.934E+00    1.945E+00    1.957E+00    1.969E+00
     1.981E+00    1.992E+00    2.004E+00    2.016E+00    2.027E+00    2.039E+00    2.051E+00    2.063E+00    2.074E+00    2.086E+00
     2.098E+00    2.110E+00    2.121E+00    2.133E+00    2.145E+00    2.157E+00    2.168E+00    2.180E+00    2.192E+00    2.203E+00
     2.215E+00    2.227E+00    2.239E+00    2.250E+00    2.262E+00    2.274E+00    2.286E+00    2.297E+00    2.309E+00    2.321E+00
     2.332E+00    2.344E+00    2.356E+00    2.368E+00    2.379E+00    2.391E+00    2.403E+00    2.415E+00    2.426E+00    2.438E+00
     2.450E+00    2.461E+00    2.473E+00    2.485E+00    2.497E+00    2.508E+00    2.520E+00    2.532E+00    2.544E+00    2.555E+00
     2.567E+00    2.579E+00    2.590E+00    2.602E+00    2.614E+00    2.626E+00    2.637E+00    2.649E+00    2.661E+00    2.673E+00
     2.684E+00    2.696E+00    2.708E+00    2.719E+00    2.731E+00    2.743E+00    2.755E+00    2.766E+00
 Ala      Conc. = 1.29E+02
