 LCModel (Version 6.3-1L) Copyright: S.W. Provencher.          Ref.: Magn. Reson. Med. 30:672-679 (1993).                
 Slice#1 Row#4 Col#9  PD_05_press_1_raw_act
 36 lines in following concentration table = NCONC+1
    Conc.  %SD /Cr+PCr  Metabolite                                         
  308.850  52%   0.368 Ala                                                 
    0.000 999%   0.000 Asp                                                 
  575.710  52%   0.685 Cr                                                  
  264.146 114%   0.315 PCr                                                 
   36.708 386% 4.4E-02 GABA                                                
    0.000 999%   0.000 Glc                                                 
  776.485  47%   0.925 Gln                                                 
 1.39E+03  30%   1.652 Glu                                                 
  466.536   5%   0.555 GPC                                                 
    0.000 999%   0.000 PCh                                                 
  281.214  30%   0.335 GSH                                                 
  883.050  32%   1.051 Ins                                                 
    0.000 999%   0.000 Lac                                                 
 1.63E+03   5%   1.940 NAA                                                 
    0.000 999%   0.000 NAAG                                                
  115.211  24%   0.137 Scyllo                                              
    0.000 999%   0.000 Tau                                                 
  462.070  24%   0.550 -CrCH2                                              
  466.536   5%   0.555 GPC+PCh                                             
 1.63E+03   5%   1.940 NAA+NAAG                                            
  839.856   7%   1.000 Cr+PCr                                              
 2.16E+03  32%   2.577 Glu+Gln                                             
    0.000 999%   0.000 Lip13a                                              
  467.819  21%   0.557 Lip13b                                              
  106.289  55%   0.127 Lip09                                               
  998.627  14%   1.189 MM09                                                
   80.144  50% 9.5E-02 Lip20                                               
 2.44E+03  13%   2.902 MM20                                                
    0.000 999%   0.000 MM12                                                
 1.16E+03  21%   1.376 MM14                                                
  932.751  21%   1.111 MM17                                                
  467.819  21%   0.557 Lip13a+Lip13b                                       
 1.62E+03  14%   1.933 MM14+Lip13a+Lip13b+MM12                             
 1.10E+03  12%   1.316 MM09+Lip09                                          
 2.52E+03  12%   2.997 MM20+Lip20                                          
   6 lines in following misc. output table
  FWHM = 0.076 ppm    S/N =   8                                            
  Data shift = 0.000 ppm                                                   
  Ph: -55 deg     -21.1 deg/ppm                                            
  alphaB,S = 1.3E+00,   1.9E+02                                            
   14 spline knots.   Ns =10(1)                                            
  (17) 4 infls.   (15) 1 extrs.                                            
  498 points on ppm-axis = NY
      4.000000     3.992357     3.984714     3.977070     3.969427     3.961784     3.954141     3.946497     3.938854     3.931211
      3.923568     3.915925     3.908281     3.900638     3.892995     3.885352     3.877708     3.870065     3.862422     3.854779
      3.847136     3.839492     3.831849     3.824206     3.816563     3.808919     3.801276     3.793633     3.785990     3.778347
      3.770703     3.763060     3.755417     3.747774     3.740130     3.732487     3.724844     3.717201     3.709558     3.701914
      3.694271     3.686628     3.678985     3.671341     3.663698     3.656055     3.648412     3.640769     3.633125     3.625482
      3.617839     3.610196     3.602552     3.594909     3.587266     3.579623     3.571980     3.564336     3.556693     3.549050
      3.541407     3.533763     3.526120     3.518477     3.510834     3.503191     3.495547     3.487904     3.480261     3.472618
      3.464974     3.457331     3.449688     3.442045     3.434402     3.426758     3.419115     3.411472     3.403829     3.396185
      3.388542     3.380899     3.373256     3.365613     3.357969     3.350326     3.342683     3.335040     3.327396     3.319753
      3.312110     3.304467     3.296824     3.289180     3.281537     3.273894     3.266251     3.258607     3.250964     3.243321
      3.235678     3.228034     3.220391     3.212748     3.205105     3.197462     3.189818     3.182175     3.174532     3.166889
      3.159245     3.151602     3.143959     3.136316     3.128673     3.121029     3.113386     3.105743     3.098100     3.090456
      3.082813     3.075170     3.067527     3.059884     3.052240     3.044597     3.036954     3.029311     3.021667     3.014024
      3.006381     2.998738     2.991095     2.983451     2.975808     2.968165     2.960522     2.952878     2.945235     2.937592
      2.929949     2.922306     2.914662     2.907019     2.899376     2.891733     2.884089     2.876446     2.868803     2.861160
      2.853517     2.845873     2.838230     2.830587     2.822944     2.815300     2.807657     2.800014     2.792371     2.784728
      2.777084     2.769441     2.761798     2.754155     2.746511     2.738868     2.731225     2.723582     2.715939     2.708295
      2.700652     2.693009     2.685366     2.677722     2.670079     2.662436     2.654793     2.647150     2.639506     2.631863
      2.624220     2.616577     2.608933     2.601290     2.593647     2.586004     2.578361     2.570717     2.563074     2.555431
      2.547788     2.540144     2.532501     2.524858     2.517215     2.509572     2.501928     2.494285     2.486642     2.478999
      2.471355     2.463712     2.456069     2.448426     2.440783     2.433139     2.425496     2.417853     2.410210     2.402566
      2.394923     2.387280     2.379637     2.371994     2.364350     2.356707     2.349064     2.341421     2.333777     2.326134
      2.318491     2.310848     2.303205     2.295561     2.287918     2.280275     2.272632     2.264988     2.257345     2.249702
      2.242059     2.234416     2.226772     2.219129     2.211486     2.203843     2.196199     2.188556     2.180913     2.173270
      2.165627     2.157983     2.150340     2.142697     2.135054     2.127410     2.119767     2.112124     2.104481     2.096838
      2.089194     2.081551     2.073908     2.066265     2.058621     2.050978     2.043335     2.035692     2.028049     2.020405
      2.012762     2.005119     1.997476     1.989833     1.982190     1.974546     1.966903     1.959260     1.951617     1.943974
      1.936331     1.928688     1.921045     1.913402     1.905759     1.898115     1.890472     1.882829     1.875186     1.867543
      1.859900     1.852257     1.844614     1.836971     1.829327     1.821684     1.814041     1.806398     1.798755     1.791112
      1.783469     1.775826     1.768183     1.760540     1.752896     1.745253     1.737610     1.729967     1.722324     1.714681
      1.707038     1.699395     1.691752     1.684108     1.676465     1.668822     1.661179     1.653536     1.645893     1.638250
      1.630607     1.622964     1.615321     1.607677     1.600034     1.592391     1.584748     1.577105     1.569462     1.561819
      1.554176     1.546533     1.538890     1.531246     1.523603     1.515960     1.508317     1.500674     1.493031     1.485388
      1.477745     1.470102     1.462458     1.454815     1.447172     1.439529     1.431886     1.424243     1.416600     1.408957
      1.401314     1.393671     1.386027     1.378384     1.370741     1.363098     1.355455     1.347812     1.340169     1.332526
      1.324883     1.317240     1.309596     1.301953     1.294310     1.286667     1.279024     1.271381     1.263738     1.256095
      1.248452     1.240808     1.233165     1.225522     1.217879     1.210236     1.202593     1.194950     1.187307     1.179664
      1.172021     1.164377     1.156734     1.149091     1.141448     1.133805     1.126162     1.118519     1.110876     1.103233
      1.095590     1.087946     1.080303     1.072660     1.065017     1.057374     1.049731     1.042088     1.034445     1.026802
      1.019158     1.011515     1.003872     0.996229     0.988586     0.980943     0.973300     0.965657     0.958014     0.950371
      0.942727     0.935084     0.927441     0.919798     0.912155     0.904512     0.896869     0.889226     0.881583     0.873940
      0.866296     0.858653     0.851010     0.843367     0.835724     0.828081     0.820438     0.812795     0.805152     0.797508
      0.789865     0.782222     0.774579     0.766936     0.759293     0.751650     0.744007     0.736364     0.728721     0.721077
      0.713434     0.705791     0.698148     0.690505     0.682862     0.675219     0.667576     0.659933     0.652290     0.644646
      0.637003     0.629360     0.621717     0.614074     0.606431     0.598788     0.591145     0.583502     0.575858     0.568215
      0.560572     0.552929     0.545286     0.537643     0.530000     0.522357     0.514714     0.507071     0.499427     0.491784
      0.484141     0.476498     0.468855     0.461212     0.453569     0.445925     0.438282     0.430639     0.422996     0.415353
      0.407710     0.400067     0.392424     0.384780     0.377137     0.369494     0.361851     0.354208     0.346565     0.338922
      0.331278     0.323635     0.315992     0.308349     0.300706     0.293063     0.285420     0.277777     0.270133     0.262490
      0.254847     0.247204     0.239561     0.231918     0.224275     0.216631     0.208988     0.201345
 NY phased data points follow
  -1.65167E+01 -1.62851E+01 -1.32429E+01 -1.04213E+01 -1.13832E+01 -8.73099E+00 -1.02044E+01 -4.38874E+00 -2.87548E+00 -5.48429E+00
  -4.49794E+00 -1.69217E+00 -4.38874E+00 -1.62895E+00 -6.29739E+00 -5.09210E+00 -7.40809E+00 -8.72395E+00 -8.85451E+00 -1.01146E+01
  -7.15503E+00 -8.26497E+00 -6.90605E+00 -7.01917E+00 -7.70212E+00 -7.77213E+00 -7.10830E+00 -6.31039E+00 -3.91676E+00 -6.26378E+00
  -6.14459E+00 -5.92788E+00 -7.43577E+00 -5.58873E+00 -3.39947E+00 -6.44832E+00 -6.33132E+00 -4.89358E+00 -7.01808E+00 -3.70226E+00
  -4.72509E+00  1.39729E+00 -8.01566E-01 -3.87307E+00 -8.39072E-01 -1.55989E-01 -2.95725E+00  1.32789E+00 -1.30705E+00 -3.59900E+00
  -4.06013E+00 -9.66926E-01 -7.47825E+00 -4.36754E+00 -6.46530E+00 -5.82587E+00 -7.53242E+00 -5.10914E+00 -9.52551E+00 -8.93429E+00
  -9.30962E+00 -7.92178E+00 -6.42785E+00 -6.46686E+00 -1.11776E+01 -1.19124E+01 -8.64111E+00 -8.34599E+00 -6.50087E+00 -9.40952E+00
  -8.52239E+00 -8.06721E+00 -8.30850E+00 -7.65411E+00 -8.17268E+00 -7.97182E+00 -6.75973E+00 -1.03361E+01 -5.77554E+00 -5.60094E+00
  -1.34529E+00 -4.88111E+00 -6.10969E+00 -4.28792E+00 -5.35644E+00 -3.67380E+00 -5.51428E+00 -5.90745E+00 -2.72021E+00  2.63231E-01
  -5.66717E+00 -5.31325E+00 -3.77527E+00  5.10035E+00  6.53015E+00  3.67273E+00  5.21752E+00  6.44519E+00  1.46994E+01  1.61543E+01
   1.85781E+01  2.00162E+01  2.16467E+01  2.54000E+01  2.22021E+01  2.31426E+01  1.46196E+01  1.22142E+01  5.06500E+00  6.39855E+00
  -1.08002E+00 -4.05412E+00 -5.28452E+00 -2.12459E+00 -2.41652E+00 -9.72089E-01 -6.00626E-01 -7.17019E-01  4.43907E+00  6.00160E+00
   4.95143E+00  4.60473E+00  2.99956E+00  7.71765E+00  1.15537E+01  1.39357E+01  1.52735E+01  1.74570E+01  1.38895E+01  1.65656E+01
   1.36307E+01  1.00731E+01  8.07162E+00  1.10121E+00  2.00641E+00 -1.68794E+00 -6.99884E-01 -4.16725E+00 -1.42160E+00 -3.26412E-01
  -2.91528E+00 -4.66459E+00 -1.39296E+00  1.50558E+00  7.12921E-01 -3.55462E+00 -2.55014E+00 -4.83064E+00 -7.29076E+00 -1.98604E+00
  -1.38144E+00 -6.62437E+00  2.04849E+00 -2.37896E+00 -2.96125E+00 -3.46668E+00 -2.95351E+00 -2.14705E+00 -2.74882E+00 -5.69349E+00
   1.98983E-01 -2.18814E+00 -2.39493E+00 -7.38377E+00 -5.60577E+00 -3.95890E+00 -2.76350E+00 -3.19955E+00 -4.78875E+00 -5.54366E+00
  -4.14116E+00 -6.59983E+00 -9.47763E+00 -6.30537E+00 -1.01972E+01 -8.87340E+00 -9.22951E+00 -6.71890E+00 -5.47146E+00 -9.36831E+00
  -5.46313E+00 -8.92650E+00 -8.84676E+00 -7.24820E+00 -4.37992E+00 -7.15855E+00 -7.74876E+00 -6.78655E+00 -3.97747E+00 -3.72621E+00
  -2.79979E+00 -1.88625E+00 -2.88999E+00  1.73623E+00  1.42462E-01 -1.42051E+00 -7.66695E+00 -3.15164E+00 -1.22774E+00 -5.19021E+00
   3.33648E-01 -2.48251E+00 -1.55968E+00 -2.88382E+00  1.17939E+00  1.13840E+00  2.73049E+00 -1.30008E-01  1.89853E-01  6.96693E-01
   5.00356E-01 -2.75501E-01  3.30879E-01 -2.02518E+00  1.47429E+00  5.03043E+00  2.26237E+00  6.96982E+00  4.37344E+00  1.29639E+00
   1.26649E+00  4.43994E+00  1.67454E+00 -5.12746E+00 -3.61134E+00  1.15823E+00  5.75152E+00 -4.34935E+00  4.52177E+00  7.78573E+00
   6.29462E+00  4.41107E+00  4.63826E+00  4.73980E+00  2.75906E+00  4.10982E+00  2.61887E+00  4.62029E+00  4.80930E+00  7.37600E+00
   2.20381E+00  7.19425E+00  1.69041E-01  4.40823E+00  4.97973E+00  1.84645E+00  6.90395E+00  9.82023E+00  6.75868E+00  1.10671E+01
   1.11737E+01  1.37528E+01  1.56745E+01  2.16412E+01  1.71895E+01  2.61807E+01  3.00369E+01  3.96756E+01  4.10834E+01  4.40222E+01
   4.41369E+01  4.24304E+01  4.24551E+01  3.76252E+01  3.51800E+01  2.84505E+01  2.26087E+01  1.47212E+01  1.67071E+01  9.79707E+00
   7.78901E+00  4.14886E+00  5.38562E+00  7.40265E+00  8.12357E+00  6.07192E+00  6.40112E+00  7.95991E+00  3.23683E+00  6.64897E+00
   6.02015E+00  3.91225E+00  6.24278E-01  1.47258E+00 -3.06365E-02  2.50554E+00  3.15636E+00 -5.78985E-01 -3.01273E-02  5.16273E+00
   7.04247E+00 -7.78243E-02  3.62962E+00  4.49956E+00  5.52858E+00  7.86477E+00  5.12466E+00  3.63618E+00  4.96865E+00  3.02398E+00
   6.82821E+00  4.71751E+00  6.14779E+00  8.59774E+00  5.24408E+00  2.52364E+00  9.61167E+00  2.08644E+00  5.73367E+00  6.57862E+00
  -6.70786E-01  5.55965E+00  8.05917E+00  5.03371E+00  6.72072E+00  6.83801E+00  7.21123E+00  4.64095E+00  5.63073E+00  4.34813E+00
   6.85292E+00  1.00862E+01  5.34127E+00  4.84271E+00  2.38446E+00  3.30115E+00  5.59921E+00  4.17798E+00  4.39905E+00  5.42787E+00
   3.47015E+00  3.54433E+00  3.57206E+00  7.80313E+00  6.22246E+00  7.22221E+00  1.04228E+01  8.36638E+00  6.93791E+00  5.05045E+00
   9.76387E+00  4.40660E+00  6.94728E+00  8.51237E+00  5.84686E+00  7.26509E+00  1.13311E+01  1.31793E+01  6.29257E+00  1.23897E+01
   9.64871E+00  6.13248E+00  1.01783E+01  9.56366E+00  9.51781E+00  4.96687E+00  7.86084E+00  4.88866E+00  1.61875E+00  6.13293E+00
   4.78817E+00  3.37473E+00  3.96940E-01  4.09673E-01  2.24686E+00 -1.45235E+00 -5.17422E-01  2.41740E+00 -7.38833E-01  8.33445E-01
  -7.45957E-01 -1.98669E+00 -6.35529E+00 -7.25100E+00 -4.40671E+00 -5.90294E+00 -4.91209E+00 -4.47794E+00 -5.04623E+00  1.14436E+00
  -4.64516E+00  3.22615E-01 -1.61289E+00 -4.60529E+00 -1.89134E+00  3.21886E-01  4.30038E+00  3.72663E+00  3.93801E+00 -1.09588E+00
   1.11235E+00  2.95354E+00  1.56060E+00  9.05289E+00  7.14758E+00  5.02137E+00  1.74786E+00  5.82677E+00  4.17900E+00  6.07152E+00
   9.22723E+00  8.34507E+00  7.00391E+00  1.08019E+01  1.31128E+01  7.05608E+00  1.00308E+01  1.01113E+01  1.06509E+01  1.24580E+01
   9.00624E+00  9.12415E+00  7.64257E+00  7.76785E+00  1.17765E+01  1.29285E+01  1.02059E+01  9.97385E+00  6.18853E+00  6.83486E+00
   9.56772E+00  6.75063E+00  6.59646E+00  7.42546E+00  3.21421E+00  9.99169E+00  7.46596E+00  4.11144E+00  4.64185E+00  6.00985E+00
   3.94561E+00  3.38494E+00  5.80309E+00  4.91934E+00  3.96736E+00  8.95291E+00  1.08119E+00  3.39552E+00  3.00444E+00  2.11723E+00
   4.92680E+00  3.24032E+00  2.20270E+00 -5.35471E-01  4.46723E+00  5.67431E+00  1.24935E+00  2.86703E+00  1.06881E+00  3.08138E+00
   5.70325E+00  1.73632E+00  2.00324E+00  8.00267E-01  4.07758E+00  3.24903E+00  4.60385E+00  3.62166E+00  5.49842E-01  4.47954E+00
   2.64813E+00  4.77369E+00  5.25239E+00  6.89819E+00  3.76309E+00  3.80865E+00  1.02272E+00  3.29702E+00  5.53426E+00  5.12038E+00
   2.75174E+00  7.66232E+00  4.57305E+00  6.11414E+00  7.38949E+00  3.36023E+00  5.05583E+00  6.14879E+00  5.51196E+00  1.06926E+01
   9.09839E+00  4.89927E+00  4.12339E+00  7.64591E+00  3.85526E+00  5.46145E+00  4.86207E+00  4.12673E+00  4.40787E+00  4.87637E+00
   1.02492E+01  6.64030E+00  1.04164E+01  7.81823E+00  1.11110E+01  1.66081E+00  4.56083E+00  5.96708E+00
 NY points of the fit to the data follow
  -1.17178E+01 -1.13681E+01 -1.06348E+01 -9.97933E+00 -9.50633E+00 -8.97528E+00 -8.14685E+00 -7.06205E+00 -5.97379E+00 -5.05250E+00
  -4.30944E+00 -3.73007E+00 -3.36896E+00 -3.32421E+00 -3.66050E+00 -4.31256E+00 -5.18137E+00 -6.11633E+00 -7.02996E+00 -7.80354E+00
  -8.18426E+00 -8.26130E+00 -8.17957E+00 -7.95672E+00 -7.63936E+00 -7.23850E+00 -6.81709E+00 -6.38077E+00 -5.88895E+00 -5.32552E+00
  -4.73553E+00 -4.17291E+00 -3.70558E+00 -3.46838E+00 -3.61627E+00 -4.11966E+00 -4.75804E+00 -5.28463E+00 -5.62809E+00 -5.82383E+00
  -5.89805E+00 -5.77836E+00 -5.38338E+00 -4.78386E+00 -4.12309E+00 -3.54980E+00 -3.16779E+00 -3.02941E+00 -3.14431E+00 -3.45768E+00
  -3.93868E+00 -4.56103E+00 -5.26626E+00 -5.95679E+00 -6.51768E+00 -6.88568E+00 -7.06957E+00 -7.10835E+00 -7.06541E+00 -6.99726E+00
  -6.96250E+00 -6.97511E+00 -7.02581E+00 -7.12502E+00 -7.27028E+00 -7.42411E+00 -7.52480E+00 -7.53197E+00 -7.44822E+00 -7.31106E+00
  -7.16259E+00 -7.02963E+00 -6.93314E+00 -6.88395E+00 -6.88068E+00 -6.89617E+00 -6.80324E+00 -6.49697E+00 -6.18348E+00 -5.99582E+00
  -5.86072E+00 -5.62618E+00 -5.24205E+00 -4.78810E+00 -4.38424E+00 -4.09905E+00 -3.92850E+00 -3.89508E+00 -4.03973E+00 -4.36035E+00
  -4.76172E+00 -4.87135E+00 -3.51946E+00 -7.29751E-01  2.01174E+00  4.07569E+00  6.04979E+00  8.78416E+00  1.24180E+01  1.63006E+01
   1.96566E+01  2.21355E+01  2.36373E+01  2.39789E+01  2.28926E+01  2.02658E+01  1.63346E+01  1.17026E+01  7.15014E+00  3.29820E+00
   3.46466E-01 -1.77986E+00 -3.22862E+00 -4.14142E+00 -4.54184E+00 -4.52724E+00 -3.88859E+00 -2.15722E+00 -8.27114E-02  1.60938E+00
   2.99158E+00  4.62951E+00  6.86621E+00  9.50672E+00  1.20407E+01  1.40484E+01  1.53792E+01  1.59807E+01  1.57388E+01  1.45616E+01
   1.24890E+01  9.77134E+00  6.84601E+00  4.14525E+00  1.92372E+00  2.11646E-01 -1.03572E+00 -1.89244E+00 -2.39074E+00 -2.55632E+00
  -2.55096E+00 -2.47492E+00 -2.38627E+00 -2.33002E+00 -2.33563E+00 -2.40940E+00 -2.53297E+00 -2.68392E+00 -2.83930E+00 -2.98349E+00
  -3.11897E+00 -3.28398E+00 -3.47676E+00 -3.64076E+00 -3.73537E+00 -3.75416E+00 -3.76935E+00 -3.85760E+00 -4.00232E+00 -4.14028E+00
  -4.23479E+00 -4.29778E+00 -4.35834E+00 -4.42618E+00 -4.49629E+00 -4.57796E+00 -4.71341E+00 -4.92414E+00 -5.14187E+00 -5.33473E+00
  -5.52797E+00 -5.77210E+00 -6.04579E+00 -6.25961E+00 -6.36754E+00 -6.41131E+00 -6.45321E+00 -6.51987E+00 -6.55032E+00 -6.44839E+00
  -6.21540E+00 -5.92525E+00 -5.64214E+00 -5.37998E+00 -5.11537E+00 -4.79398E+00 -4.40823E+00 -3.98292E+00 -3.57679E+00 -3.19462E+00
  -2.82031E+00 -2.45661E+00 -2.13380E+00 -1.89578E+00 -1.72950E+00 -1.57140E+00 -1.37443E+00 -1.13741E+00 -8.77586E-01 -5.96983E-01
  -4.23010E-01 -3.09458E-01 -1.53004E-01 -6.42483E-02 -1.81226E-01 -5.06561E-01 -8.63593E-01 -1.15825E+00 -1.52240E+00 -1.93296E+00
  -2.18122E+00 -2.06181E+00 -1.62024E+00 -1.05687E+00 -4.18553E-01  3.25718E-01  9.76263E-01  1.23729E+00  9.78805E-01  2.98521E-01
  -5.61728E-01 -1.37560E+00 -1.98165E+00 -2.17565E+00 -1.84311E+00 -1.06972E+00 -6.92931E-02  1.04025E+00  2.17064E+00  3.14198E+00
   3.80739E+00  4.18192E+00  4.36709E+00  4.38432E+00  4.34420E+00  4.39196E+00  4.58817E+00  4.84810E+00  5.06986E+00  5.21934E+00
   5.30348E+00  5.33613E+00  5.33248E+00  5.35241E+00  5.47773E+00  5.74625E+00  6.14353E+00  6.64540E+00  7.23567E+00  8.06720E+00
   1.01493E+01  1.40914E+01  1.82196E+01  2.13773E+01  2.39683E+01  2.70848E+01  3.11549E+01  3.56089E+01  3.95083E+01  4.23095E+01
   4.38745E+01  4.40634E+01  4.25952E+01  3.93048E+01  3.43889E+01  2.84684E+01  2.24282E+01  1.70847E+01  1.28296E+01  9.63590E+00
   7.34302E+00  5.75048E+00  4.77835E+00  4.30103E+00  4.01863E+00  3.81255E+00  3.64323E+00  3.48555E+00  3.32153E+00  3.15159E+00
   2.98472E+00  2.83306E+00  2.70779E+00  2.61810E+00  2.56850E+00  2.56148E+00  2.59701E+00  2.67089E+00  2.77744E+00  2.91268E+00
   3.07339E+00  3.25685E+00  3.46018E+00  3.67985E+00  3.91254E+00  4.15334E+00  4.39606E+00  4.63423E+00  4.86134E+00  5.07097E+00
   5.25687E+00  5.41336E+00  5.53587E+00  5.62122E+00  5.66779E+00  5.67583E+00  5.64710E+00  5.58503E+00  5.49466E+00  5.38274E+00
   5.25746E+00  5.12825E+00  5.00549E+00  4.90097E+00  4.82907E+00  4.81111E+00  4.88943E+00  5.10208E+00  5.29465E+00  5.35568E+00
   5.35383E+00  5.39702E+00  5.49573E+00  5.54858E+00  5.45439E+00  5.32692E+00  5.27488E+00  5.21097E+00  5.02983E+00  4.75372E+00
   4.52428E+00  4.48669E+00  4.69822E+00  5.13088E+00  5.71713E+00  6.37441E+00  7.01881E+00  7.56348E+00  7.93474E+00  8.09386E+00
   8.03733E+00  7.83271E+00  7.58836E+00  7.39112E+00  7.29533E+00  7.32934E+00  7.49921E+00  7.80450E+00  8.20850E+00  8.64045E+00
   9.02426E+00  9.28427E+00  9.35489E+00  9.19200E+00  8.78112E+00  8.14042E+00  7.31697E+00  6.37784E+00  5.39789E+00  4.44760E+00
   3.58335E+00  2.84202E+00  2.23999E+00  1.77609E+00  1.43667E+00  1.20132E+00  1.04764E+00  9.54807E-01  9.05305E-01  8.85751E-01
   8.86595E-01  9.01590E-01  9.26809E-01  9.59998E-01  9.99867E-01  1.04588E+00  1.09794E+00  1.15634E+00  1.22152E+00  1.29412E+00
   1.37486E+00  1.46475E+00  1.56502E+00  1.67717E+00  1.80285E+00  1.94396E+00  2.10255E+00  2.28099E+00  2.48181E+00  2.70766E+00
   2.96110E+00  3.24453E+00  3.56004E+00  3.90927E+00  4.29309E+00  4.71143E+00  5.16285E+00  5.64452E+00  6.15196E+00  6.67907E+00
   7.21793E+00  7.75900E+00  8.29121E+00  8.80248E+00  9.28009E+00  9.71136E+00  1.00841E+01  1.03873E+01  1.06118E+01  1.07507E+01
   1.08001E+01  1.07590E+01  1.06294E+01  1.04166E+01  1.01283E+01  9.77460E+00  9.36727E+00  8.91920E+00  8.44355E+00  7.95328E+00
   7.46051E+00  6.97624E+00  6.50979E+00  6.06875E+00  5.65873E+00  5.28361E+00  4.94553E+00  4.64529E+00  4.38233E+00  4.15518E+00
   3.96157E+00  3.79882E+00  3.66400E+00  3.55416E+00  3.46630E+00  3.39763E+00  3.34548E+00  3.30754E+00  3.28173E+00  3.26632E+00
   3.25970E+00  3.26054E+00  3.26767E+00  3.28020E+00  3.29734E+00  3.31849E+00  3.34303E+00  3.37051E+00  3.40051E+00  3.43277E+00
   3.46701E+00  3.50303E+00  3.54058E+00  3.57949E+00  3.61961E+00  3.66087E+00  3.70317E+00  3.74640E+00  3.79044E+00  3.83523E+00
   3.88069E+00  3.92684E+00  3.97359E+00  4.02091E+00  4.06869E+00  4.11693E+00  4.16561E+00  4.21475E+00  4.26426E+00  4.31414E+00
   4.36430E+00  4.41478E+00  4.46557E+00  4.51668E+00  4.56804E+00  4.61964E+00  4.67143E+00  4.72348E+00  4.77574E+00  4.82825E+00
   4.88091E+00  4.93375E+00  4.98674E+00  5.03993E+00  5.09330E+00  5.14685E+00  5.20052E+00  5.25434E+00  5.30829E+00  5.36243E+00
   5.41674E+00  5.47120E+00  5.52579E+00  5.58053E+00  5.63545E+00  5.69060E+00  5.74594E+00  5.80150E+00
 NY background values follow
    -1.391E+01   -1.384E+01   -1.378E+01   -1.371E+01   -1.364E+01   -1.357E+01   -1.350E+01   -1.343E+01   -1.336E+01   -1.329E+01
    -1.322E+01   -1.315E+01   -1.308E+01   -1.301E+01   -1.294E+01   -1.287E+01   -1.280E+01   -1.273E+01   -1.267E+01   -1.260E+01
    -1.253E+01   -1.246E+01   -1.239E+01   -1.232E+01   -1.225E+01   -1.218E+01   -1.211E+01   -1.204E+01   -1.198E+01   -1.191E+01
    -1.184E+01   -1.177E+01   -1.170E+01   -1.163E+01   -1.156E+01   -1.150E+01   -1.143E+01   -1.136E+01   -1.129E+01   -1.122E+01
    -1.116E+01   -1.109E+01   -1.102E+01   -1.095E+01   -1.088E+01   -1.082E+01   -1.075E+01   -1.068E+01   -1.062E+01   -1.055E+01
    -1.048E+01   -1.042E+01   -1.035E+01   -1.028E+01   -1.022E+01   -1.015E+01   -1.008E+01   -1.002E+01   -9.952E+00   -9.886E+00
    -9.821E+00   -9.755E+00   -9.690E+00   -9.625E+00   -9.560E+00   -9.495E+00   -9.431E+00   -9.366E+00   -9.302E+00   -9.238E+00
    -9.174E+00   -9.110E+00   -9.046E+00   -8.983E+00   -8.919E+00   -8.856E+00   -8.793E+00   -8.731E+00   -8.668E+00   -8.606E+00
    -8.543E+00   -8.481E+00   -8.419E+00   -8.358E+00   -8.296E+00   -8.235E+00   -8.174E+00   -8.113E+00   -8.053E+00   -7.992E+00
    -7.932E+00   -7.872E+00   -7.812E+00   -7.752E+00   -7.693E+00   -7.634E+00   -7.575E+00   -7.516E+00   -7.458E+00   -7.400E+00
    -7.342E+00   -7.284E+00   -7.226E+00   -7.169E+00   -7.112E+00   -7.055E+00   -6.998E+00   -6.942E+00   -6.886E+00   -6.830E+00
    -6.774E+00   -6.719E+00   -6.664E+00   -6.609E+00   -6.554E+00   -6.500E+00   -6.446E+00   -6.392E+00   -6.338E+00   -6.285E+00
    -6.232E+00   -6.179E+00   -6.127E+00   -6.074E+00   -6.022E+00   -5.971E+00   -5.919E+00   -5.868E+00   -5.817E+00   -5.767E+00
    -5.716E+00   -5.666E+00   -5.617E+00   -5.567E+00   -5.518E+00   -5.469E+00   -5.421E+00   -5.373E+00   -5.325E+00   -5.277E+00
    -5.230E+00   -5.182E+00   -5.136E+00   -5.089E+00   -5.043E+00   -4.997E+00   -4.951E+00   -4.906E+00   -4.861E+00   -4.816E+00
    -4.772E+00   -4.727E+00   -4.683E+00   -4.640E+00   -4.596E+00   -4.553E+00   -4.510E+00   -4.468E+00   -4.425E+00   -4.383E+00
    -4.342E+00   -4.300E+00   -4.259E+00   -4.218E+00   -4.177E+00   -4.137E+00   -4.096E+00   -4.057E+00   -4.017E+00   -3.977E+00
    -3.938E+00   -3.899E+00   -3.861E+00   -3.822E+00   -3.784E+00   -3.746E+00   -3.709E+00   -3.671E+00   -3.634E+00   -3.597E+00
    -3.561E+00   -3.524E+00   -3.488E+00   -3.452E+00   -3.416E+00   -3.381E+00   -3.346E+00   -3.311E+00   -3.276E+00   -3.242E+00
    -3.207E+00   -3.174E+00   -3.140E+00   -3.106E+00   -3.073E+00   -3.040E+00   -3.008E+00   -2.975E+00   -2.943E+00   -2.912E+00
    -2.880E+00   -2.849E+00   -2.818E+00   -2.787E+00   -2.757E+00   -2.727E+00   -2.697E+00   -2.667E+00   -2.638E+00   -2.609E+00
    -2.580E+00   -2.552E+00   -2.524E+00   -2.496E+00   -2.468E+00   -2.441E+00   -2.414E+00   -2.387E+00   -2.361E+00   -2.335E+00
    -2.309E+00   -2.284E+00   -2.259E+00   -2.234E+00   -2.209E+00   -2.185E+00   -2.161E+00   -2.138E+00   -2.114E+00   -2.091E+00
    -2.069E+00   -2.046E+00   -2.024E+00   -2.002E+00   -1.981E+00   -1.960E+00   -1.939E+00   -1.918E+00   -1.898E+00   -1.878E+00
    -1.858E+00   -1.839E+00   -1.819E+00   -1.800E+00   -1.782E+00   -1.763E+00   -1.745E+00   -1.727E+00   -1.709E+00   -1.692E+00
    -1.675E+00   -1.658E+00   -1.641E+00   -1.624E+00   -1.608E+00   -1.592E+00   -1.576E+00   -1.560E+00   -1.545E+00   -1.530E+00
    -1.514E+00   -1.500E+00   -1.485E+00   -1.470E+00   -1.456E+00   -1.442E+00   -1.428E+00   -1.414E+00   -1.401E+00   -1.388E+00
    -1.374E+00   -1.361E+00   -1.348E+00   -1.336E+00   -1.323E+00   -1.311E+00   -1.298E+00   -1.286E+00   -1.274E+00   -1.262E+00
    -1.251E+00   -1.239E+00   -1.228E+00   -1.216E+00   -1.205E+00   -1.194E+00   -1.183E+00   -1.172E+00   -1.161E+00   -1.150E+00
    -1.139E+00   -1.128E+00   -1.117E+00   -1.107E+00   -1.096E+00   -1.086E+00   -1.075E+00   -1.065E+00   -1.054E+00   -1.044E+00
    -1.034E+00   -1.023E+00   -1.013E+00   -1.003E+00   -9.924E-01   -9.820E-01   -9.717E-01   -9.613E-01   -9.509E-01   -9.405E-01
    -9.301E-01   -9.196E-01   -9.091E-01   -8.985E-01   -8.879E-01   -8.773E-01   -8.665E-01   -8.558E-01   -8.449E-01   -8.339E-01
    -8.229E-01   -8.118E-01   -8.005E-01   -7.891E-01   -7.777E-01   -7.660E-01   -7.543E-01   -7.423E-01   -7.302E-01   -7.180E-01
    -7.056E-01   -6.929E-01   -6.801E-01   -6.671E-01   -6.539E-01   -6.404E-01   -6.267E-01   -6.128E-01   -5.987E-01   -5.842E-01
    -5.695E-01   -5.546E-01   -5.393E-01   -5.238E-01   -5.079E-01   -4.918E-01   -4.753E-01   -4.585E-01   -4.414E-01   -4.239E-01
    -4.061E-01   -3.879E-01   -3.693E-01   -3.504E-01   -3.311E-01   -3.114E-01   -2.912E-01   -2.707E-01   -2.497E-01   -2.283E-01
    -2.065E-01   -1.842E-01   -1.615E-01   -1.383E-01   -1.146E-01   -9.054E-02   -6.598E-02   -4.096E-02   -1.550E-02    1.041E-02
     3.677E-02    6.358E-02    9.082E-02    1.185E-01    1.466E-01    1.752E-01    2.042E-01    2.336E-01    2.635E-01    2.938E-01
     3.245E-01    3.556E-01    3.872E-01    4.192E-01    4.516E-01    4.844E-01    5.177E-01    5.513E-01    5.854E-01    6.199E-01
     6.548E-01    6.901E-01    7.258E-01    7.619E-01    7.984E-01    8.353E-01    8.726E-01    9.103E-01    9.484E-01    9.869E-01
     1.026E+00    1.065E+00    1.105E+00    1.145E+00    1.185E+00    1.226E+00    1.267E+00    1.309E+00    1.350E+00    1.393E+00
     1.435E+00    1.478E+00    1.522E+00    1.565E+00    1.609E+00    1.654E+00    1.699E+00    1.744E+00    1.789E+00    1.835E+00
     1.880E+00    1.927E+00    1.973E+00    2.020E+00    2.067E+00    2.115E+00    2.162E+00    2.210E+00    2.258E+00    2.307E+00
     2.356E+00    2.405E+00    2.454E+00    2.503E+00    2.553E+00    2.603E+00    2.653E+00    2.703E+00    2.754E+00    2.804E+00
     2.855E+00    2.906E+00    2.958E+00    3.009E+00    3.061E+00    3.112E+00    3.164E+00    3.217E+00    3.269E+00    3.321E+00
     3.374E+00    3.426E+00    3.479E+00    3.532E+00    3.585E+00    3.638E+00    3.692E+00    3.745E+00    3.799E+00    3.852E+00
     3.906E+00    3.960E+00    4.014E+00    4.068E+00    4.122E+00    4.176E+00    4.230E+00    4.284E+00    4.339E+00    4.393E+00
     4.448E+00    4.502E+00    4.557E+00    4.611E+00    4.666E+00    4.721E+00    4.776E+00    4.831E+00    4.886E+00    4.941E+00
     4.995E+00    5.050E+00    5.106E+00    5.161E+00    5.216E+00    5.271E+00    5.326E+00    5.381E+00    5.436E+00    5.491E+00
     5.546E+00    5.601E+00    5.657E+00    5.712E+00    5.767E+00    5.822E+00    5.877E+00    5.932E+00
 Ala      Conc. = 3.09E+02
