 LCModel (Version 6.3-1L) Copyright: S.W. Provencher.          Ref.: Magn. Reson. Med. 30:672-679 (1993).                
 Slice#2 Row#10 Col#2  PD_05_press_1_raw_act
 36 lines in following concentration table = NCONC+1
    Conc.  %SD /Cr+PCr  Metabolite                                         
    0.000 999%   0.000 Ala                                                 
   13.148  92%   0.219 Asp                                                 
    0.000 999%   0.000 Cr                                                  
   59.960  22%   1.000 PCr                                                 
    6.147 118%   0.103 GABA                                                
    4.284 170% 7.1E-02 Glc                                                 
   67.682  82%   1.129 Gln                                                 
    0.000 999%   0.000 Glu                                                 
   11.849  44%   0.198 GPC                                                 
    0.000 999%   0.000 PCh                                                 
    0.000 999%   0.000 GSH                                                 
  132.286  51%   2.206 Ins                                                 
    0.000 999%   0.000 Lac                                                 
  109.795  15%   1.831 NAA                                                 
    0.000 999%   0.000 NAAG                                                
    2.526  94% 4.2E-02 Scyllo                                              
    7.153 169%   0.119 Tau                                                 
    0.000 999%   0.000 -CrCH2                                              
   11.849  44%   0.198 GPC+PCh                                             
  109.795  15%   1.831 NAA+NAAG                                            
   59.960  22%   1.000 Cr+PCr                                              
   67.682  82%   1.129 Glu+Gln                                             
   86.192 217%   1.437 Lip13a                                              
   16.964 362%   0.283 Lip13b                                              
   27.019 140%   0.451 Lip09                                               
   79.071  64%   1.319 MM09                                                
   15.628 136%   0.261 Lip20                                               
  122.124  63%   2.037 MM20                                                
   23.538  69%   0.393 MM12                                                
   77.487  57%   1.292 MM14                                                
   20.432 124%   0.341 MM17                                                
  103.156 136%   1.720 Lip13a+Lip13b                                       
  204.180  66%   3.405 MM14+Lip13a+Lip13b+MM12                             
  106.090  50%   1.769 MM09+Lip09                                          
  137.751  53%   2.297 MM20+Lip20                                          
   6 lines in following misc. output table
  FWHM = 0.054 ppm    S/N =   2                                            
  Data shift = 0.000 ppm                                                   
  Ph:  89 deg      -0.2 deg/ppm                                            
  alphaB,S = 7.1E-01,   2.3E+01                                            
   14 spline knots.   Ns = 5(1)                                            
  ( 8) 2 infls.   ( 9) 1 extrs.                                            
  498 points on ppm-axis = NY
      4.000000     3.992357     3.984714     3.977070     3.969427     3.961784     3.954141     3.946497     3.938854     3.931211
      3.923568     3.915925     3.908281     3.900638     3.892995     3.885352     3.877708     3.870065     3.862422     3.854779
      3.847136     3.839492     3.831849     3.824206     3.816563     3.808919     3.801276     3.793633     3.785990     3.778347
      3.770703     3.763060     3.755417     3.747774     3.740130     3.732487     3.724844     3.717201     3.709558     3.701914
      3.694271     3.686628     3.678985     3.671341     3.663698     3.656055     3.648412     3.640769     3.633125     3.625482
      3.617839     3.610196     3.602552     3.594909     3.587266     3.579623     3.571980     3.564336     3.556693     3.549050
      3.541407     3.533763     3.526120     3.518477     3.510834     3.503191     3.495547     3.487904     3.480261     3.472618
      3.464974     3.457331     3.449688     3.442045     3.434402     3.426758     3.419115     3.411472     3.403829     3.396185
      3.388542     3.380899     3.373256     3.365613     3.357969     3.350326     3.342683     3.335040     3.327396     3.319753
      3.312110     3.304467     3.296824     3.289180     3.281537     3.273894     3.266251     3.258607     3.250964     3.243321
      3.235678     3.228034     3.220391     3.212748     3.205105     3.197462     3.189818     3.182175     3.174532     3.166889
      3.159245     3.151602     3.143959     3.136316     3.128673     3.121029     3.113386     3.105743     3.098100     3.090456
      3.082813     3.075170     3.067527     3.059884     3.052240     3.044597     3.036954     3.029311     3.021667     3.014024
      3.006381     2.998738     2.991095     2.983451     2.975808     2.968165     2.960522     2.952878     2.945235     2.937592
      2.929949     2.922306     2.914662     2.907019     2.899376     2.891733     2.884089     2.876446     2.868803     2.861160
      2.853517     2.845873     2.838230     2.830587     2.822944     2.815300     2.807657     2.800014     2.792371     2.784728
      2.777084     2.769441     2.761798     2.754155     2.746511     2.738868     2.731225     2.723582     2.715939     2.708295
      2.700652     2.693009     2.685366     2.677722     2.670079     2.662436     2.654793     2.647150     2.639506     2.631863
      2.624220     2.616577     2.608933     2.601290     2.593647     2.586004     2.578361     2.570717     2.563074     2.555431
      2.547788     2.540144     2.532501     2.524858     2.517215     2.509572     2.501928     2.494285     2.486642     2.478999
      2.471355     2.463712     2.456069     2.448426     2.440783     2.433139     2.425496     2.417853     2.410210     2.402566
      2.394923     2.387280     2.379637     2.371994     2.364350     2.356707     2.349064     2.341421     2.333777     2.326134
      2.318491     2.310848     2.303205     2.295561     2.287918     2.280275     2.272632     2.264988     2.257345     2.249702
      2.242059     2.234416     2.226772     2.219129     2.211486     2.203843     2.196199     2.188556     2.180913     2.173270
      2.165627     2.157983     2.150340     2.142697     2.135054     2.127410     2.119767     2.112124     2.104481     2.096838
      2.089194     2.081551     2.073908     2.066265     2.058621     2.050978     2.043335     2.035692     2.028049     2.020405
      2.012762     2.005119     1.997476     1.989833     1.982190     1.974546     1.966903     1.959260     1.951617     1.943974
      1.936331     1.928688     1.921045     1.913402     1.905759     1.898115     1.890472     1.882829     1.875186     1.867543
      1.859900     1.852257     1.844614     1.836971     1.829327     1.821684     1.814041     1.806398     1.798755     1.791112
      1.783469     1.775826     1.768183     1.760540     1.752896     1.745253     1.737610     1.729967     1.722324     1.714681
      1.707038     1.699395     1.691752     1.684108     1.676465     1.668822     1.661179     1.653536     1.645893     1.638250
      1.630607     1.622964     1.615321     1.607677     1.600034     1.592391     1.584748     1.577105     1.569462     1.561819
      1.554176     1.546533     1.538890     1.531246     1.523603     1.515960     1.508317     1.500674     1.493031     1.485388
      1.477745     1.470102     1.462458     1.454815     1.447172     1.439529     1.431886     1.424243     1.416600     1.408957
      1.401314     1.393671     1.386027     1.378384     1.370741     1.363098     1.355455     1.347812     1.340169     1.332526
      1.324883     1.317240     1.309596     1.301953     1.294310     1.286667     1.279024     1.271381     1.263738     1.256095
      1.248452     1.240808     1.233165     1.225522     1.217879     1.210236     1.202593     1.194950     1.187307     1.179664
      1.172021     1.164377     1.156734     1.149091     1.141448     1.133805     1.126162     1.118519     1.110876     1.103233
      1.095590     1.087946     1.080303     1.072660     1.065017     1.057374     1.049731     1.042088     1.034445     1.026802
      1.019158     1.011515     1.003872     0.996229     0.988586     0.980943     0.973300     0.965657     0.958014     0.950371
      0.942727     0.935084     0.927441     0.919798     0.912155     0.904512     0.896869     0.889226     0.881583     0.873940
      0.866296     0.858653     0.851010     0.843367     0.835724     0.828081     0.820438     0.812795     0.805152     0.797508
      0.789865     0.782222     0.774579     0.766936     0.759293     0.751650     0.744007     0.736364     0.728721     0.721077
      0.713434     0.705791     0.698148     0.690505     0.682862     0.675219     0.667576     0.659933     0.652290     0.644646
      0.637003     0.629360     0.621717     0.614074     0.606431     0.598788     0.591145     0.583502     0.575858     0.568215
      0.560572     0.552929     0.545286     0.537643     0.530000     0.522357     0.514714     0.507071     0.499427     0.491784
      0.484141     0.476498     0.468855     0.461212     0.453569     0.445925     0.438282     0.430639     0.422996     0.415353
      0.407710     0.400067     0.392424     0.384780     0.377137     0.369494     0.361851     0.354208     0.346565     0.338922
      0.331278     0.323635     0.315992     0.308349     0.300706     0.293063     0.285420     0.277777     0.270133     0.262490
      0.254847     0.247204     0.239561     0.231918     0.224275     0.216631     0.208988     0.201345
 NY phased data points follow
   7.74471E+01  7.54422E+01  7.41293E+01  7.29396E+01  7.13998E+01  7.12008E+01  7.13252E+01  7.04092E+01  6.91034E+01  7.00750E+01
   6.90892E+01  6.82894E+01  6.73444E+01  6.87118E+01  6.46320E+01  6.49357E+01  6.43098E+01  6.30314E+01  6.10905E+01  6.13150E+01
   6.01536E+01  6.19649E+01  5.98418E+01  6.00987E+01  5.79635E+01  5.71887E+01  5.60764E+01  5.76890E+01  5.77709E+01  5.59632E+01
   5.42718E+01  5.72148E+01  5.49268E+01  5.65109E+01  5.40924E+01  5.50855E+01  5.46976E+01  5.42670E+01  5.40409E+01  5.15634E+01
   5.22584E+01  5.29601E+01  5.04407E+01  5.16801E+01  5.13794E+01  5.24546E+01  5.11649E+01  5.08033E+01  4.99463E+01  4.84611E+01
   4.98787E+01  4.70774E+01  4.77007E+01  4.83488E+01  4.69696E+01  4.46629E+01  4.49559E+01  4.61174E+01  4.45189E+01  4.35873E+01
   4.36838E+01  4.47054E+01  4.30465E+01  4.41977E+01  4.19816E+01  4.36397E+01  4.21968E+01  4.14807E+01  4.07473E+01  4.21348E+01
   4.31492E+01  4.13955E+01  4.19511E+01  4.12309E+01  3.94014E+01  4.02505E+01  3.81730E+01  3.90574E+01  3.90067E+01  3.80744E+01
   3.92180E+01  3.93534E+01  3.90552E+01  3.94188E+01  3.71545E+01  3.79379E+01  3.63921E+01  3.68917E+01  3.66514E+01  3.61311E+01
   3.60876E+01  3.39781E+01  3.49958E+01  3.44673E+01  3.52010E+01  3.56473E+01  3.45917E+01  3.52272E+01  3.33817E+01  3.39654E+01
   3.57903E+01  3.27269E+01  3.52725E+01  3.37795E+01  3.39346E+01  3.37604E+01  3.50430E+01  3.34492E+01  3.29053E+01  3.16305E+01
   3.18483E+01  3.46931E+01  3.20530E+01  3.04181E+01  3.18619E+01  3.07168E+01  3.06779E+01  3.15205E+01  3.09730E+01  3.17847E+01
   3.10434E+01  3.08897E+01  3.19398E+01  2.95579E+01  3.00250E+01  3.16807E+01  3.24413E+01  3.27335E+01  3.09211E+01  2.90839E+01
   3.17493E+01  3.01071E+01  2.89360E+01  3.25032E+01  3.15515E+01  2.93428E+01  2.84306E+01  2.85098E+01  2.78594E+01  2.98824E+01
   2.96909E+01  2.95198E+01  2.93180E+01  2.87143E+01  3.03122E+01  2.83568E+01  2.78144E+01  2.87341E+01  2.87921E+01  3.00584E+01
   2.81392E+01  2.84321E+01  2.88514E+01  2.80915E+01  2.65232E+01  2.75547E+01  2.64744E+01  2.76310E+01  2.77923E+01  2.72618E+01
   2.89022E+01  2.74441E+01  2.71022E+01  2.73648E+01  2.66365E+01  2.76256E+01  2.78483E+01  2.82082E+01  2.75897E+01  2.80349E+01
   2.71407E+01  2.85130E+01  2.81418E+01  2.83708E+01  2.80559E+01  2.79647E+01  2.73292E+01  2.68507E+01  2.71396E+01  2.55273E+01
   2.78950E+01  2.71523E+01  2.64230E+01  2.77599E+01  2.84555E+01  2.71231E+01  2.88531E+01  2.74767E+01  2.75491E+01  2.72317E+01
   2.74951E+01  2.90210E+01  2.66089E+01  2.68561E+01  2.70858E+01  2.59937E+01  2.68881E+01  2.74053E+01  2.81061E+01  2.73231E+01
   2.82580E+01  2.83715E+01  2.85651E+01  2.67871E+01  2.75145E+01  2.83425E+01  2.82823E+01  2.71967E+01  2.72771E+01  2.70635E+01
   2.67644E+01  2.74747E+01  2.67811E+01  2.91711E+01  2.87535E+01  2.68116E+01  2.62090E+01  2.74751E+01  2.76021E+01  2.72409E+01
   2.74012E+01  2.73933E+01  2.67691E+01  2.78397E+01  2.97929E+01  3.03267E+01  2.86177E+01  2.76819E+01  2.95654E+01  2.83937E+01
   2.67965E+01  2.80962E+01  2.84725E+01  2.92544E+01  2.73391E+01  2.88031E+01  2.86635E+01  2.69538E+01  2.78921E+01  2.79427E+01
   2.78572E+01  2.74810E+01  2.62135E+01  2.78565E+01  2.48627E+01  2.57314E+01  2.71726E+01  2.78735E+01  2.62122E+01  2.83071E+01
   2.67457E+01  2.81471E+01  2.45532E+01  2.64769E+01  2.93696E+01  2.60707E+01  2.71515E+01  2.83446E+01  3.06916E+01  2.91842E+01
   3.05171E+01  2.90482E+01  3.05489E+01  3.05512E+01  2.71015E+01  2.59693E+01  2.46625E+01  2.58999E+01  2.59913E+01  2.59338E+01
   2.62284E+01  2.62242E+01  2.66736E+01  2.52269E+01  2.54436E+01  2.49869E+01  2.61540E+01  2.55577E+01  2.39861E+01  2.65925E+01
   2.53816E+01  2.48772E+01  2.43767E+01  2.43485E+01  2.35030E+01  2.39815E+01  2.34933E+01  2.50440E+01  2.43646E+01  2.32705E+01
   2.51955E+01  2.28844E+01  2.44007E+01  2.44129E+01  2.30364E+01  2.35712E+01  2.26553E+01  2.15164E+01  2.33327E+01  2.25898E+01
   2.15585E+01  2.14015E+01  2.26306E+01  2.05708E+01  2.25399E+01  2.28461E+01  1.99103E+01  2.13494E+01  2.22818E+01  2.23239E+01
   2.23810E+01  2.04722E+01  2.18709E+01  2.06834E+01  2.29019E+01  2.11066E+01  1.91294E+01  2.27407E+01  1.96184E+01  2.11260E+01
   2.03157E+01  2.10296E+01  2.04425E+01  2.01002E+01  2.13473E+01  1.94756E+01  2.07251E+01  2.10232E+01  2.12583E+01  1.98774E+01
   2.12034E+01  2.11919E+01  2.04637E+01  2.13655E+01  2.07835E+01  2.09100E+01  2.06361E+01  2.04265E+01  2.14160E+01  1.98534E+01
   1.92650E+01  2.04691E+01  1.84460E+01  1.80490E+01  1.87112E+01  1.97169E+01  1.79428E+01  1.90827E+01  1.80490E+01  1.75281E+01
   1.74279E+01  1.86426E+01  1.75190E+01  1.86064E+01  2.00802E+01  1.93092E+01  1.77771E+01  1.65005E+01  1.68753E+01  1.82936E+01
   1.74372E+01  1.69746E+01  1.76196E+01  1.81083E+01  1.66542E+01  1.61904E+01  1.75417E+01  1.56701E+01  1.63038E+01  1.76579E+01
   1.72514E+01  1.60403E+01  1.67177E+01  1.68120E+01  1.46355E+01  1.50405E+01  1.37023E+01  1.51695E+01  1.23516E+01  1.50395E+01
   1.44760E+01  1.48240E+01  1.49151E+01  1.38716E+01  1.53243E+01  1.51575E+01  1.38993E+01  1.50577E+01  1.36793E+01  1.51415E+01
   1.48131E+01  1.47874E+01  1.43885E+01  1.47229E+01  1.44927E+01  1.51696E+01  1.71175E+01  1.42077E+01  1.50510E+01  1.48206E+01
   1.13547E+01  1.41575E+01  1.32000E+01  1.43731E+01  1.32051E+01  1.46393E+01  1.34946E+01  1.31598E+01  1.32611E+01  1.35490E+01
   1.40366E+01  1.42612E+01  1.18482E+01  1.42053E+01  1.30459E+01  1.31040E+01  1.25373E+01  1.28629E+01  1.21374E+01  1.23977E+01
   1.29473E+01  1.19090E+01  1.21316E+01  1.02931E+01  1.12494E+01  1.21269E+01  1.22263E+01  1.20478E+01  1.36205E+01  1.17479E+01
   1.21255E+01  1.18906E+01  1.27369E+01  1.15081E+01  1.27800E+01  1.08599E+01  1.26564E+01  1.18704E+01  1.24760E+01  1.13874E+01
   1.16009E+01  1.18678E+01  1.18025E+01  1.13153E+01  1.15774E+01  1.09267E+01  1.09141E+01  1.31265E+01  1.08917E+01  1.00166E+01
   9.55011E+00  1.16426E+01  9.76428E+00  1.19581E+01  1.24189E+01  1.06831E+01  9.44558E+00  1.00140E+01  1.05432E+01  1.17187E+01
   1.03808E+01  1.12255E+01  1.20841E+01  1.07931E+01  1.02079E+01  1.00987E+01  8.53889E+00  9.06450E+00  9.98271E+00  9.80089E+00
   9.00219E+00  9.71733E+00  1.14677E+01  9.34345E+00  1.13062E+01  8.83821E+00  7.68456E+00  1.03161E+01  9.51711E+00  1.05561E+01
   9.22177E+00  9.35811E+00  9.62919E+00  1.00883E+01  1.03176E+01  9.01714E+00  9.14402E+00  1.08714E+01  9.77666E+00  8.59704E+00
   8.64746E+00  8.88180E+00  7.24742E+00  8.58832E+00  6.41392E+00  8.63811E+00  9.04654E+00  8.63229E+00
 NY points of the fit to the data follow
   7.23259E+01  7.17317E+01  7.11707E+01  7.06514E+01  7.01935E+01  6.98550E+01  6.96543E+01  6.94939E+01  6.92357E+01  6.88269E+01
   6.83054E+01  6.77330E+01  6.70823E+01  6.62909E+01  6.54321E+01  6.46453E+01  6.39820E+01  6.34217E+01  6.29047E+01  6.24053E+01
   6.19142E+01  6.14230E+01  6.09216E+01  6.04064E+01  5.98843E+01  5.93652E+01  5.88619E+01  5.83895E+01  5.79584E+01  5.75630E+01
   5.71761E+01  5.67684E+01  5.63328E+01  5.58819E+01  5.54244E+01  5.49449E+01  5.44377E+01  5.39234E+01  5.34248E+01  5.29564E+01
   5.25131E+01  5.20791E+01  5.16647E+01  5.13347E+01  5.11357E+01  5.10102E+01  5.08316E+01  5.05190E+01  5.00908E+01  4.96016E+01
   4.90579E+01  4.84323E+01  4.77602E+01  4.71451E+01  4.66604E+01  4.63072E+01  4.60428E+01  4.58212E+01  4.56009E+01  4.53448E+01
   4.50325E+01  4.46750E+01  4.42877E+01  4.38752E+01  4.34515E+01  4.30402E+01  4.26649E+01  4.23429E+01  4.20736E+01  4.18419E+01
   4.16157E+01  4.13695E+01  4.10957E+01  4.08018E+01  4.04980E+01  4.01810E+01  3.98491E+01  3.95187E+01  3.92032E+01  3.89056E+01
   3.86229E+01  3.83576E+01  3.81086E+01  3.78560E+01  3.75711E+01  3.72474E+01  3.69087E+01  3.65889E+01  3.63005E+01  3.60335E+01
   3.57907E+01  3.55944E+01  3.54497E+01  3.53307E+01  3.51952E+01  3.50208E+01  3.48141E+01  3.46078E+01  3.44718E+01  3.44622E+01
   3.45357E+01  3.45778E+01  3.45201E+01  3.43732E+01  3.41876E+01  3.39584E+01  3.36127E+01  3.31645E+01  3.27444E+01  3.24331E+01
   3.22266E+01  3.20684E+01  3.19217E+01  3.17811E+01  3.16442E+01  3.15094E+01  3.13758E+01  3.12448E+01  3.11192E+01  3.10015E+01
   3.08957E+01  3.08163E+01  3.08267E+01  3.10330E+01  3.14383E+01  3.18647E+01  3.21139E+01  3.21378E+01  3.20137E+01  3.18138E+01
   3.14630E+01  3.08902E+01  3.02556E+01  2.97721E+01  2.94913E+01  2.93492E+01  2.92499E+01  2.91646E+01  2.90856E+01  2.90082E+01
   2.89329E+01  2.88634E+01  2.88001E+01  2.87393E+01  2.86774E+01  2.86152E+01  2.85558E+01  2.84988E+01  2.84422E+01  2.83840E+01
   2.83257E+01  2.82716E+01  2.82234E+01  2.81798E+01  2.81387E+01  2.80966E+01  2.80473E+01  2.79855E+01  2.79164E+01  2.78546E+01
   2.78132E+01  2.77926E+01  2.77794E+01  2.77631E+01  2.77488E+01  2.77396E+01  2.77276E+01  2.77024E+01  2.76582E+01  2.76059E+01
   2.75605E+01  2.75214E+01  2.74820E+01  2.74431E+01  2.74177E+01  2.74119E+01  2.74140E+01  2.74088E+01  2.73961E+01  2.73947E+01
   2.74130E+01  2.74329E+01  2.74329E+01  2.74152E+01  2.74070E+01  2.74292E+01  2.74711E+01  2.75120E+01  2.75380E+01  2.75521E+01
   2.75661E+01  2.75786E+01  2.75781E+01  2.75634E+01  2.75409E+01  2.75181E+01  2.75099E+01  2.75320E+01  2.75889E+01  2.76705E+01
   2.77595E+01  2.78408E+01  2.79035E+01  2.79277E+01  2.78878E+01  2.77635E+01  2.75754E+01  2.73839E+01  2.72449E+01  2.71738E+01
   2.71613E+01  2.71967E+01  2.72872E+01  2.74339E+01  2.75852E+01  2.76824E+01  2.77273E+01  2.77456E+01  2.77543E+01  2.77564E+01
   2.77538E+01  2.77510E+01  2.77472E+01  2.77385E+01  2.77242E+01  2.77040E+01  2.76761E+01  2.76391E+01  2.75976E+01  2.75597E+01
   2.75248E+01  2.74783E+01  2.74136E+01  2.73519E+01  2.73251E+01  2.73445E+01  2.73990E+01  2.74640E+01  2.75201E+01  2.75561E+01
   2.75546E+01  2.75003E+01  2.74002E+01  2.72700E+01  2.71295E+01  2.70107E+01  2.69494E+01  2.69499E+01  2.69918E+01  2.70487E+01
   2.70989E+01  2.71316E+01  2.71455E+01  2.71465E+01  2.71635E+01  2.73337E+01  2.78593E+01  2.87166E+01  2.95542E+01  3.00336E+01
   3.01052E+01  2.99352E+01  2.96355E+01  2.90343E+01  2.80361E+01  2.69808E+01  2.62304E+01  2.58458E+01  2.56814E+01  2.55694E+01
   2.54704E+01  2.53775E+01  2.52889E+01  2.52044E+01  2.51220E+01  2.50387E+01  2.49528E+01  2.48642E+01  2.47736E+01  2.46811E+01
   2.45868E+01  2.44925E+01  2.44003E+01  2.43109E+01  2.42236E+01  2.41379E+01  2.40533E+01  2.39696E+01  2.38860E+01  2.38014E+01
   2.37157E+01  2.36292E+01  2.35422E+01  2.34550E+01  2.33675E+01  2.32801E+01  2.31926E+01  2.31049E+01  2.30171E+01  2.29288E+01
   2.28399E+01  2.27502E+01  2.26597E+01  2.25683E+01  2.24760E+01  2.23829E+01  2.22891E+01  2.21947E+01  2.20998E+01  2.20046E+01
   2.19092E+01  2.18138E+01  2.17188E+01  2.16244E+01  2.15307E+01  2.14379E+01  2.13463E+01  2.12559E+01  2.11669E+01  2.10795E+01
   2.09934E+01  2.09088E+01  2.08256E+01  2.07436E+01  2.06628E+01  2.05828E+01  2.05034E+01  2.04244E+01  2.03455E+01  2.02664E+01
   2.01869E+01  2.01066E+01  2.00253E+01  1.99428E+01  1.98590E+01  1.97738E+01  1.96871E+01  1.95991E+01  1.95097E+01  1.94192E+01
   1.93280E+01  1.92363E+01  1.91446E+01  1.90536E+01  1.89638E+01  1.88759E+01  1.87907E+01  1.87085E+01  1.86295E+01  1.85534E+01
   1.84792E+01  1.84057E+01  1.83306E+01  1.82519E+01  1.81670E+01  1.80742E+01  1.79721E+01  1.78605E+01  1.77401E+01  1.76124E+01
   1.74796E+01  1.73440E+01  1.72080E+01  1.70735E+01  1.69418E+01  1.68139E+01  1.66899E+01  1.65698E+01  1.64534E+01  1.63403E+01
   1.62302E+01  1.61228E+01  1.60179E+01  1.59155E+01  1.58155E+01  1.57182E+01  1.56234E+01  1.55314E+01  1.54422E+01  1.53561E+01
   1.52731E+01  1.51934E+01  1.51172E+01  1.50445E+01  1.49755E+01  1.49103E+01  1.48490E+01  1.47916E+01  1.47379E+01  1.46880E+01
   1.46416E+01  1.45984E+01  1.45581E+01  1.45200E+01  1.44835E+01  1.44479E+01  1.44125E+01  1.43762E+01  1.43381E+01  1.42974E+01
   1.42533E+01  1.42048E+01  1.41515E+01  1.40927E+01  1.40283E+01  1.39582E+01  1.38824E+01  1.38014E+01  1.37157E+01  1.36258E+01
   1.35325E+01  1.34368E+01  1.33395E+01  1.32414E+01  1.31435E+01  1.30465E+01  1.29510E+01  1.28578E+01  1.27671E+01  1.26795E+01
   1.25950E+01  1.25138E+01  1.24359E+01  1.23612E+01  1.22897E+01  1.22211E+01  1.21553E+01  1.20920E+01  1.20310E+01  1.19722E+01
   1.19152E+01  1.18598E+01  1.18059E+01  1.17533E+01  1.17018E+01  1.16513E+01  1.16017E+01  1.15528E+01  1.15045E+01  1.14567E+01
   1.14093E+01  1.13623E+01  1.13156E+01  1.12691E+01  1.12228E+01  1.11765E+01  1.11304E+01  1.10842E+01  1.10380E+01  1.09917E+01
   1.09453E+01  1.08987E+01  1.08519E+01  1.08048E+01  1.07576E+01  1.07100E+01  1.06623E+01  1.06143E+01  1.05660E+01  1.05176E+01
   1.04689E+01  1.04199E+01  1.03708E+01  1.03214E+01  1.02719E+01  1.02221E+01  1.01721E+01  1.01219E+01  1.00715E+01  1.00210E+01
   9.97023E+00  9.91930E+00  9.86820E+00  9.81694E+00  9.76552E+00  9.71396E+00  9.66224E+00  9.61038E+00  9.55838E+00  9.50626E+00
   9.45403E+00  9.40168E+00  9.34921E+00  9.29664E+00  9.24398E+00  9.19124E+00  9.13842E+00  9.08552E+00  9.03255E+00  8.97952E+00
   8.92644E+00  8.87332E+00  8.82016E+00  8.76696E+00  8.71374E+00  8.66049E+00  8.60725E+00  8.55401E+00
 NY background values follow
     7.196E+01    7.144E+01    7.092E+01    7.040E+01    6.988E+01    6.936E+01    6.884E+01    6.833E+01    6.781E+01    6.729E+01
     6.678E+01    6.627E+01    6.576E+01    6.524E+01    6.474E+01    6.423E+01    6.372E+01    6.322E+01    6.272E+01    6.222E+01
     6.172E+01    6.122E+01    6.073E+01    6.024E+01    5.975E+01    5.926E+01    5.878E+01    5.830E+01    5.782E+01    5.734E+01
     5.687E+01    5.640E+01    5.593E+01    5.547E+01    5.501E+01    5.455E+01    5.410E+01    5.365E+01    5.321E+01    5.276E+01
     5.233E+01    5.189E+01    5.146E+01    5.104E+01    5.062E+01    5.020E+01    4.979E+01    4.938E+01    4.898E+01    4.858E+01
     4.818E+01    4.779E+01    4.741E+01    4.703E+01    4.665E+01    4.628E+01    4.591E+01    4.555E+01    4.519E+01    4.483E+01
     4.448E+01    4.413E+01    4.379E+01    4.345E+01    4.312E+01    4.279E+01    4.247E+01    4.215E+01    4.183E+01    4.152E+01
     4.121E+01    4.091E+01    4.061E+01    4.031E+01    4.002E+01    3.973E+01    3.945E+01    3.917E+01    3.889E+01    3.862E+01
     3.835E+01    3.809E+01    3.783E+01    3.758E+01    3.733E+01    3.708E+01    3.684E+01    3.660E+01    3.636E+01    3.613E+01
     3.590E+01    3.568E+01    3.546E+01    3.524E+01    3.503E+01    3.482E+01    3.462E+01    3.442E+01    3.422E+01    3.403E+01
     3.384E+01    3.365E+01    3.347E+01    3.329E+01    3.311E+01    3.294E+01    3.277E+01    3.261E+01    3.245E+01    3.229E+01
     3.213E+01    3.198E+01    3.183E+01    3.169E+01    3.155E+01    3.141E+01    3.127E+01    3.114E+01    3.101E+01    3.088E+01
     3.076E+01    3.064E+01    3.052E+01    3.040E+01    3.029E+01    3.018E+01    3.008E+01    2.997E+01    2.987E+01    2.977E+01
     2.968E+01    2.958E+01    2.949E+01    2.941E+01    2.932E+01    2.924E+01    2.916E+01    2.908E+01    2.901E+01    2.893E+01
     2.886E+01    2.879E+01    2.873E+01    2.866E+01    2.860E+01    2.854E+01    2.849E+01    2.843E+01    2.838E+01    2.833E+01
     2.828E+01    2.823E+01    2.819E+01    2.814E+01    2.810E+01    2.806E+01    2.802E+01    2.799E+01    2.795E+01    2.792E+01
     2.789E+01    2.786E+01    2.783E+01    2.780E+01    2.778E+01    2.776E+01    2.773E+01    2.771E+01    2.769E+01    2.767E+01
     2.766E+01    2.764E+01    2.762E+01    2.761E+01    2.760E+01    2.759E+01    2.758E+01    2.757E+01    2.756E+01    2.755E+01
     2.754E+01    2.754E+01    2.753E+01    2.753E+01    2.752E+01    2.752E+01    2.751E+01    2.751E+01    2.751E+01    2.751E+01
     2.751E+01    2.751E+01    2.751E+01    2.751E+01    2.751E+01    2.751E+01    2.751E+01    2.751E+01    2.751E+01    2.751E+01
     2.751E+01    2.751E+01    2.751E+01    2.751E+01    2.751E+01    2.750E+01    2.750E+01    2.750E+01    2.750E+01    2.750E+01
     2.749E+01    2.749E+01    2.748E+01    2.748E+01    2.747E+01    2.747E+01    2.746E+01    2.745E+01    2.744E+01    2.743E+01
     2.742E+01    2.740E+01    2.739E+01    2.737E+01    2.736E+01    2.734E+01    2.732E+01    2.730E+01    2.728E+01    2.725E+01
     2.723E+01    2.720E+01    2.718E+01    2.715E+01    2.712E+01    2.709E+01    2.705E+01    2.702E+01    2.698E+01    2.695E+01
     2.691E+01    2.687E+01    2.683E+01    2.679E+01    2.674E+01    2.670E+01    2.665E+01    2.661E+01    2.656E+01    2.651E+01
     2.646E+01    2.641E+01    2.636E+01    2.630E+01    2.625E+01    2.619E+01    2.613E+01    2.608E+01    2.602E+01    2.596E+01
     2.589E+01    2.583E+01    2.577E+01    2.570E+01    2.564E+01    2.557E+01    2.550E+01    2.543E+01    2.536E+01    2.529E+01
     2.522E+01    2.515E+01    2.507E+01    2.500E+01    2.492E+01    2.484E+01    2.476E+01    2.469E+01    2.461E+01    2.452E+01
     2.444E+01    2.436E+01    2.428E+01    2.419E+01    2.411E+01    2.402E+01    2.394E+01    2.385E+01    2.376E+01    2.367E+01
     2.358E+01    2.349E+01    2.340E+01    2.331E+01    2.322E+01    2.313E+01    2.304E+01    2.294E+01    2.285E+01    2.276E+01
     2.266E+01    2.257E+01    2.247E+01    2.238E+01    2.228E+01    2.218E+01    2.209E+01    2.199E+01    2.189E+01    2.179E+01
     2.170E+01    2.160E+01    2.150E+01    2.140E+01    2.130E+01    2.120E+01    2.110E+01    2.100E+01    2.090E+01    2.080E+01
     2.070E+01    2.060E+01    2.050E+01    2.040E+01    2.030E+01    2.020E+01    2.010E+01    2.000E+01    1.990E+01    1.980E+01
     1.970E+01    1.960E+01    1.950E+01    1.940E+01    1.930E+01    1.920E+01    1.910E+01    1.901E+01    1.891E+01    1.881E+01
     1.871E+01    1.861E+01    1.851E+01    1.841E+01    1.831E+01    1.821E+01    1.812E+01    1.802E+01    1.792E+01    1.782E+01
     1.773E+01    1.763E+01    1.753E+01    1.744E+01    1.734E+01    1.725E+01    1.715E+01    1.706E+01    1.696E+01    1.687E+01
     1.677E+01    1.668E+01    1.659E+01    1.649E+01    1.640E+01    1.631E+01    1.622E+01    1.613E+01    1.604E+01    1.595E+01
     1.586E+01    1.577E+01    1.568E+01    1.559E+01    1.551E+01    1.542E+01    1.533E+01    1.525E+01    1.516E+01    1.508E+01
     1.500E+01    1.491E+01    1.483E+01    1.475E+01    1.467E+01    1.459E+01    1.451E+01    1.443E+01    1.435E+01    1.427E+01
     1.420E+01    1.412E+01    1.405E+01    1.397E+01    1.390E+01    1.383E+01    1.376E+01    1.368E+01    1.362E+01    1.355E+01
     1.348E+01    1.341E+01    1.334E+01    1.328E+01    1.322E+01    1.315E+01    1.309E+01    1.303E+01    1.297E+01    1.291E+01
     1.285E+01    1.279E+01    1.274E+01    1.268E+01    1.263E+01    1.257E+01    1.252E+01    1.246E+01    1.241E+01    1.236E+01
     1.231E+01    1.226E+01    1.221E+01    1.216E+01    1.211E+01    1.207E+01    1.202E+01    1.197E+01    1.192E+01    1.188E+01
     1.183E+01    1.179E+01    1.174E+01    1.170E+01    1.165E+01    1.161E+01    1.156E+01    1.152E+01    1.147E+01    1.143E+01
     1.139E+01    1.134E+01    1.130E+01    1.125E+01    1.121E+01    1.116E+01    1.112E+01    1.108E+01    1.103E+01    1.099E+01
     1.094E+01    1.090E+01    1.085E+01    1.080E+01    1.076E+01    1.071E+01    1.066E+01    1.062E+01    1.057E+01    1.052E+01
     1.047E+01    1.042E+01    1.038E+01    1.033E+01    1.028E+01    1.023E+01    1.018E+01    1.013E+01    1.008E+01    1.003E+01
     9.978E+00    9.928E+00    9.877E+00    9.826E+00    9.775E+00    9.723E+00    9.672E+00    9.620E+00    9.568E+00    9.516E+00
     9.464E+00    9.412E+00    9.359E+00    9.307E+00    9.254E+00    9.202E+00    9.149E+00    9.096E+00    9.043E+00    8.990E+00
     8.937E+00    8.884E+00    8.831E+00    8.778E+00    8.724E+00    8.671E+00    8.618E+00    8.565E+00
 Asp      Conc. = 1.31E+01
