 LCModel (Version 6.3-1L) Copyright: S.W. Provencher.          Ref.: Magn. Reson. Med. 30:672-679 (1993).                
 Slice#3 Row#2 Col#11  PD_05_press_1_raw_act
 36 lines in following concentration table = NCONC+1
    Conc.  %SD /Cr+PCr  Metabolite                                         
    0.000 999%   0.000 Ala                                                 
  238.534  80%   0.000 Asp                                                 
    0.000 999%   0.000 Cr                                                  
    0.000 999%   0.000 PCr                                                 
  114.523 100%   0.000 GABA                                                
  135.405  84%   0.000 Glc                                                 
 2.75E+04  21%   0.000 Gln                                                 
 6.91E+04  13%   0.000 Glu                                                 
  910.974  30%   0.000 GPC                                                 
    0.000 999%   0.000 PCh                                                 
 2.82E+03  53%   0.000 GSH                                                 
 2.62E+04  15%   0.000 Ins                                                 
    0.000 999%   0.000 Lac                                                 
 1.43E+03  44%   0.000 NAA                                                 
    0.000 999%   0.000 NAAG                                                
   50.682  74%   0.000 Scyllo                                              
  222.306  85%   0.000 Tau                                                 
    0.000 999%   0.000 -CrCH2                                              
  910.974  30%   0.000 GPC+PCh                                             
 1.43E+03  44%   0.000 NAA+NAAG                                            
    0.000 999%   0.000 Cr+PCr                                              
 9.67E+04  14%   0.000 Glu+Gln                                             
    0.000 999%   0.000 Lip13a                                              
    0.000 999%   0.000 Lip13b                                              
    0.000 999%   0.000 Lip09                                               
 4.40E+04  13%   0.000 MM09                                                
    0.000 999%   0.000 Lip20                                               
 1.71E+05  10%   0.000+MM20                                                
    0.000 999%   0.000 MM12                                                
 2.11E+04  22%   0.000 MM14                                                
 9.18E+04  10%   0.000 MM17                                                
    0.000 999%   0.000 Lip13a+Lip13b                                       
 2.11E+04  22%   0.000 MM14+Lip13a+Lip13b+MM12                             
 4.40E+04  13%   0.000 MM09+Lip09                                          
 1.71E+05  10%   0.000 MM20+Lip20                                          
   6 lines in following misc. output table
  FWHM = 0.199 ppm    S/N =  12                                            
  Data shift = 0.076 ppm                                                   
  Ph:-151 deg      92.7 deg/ppm                                            
  alphaB,S = 1.2E+00,   7.9E+02                                            
    6 spline knots.   Ns = 9(2)                                            
  (13) 2 infls.   ( 1) 1 extrs.                                            
  498 points on ppm-axis = NY
      4.000000     3.992357     3.984714     3.977070     3.969427     3.961784     3.954141     3.946497     3.938854     3.931211
      3.923568     3.915925     3.908281     3.900638     3.892995     3.885352     3.877708     3.870065     3.862422     3.854779
      3.847136     3.839492     3.831849     3.824206     3.816563     3.808919     3.801276     3.793633     3.785990     3.778347
      3.770703     3.763060     3.755417     3.747774     3.740130     3.732487     3.724844     3.717201     3.709558     3.701914
      3.694271     3.686628     3.678985     3.671341     3.663698     3.656055     3.648412     3.640769     3.633125     3.625482
      3.617839     3.610196     3.602552     3.594909     3.587266     3.579623     3.571980     3.564336     3.556693     3.549050
      3.541407     3.533763     3.526120     3.518477     3.510834     3.503191     3.495547     3.487904     3.480261     3.472618
      3.464974     3.457331     3.449688     3.442045     3.434402     3.426758     3.419115     3.411472     3.403829     3.396185
      3.388542     3.380899     3.373256     3.365613     3.357969     3.350326     3.342683     3.335040     3.327396     3.319753
      3.312110     3.304467     3.296824     3.289180     3.281537     3.273894     3.266251     3.258607     3.250964     3.243321
      3.235678     3.228034     3.220391     3.212748     3.205105     3.197462     3.189818     3.182175     3.174532     3.166889
      3.159245     3.151602     3.143959     3.136316     3.128673     3.121029     3.113386     3.105743     3.098100     3.090456
      3.082813     3.075170     3.067527     3.059884     3.052240     3.044597     3.036954     3.029311     3.021667     3.014024
      3.006381     2.998738     2.991095     2.983451     2.975808     2.968165     2.960522     2.952878     2.945235     2.937592
      2.929949     2.922306     2.914662     2.907019     2.899376     2.891733     2.884089     2.876446     2.868803     2.861160
      2.853517     2.845873     2.838230     2.830587     2.822944     2.815300     2.807657     2.800014     2.792371     2.784728
      2.777084     2.769441     2.761798     2.754155     2.746511     2.738868     2.731225     2.723582     2.715939     2.708295
      2.700652     2.693009     2.685366     2.677722     2.670079     2.662436     2.654793     2.647150     2.639506     2.631863
      2.624220     2.616577     2.608933     2.601290     2.593647     2.586004     2.578361     2.570717     2.563074     2.555431
      2.547788     2.540144     2.532501     2.524858     2.517215     2.509572     2.501928     2.494285     2.486642     2.478999
      2.471355     2.463712     2.456069     2.448426     2.440783     2.433139     2.425496     2.417853     2.410210     2.402566
      2.394923     2.387280     2.379637     2.371994     2.364350     2.356707     2.349064     2.341421     2.333777     2.326134
      2.318491     2.310848     2.303205     2.295561     2.287918     2.280275     2.272632     2.264988     2.257345     2.249702
      2.242059     2.234416     2.226772     2.219129     2.211486     2.203843     2.196199     2.188556     2.180913     2.173270
      2.165627     2.157983     2.150340     2.142697     2.135054     2.127410     2.119767     2.112124     2.104481     2.096838
      2.089194     2.081551     2.073908     2.066265     2.058621     2.050978     2.043335     2.035692     2.028049     2.020405
      2.012762     2.005119     1.997476     1.989833     1.982190     1.974546     1.966903     1.959260     1.951617     1.943974
      1.936331     1.928688     1.921045     1.913402     1.905759     1.898115     1.890472     1.882829     1.875186     1.867543
      1.859900     1.852257     1.844614     1.836971     1.829327     1.821684     1.814041     1.806398     1.798755     1.791112
      1.783469     1.775826     1.768183     1.760540     1.752896     1.745253     1.737610     1.729967     1.722324     1.714681
      1.707038     1.699395     1.691752     1.684108     1.676465     1.668822     1.661179     1.653536     1.645893     1.638250
      1.630607     1.622964     1.615321     1.607677     1.600034     1.592391     1.584748     1.577105     1.569462     1.561819
      1.554176     1.546533     1.538890     1.531246     1.523603     1.515960     1.508317     1.500674     1.493031     1.485388
      1.477745     1.470102     1.462458     1.454815     1.447172     1.439529     1.431886     1.424243     1.416600     1.408957
      1.401314     1.393671     1.386027     1.378384     1.370741     1.363098     1.355455     1.347812     1.340169     1.332526
      1.324883     1.317240     1.309596     1.301953     1.294310     1.286667     1.279024     1.271381     1.263738     1.256095
      1.248452     1.240808     1.233165     1.225522     1.217879     1.210236     1.202593     1.194950     1.187307     1.179664
      1.172021     1.164377     1.156734     1.149091     1.141448     1.133805     1.126162     1.118519     1.110876     1.103233
      1.095590     1.087946     1.080303     1.072660     1.065017     1.057374     1.049731     1.042088     1.034445     1.026802
      1.019158     1.011515     1.003872     0.996229     0.988586     0.980943     0.973300     0.965657     0.958014     0.950371
      0.942727     0.935084     0.927441     0.919798     0.912155     0.904512     0.896869     0.889226     0.881583     0.873940
      0.866296     0.858653     0.851010     0.843367     0.835724     0.828081     0.820438     0.812795     0.805152     0.797508
      0.789865     0.782222     0.774579     0.766936     0.759293     0.751650     0.744007     0.736364     0.728721     0.721077
      0.713434     0.705791     0.698148     0.690505     0.682862     0.675219     0.667576     0.659933     0.652290     0.644646
      0.637003     0.629360     0.621717     0.614074     0.606431     0.598788     0.591145     0.583502     0.575858     0.568215
      0.560572     0.552929     0.545286     0.537643     0.530000     0.522357     0.514714     0.507071     0.499427     0.491784
      0.484141     0.476498     0.468855     0.461212     0.453569     0.445925     0.438282     0.430639     0.422996     0.415353
      0.407710     0.400067     0.392424     0.384780     0.377137     0.369494     0.361851     0.354208     0.346565     0.338922
      0.331278     0.323635     0.315992     0.308349     0.300706     0.293063     0.285420     0.277777     0.270133     0.262490
      0.254847     0.247204     0.239561     0.231918     0.224275     0.216631     0.208988     0.201345
 NY phased data points follow
  -1.71115E+01 -1.79318E+01 -1.69972E+01 -1.88412E+01 -1.43702E+01 -1.75648E+01 -1.84396E+01 -1.80794E+01 -1.64165E+01 -1.73161E+01
  -1.50413E+01 -1.91673E+01 -1.60039E+01 -1.64490E+01 -1.65210E+01 -1.67121E+01 -1.67077E+01 -1.99696E+01 -1.66659E+01 -1.64686E+01
  -1.81342E+01 -1.52899E+01 -1.75204E+01 -1.61724E+01 -1.87878E+01 -1.71886E+01 -1.68539E+01 -1.65281E+01 -1.71072E+01 -1.76554E+01
  -1.75396E+01 -1.61304E+01 -1.48850E+01 -1.77605E+01 -1.72972E+01 -1.63673E+01 -1.61124E+01 -1.53532E+01 -1.45846E+01 -1.56374E+01
  -1.47960E+01 -1.54900E+01 -1.64072E+01 -1.41399E+01 -1.71255E+01 -1.60567E+01 -1.65607E+01 -1.28343E+01 -1.68976E+01 -1.51398E+01
  -1.55043E+01 -1.36046E+01 -1.62500E+01 -1.56824E+01 -1.49193E+01 -1.39598E+01 -1.59697E+01 -1.49271E+01 -1.67996E+01 -1.47386E+01
  -1.51234E+01 -1.46755E+01 -1.48623E+01 -1.57377E+01 -1.36110E+01 -1.41578E+01 -1.43611E+01 -1.40350E+01 -1.44196E+01 -1.49259E+01
  -1.45475E+01 -1.34557E+01 -1.40423E+01 -1.16849E+01 -1.04068E+01 -1.32081E+01 -1.21833E+01 -9.29025E+00 -1.17223E+01 -1.32241E+01
  -1.16222E+01 -1.14387E+01 -1.20575E+01 -1.20236E+01 -1.05202E+01 -9.72357E+00 -1.01372E+01 -9.14752E+00 -1.03359E+01 -9.04624E+00
  -9.47113E+00 -8.31134E+00 -7.56645E+00 -7.74464E+00 -8.77935E+00 -7.40197E+00 -6.77582E+00 -5.66023E+00 -6.74289E+00 -7.04770E+00
  -5.89487E+00 -5.54267E+00 -5.42854E+00 -4.35664E+00 -5.24695E+00 -3.16021E+00 -4.32223E+00 -5.73977E+00 -5.18663E+00 -1.11065E+00
  -4.68342E+00 -2.84360E+00 -2.48237E+00 -1.70413E+00 -4.29081E+00 -4.48988E-01 -1.02778E+00  3.83620E+00  9.31150E-01 -4.02795E-01
   3.45349E-01  1.35885E+00  6.72729E-01  5.26894E-01  3.06306E+00  3.08400E+00  3.10440E+00  2.47432E+00  3.61685E+00  2.92520E+00
   5.68661E+00  6.10372E+00  5.15658E+00  4.41166E+00  6.66523E+00  5.70957E+00  8.07103E+00  6.37573E+00  7.28296E+00  8.15098E+00
   8.93236E+00  9.41710E+00  9.31330E+00  1.11343E+01  1.10535E+01  1.01503E+01  1.23591E+01  1.41941E+01  1.30908E+01  1.19233E+01
   1.24911E+01  1.30749E+01  1.63937E+01  1.64634E+01  1.72570E+01  1.79829E+01  1.68906E+01  2.00056E+01  1.79025E+01  2.07550E+01
   1.96754E+01  2.21937E+01  2.13450E+01  2.14337E+01  2.31137E+01  2.35276E+01  2.17173E+01  2.39385E+01  2.42248E+01  2.35222E+01
   2.70074E+01  2.80680E+01  2.68276E+01  2.63491E+01  2.94857E+01  2.81038E+01  2.95962E+01  2.89528E+01  2.93968E+01  3.11678E+01
   2.90913E+01  2.99177E+01  3.08745E+01  3.12415E+01  3.27118E+01  3.32867E+01  3.44909E+01  3.44235E+01  3.84661E+01  3.55377E+01
   3.76646E+01  3.65079E+01  3.99254E+01  3.92863E+01  3.89270E+01  3.89849E+01  4.12472E+01  4.16327E+01  4.11345E+01  4.40492E+01
   4.45180E+01  4.60236E+01  4.75143E+01  4.72256E+01  4.72729E+01  4.87074E+01  5.07721E+01  4.98417E+01  5.22303E+01  5.09772E+01
   5.33065E+01  5.26618E+01  5.58145E+01  5.51277E+01  5.51019E+01  5.51619E+01  5.75765E+01  5.85387E+01  6.04269E+01  5.75163E+01
   6.20732E+01  6.02474E+01  6.26707E+01  6.24439E+01  6.57685E+01  6.46062E+01  6.41140E+01  6.69071E+01  6.61791E+01  6.59703E+01
   6.47135E+01  6.85191E+01  6.64772E+01  6.78650E+01  6.81244E+01  6.63964E+01  6.99277E+01  6.73639E+01  6.49712E+01  6.74459E+01
   6.58101E+01  6.71713E+01  6.52890E+01  6.44946E+01  6.37918E+01  6.21968E+01  6.21152E+01  5.99611E+01  6.10370E+01  5.76436E+01
   5.64563E+01  5.50644E+01  5.49360E+01  5.35874E+01  5.24738E+01  5.40900E+01  5.15750E+01  5.25386E+01  5.23564E+01  5.17970E+01
   4.79623E+01  4.77255E+01  5.01647E+01  4.90227E+01  4.36509E+01  4.21424E+01  4.18184E+01  4.21943E+01  4.02697E+01  3.92363E+01
   3.47785E+01  3.62331E+01  3.75835E+01  3.25816E+01  3.51832E+01  3.22534E+01  2.98433E+01  3.09577E+01  2.73510E+01  2.88160E+01
   2.53868E+01  2.70492E+01  2.51483E+01  2.35945E+01  2.20093E+01  2.30710E+01  2.26177E+01  2.15715E+01  2.12179E+01  2.11427E+01
   1.88053E+01  1.78959E+01  1.63788E+01  1.62161E+01  1.29113E+01  1.40947E+01  1.36633E+01  1.22503E+01  1.13540E+01  1.05187E+01
   9.74112E+00  1.04946E+01  8.11757E+00  7.12015E+00  3.72632E+00  5.21268E+00  2.13325E+00  3.34283E-01  3.78762E-01 -3.60435E+00
  -4.88629E+00 -7.08657E+00 -7.61476E+00 -7.54122E+00 -1.05142E+01 -1.24289E+01 -1.36293E+01 -1.63094E+01 -1.55962E+01 -2.01961E+01
  -1.87700E+01 -2.38945E+01 -2.30952E+01 -2.64211E+01 -2.67805E+01 -2.89844E+01 -3.49418E+01 -3.73844E+01 -3.83723E+01 -4.16852E+01
  -4.41853E+01 -4.75638E+01 -5.30102E+01 -5.64526E+01 -5.85680E+01 -6.28982E+01 -6.90980E+01 -7.15347E+01 -7.70619E+01 -8.26413E+01
  -9.01072E+01 -9.60203E+01 -1.01139E+02 -1.10560E+02 -1.17159E+02 -1.26003E+02 -1.31923E+02 -1.38237E+02 -1.48058E+02 -1.56389E+02
  -1.64678E+02 -1.72333E+02 -1.81234E+02 -1.89486E+02 -1.96326E+02 -2.04050E+02 -2.10314E+02 -2.14687E+02 -2.15836E+02 -2.20114E+02
  -2.17875E+02 -2.16367E+02 -2.13602E+02 -2.06916E+02 -1.99727E+02 -1.93815E+02 -1.84081E+02 -1.72220E+02 -1.65546E+02 -1.53672E+02
  -1.46648E+02 -1.35983E+02 -1.27201E+02 -1.19342E+02 -1.09658E+02 -1.03265E+02 -9.69890E+01 -8.96491E+01 -8.45428E+01 -8.06040E+01
  -7.30347E+01 -6.70698E+01 -6.38479E+01 -6.07555E+01 -5.56844E+01 -5.21945E+01 -4.86238E+01 -4.75485E+01 -4.28283E+01 -4.09677E+01
  -3.47615E+01 -3.54700E+01 -3.47044E+01 -2.85644E+01 -2.78310E+01 -2.58868E+01 -2.29476E+01 -2.21584E+01 -2.08079E+01 -1.95364E+01
  -1.78434E+01 -1.56386E+01 -1.43349E+01 -1.22586E+01 -7.92644E+00 -9.13435E+00 -7.32867E+00 -5.26649E+00 -5.26375E+00 -1.60192E+00
  -1.54991E+00 -1.32314E+00  4.24473E+00  2.23383E+00  4.30639E+00  2.08778E+00  7.00831E+00  7.41815E+00  7.85469E+00  1.08910E+01
   1.24034E+01  1.13977E+01  1.34768E+01  1.37261E+01  1.69821E+01  1.30994E+01  1.97043E+01  2.05952E+01  1.83102E+01  2.12884E+01
   2.26274E+01  2.46113E+01  2.63300E+01  2.49512E+01  2.44494E+01  2.72129E+01  2.59729E+01  2.87593E+01  2.77829E+01  2.83702E+01
   2.97326E+01  3.35727E+01  3.23701E+01  3.15257E+01  3.20027E+01  3.17098E+01  3.30258E+01  3.25380E+01  3.33674E+01  3.45149E+01
   3.26121E+01  3.81752E+01  3.50949E+01  3.73234E+01  3.67037E+01  3.78184E+01  3.73176E+01  3.54157E+01  3.63096E+01  3.78683E+01
   3.65791E+01  3.62620E+01  3.68281E+01  3.63390E+01  3.80332E+01  3.87807E+01  3.72905E+01  3.57798E+01  3.59677E+01  3.87955E+01
   3.76798E+01  3.82792E+01  3.63448E+01  3.48033E+01  3.56921E+01  3.64467E+01  3.79665E+01  3.90715E+01  3.86569E+01  3.69068E+01
   3.70512E+01  3.88557E+01  3.65876E+01  3.54661E+01  3.48825E+01  3.48059E+01  3.57557E+01  3.52790E+01  3.31592E+01  3.56374E+01
   3.49677E+01  3.68606E+01  3.43164E+01  3.55236E+01  3.23822E+01  3.47501E+01  3.46051E+01  3.50892E+01
 NY points of the fit to the data follow
  -1.23151E+01 -1.23201E+01 -1.15276E+01 -1.17649E+01 -1.11406E+01 -1.14555E+01 -1.04542E+01 -1.02543E+01 -1.03173E+01 -1.29226E+01
  -1.40570E+01 -1.81173E+01 -2.04065E+01 -2.35370E+01 -2.27154E+01 -2.39607E+01 -2.18357E+01 -2.38244E+01 -2.21025E+01 -2.63406E+01
  -2.51536E+01 -2.82675E+01 -2.62269E+01 -2.72438E+01 -2.41275E+01 -2.49481E+01 -2.16651E+01 -2.20230E+01 -1.92250E+01 -1.95023E+01
  -1.79473E+01 -1.82726E+01 -1.77253E+01 -1.78420E+01 -1.80263E+01 -1.79181E+01 -1.86731E+01 -1.74425E+01 -1.68385E+01 -1.42039E+01
  -1.42022E+01 -1.21289E+01 -1.34320E+01 -1.17395E+01 -1.34774E+01 -1.12037E+01 -1.23423E+01 -9.28068E+00 -1.14562E+01 -1.13839E+01
  -1.38952E+01 -1.41237E+01 -1.64239E+01 -1.51102E+01 -1.36319E+01 -1.11057E+01 -9.51184E+00 -9.15006E+00 -8.65460E+00 -1.09580E+01
  -1.13587E+01 -1.30047E+01 -1.22941E+01 -1.36861E+01 -1.28936E+01 -1.45614E+01 -1.39895E+01 -1.56228E+01 -1.47710E+01 -1.61183E+01
  -1.55591E+01 -1.66973E+01 -1.62721E+01 -1.72168E+01 -1.71406E+01 -1.78762E+01 -1.76996E+01 -1.74965E+01 -1.59752E+01 -1.51815E+01
  -1.47786E+01 -1.51161E+01 -1.57440E+01 -1.61561E+01 -1.56208E+01 -1.57337E+01 -1.48077E+01 -1.44116E+01 -1.35710E+01 -1.28600E+01
  -1.13755E+01 -1.01229E+01 -8.41227E+00 -7.29994E+00 -6.39739E+00 -5.88263E+00 -5.92693E+00 -5.85231E+00 -6.45921E+00 -6.57846E+00
  -7.32631E+00 -7.41570E+00 -7.70413E+00 -7.12243E+00 -6.98694E+00 -5.84955E+00 -5.37041E+00 -3.80085E+00 -3.18107E+00 -1.50066E+00
  -1.15259E+00  3.81993E-01  3.39313E-01  1.80312E+00  1.78367E+00  3.10954E+00  2.89973E+00  3.64048E+00  2.76772E+00  2.90511E+00
   1.94046E+00  2.21926E+00  2.09162E+00  3.13614E+00  5.28058E+00  6.77156E+00  9.31886E+00  1.08435E+01  1.32823E+01  1.43245E+01
   1.65128E+01  1.71112E+01  1.90399E+01  1.91900E+01  2.08120E+01  2.05803E+01  2.20177E+01  2.15783E+01  2.27687E+01  2.21645E+01
   2.31051E+01  2.23822E+01  2.31463E+01  2.23999E+01  2.30434E+01  2.23841E+01  2.29068E+01  2.23247E+01  2.26533E+01  2.21079E+01
   2.22002E+01  2.17387E+01  2.17167E+01  2.14583E+01  2.15275E+01  2.12978E+01  2.09754E+01  2.06679E+01  2.00282E+01  1.96882E+01
   1.91142E+01  1.88641E+01  1.85236E+01  1.83233E+01  1.80353E+01  1.78172E+01  1.74975E+01  1.73070E+01  1.69564E+01  1.68626E+01
   1.66422E+01  1.68016E+01  1.68032E+01  1.72409E+01  1.73307E+01  1.78366E+01  1.74758E+01  1.79565E+01  1.65037E+01  1.68229E+01
   1.49516E+01  1.53189E+01  1.34633E+01  1.49510E+01  1.43543E+01  1.73005E+01  1.78678E+01  2.29241E+01  2.38767E+01  2.94486E+01
   2.99249E+01  3.28340E+01  2.97353E+01  3.15565E+01  2.83094E+01  3.10483E+01  3.02049E+01  3.74240E+01  3.88101E+01  4.67247E+01
   4.85443E+01  5.52324E+01  5.58736E+01  5.82215E+01  5.61498E+01  5.66344E+01  5.53720E+01  5.46596E+01  5.43247E+01  5.20980E+01
   5.22077E+01  4.85081E+01  4.89200E+01  4.44363E+01  4.64040E+01  4.27570E+01  4.71304E+01  4.47397E+01  4.97202E+01  4.85598E+01
   5.45860E+01  5.36275E+01  5.94929E+01  5.93416E+01  6.38214E+01  6.32145E+01  6.71995E+01  6.78184E+01  7.09564E+01  7.19611E+01
   7.37738E+01  7.20187E+01  6.95637E+01  6.79422E+01  6.68297E+01  6.78453E+01  6.94818E+01  7.51725E+01  7.75733E+01  8.11994E+01
   8.14514E+01  8.16896E+01  7.93748E+01  7.53568E+01  7.01042E+01  6.63950E+01  6.32327E+01  6.01225E+01  5.92641E+01  5.68378E+01
   5.75270E+01  5.51330E+01  5.60818E+01  5.30103E+01  5.44601E+01  5.13599E+01  5.34332E+01  4.99196E+01  5.12514E+01  4.80085E+01
   4.98471E+01  4.69327E+01  4.85658E+01  4.66796E+01  4.69547E+01  4.44376E+01  4.47742E+01  4.22122E+01  4.15781E+01  3.89074E+01
   3.74678E+01  3.36766E+01  3.10931E+01  2.74194E+01  2.54450E+01  2.28673E+01  2.16042E+01  1.98216E+01  1.86568E+01  1.65619E+01
   1.55651E+01  1.41516E+01  1.46931E+01  1.49988E+01  1.59764E+01  1.73536E+01  1.83448E+01  1.97658E+01  2.08506E+01  2.22247E+01
   2.30660E+01  2.40453E+01  2.44030E+01  2.47442E+01  2.47098E+01  2.47412E+01  2.43584E+01  2.38309E+01  2.28699E+01  2.16222E+01
   1.99381E+01  1.78356E+01  1.53112E+01  1.24592E+01  9.27636E+00  5.86176E+00  2.23806E+00 -1.48651E+00 -5.26487E+00 -8.99759E+00
  -1.26177E+01 -1.60101E+01 -1.91234E+01 -2.18651E+01 -2.41858E+01 -2.60305E+01 -2.73836E+01 -2.82337E+01 -2.86095E+01 -2.85524E+01
  -2.81404E+01 -2.74663E+01 -2.66497E+01 -2.58236E+01 -2.51294E+01 -2.47211E+01 -2.47475E+01 -2.53477E+01 -2.66449E+01 -2.87395E+01
  -3.17040E+01 -3.55787E+01 -4.03698E+01 -4.60495E+01 -5.25575E+01 -5.98030E+01 -6.76695E+01 -7.60206E+01 -8.47060E+01 -9.35689E+01
  -1.02452E+02 -1.11204E+02 -1.19687E+02 -1.27774E+02 -1.35363E+02 -1.42369E+02 -1.48728E+02 -1.54399E+02 -1.59361E+02 -1.63608E+02
  -1.67150E+02 -1.70011E+02 -1.72223E+02 -1.73823E+02 -1.74855E+02 -1.75362E+02 -1.75388E+02 -1.74976E+02 -1.74166E+02 -1.72994E+02
  -1.71493E+02 -1.69692E+02 -1.67617E+02 -1.65288E+02 -1.62726E+02 -1.59944E+02 -1.56957E+02 -1.53776E+02 -1.50410E+02 -1.46867E+02
  -1.43155E+02 -1.39281E+02 -1.35252E+02 -1.31073E+02 -1.26752E+02 -1.22296E+02 -1.17713E+02 -1.13011E+02 -1.08200E+02 -1.03291E+02
  -9.82943E+01 -9.32238E+01 -8.80934E+01 -8.29182E+01 -7.77148E+01 -7.25006E+01 -6.72945E+01 -6.21158E+01 -5.69851E+01 -5.19229E+01
  -4.69505E+01 -4.20888E+01 -3.73587E+01 -3.27803E+01 -2.83730E+01 -2.41546E+01 -2.01417E+01 -1.63486E+01 -1.27879E+01 -9.46964E+00
  -6.40128E+00 -3.58761E+00 -1.03075E+00  1.27005E+00  3.31813E+00  5.11964E+00  6.68300E+00  8.01904E+00  9.14049E+00  1.00619E+01
   1.07991E+01  1.13690E+01  1.17895E+01  1.20788E+01  1.22551E+01  1.23366E+01  1.23410E+01  1.22853E+01  1.21858E+01  1.20575E+01
   1.19145E+01  1.17694E+01  1.16338E+01  1.15176E+01  1.14297E+01  1.13775E+01  1.13672E+01  1.14037E+01  1.14910E+01  1.16317E+01
   1.18278E+01  1.20803E+01  1.23893E+01  1.27545E+01  1.31747E+01  1.36484E+01  1.41738E+01  1.47482E+01  1.53693E+01  1.60339E+01
   1.67392E+01  1.74819E+01  1.82588E+01  1.90663E+01  1.99013E+01  2.07601E+01  2.16396E+01  2.25363E+01  2.34468E+01  2.43680E+01
   2.52966E+01  2.62295E+01  2.71635E+01  2.80958E+01  2.90234E+01  2.99435E+01  3.08533E+01  3.17501E+01  3.26314E+01  3.34945E+01
   3.43373E+01  3.51570E+01  3.59516E+01  3.67187E+01  3.74562E+01  3.81619E+01  3.88339E+01  3.94700E+01  4.00684E+01  4.06271E+01
   4.11443E+01  4.16182E+01  4.20470E+01  4.24290E+01  4.27626E+01  4.30459E+01  4.32776E+01  4.34559E+01  4.35795E+01  4.36466E+01
   4.36560E+01  4.36061E+01  4.34956E+01  4.33229E+01  4.30868E+01  4.27860E+01  4.24192E+01  4.19850E+01  4.14823E+01  4.09098E+01
   4.02664E+01  3.95511E+01  3.87627E+01  3.79004E+01  3.69633E+01  3.59506E+01  3.48619E+01  3.36972E+01
 NY background values follow
    -1.091E+02   -1.109E+02   -1.127E+02   -1.144E+02   -1.161E+02   -1.177E+02   -1.192E+02   -1.207E+02   -1.221E+02   -1.234E+02
    -1.247E+02   -1.259E+02   -1.271E+02   -1.282E+02   -1.292E+02   -1.302E+02   -1.312E+02   -1.320E+02   -1.329E+02   -1.336E+02
    -1.344E+02   -1.350E+02   -1.357E+02   -1.362E+02   -1.368E+02   -1.372E+02   -1.376E+02   -1.380E+02   -1.383E+02   -1.386E+02
    -1.389E+02   -1.391E+02   -1.392E+02   -1.393E+02   -1.394E+02   -1.394E+02   -1.394E+02   -1.393E+02   -1.392E+02   -1.391E+02
    -1.389E+02   -1.387E+02   -1.384E+02   -1.381E+02   -1.378E+02   -1.374E+02   -1.370E+02   -1.366E+02   -1.361E+02   -1.357E+02
    -1.351E+02   -1.346E+02   -1.340E+02   -1.334E+02   -1.327E+02   -1.321E+02   -1.314E+02   -1.306E+02   -1.299E+02   -1.291E+02
    -1.283E+02   -1.275E+02   -1.267E+02   -1.258E+02   -1.249E+02   -1.240E+02   -1.231E+02   -1.221E+02   -1.212E+02   -1.202E+02
    -1.192E+02   -1.182E+02   -1.171E+02   -1.161E+02   -1.150E+02   -1.140E+02   -1.129E+02   -1.118E+02   -1.107E+02   -1.095E+02
    -1.084E+02   -1.073E+02   -1.061E+02   -1.050E+02   -1.038E+02   -1.026E+02   -1.015E+02   -1.003E+02   -9.910E+01   -9.792E+01
    -9.673E+01   -9.554E+01   -9.434E+01   -9.315E+01   -9.196E+01   -9.076E+01   -8.957E+01   -8.838E+01   -8.720E+01   -8.601E+01
    -8.484E+01   -8.366E+01   -8.250E+01   -8.134E+01   -8.018E+01   -7.904E+01   -7.790E+01   -7.677E+01   -7.565E+01   -7.455E+01
    -7.345E+01   -7.237E+01   -7.130E+01   -7.024E+01   -6.920E+01   -6.817E+01   -6.716E+01   -6.617E+01   -6.519E+01   -6.423E+01
    -6.329E+01   -6.237E+01   -6.147E+01   -6.058E+01   -5.972E+01   -5.889E+01   -5.807E+01   -5.728E+01   -5.651E+01   -5.577E+01
    -5.506E+01   -5.437E+01   -5.371E+01   -5.307E+01   -5.247E+01   -5.189E+01   -5.134E+01   -5.083E+01   -5.034E+01   -4.989E+01
    -4.947E+01   -4.908E+01   -4.873E+01   -4.842E+01   -4.813E+01   -4.789E+01   -4.768E+01   -4.751E+01   -4.738E+01   -4.729E+01
    -4.724E+01   -4.723E+01   -4.726E+01   -4.733E+01   -4.745E+01   -4.760E+01   -4.781E+01   -4.806E+01   -4.835E+01   -4.869E+01
    -4.908E+01   -4.951E+01   -5.000E+01   -5.053E+01   -5.111E+01   -5.174E+01   -5.243E+01   -5.316E+01   -5.395E+01   -5.479E+01
    -5.568E+01   -5.661E+01   -5.759E+01   -5.863E+01   -5.970E+01   -6.082E+01   -6.199E+01   -6.321E+01   -6.446E+01   -6.576E+01
    -6.710E+01   -6.848E+01   -6.991E+01   -7.137E+01   -7.287E+01   -7.441E+01   -7.599E+01   -7.761E+01   -7.926E+01   -8.094E+01
    -8.267E+01   -8.442E+01   -8.621E+01   -8.804E+01   -8.989E+01   -9.178E+01   -9.369E+01   -9.564E+01   -9.761E+01   -9.962E+01
    -1.016E+02   -1.037E+02   -1.058E+02   -1.079E+02   -1.100E+02   -1.122E+02   -1.144E+02   -1.166E+02   -1.188E+02   -1.210E+02
    -1.233E+02   -1.256E+02   -1.279E+02   -1.302E+02   -1.326E+02   -1.349E+02   -1.373E+02   -1.397E+02   -1.421E+02   -1.445E+02
    -1.469E+02   -1.494E+02   -1.518E+02   -1.543E+02   -1.568E+02   -1.593E+02   -1.618E+02   -1.643E+02   -1.668E+02   -1.693E+02
    -1.718E+02   -1.743E+02   -1.769E+02   -1.794E+02   -1.819E+02   -1.845E+02   -1.870E+02   -1.896E+02   -1.921E+02   -1.946E+02
    -1.972E+02   -1.997E+02   -2.022E+02   -2.048E+02   -2.073E+02   -2.098E+02   -2.123E+02   -2.148E+02   -2.173E+02   -2.198E+02
    -2.223E+02   -2.248E+02   -2.272E+02   -2.297E+02   -2.321E+02   -2.346E+02   -2.370E+02   -2.394E+02   -2.418E+02   -2.441E+02
    -2.465E+02   -2.488E+02   -2.512E+02   -2.535E+02   -2.558E+02   -2.580E+02   -2.603E+02   -2.625E+02   -2.647E+02   -2.669E+02
    -2.690E+02   -2.711E+02   -2.733E+02   -2.753E+02   -2.774E+02   -2.794E+02   -2.814E+02   -2.834E+02   -2.853E+02   -2.872E+02
    -2.891E+02   -2.910E+02   -2.928E+02   -2.946E+02   -2.963E+02   -2.981E+02   -2.997E+02   -3.014E+02   -3.030E+02   -3.046E+02
    -3.061E+02   -3.076E+02   -3.091E+02   -3.105E+02   -3.119E+02   -3.132E+02   -3.145E+02   -3.157E+02   -3.169E+02   -3.181E+02
    -3.192E+02   -3.203E+02   -3.213E+02   -3.223E+02   -3.232E+02   -3.241E+02   -3.249E+02   -3.257E+02   -3.264E+02   -3.271E+02
    -3.278E+02   -3.283E+02   -3.288E+02   -3.293E+02   -3.297E+02   -3.301E+02   -3.304E+02   -3.306E+02   -3.308E+02   -3.309E+02
    -3.310E+02   -3.310E+02   -3.309E+02   -3.308E+02   -3.306E+02   -3.304E+02   -3.300E+02   -3.297E+02   -3.292E+02   -3.287E+02
    -3.281E+02   -3.275E+02   -3.268E+02   -3.260E+02   -3.252E+02   -3.242E+02   -3.233E+02   -3.222E+02   -3.211E+02   -3.200E+02
    -3.187E+02   -3.174E+02   -3.161E+02   -3.147E+02   -3.132E+02   -3.117E+02   -3.101E+02   -3.085E+02   -3.068E+02   -3.051E+02
    -3.033E+02   -3.014E+02   -2.995E+02   -2.976E+02   -2.956E+02   -2.936E+02   -2.915E+02   -2.894E+02   -2.872E+02   -2.850E+02
    -2.827E+02   -2.804E+02   -2.781E+02   -2.757E+02   -2.733E+02   -2.708E+02   -2.683E+02   -2.658E+02   -2.632E+02   -2.606E+02
    -2.580E+02   -2.553E+02   -2.526E+02   -2.499E+02   -2.472E+02   -2.444E+02   -2.416E+02   -2.387E+02   -2.359E+02   -2.330E+02
    -2.301E+02   -2.272E+02   -2.242E+02   -2.212E+02   -2.183E+02   -2.152E+02   -2.122E+02   -2.092E+02   -2.061E+02   -2.030E+02
    -1.999E+02   -1.968E+02   -1.937E+02   -1.906E+02   -1.875E+02   -1.843E+02   -1.812E+02   -1.780E+02   -1.748E+02   -1.717E+02
    -1.685E+02   -1.653E+02   -1.621E+02   -1.589E+02   -1.558E+02   -1.526E+02   -1.494E+02   -1.462E+02   -1.430E+02   -1.398E+02
    -1.367E+02   -1.335E+02   -1.304E+02   -1.272E+02   -1.241E+02   -1.209E+02   -1.178E+02   -1.147E+02   -1.116E+02   -1.085E+02
    -1.055E+02   -1.024E+02   -9.937E+01   -9.635E+01   -9.335E+01   -9.037E+01   -8.741E+01   -8.447E+01   -8.155E+01   -7.866E+01
    -7.578E+01   -7.294E+01   -7.012E+01   -6.733E+01   -6.456E+01   -6.182E+01   -5.912E+01   -5.644E+01   -5.379E+01   -5.118E+01
    -4.860E+01   -4.606E+01   -4.355E+01   -4.107E+01   -3.864E+01   -3.624E+01   -3.388E+01   -3.156E+01   -2.929E+01   -2.705E+01
    -2.486E+01   -2.271E+01   -2.061E+01   -1.855E+01   -1.654E+01   -1.457E+01   -1.266E+01   -1.079E+01   -8.978E+00   -7.214E+00
    -5.503E+00   -3.846E+00   -2.242E+00   -6.942E-01    7.977E-01    2.232E+00    3.609E+00    4.927E+00    6.184E+00    7.381E+00
     8.515E+00    9.587E+00    1.060E+01    1.154E+01    1.242E+01    1.323E+01    1.397E+01    1.465E+01    1.525E+01    1.579E+01
     1.625E+01    1.664E+01    1.696E+01    1.720E+01    1.737E+01    1.746E+01    1.748E+01    1.742E+01    1.727E+01    1.705E+01
     1.675E+01    1.637E+01    1.590E+01    1.535E+01    1.471E+01    1.399E+01    1.318E+01    1.229E+01
 Asp      Conc. = 2.39E+02
