 LCModel (Version 6.3-1L) Copyright: S.W. Provencher.          Ref.: Magn. Reson. Med. 30:672-679 (1993).                
 Slice#2 Row#1 Col#9  PD_05_press_1_raw_act
 36 lines in following concentration table = NCONC+1
    Conc.  %SD /Cr+PCr  Metabolite                                         
    0.000 999%   0.000 Ala                                                 
   10.440  39%   0.126 Asp                                                 
   82.872  25%   1.000 Cr                                                  
    0.000 999%   0.000 PCr                                                 
    6.206  39% 7.5E-02 GABA                                                
    6.316  39% 7.6E-02 Glc                                                 
   42.268 192%   0.510 Gln                                                 
    0.000 999%   0.000 Glu                                                 
    0.000 999%   0.000 GPC                                                 
   14.605  54%   0.176 PCh                                                 
   11.253 255%   0.136 GSH                                                 
   52.675 168%   0.636 Ins                                                 
    0.000 999%   0.000 Lac                                                 
   82.060  31%   0.990 NAA                                                 
    0.000 999%   0.000 NAAG                                                
    2.042  40% 2.5E-02 Scyllo                                              
   10.322  39%   0.125 Tau                                                 
    8.094  86% 9.8E-02 -CrCH2                                              
   14.605  54%   0.176 GPC+PCh                                             
   82.060  31%   0.990 NAA+NAAG                                            
   82.872  25%   1.000 Cr+PCr                                              
   42.268 192%   0.510 Glu+Gln                                             
    0.000 999%   0.000 Lip13a                                              
    0.000 999%   0.000 Lip13b                                              
 8.02E-05 999% 9.7E-07 Lip09                                               
  228.945  24%   2.763 MM09                                                
 5.05E-05 999% 6.1E-07 Lip20                                               
  332.328  31%   4.010 MM20                                                
   39.920  90%   0.482 MM12                                                
    0.000 999%   0.000 MM14                                                
    0.000 999%   0.000 MM17                                                
    0.000 999%   0.000 Lip13a+Lip13b                                       
   39.920  90%   0.482 MM14+Lip13a+Lip13b+MM12                             
  228.945  24%   2.763 MM09+Lip09                                          
  332.328  31%   4.010 MM20+Lip20                                          
   6 lines in following misc. output table
  FWHM = 0.046 ppm    S/N =   1                                            
  Data shift = 0.000 ppm                                                   
  Ph:-170 deg      41.4 deg/ppm                                            
  alphaB,S = 8.5E+01,   2.6E+01                                            
   14 spline knots.   Ns = 5(1)                                            
   2 inflections.     1 extrema                                            
  498 points on ppm-axis = NY
      4.000000     3.992357     3.984714     3.977070     3.969427     3.961784     3.954141     3.946497     3.938854     3.931211
      3.923568     3.915925     3.908281     3.900638     3.892995     3.885352     3.877708     3.870065     3.862422     3.854779
      3.847136     3.839492     3.831849     3.824206     3.816563     3.808919     3.801276     3.793633     3.785990     3.778347
      3.770703     3.763060     3.755417     3.747774     3.740130     3.732487     3.724844     3.717201     3.709558     3.701914
      3.694271     3.686628     3.678985     3.671341     3.663698     3.656055     3.648412     3.640769     3.633125     3.625482
      3.617839     3.610196     3.602552     3.594909     3.587266     3.579623     3.571980     3.564336     3.556693     3.549050
      3.541407     3.533763     3.526120     3.518477     3.510834     3.503191     3.495547     3.487904     3.480261     3.472618
      3.464974     3.457331     3.449688     3.442045     3.434402     3.426758     3.419115     3.411472     3.403829     3.396185
      3.388542     3.380899     3.373256     3.365613     3.357969     3.350326     3.342683     3.335040     3.327396     3.319753
      3.312110     3.304467     3.296824     3.289180     3.281537     3.273894     3.266251     3.258607     3.250964     3.243321
      3.235678     3.228034     3.220391     3.212748     3.205105     3.197462     3.189818     3.182175     3.174532     3.166889
      3.159245     3.151602     3.143959     3.136316     3.128673     3.121029     3.113386     3.105743     3.098100     3.090456
      3.082813     3.075170     3.067527     3.059884     3.052240     3.044597     3.036954     3.029311     3.021667     3.014024
      3.006381     2.998738     2.991095     2.983451     2.975808     2.968165     2.960522     2.952878     2.945235     2.937592
      2.929949     2.922306     2.914662     2.907019     2.899376     2.891733     2.884089     2.876446     2.868803     2.861160
      2.853517     2.845873     2.838230     2.830587     2.822944     2.815300     2.807657     2.800014     2.792371     2.784728
      2.777084     2.769441     2.761798     2.754155     2.746511     2.738868     2.731225     2.723582     2.715939     2.708295
      2.700652     2.693009     2.685366     2.677722     2.670079     2.662436     2.654793     2.647150     2.639506     2.631863
      2.624220     2.616577     2.608933     2.601290     2.593647     2.586004     2.578361     2.570717     2.563074     2.555431
      2.547788     2.540144     2.532501     2.524858     2.517215     2.509572     2.501928     2.494285     2.486642     2.478999
      2.471355     2.463712     2.456069     2.448426     2.440783     2.433139     2.425496     2.417853     2.410210     2.402566
      2.394923     2.387280     2.379637     2.371994     2.364350     2.356707     2.349064     2.341421     2.333777     2.326134
      2.318491     2.310848     2.303205     2.295561     2.287918     2.280275     2.272632     2.264988     2.257345     2.249702
      2.242059     2.234416     2.226772     2.219129     2.211486     2.203843     2.196199     2.188556     2.180913     2.173270
      2.165627     2.157983     2.150340     2.142697     2.135054     2.127410     2.119767     2.112124     2.104481     2.096838
      2.089194     2.081551     2.073908     2.066265     2.058621     2.050978     2.043335     2.035692     2.028049     2.020405
      2.012762     2.005119     1.997476     1.989833     1.982190     1.974546     1.966903     1.959260     1.951617     1.943974
      1.936331     1.928688     1.921045     1.913402     1.905759     1.898115     1.890472     1.882829     1.875186     1.867543
      1.859900     1.852257     1.844614     1.836971     1.829327     1.821684     1.814041     1.806398     1.798755     1.791112
      1.783469     1.775826     1.768183     1.760540     1.752896     1.745253     1.737610     1.729967     1.722324     1.714681
      1.707038     1.699395     1.691752     1.684108     1.676465     1.668822     1.661179     1.653536     1.645893     1.638250
      1.630607     1.622964     1.615321     1.607677     1.600034     1.592391     1.584748     1.577105     1.569462     1.561819
      1.554176     1.546533     1.538890     1.531246     1.523603     1.515960     1.508317     1.500674     1.493031     1.485388
      1.477745     1.470102     1.462458     1.454815     1.447172     1.439529     1.431886     1.424243     1.416600     1.408957
      1.401314     1.393671     1.386027     1.378384     1.370741     1.363098     1.355455     1.347812     1.340169     1.332526
      1.324883     1.317240     1.309596     1.301953     1.294310     1.286667     1.279024     1.271381     1.263738     1.256095
      1.248452     1.240808     1.233165     1.225522     1.217879     1.210236     1.202593     1.194950     1.187307     1.179664
      1.172021     1.164377     1.156734     1.149091     1.141448     1.133805     1.126162     1.118519     1.110876     1.103233
      1.095590     1.087946     1.080303     1.072660     1.065017     1.057374     1.049731     1.042088     1.034445     1.026802
      1.019158     1.011515     1.003872     0.996229     0.988586     0.980943     0.973300     0.965657     0.958014     0.950371
      0.942727     0.935084     0.927441     0.919798     0.912155     0.904512     0.896869     0.889226     0.881583     0.873940
      0.866296     0.858653     0.851010     0.843367     0.835724     0.828081     0.820438     0.812795     0.805152     0.797508
      0.789865     0.782222     0.774579     0.766936     0.759293     0.751650     0.744007     0.736364     0.728721     0.721077
      0.713434     0.705791     0.698148     0.690505     0.682862     0.675219     0.667576     0.659933     0.652290     0.644646
      0.637003     0.629360     0.621717     0.614074     0.606431     0.598788     0.591145     0.583502     0.575858     0.568215
      0.560572     0.552929     0.545286     0.537643     0.530000     0.522357     0.514714     0.507071     0.499427     0.491784
      0.484141     0.476498     0.468855     0.461212     0.453569     0.445925     0.438282     0.430639     0.422996     0.415353
      0.407710     0.400067     0.392424     0.384780     0.377137     0.369494     0.361851     0.354208     0.346565     0.338922
      0.331278     0.323635     0.315992     0.308349     0.300706     0.293063     0.285420     0.277777     0.270133     0.262490
      0.254847     0.247204     0.239561     0.231918     0.224275     0.216631     0.208988     0.201345
 NY phased data points follow
   2.95953E+00  2.84955E+00  4.25876E-01  3.08483E+00  9.41995E-01 -1.03330E+00  2.34372E+00  5.22632E-01  1.22418E+00  3.81275E+00
   4.52485E+00  4.35067E+00  4.91031E+00  3.23242E+00  3.07028E+00  3.42751E+00 -1.24609E-01 -2.19987E+00  1.65581E+00 -5.16352E-01
  -8.10960E-01  1.28531E+00 -8.93534E-01  2.66083E+00  1.89840E+00  5.78264E-01  8.77276E-01  1.01155E+00  3.96575E-01 -7.03163E-01
   2.85092E+00  2.80202E+00  5.27857E-01  2.42042E+00  2.72526E+00  1.71189E+00  2.59576E+00  1.86726E+00  6.50703E-01  1.20192E+00
  -5.78452E-01 -3.78208E-01 -1.42461E+00  1.21128E+00  3.92349E+00  1.56532E+00 -2.06287E+00  2.85673E+00 -1.04301E+00  2.30449E+00
   1.21163E+00  7.23177E-01  1.47577E+00  2.78236E+00  2.64600E+00  9.99157E-01  1.89477E+00  1.69532E+00  4.62689E-01  3.02717E+00
   2.43852E-01 -1.41225E+00 -7.66876E-01  2.19134E+00  5.03727E+00  1.00151E+00  7.44117E-01  2.65558E+00 -5.60159E-01  2.26449E+00
   9.40575E-01  2.90358E+00 -2.46225E+00  2.73243E+00  1.77314E+00  2.94186E+00  8.88811E-01  1.29297E+00  4.31799E+00  2.50317E+00
   3.70279E+00 -1.62234E-01  1.21326E+00  3.16596E+00 -2.27206E+00 -9.13560E-01  9.74118E-01  4.88055E-02  3.24711E-01  2.25388E+00
  -2.19510E+00 -1.41124E+00  4.03090E-01  2.99302E+00  1.10985E+00  1.25380E+00 -1.25507E+00  5.74825E-01 -6.19324E-01  1.89956E+00
   8.72222E-01  1.51401E+00 -3.63717E-01  5.40410E+00  1.75201E+00  3.71534E+00  1.68558E+00  2.55174E+00  2.48138E-01  8.69297E-02
   4.73699E-02 -3.12466E+00 -6.48486E-01  1.06252E+00 -2.80857E+00  3.63389E+00  2.75981E+00  1.83546E+00  1.87429E+00  7.45391E-01
   1.79267E+00  8.47764E-01  2.07634E+00  4.18610E+00  4.86933E+00  1.28357E+00  2.22642E+00  4.44247E+00  4.11875E+00  1.07273E+00
   2.46867E+00  3.82643E+00  3.13225E-01 -1.78808E+00 -5.03136E-01 -1.08969E+00 -1.33837E+00  7.49623E-01  3.15376E+00 -1.14335E+00
   7.30872E-01 -1.00301E+00  3.39258E+00  1.27932E+00  3.33632E+00  6.54412E-01  3.18334E+00  1.71632E+00  9.48022E-01 -6.95288E-01
   2.33142E+00  7.39053E-01  1.28932E-01  9.95106E-01  5.20287E-01 -2.01504E+00  8.22289E-01  3.89120E+00  1.94088E+00  9.92004E-01
   1.34163E+00  2.37620E+00 -1.36899E+00 -8.16009E-01  1.32563E+00  2.91049E+00  2.21912E+00  2.42943E+00 -3.41087E-02 -2.16168E-01
   2.40860E+00  3.92728E+00  7.53586E-01  3.24142E-01  4.36458E-01 -5.44483E-01  2.12821E+00  1.32559E+00  2.70447E+00  1.92381E+00
   2.37350E+00  3.70232E-02  1.54659E+00  1.76706E+00 -1.47590E+00  1.53276E+00 -2.49845E-01 -1.14039E+00  3.03752E-01  1.56350E+00
  -2.49752E-01  1.43812E-01  1.84939E+00  1.07807E-01  3.38949E+00  5.41718E-01  1.23684E+00  1.55267E+00  3.87082E-01  3.15304E+00
  -9.97931E-01  1.47127E+00  3.60131E+00  4.20445E+00  5.54461E-01  4.22259E-01  1.84465E+00  2.56100E+00  2.72289E-01 -1.46982E+00
   1.98108E-01  1.18724E+00 -9.25607E-02 -1.24442E+00 -2.07712E+00  8.09455E-01  1.31698E+00  1.82739E+00  5.66297E-01 -1.88878E-01
   2.66314E+00  2.33294E+00 -1.18329E+00  3.12093E+00  1.79679E+00  1.19751E-02  1.25827E+00  4.70666E+00  1.42735E+00  2.14143E+00
  -5.77849E-01  5.35379E-01  4.43782E+00  3.10457E+00 -8.56378E-02 -3.12987E-01 -9.09432E-02  1.72494E+00  1.35193E+00  2.64174E-01
  -6.15494E-01 -2.25527E+00 -2.82391E+00  6.89803E-01  2.26864E+00 -2.59824E+00 -1.73124E+00  2.49677E+00  2.91395E+00 -8.01627E-01
   1.51998E-01  2.62738E+00  2.98458E-01  2.69228E+00 -4.08437E-01  1.68097E+00  1.92911E+00  2.51053E+00  4.37988E+00  3.71620E+00
   6.14135E+00  2.42756E+00  3.26332E+00  2.62333E+00  2.18086E+00 -2.47793E+00 -1.53615E+00 -3.23496E+00  4.02551E-01  2.38945E+00
   3.40489E+00  2.34352E+00  5.12366E+00  3.73092E+00  3.44334E+00  5.41205E+00  3.01464E-01  1.59332E+00 -4.90826E-01  2.65812E+00
  -2.75017E-01  1.72619E-01 -8.66693E-01  4.04569E-01 -1.45845E+00  6.14324E-01  1.01168E+00  2.28226E+00 -5.10416E-01 -1.67575E+00
   1.44257E+00  6.55763E-01 -4.61388E+00 -1.31422E+00  6.91969E-01  3.72292E-01  6.36857E-01 -1.70063E+00 -3.50013E-01 -2.41366E+00
   4.91182E-01 -8.83345E-01  1.02856E+00 -3.71906E+00 -6.54550E-01 -1.96477E+00 -8.31896E-01 -4.75144E+00  1.08438E+00 -7.10401E-01
  -2.83019E-02  2.03215E+00 -1.02825E+00  4.30230E-01  6.22410E-01 -2.48920E-01  2.99135E+00 -3.60076E-01 -1.17886E+00 -2.80939E+00
  -1.96107E+00 -3.54612E-01 -1.08472E+00 -1.57917E+00 -2.55850E+00  4.70332E-01 -1.21562E+00 -1.27708E+00 -2.09559E+00 -1.57122E+00
  -1.26612E+00  7.92587E-01 -4.70807E+00 -9.20205E-02  3.80430E-01 -3.73241E+00 -1.19709E+00  7.11780E-02 -2.96479E+00 -4.89044E+00
  -1.63734E+00 -2.18755E+00 -1.50904E+00 -3.83710E+00 -5.30989E+00 -3.23538E+00 -6.03727E-01 -3.52063E+00 -4.22145E+00 -2.27197E+00
  -3.25679E+00 -7.49320E-01 -2.96348E+00 -5.84480E+00 -2.69919E+00 -2.08003E+00 -3.43811E+00 -2.29084E+00 -1.28266E+00 -8.84532E-01
  -3.33829E+00 -2.74127E+00 -7.62339E-01 -4.14083E+00 -2.51575E+00 -2.64425E+00 -1.47182E+00  4.26905E-02  1.01744E+00  6.43066E-01
   7.72612E-01 -1.04508E+00  1.84713E+00  1.42642E-02  1.31235E-02  2.91203E+00  1.13249E+00  7.38165E-01  3.27035E-01  3.12561E-01
   1.00292E+00  1.69314E+00  7.47003E-02 -1.07077E+00  1.44298E+00  3.66972E-01  3.39711E+00  1.43179E+00 -2.32788E-01  8.30349E-01
   1.16058E+00  3.45380E-01  5.60760E-01 -9.74470E-01  8.58116E-01  3.28113E+00 -1.30858E+00  1.90613E+00  1.59639E+00  3.62171E-01
   1.67366E+00  2.79273E+00  1.13803E+00 -6.18728E-01  3.66330E+00  2.81557E+00  4.29452E+00  1.14592E+00  7.41867E-01  4.62842E-01
  -3.55815E+00  5.08762E-01 -2.04197E+00 -3.01014E+00 -2.88817E+00  1.49649E+00  1.10180E+00 -2.68674E-01  1.09416E+00 -7.40425E-02
   4.29939E-01 -7.85374E-01  2.14120E-01 -2.29535E+00  7.09116E-01  7.62185E-01 -2.74500E-01 -4.90431E-01  1.84491E+00  1.19012E-01
  -1.26968E+00 -1.55887E+00 -3.98440E+00 -1.78029E+00 -9.75357E-01 -1.24452E+00  3.79579E-01 -3.40287E+00 -5.72504E+00 -8.53880E-01
  -2.16040E+00 -2.29981E+00 -1.72554E+00 -3.30515E-01 -3.06412E+00  5.74431E-01 -2.30043E+00  7.46126E-01  6.41945E-01 -8.41528E-02
  -2.15567E+00 -6.98721E-01 -7.41964E-01 -1.16182E+00  2.02801E+00 -7.91732E-01  3.19979E-01 -6.00985E-02 -3.92846E+00 -2.67023E+00
  -2.21615E+00  7.86499E-01 -6.50062E-01 -1.20936E+00 -1.36197E+00 -1.01271E+00 -1.27771E+00 -2.24975E-01  2.30195E-01 -1.08533E+00
   1.38014E+00 -3.58941E-01 -2.64311E+00 -7.78964E-01 -3.40973E-01  9.30197E-01  2.25323E+00  1.13039E+00  1.68996E+00 -1.19290E+00
  -4.04012E-01  1.78831E+00  3.95575E-01 -1.96115E+00 -1.17259E+00 -8.32688E-01 -4.24880E+00 -9.54447E-01 -3.43608E+00 -4.26495E-01
  -1.73095E+00 -1.07864E+00 -2.26219E+00  2.61417E-01 -4.73742E+00 -1.08616E+00 -4.27038E-01 -9.16467E-01
 NY points of the fit to the data follow
   1.44495E+00  1.42096E+00  1.41309E+00  1.40582E+00  1.38679E+00  1.39181E+00  1.56075E+00  1.94068E+00  2.40943E+00  2.85967E+00
   3.20791E+00  3.35890E+00  3.25064E+00  2.90630E+00  2.39980E+00  1.85018E+00  1.44851E+00  1.31389E+00  1.31544E+00  1.31563E+00
   1.31997E+00  1.32545E+00  1.32177E+00  1.30591E+00  1.28613E+00  1.28963E+00  1.32968E+00  1.40957E+00  1.51820E+00  1.62350E+00
   1.69288E+00  1.70339E+00  1.64457E+00  1.53023E+00  1.39614E+00  1.28225E+00  1.21505E+00  1.18564E+00  1.18137E+00  1.18487E+00
   1.18169E+00  1.17805E+00  1.19799E+00  1.26480E+00  1.36720E+00  1.47077E+00  1.54424E+00  1.56727E+00  1.52784E+00  1.42951E+00
   1.29623E+00  1.16108E+00  1.06245E+00  1.02801E+00  1.05042E+00  1.09791E+00  1.14848E+00  1.19624E+00  1.23633E+00  1.26084E+00
   1.26079E+00  1.23575E+00  1.19317E+00  1.14082E+00  1.09408E+00  1.06844E+00  1.06612E+00  1.08433E+00  1.11339E+00  1.13899E+00
   1.15893E+00  1.17605E+00  1.18766E+00  1.18999E+00  1.18114E+00  1.16045E+00  1.12625E+00  1.08823E+00  1.05681E+00  1.03114E+00
   1.01598E+00  1.02387E+00  1.04567E+00  1.05823E+00  1.05080E+00  1.02338E+00  9.79540E-01  9.29758E-01  8.86607E-01  8.57197E-01
   8.45208E-01  8.55945E-01  8.84247E-01  9.08412E-01  9.20571E-01  9.23998E-01  9.25990E-01  9.43579E-01  1.04725E+00  1.31979E+00
   1.68808E+00  2.05517E+00  2.35150E+00  2.50884E+00  2.46741E+00  2.23107E+00  1.85740E+00  1.43195E+00  1.07383E+00  9.02565E-01
   8.88597E-01  8.89051E-01  8.86763E-01  8.86870E-01  8.89855E-01  8.92331E-01  8.94625E-01  8.98865E-01  9.06518E-01  9.21683E-01
   9.57482E-01  1.07418E+00  1.47067E+00  2.15822E+00  2.93132E+00  3.62067E+00  4.09675E+00  4.22487E+00  3.94484E+00  3.33248E+00
   2.52836E+00  1.71719E+00  1.15301E+00  9.62926E-01  9.19215E-01  8.63908E-01  8.19516E-01  7.95202E-01  7.90725E-01  8.02893E-01
   8.20687E-01  8.31147E-01  8.28958E-01  8.12355E-01  7.85162E-01  7.54926E-01  7.25477E-01  6.97443E-01  6.71054E-01  6.44849E-01
   6.20456E-01  5.99785E-01  5.83611E-01  5.69898E-01  5.57313E-01  5.43583E-01  5.21256E-01  4.89578E-01  4.54620E-01  4.23409E-01
   4.05011E-01  4.00743E-01  4.07791E-01  4.21668E-01  4.35433E-01  4.40237E-01  4.28360E-01  4.00343E-01  3.67643E-01  3.39130E-01
   3.18214E-01  2.99056E-01  2.72572E-01  2.48289E-01  2.33333E-01  2.27302E-01  2.25246E-01  2.25703E-01  2.29161E-01  2.34314E-01
   2.38139E-01  2.34771E-01  2.19738E-01  2.06662E-01  2.11768E-01  2.32251E-01  2.62670E-01  2.99564E-01  3.42551E-01  3.83656E-01
   4.12079E-01  4.17347E-01  3.93031E-01  3.41942E-01  2.85009E-01  2.39963E-01  2.17162E-01  2.25998E-01  2.68397E-01  3.38601E-01
   4.25767E-01  5.14091E-01  5.80228E-01  6.02914E-01  5.66087E-01  4.63007E-01  3.16647E-01  1.73637E-01  6.10948E-02 -3.27673E-03
  -3.33881E-03  5.74343E-02  1.55369E-01  2.65015E-01  3.64874E-01  4.30754E-01  4.57537E-01  4.73983E-01  4.93545E-01  5.08755E-01
   5.25741E-01  5.46602E-01  5.66705E-01  5.82196E-01  5.90405E-01  5.89517E-01  5.77809E-01  5.57418E-01  5.37888E-01  5.29472E-01
   5.33343E-01  5.39545E-01  5.51433E-01  5.81245E-01  6.28691E-01  6.90530E-01  7.68609E-01  8.56164E-01  9.32082E-01  9.86917E-01
   1.01359E+00  1.00248E+00  9.60309E-01  9.21058E-01  9.04264E-01  9.12474E-01  9.54979E-01  1.03011E+00  1.11423E+00  1.18694E+00
   1.24811E+00  1.29361E+00  1.32070E+00  1.33778E+00  1.38238E+00  1.62582E+00  2.18106E+00  2.87646E+00  3.53037E+00  4.01219E+00
   4.18940E+00  3.96772E+00  3.38617E+00  2.57685E+00  1.71114E+00  1.02864E+00  7.25669E-01  6.61615E-01  5.98427E-01  5.34800E-01
   4.78731E-01  4.30279E-01  3.88465E-01  3.51381E-01  3.16467E-01  2.81153E-01  2.44080E-01  2.05447E-01  1.65612E-01  1.25456E-01
   8.64954E-02  5.06074E-02  1.93663E-02 -7.38840E-03 -3.06937E-02 -5.09948E-02 -6.90437E-02 -8.60835E-02 -1.02721E-01 -1.19428E-01
  -1.36284E-01 -1.52657E-01 -1.68162E-01 -1.82950E-01 -1.96934E-01 -2.09817E-01 -2.21633E-01 -2.32635E-01 -2.42898E-01 -2.52549E-01
  -2.61864E-01 -2.70853E-01 -2.79528E-01 -2.87919E-01 -2.96043E-01 -3.03911E-01 -3.11545E-01 -3.18976E-01 -3.26235E-01 -3.33347E-01
  -3.40324E-01 -3.47166E-01 -3.53868E-01 -3.60447E-01 -3.66913E-01 -3.73264E-01 -3.79499E-01 -3.85619E-01 -3.91631E-01 -3.97544E-01
  -4.03363E-01 -4.09082E-01 -4.14695E-01 -4.20196E-01 -4.25585E-01 -4.30863E-01 -4.36026E-01 -4.41065E-01 -4.45970E-01 -4.50734E-01
  -4.55350E-01 -4.59807E-01 -4.64090E-01 -4.68181E-01 -4.72063E-01 -4.75716E-01 -4.79124E-01 -4.82264E-01 -4.85108E-01 -4.87623E-01
  -4.89780E-01 -4.91554E-01 -4.92917E-01 -4.93843E-01 -4.94300E-01 -4.94263E-01 -4.93714E-01 -4.92644E-01 -4.91053E-01 -4.88946E-01
  -4.86340E-01 -4.83268E-01 -4.79782E-01 -4.75948E-01 -4.71845E-01 -4.67558E-01 -4.63189E-01 -4.58847E-01 -4.54650E-01 -4.50713E-01
  -4.47145E-01 -4.44036E-01 -4.41464E-01 -4.39483E-01 -4.38122E-01 -4.37369E-01 -4.37175E-01 -4.37445E-01 -4.38042E-01 -4.38788E-01
  -4.39454E-01 -4.39764E-01 -4.39391E-01 -4.37960E-01 -4.35057E-01 -4.30222E-01 -4.22951E-01 -4.12699E-01 -3.98883E-01 -3.80899E-01
  -3.58129E-01 -3.29959E-01 -2.95795E-01 -2.55095E-01 -2.07403E-01 -1.52397E-01 -8.99287E-02 -2.00683E-02  5.68504E-02  1.40189E-01
   2.28974E-01  3.21876E-01  4.17220E-01  5.13009E-01  6.06981E-01  6.96676E-01  7.79532E-01  8.52998E-01  9.14659E-01  9.62365E-01
   9.94344E-01  1.00930E+00  1.00650E+00  9.85795E-01  9.47637E-01  8.93070E-01  8.23647E-01  7.41343E-01  6.48446E-01  5.47430E-01
   4.40841E-01  3.31170E-01  2.20751E-01  1.11675E-01  5.72932E-03 -9.56366E-02 -1.91320E-01 -2.80558E-01 -3.62905E-01 -4.38195E-01
  -5.06496E-01 -5.68057E-01 -6.23260E-01 -6.72578E-01 -7.16541E-01 -7.55698E-01 -7.90593E-01 -8.21746E-01 -8.49638E-01 -8.74705E-01
  -8.97342E-01 -9.17894E-01 -9.36662E-01 -9.53901E-01 -9.69828E-01 -9.84630E-01 -9.98465E-01 -1.01147E+00 -1.02375E+00 -1.03541E+00
  -1.04651E+00 -1.05714E+00 -1.06734E+00 -1.07717E+00 -1.08666E+00 -1.09586E+00 -1.10479E+00 -1.11348E+00 -1.12196E+00 -1.13025E+00
  -1.13836E+00 -1.14631E+00 -1.15411E+00 -1.16177E+00 -1.16932E+00 -1.17675E+00 -1.18408E+00 -1.19132E+00 -1.19846E+00 -1.20552E+00
  -1.21251E+00 -1.21943E+00 -1.22629E+00 -1.23308E+00 -1.23981E+00 -1.24649E+00 -1.25313E+00 -1.25971E+00 -1.26625E+00 -1.27275E+00
  -1.27922E+00 -1.28564E+00 -1.29204E+00 -1.29840E+00 -1.30473E+00 -1.31103E+00 -1.31731E+00 -1.32356E+00 -1.32978E+00 -1.33598E+00
  -1.34216E+00 -1.34832E+00 -1.35446E+00 -1.36059E+00 -1.36669E+00 -1.37277E+00 -1.37884E+00 -1.38489E+00 -1.39093E+00 -1.39696E+00
  -1.40297E+00 -1.40896E+00 -1.41494E+00 -1.42091E+00 -1.42687E+00 -1.43282E+00 -1.43875E+00 -1.44467E+00
 NY background values follow
     1.327E+00    1.321E+00    1.315E+00    1.310E+00    1.304E+00    1.298E+00    1.293E+00    1.287E+00    1.282E+00    1.276E+00
     1.270E+00    1.265E+00    1.259E+00    1.254E+00    1.248E+00    1.242E+00    1.237E+00    1.231E+00    1.226E+00    1.220E+00
     1.214E+00    1.209E+00    1.203E+00    1.197E+00    1.192E+00    1.186E+00    1.181E+00    1.175E+00    1.169E+00    1.164E+00
     1.158E+00    1.153E+00    1.147E+00    1.141E+00    1.136E+00    1.130E+00    1.124E+00    1.119E+00    1.113E+00    1.108E+00
     1.102E+00    1.096E+00    1.091E+00    1.085E+00    1.080E+00    1.074E+00    1.068E+00    1.063E+00    1.057E+00    1.051E+00
     1.046E+00    1.040E+00    1.035E+00    1.029E+00    1.023E+00    1.018E+00    1.012E+00    1.007E+00    1.001E+00    9.954E-01
     9.898E-01    9.841E-01    9.785E-01    9.729E-01    9.673E-01    9.617E-01    9.561E-01    9.505E-01    9.448E-01    9.392E-01
     9.336E-01    9.280E-01    9.224E-01    9.168E-01    9.112E-01    9.056E-01    8.999E-01    8.943E-01    8.887E-01    8.831E-01
     8.775E-01    8.719E-01    8.663E-01    8.606E-01    8.550E-01    8.494E-01    8.438E-01    8.382E-01    8.326E-01    8.270E-01
     8.214E-01    8.157E-01    8.101E-01    8.045E-01    7.989E-01    7.933E-01    7.877E-01    7.821E-01    7.764E-01    7.708E-01
     7.652E-01    7.596E-01    7.540E-01    7.484E-01    7.428E-01    7.371E-01    7.315E-01    7.259E-01    7.203E-01    7.147E-01
     7.091E-01    7.035E-01    6.979E-01    6.922E-01    6.866E-01    6.810E-01    6.754E-01    6.698E-01    6.642E-01    6.586E-01
     6.529E-01    6.473E-01    6.417E-01    6.361E-01    6.305E-01    6.249E-01    6.193E-01    6.137E-01    6.080E-01    6.024E-01
     5.968E-01    5.912E-01    5.856E-01    5.800E-01    5.744E-01    5.687E-01    5.631E-01    5.575E-01    5.519E-01    5.463E-01
     5.407E-01    5.351E-01    5.295E-01    5.238E-01    5.182E-01    5.126E-01    5.070E-01    5.014E-01    4.958E-01    4.902E-01
     4.845E-01    4.789E-01    4.733E-01    4.677E-01    4.621E-01    4.565E-01    4.509E-01    4.452E-01    4.396E-01    4.340E-01
     4.284E-01    4.228E-01    4.172E-01    4.116E-01    4.060E-01    4.003E-01    3.947E-01    3.891E-01    3.835E-01    3.779E-01
     3.723E-01    3.667E-01    3.610E-01    3.554E-01    3.498E-01    3.442E-01    3.386E-01    3.330E-01    3.274E-01    3.218E-01
     3.161E-01    3.105E-01    3.049E-01    2.993E-01    2.937E-01    2.881E-01    2.825E-01    2.768E-01    2.712E-01    2.656E-01
     2.600E-01    2.544E-01    2.488E-01    2.432E-01    2.375E-01    2.319E-01    2.263E-01    2.207E-01    2.151E-01    2.095E-01
     2.039E-01    1.983E-01    1.926E-01    1.870E-01    1.814E-01    1.758E-01    1.702E-01    1.646E-01    1.590E-01    1.533E-01
     1.477E-01    1.421E-01    1.365E-01    1.309E-01    1.253E-01    1.197E-01    1.140E-01    1.084E-01    1.028E-01    9.721E-02
     9.159E-02    8.598E-02    8.036E-02    7.475E-02    6.914E-02    6.352E-02    5.791E-02    5.230E-02    4.668E-02    4.107E-02
     3.546E-02    2.984E-02    2.423E-02    1.861E-02    1.300E-02    7.387E-03    1.773E-03   -3.840E-03   -9.454E-03   -1.507E-02
    -2.068E-02   -2.629E-02   -3.191E-02   -3.752E-02   -4.314E-02   -4.875E-02   -5.436E-02   -5.998E-02   -6.559E-02   -7.120E-02
    -7.682E-02   -8.243E-02   -8.805E-02   -9.366E-02   -9.927E-02   -1.049E-01   -1.105E-01   -1.161E-01   -1.217E-01   -1.273E-01
    -1.330E-01   -1.386E-01   -1.442E-01   -1.498E-01   -1.554E-01   -1.610E-01   -1.666E-01   -1.723E-01   -1.779E-01   -1.835E-01
    -1.891E-01   -1.947E-01   -2.003E-01   -2.059E-01   -2.115E-01   -2.172E-01   -2.228E-01   -2.284E-01   -2.340E-01   -2.396E-01
    -2.452E-01   -2.508E-01   -2.565E-01   -2.621E-01   -2.677E-01   -2.733E-01   -2.789E-01   -2.845E-01   -2.901E-01   -2.958E-01
    -3.014E-01   -3.070E-01   -3.126E-01   -3.182E-01   -3.238E-01   -3.294E-01   -3.350E-01   -3.407E-01   -3.463E-01   -3.519E-01
    -3.575E-01   -3.631E-01   -3.687E-01   -3.743E-01   -3.800E-01   -3.856E-01   -3.912E-01   -3.968E-01   -4.024E-01   -4.080E-01
    -4.136E-01   -4.193E-01   -4.249E-01   -4.305E-01   -4.361E-01   -4.417E-01   -4.473E-01   -4.529E-01   -4.585E-01   -4.642E-01
    -4.698E-01   -4.754E-01   -4.810E-01   -4.866E-01   -4.922E-01   -4.978E-01   -5.035E-01   -5.091E-01   -5.147E-01   -5.203E-01
    -5.259E-01   -5.315E-01   -5.371E-01   -5.427E-01   -5.484E-01   -5.540E-01   -5.596E-01   -5.652E-01   -5.708E-01   -5.764E-01
    -5.820E-01   -5.877E-01   -5.933E-01   -5.989E-01   -6.045E-01   -6.101E-01   -6.157E-01   -6.213E-01   -6.270E-01   -6.326E-01
    -6.382E-01   -6.438E-01   -6.494E-01   -6.550E-01   -6.606E-01   -6.662E-01   -6.719E-01   -6.775E-01   -6.831E-01   -6.887E-01
    -6.943E-01   -6.999E-01   -7.055E-01   -7.112E-01   -7.168E-01   -7.224E-01   -7.280E-01   -7.336E-01   -7.392E-01   -7.448E-01
    -7.504E-01   -7.561E-01   -7.617E-01   -7.673E-01   -7.729E-01   -7.785E-01   -7.841E-01   -7.897E-01   -7.954E-01   -8.010E-01
    -8.066E-01   -8.122E-01   -8.178E-01   -8.234E-01   -8.290E-01   -8.346E-01   -8.403E-01   -8.459E-01   -8.515E-01   -8.571E-01
    -8.627E-01   -8.683E-01   -8.739E-01   -8.796E-01   -8.852E-01   -8.908E-01   -8.964E-01   -9.020E-01   -9.076E-01   -9.132E-01
    -9.188E-01   -9.245E-01   -9.301E-01   -9.357E-01   -9.413E-01   -9.469E-01   -9.525E-01   -9.581E-01   -9.638E-01   -9.694E-01
    -9.750E-01   -9.806E-01   -9.862E-01   -9.918E-01   -9.974E-01   -1.003E+00   -1.009E+00   -1.014E+00   -1.020E+00   -1.026E+00
    -1.031E+00   -1.037E+00   -1.042E+00   -1.048E+00   -1.054E+00   -1.059E+00   -1.065E+00   -1.070E+00   -1.076E+00   -1.082E+00
    -1.087E+00   -1.093E+00   -1.098E+00   -1.104E+00   -1.110E+00   -1.115E+00   -1.121E+00   -1.127E+00   -1.132E+00   -1.138E+00
    -1.143E+00   -1.149E+00   -1.155E+00   -1.160E+00   -1.166E+00   -1.171E+00   -1.177E+00   -1.183E+00   -1.188E+00   -1.194E+00
    -1.200E+00   -1.205E+00   -1.211E+00   -1.216E+00   -1.222E+00   -1.228E+00   -1.233E+00   -1.239E+00   -1.244E+00   -1.250E+00
    -1.256E+00   -1.261E+00   -1.267E+00   -1.272E+00   -1.278E+00   -1.284E+00   -1.289E+00   -1.295E+00   -1.301E+00   -1.306E+00
    -1.312E+00   -1.317E+00   -1.323E+00   -1.329E+00   -1.334E+00   -1.340E+00   -1.345E+00   -1.351E+00   -1.357E+00   -1.362E+00
    -1.368E+00   -1.374E+00   -1.379E+00   -1.385E+00   -1.390E+00   -1.396E+00   -1.402E+00   -1.407E+00   -1.413E+00   -1.418E+00
    -1.424E+00   -1.430E+00   -1.435E+00   -1.441E+00   -1.446E+00   -1.452E+00   -1.458E+00   -1.463E+00
 Asp      Conc. = 1.04E+01
