 LCModel (Version 6.3-1L) Copyright: S.W. Provencher.          Ref.: Magn. Reson. Med. 30:672-679 (1993).                
 Slice#3 Row#10 Col#11  PD_05_press_1_raw_act
 36 lines in following concentration table = NCONC+1
    Conc.  %SD /Cr+PCr  Metabolite                                         
  118.572  56%   0.204 Ala                                                 
    0.000 999%   0.000 Asp                                                 
  295.034  44%   0.507 Cr                                                  
  286.903  46%   0.493 PCr                                                 
    0.000 999%   0.000 GABA                                                
    0.000 999%   0.000 Glc                                                 
  591.776  26%   1.017 Gln                                                 
  587.664  28%   1.010 Glu                                                 
  135.525   8%   0.233 GPC                                                 
    0.000 999%   0.000 PCh                                                 
  187.535  22%   0.322 GSH                                                 
  221.567  61%   0.381 Ins                                                 
    0.000 999%   0.000 Lac                                                 
 1.18E+03   7%   2.032 NAA                                                 
   47.432 199% 8.2E-02 NAAG                                                
   20.984  62% 3.6E-02 Scyllo                                              
    0.000 999%   0.000 Tau                                                 
  240.068  23%   0.413 -CrCH2                                              
  135.525   8%   0.233 GPC+PCh                                             
 1.23E+03   3%   2.113 NAA+NAAG                                            
  581.937   5%   1.000 Cr+PCr                                              
 1.18E+03  22%   2.027 Glu+Gln                                             
    0.000 999%   0.000 Lip13a                                              
    0.169 999% 2.9E-04 Lip13b                                              
    0.000 999%   0.000 Lip09                                               
  347.887  18%   0.598 MM09                                                
    0.572 980% 9.8E-04 Lip20                                               
 1.27E+03  12%   2.174 MM20                                                
    0.000 999%   0.000 MM12                                                
  140.323  68%   0.241 MM14                                                
  235.321  38%   0.404 MM17                                                
    0.169 999% 2.9E-04 Lip13a+Lip13b                                       
  140.492  69%   0.241 MM14+Lip13a+Lip13b+MM12                             
  347.887  18%   0.598 MM09+Lip09                                          
 1.27E+03  12%   2.175 MM20+Lip20                                          
   6 lines in following misc. output table
  FWHM = 0.069 ppm    S/N =  11                                            
  Data shift = 0.023 ppm                                                   
  Ph:  -9 deg     -17.4 deg/ppm                                            
  alphaB,S = 1.1E+00,   2.1E+02                                            
   14 spline knots.   Ns = 9(1)                                            
  (13) 2 infls.   ( 5) 1 extrs.                                            
  498 points on ppm-axis = NY
      4.000000     3.992357     3.984714     3.977070     3.969427     3.961784     3.954141     3.946497     3.938854     3.931211
      3.923568     3.915925     3.908281     3.900638     3.892995     3.885352     3.877708     3.870065     3.862422     3.854779
      3.847136     3.839492     3.831849     3.824206     3.816563     3.808919     3.801276     3.793633     3.785990     3.778347
      3.770703     3.763060     3.755417     3.747774     3.740130     3.732487     3.724844     3.717201     3.709558     3.701914
      3.694271     3.686628     3.678985     3.671341     3.663698     3.656055     3.648412     3.640769     3.633125     3.625482
      3.617839     3.610196     3.602552     3.594909     3.587266     3.579623     3.571980     3.564336     3.556693     3.549050
      3.541407     3.533763     3.526120     3.518477     3.510834     3.503191     3.495547     3.487904     3.480261     3.472618
      3.464974     3.457331     3.449688     3.442045     3.434402     3.426758     3.419115     3.411472     3.403829     3.396185
      3.388542     3.380899     3.373256     3.365613     3.357969     3.350326     3.342683     3.335040     3.327396     3.319753
      3.312110     3.304467     3.296824     3.289180     3.281537     3.273894     3.266251     3.258607     3.250964     3.243321
      3.235678     3.228034     3.220391     3.212748     3.205105     3.197462     3.189818     3.182175     3.174532     3.166889
      3.159245     3.151602     3.143959     3.136316     3.128673     3.121029     3.113386     3.105743     3.098100     3.090456
      3.082813     3.075170     3.067527     3.059884     3.052240     3.044597     3.036954     3.029311     3.021667     3.014024
      3.006381     2.998738     2.991095     2.983451     2.975808     2.968165     2.960522     2.952878     2.945235     2.937592
      2.929949     2.922306     2.914662     2.907019     2.899376     2.891733     2.884089     2.876446     2.868803     2.861160
      2.853517     2.845873     2.838230     2.830587     2.822944     2.815300     2.807657     2.800014     2.792371     2.784728
      2.777084     2.769441     2.761798     2.754155     2.746511     2.738868     2.731225     2.723582     2.715939     2.708295
      2.700652     2.693009     2.685366     2.677722     2.670079     2.662436     2.654793     2.647150     2.639506     2.631863
      2.624220     2.616577     2.608933     2.601290     2.593647     2.586004     2.578361     2.570717     2.563074     2.555431
      2.547788     2.540144     2.532501     2.524858     2.517215     2.509572     2.501928     2.494285     2.486642     2.478999
      2.471355     2.463712     2.456069     2.448426     2.440783     2.433139     2.425496     2.417853     2.410210     2.402566
      2.394923     2.387280     2.379637     2.371994     2.364350     2.356707     2.349064     2.341421     2.333777     2.326134
      2.318491     2.310848     2.303205     2.295561     2.287918     2.280275     2.272632     2.264988     2.257345     2.249702
      2.242059     2.234416     2.226772     2.219129     2.211486     2.203843     2.196199     2.188556     2.180913     2.173270
      2.165627     2.157983     2.150340     2.142697     2.135054     2.127410     2.119767     2.112124     2.104481     2.096838
      2.089194     2.081551     2.073908     2.066265     2.058621     2.050978     2.043335     2.035692     2.028049     2.020405
      2.012762     2.005119     1.997476     1.989833     1.982190     1.974546     1.966903     1.959260     1.951617     1.943974
      1.936331     1.928688     1.921045     1.913402     1.905759     1.898115     1.890472     1.882829     1.875186     1.867543
      1.859900     1.852257     1.844614     1.836971     1.829327     1.821684     1.814041     1.806398     1.798755     1.791112
      1.783469     1.775826     1.768183     1.760540     1.752896     1.745253     1.737610     1.729967     1.722324     1.714681
      1.707038     1.699395     1.691752     1.684108     1.676465     1.668822     1.661179     1.653536     1.645893     1.638250
      1.630607     1.622964     1.615321     1.607677     1.600034     1.592391     1.584748     1.577105     1.569462     1.561819
      1.554176     1.546533     1.538890     1.531246     1.523603     1.515960     1.508317     1.500674     1.493031     1.485388
      1.477745     1.470102     1.462458     1.454815     1.447172     1.439529     1.431886     1.424243     1.416600     1.408957
      1.401314     1.393671     1.386027     1.378384     1.370741     1.363098     1.355455     1.347812     1.340169     1.332526
      1.324883     1.317240     1.309596     1.301953     1.294310     1.286667     1.279024     1.271381     1.263738     1.256095
      1.248452     1.240808     1.233165     1.225522     1.217879     1.210236     1.202593     1.194950     1.187307     1.179664
      1.172021     1.164377     1.156734     1.149091     1.141448     1.133805     1.126162     1.118519     1.110876     1.103233
      1.095590     1.087946     1.080303     1.072660     1.065017     1.057374     1.049731     1.042088     1.034445     1.026802
      1.019158     1.011515     1.003872     0.996229     0.988586     0.980943     0.973300     0.965657     0.958014     0.950371
      0.942727     0.935084     0.927441     0.919798     0.912155     0.904512     0.896869     0.889226     0.881583     0.873940
      0.866296     0.858653     0.851010     0.843367     0.835724     0.828081     0.820438     0.812795     0.805152     0.797508
      0.789865     0.782222     0.774579     0.766936     0.759293     0.751650     0.744007     0.736364     0.728721     0.721077
      0.713434     0.705791     0.698148     0.690505     0.682862     0.675219     0.667576     0.659933     0.652290     0.644646
      0.637003     0.629360     0.621717     0.614074     0.606431     0.598788     0.591145     0.583502     0.575858     0.568215
      0.560572     0.552929     0.545286     0.537643     0.530000     0.522357     0.514714     0.507071     0.499427     0.491784
      0.484141     0.476498     0.468855     0.461212     0.453569     0.445925     0.438282     0.430639     0.422996     0.415353
      0.407710     0.400067     0.392424     0.384780     0.377137     0.369494     0.361851     0.354208     0.346565     0.338922
      0.331278     0.323635     0.315992     0.308349     0.300706     0.293063     0.285420     0.277777     0.270133     0.262490
      0.254847     0.247204     0.239561     0.231918     0.224275     0.216631     0.208988     0.201345
 NY phased data points follow
   4.07101E+00  5.19680E+00  5.07420E+00  6.34495E+00  4.22476E+00  4.45277E+00  6.71207E+00  5.96229E+00  8.10177E+00  6.76745E+00
   8.53922E+00  9.36017E+00  9.45871E+00  9.70444E+00  9.73709E+00  9.76145E+00  8.35105E+00  6.92683E+00  5.43611E+00  7.20671E+00
   5.14502E+00  3.98958E+00  3.25639E+00  5.97222E+00  5.30590E+00  7.70969E+00  7.43686E+00  6.81732E+00  4.77080E+00  9.20168E+00
   5.02152E+00  7.94472E+00  5.95222E+00  5.40902E+00  6.08442E+00  5.52672E+00  4.46652E+00  3.85000E+00  5.53413E+00  6.27450E+00
   4.50134E+00  5.71163E+00  4.51566E+00  5.43046E+00  5.42517E+00  6.17483E+00  5.55856E+00  7.86462E+00  9.01475E+00  5.61728E+00
   6.38222E+00  5.45153E+00  5.77739E+00  7.19942E+00  6.85075E+00  5.39629E+00  5.86140E+00  5.20668E+00  2.69650E+00  4.49527E+00
   4.90286E+00  4.91563E+00  2.62081E+00  3.44579E+00  1.63545E+00  1.59050E+00  1.25242E+00  1.49738E+00  3.05417E+00  1.68706E+00
   2.43869E+00  2.10870E+00  3.50806E+00  2.70900E+00  4.83886E+00  3.48341E+00  4.32282E+00  5.50725E+00  3.18774E+00  3.21788E+00
   3.23301E+00  2.49336E+00  3.21310E+00  4.85972E+00  4.98256E+00  4.16446E+00  4.51906E+00  3.73895E+00  4.89789E+00  5.56728E+00
   5.41119E+00  3.15952E+00  4.24983E+00  3.84756E+00  5.59725E+00  5.82478E+00  7.17814E+00  5.01417E+00  8.01054E+00  8.66966E+00
   1.26735E+01  1.23869E+01  1.42612E+01  1.38521E+01  1.45176E+01  1.29248E+01  1.17862E+01  1.05155E+01  1.08895E+01  6.78710E+00
   6.85270E+00  6.61712E+00  5.45306E+00  4.12932E+00  3.52559E+00  4.63986E+00  4.77098E+00  2.43991E+00  4.57734E+00  7.25206E+00
   8.53359E+00  7.43459E+00  8.52531E+00  1.10856E+01  1.42937E+01  1.72029E+01  2.01922E+01  2.15042E+01  2.26702E+01  2.07295E+01
   1.77867E+01  1.65943E+01  1.33651E+01  1.19747E+01  9.69488E+00  8.04941E+00  5.90231E+00  6.76951E+00  4.63049E+00  4.11125E+00
   4.33987E+00  7.76770E+00  5.98326E+00  7.37661E+00  6.03354E+00  5.25530E+00  4.76247E+00  5.45049E+00  6.57087E+00  5.45776E+00
   5.30720E+00  6.07179E+00  6.46176E+00  4.87810E+00  4.79262E+00  5.55095E+00  7.93648E+00  5.06200E+00  4.92214E+00  5.28386E+00
   5.88308E+00  3.01443E+00  5.13909E+00  5.31210E+00  4.23881E+00  4.75724E+00  4.23246E+00  4.15386E+00  3.42463E+00  1.57533E+00
   2.32513E+00  3.31632E+00  1.32208E+00  9.72854E-01  1.20990E+00 -1.66451E-01  1.37474E+00  1.31284E-01  2.61079E+00  2.77430E+00
   2.24590E+00  1.96426E+00  3.30758E+00  2.45943E+00  3.52130E+00  2.26463E+00  2.46999E+00  1.87771E+00  1.31143E+00  2.15470E+00
   6.36545E+00  6.11196E+00  5.86115E+00  5.06936E+00  5.38069E+00  2.33538E+00  5.30408E+00  3.41368E+00  5.88550E+00  5.99890E+00
   5.15938E+00  5.51803E+00  6.51634E+00  6.27338E+00  7.69412E+00  5.45534E+00  6.75092E+00  6.69771E+00  7.90465E+00  6.51207E+00
   6.79019E+00  6.78566E+00  8.46729E+00  1.02732E+01  9.48381E+00  1.12741E+01  1.33519E+01  1.03943E+01  1.10258E+01  8.08391E+00
   8.84650E+00  8.54669E+00  7.43346E+00  7.12684E+00  8.51676E+00  7.84163E+00  7.29233E+00  6.13911E+00  1.07551E+01  7.21882E+00
   9.42148E+00  1.11264E+01  9.24486E+00  9.45361E+00  8.18526E+00  6.95945E+00  6.90751E+00  8.10639E+00  8.42161E+00  7.71618E+00
   7.26398E+00  5.67558E+00  7.31457E+00  6.90488E+00  6.91351E+00  8.84625E+00  7.53481E+00  1.05509E+01  9.91968E+00  1.05331E+01
   1.21056E+01  1.26175E+01  1.45745E+01  1.61977E+01  2.05649E+01  2.21898E+01  2.53016E+01  2.90955E+01  3.52548E+01  3.80727E+01
   4.08745E+01  4.03678E+01  3.67006E+01  3.38504E+01  2.94002E+01  2.46259E+01  2.17167E+01  1.76383E+01  1.23716E+01  9.67922E+00
   9.53799E+00  6.88524E+00  1.03415E+01  8.18040E+00  8.42155E+00  8.13159E+00  7.10154E+00  6.78927E+00  7.80848E+00  7.60588E+00
   7.49594E+00  8.00357E+00  3.55833E+00  8.32953E+00  7.02285E+00  5.08072E+00  5.30386E+00  3.54560E+00  6.47496E+00  5.63655E+00
   4.88422E+00  6.54594E+00  6.01267E+00  6.41714E+00  7.54178E+00  5.45025E+00  6.07777E+00  5.21506E+00  5.27671E+00  6.91518E+00
   5.23223E+00  5.97971E+00  6.27759E+00  5.42566E+00  4.66907E+00  3.97907E+00  2.50439E+00  6.06815E+00  4.95420E+00  4.37628E+00
   6.69218E+00  5.28518E+00  6.70354E+00  5.99521E+00  5.44839E+00  5.67613E+00  4.97146E+00  7.03873E+00  3.81727E+00  6.41030E+00
   5.71265E+00  2.88513E+00  3.56891E+00  3.59666E+00  3.77455E+00  1.81994E+00  4.59076E+00  2.43720E+00  1.93919E+00  4.97806E+00
   3.37703E+00  3.89645E+00  2.73165E+00  3.31267E+00  5.05847E+00  4.23465E+00  5.54503E+00  5.34336E+00  4.51442E+00  7.02483E+00
   5.66077E+00  5.98352E+00  5.76565E+00  3.77363E+00  5.09986E+00  3.63007E+00  3.40700E+00  5.53114E+00  3.75733E+00  4.58597E+00
   3.76043E+00  3.17847E+00  1.95571E+00  4.52508E+00  4.86890E+00  4.87841E+00  4.48094E+00  4.47141E+00  3.64875E+00  2.77526E+00
   2.83029E+00  1.72498E+00  1.28739E+00 -2.29854E-02  1.85847E+00  1.83088E+00 -1.08963E+00  2.76792E+00 -1.84998E+00  1.12405E+00
   2.18688E+00  1.08520E+00  3.16642E+00  1.43572E+00  2.72635E+00  1.20397E+00  2.65551E+00  3.89784E+00  1.80106E+00  4.45407E+00
   2.53496E+00  2.24110E+00  1.80954E+00  1.82077E+00  3.30684E+00  2.40751E+00  3.89697E+00  3.26686E+00  7.17460E-01  4.43657E+00
   4.51184E+00  4.20322E+00  3.38921E+00  1.78966E+00  4.87529E+00  3.31807E+00  2.91063E+00  4.54789E+00  3.50842E+00  4.41569E+00
   4.49227E+00  4.16998E+00  4.23418E+00  4.63120E+00  5.14617E+00  7.39243E+00  3.20781E+00  3.71640E+00  4.40598E+00  4.46685E+00
   4.76724E+00  6.36933E+00  4.40954E+00  4.27239E+00  4.44819E+00  4.82400E+00  3.01107E+00  4.29597E+00  3.95244E+00  3.44649E+00
   2.14224E+00  4.28967E+00  3.28007E+00  2.18966E+00  2.29624E+00  3.10333E+00  3.97355E+00  4.89213E+00  3.63707E+00  3.51589E+00
   3.32554E+00  3.35256E+00  2.31178E+00  3.71491E-01  2.13249E+00  2.03238E+00  2.42772E+00  4.66245E+00  1.01028E+00  2.48149E+00
   2.14108E+00  1.23149E+00  5.07148E+00  1.81347E+00  2.39184E+00  8.05066E-01  1.03419E+00  2.61223E+00 -7.93993E-01  4.33376E-01
   1.70082E+00  2.53391E-01  2.18965E+00  1.36580E+00  1.25376E+00  1.77302E+00  1.11260E+00  1.63184E+00  1.25720E+00  2.67464E+00
   1.89440E+00  2.13477E+00  1.04562E+00  5.27779E-01  8.17056E-01  1.25426E+00  2.34428E+00 -2.49737E-01  2.97599E-01  1.03253E+00
   6.88437E-01  2.42691E+00  1.91628E+00  1.72610E+00  1.70330E+00  1.42905E+00  2.07889E+00  1.11229E+00  8.27012E-01  2.48982E+00
  -8.05677E-02  2.12515E+00  2.31431E+00  8.05564E-01  2.43894E+00  3.19018E+00  1.50334E+00  2.77381E+00  1.23230E-01 -3.76291E-01
  -2.99070E-01  2.90330E+00  1.81388E+00  1.46236E+00  7.80314E-01  2.53067E+00  2.41522E+00  1.77877E+00
 NY points of the fit to the data follow
   3.41857E+00  3.43684E+00  3.57525E+00  3.92235E+00  4.41591E+00  4.98829E+00  5.65183E+00  6.45233E+00  7.38596E+00  8.35151E+00
   9.18958E+00  9.74576E+00  9.92633E+00  9.73536E+00  9.26277E+00  8.63045E+00  7.92407E+00  7.19328E+00  6.48961E+00  5.85289E+00
   5.36560E+00  5.10230E+00  5.02355E+00  5.05197E+00  5.13818E+00  5.33756E+00  5.71507E+00  6.24972E+00  6.86361E+00  7.45133E+00
   7.88256E+00  8.05879E+00  7.95331E+00  7.60817E+00  7.10526E+00  6.51714E+00  5.90992E+00  5.36742E+00  4.96978E+00  4.74992E+00
   4.70347E+00  4.79408E+00  4.96413E+00  5.17735E+00  5.40857E+00  5.62646E+00  5.79083E+00  5.86121E+00  5.82118E+00  5.67735E+00
   5.45786E+00  5.20819E+00  4.96301E+00  4.74202E+00  4.55381E+00  4.40319E+00  4.29985E+00  4.24972E+00  4.24492E+00  4.26286E+00
   4.27416E+00  4.25802E+00  4.20898E+00  4.14160E+00  4.07343E+00  4.01659E+00  3.97857E+00  3.96237E+00  3.96857E+00  3.99327E+00
   4.03058E+00  4.07105E+00  4.10343E+00  4.12007E+00  4.11863E+00  4.10311E+00  4.08413E+00  4.08525E+00  4.11282E+00  4.14677E+00
   4.18101E+00  4.22863E+00  4.30333E+00  4.40131E+00  4.49728E+00  4.55972E+00  4.56600E+00  4.51296E+00  4.41945E+00  4.31166E+00
   4.21385E+00  4.14144E+00  4.11120E+00  4.21776E+00  4.66810E+00  5.36362E+00  6.14709E+00  7.03411E+00  8.15119E+00  9.57299E+00
   1.11989E+01  1.27530E+01  1.39036E+01  1.43948E+01  1.41569E+01  1.33257E+01  1.21364E+01  1.07978E+01  9.43590E+00  8.12179E+00
   6.93416E+00  5.96823E+00  5.29109E+00  4.91507E+00  4.79827E+00  4.79971E+00  4.85298E+00  5.00951E+00  5.53336E+00  6.51374E+00
   7.70109E+00  9.00456E+00  1.05593E+01  1.25401E+01  1.49264E+01  1.73958E+01  1.94526E+01  2.06553E+01  2.07841E+01  1.99190E+01
   1.83591E+01  1.64193E+01  1.43231E+01  1.21931E+01  1.01470E+01  8.35948E+00  7.00192E+00  6.15380E+00  5.79228E+00  5.73684E+00
   5.77356E+00  5.82160E+00  5.85249E+00  5.85631E+00  5.83071E+00  5.76952E+00  5.67220E+00  5.55144E+00  5.42112E+00  5.29464E+00
   5.18550E+00  5.09445E+00  5.00573E+00  4.91354E+00  4.83111E+00  4.76674E+00  4.71977E+00  4.66044E+00  4.56221E+00  4.43942E+00
   4.33007E+00  4.26541E+00  4.24993E+00  4.25719E+00  4.24661E+00  4.18554E+00  4.06412E+00  3.89100E+00  3.69068E+00  3.50408E+00
   3.33600E+00  3.16308E+00  2.95970E+00  2.74724E+00  2.58486E+00  2.50629E+00  2.50435E+00  2.54198E+00  2.57434E+00  2.59778E+00
   2.64680E+00  2.74250E+00  2.88693E+00  3.06759E+00  3.26894E+00  3.50570E+00  3.79699E+00  4.15021E+00  4.54468E+00  4.91776E+00
   5.20056E+00  5.36872E+00  5.43855E+00  5.44663E+00  5.44544E+00  5.51448E+00  5.68802E+00  5.96324E+00  6.31348E+00  6.68446E+00
   6.99956E+00  7.22159E+00  7.32392E+00  7.22707E+00  6.84392E+00  6.19271E+00  5.40848E+00  4.69836E+00  4.22083E+00  4.02674E+00
   4.13387E+00  4.53023E+00  5.16192E+00  5.91575E+00  6.64906E+00  7.25115E+00  7.62305E+00  7.67594E+00  7.39859E+00  6.88108E+00
   6.28173E+00  5.77424E+00  5.46943E+00  5.41772E+00  5.62416E+00  6.02005E+00  6.48006E+00  6.93452E+00  7.35102E+00  7.68683E+00
   7.92204E+00  8.07590E+00  8.17266E+00  8.24427E+00  8.34207E+00  8.50780E+00  8.73174E+00  8.93425E+00  9.01611E+00  8.92960E+00
   8.71048E+00  8.44708E+00  8.22447E+00  8.10874E+00  8.14238E+00  8.32863E+00  8.64717E+00  9.09595E+00  9.64409E+00  1.02441E+01
   1.09628E+01  1.22520E+01  1.44223E+01  1.69637E+01  1.95861E+01  2.24817E+01  2.60017E+01  3.01672E+01  3.44685E+01  3.80340E+01
   4.00005E+01  3.98601E+01  3.76962E+01  3.40924E+01  2.97663E+01  2.52560E+01  2.08541E+01  1.67565E+01  1.31977E+01  1.04159E+01
   8.52991E+00  7.51131E+00  7.09763E+00  6.88725E+00  6.74182E+00  6.62393E+00  6.51527E+00  6.40690E+00  6.30042E+00  6.19732E+00
   6.09917E+00  6.00829E+00  5.92756E+00  5.85914E+00  5.80465E+00  5.76411E+00  5.73583E+00  5.71763E+00  5.70810E+00  5.70606E+00
   5.71013E+00  5.71878E+00  5.73051E+00  5.74402E+00  5.75776E+00  5.76985E+00  5.77862E+00  5.78263E+00  5.78077E+00  5.77210E+00
   5.75609E+00  5.73235E+00  5.70078E+00  5.66139E+00  5.61443E+00  5.56042E+00  5.50032E+00  5.43532E+00  5.36697E+00  5.29685E+00
   5.22678E+00  5.15866E+00  5.09457E+00  5.03662E+00  4.98726E+00  4.94949E+00  4.92821E+00  4.93371E+00  4.97564E+00  5.02173E+00
   5.04974E+00  5.06772E+00  5.08488E+00  5.08787E+00  5.03828E+00  4.89693E+00  4.67710E+00  4.40827E+00  4.11286E+00  3.83050E+00
   3.61431E+00  3.51189E+00  3.54620E+00  3.70802E+00  3.96245E+00  4.25669E+00  4.53251E+00  4.74644E+00  4.87955E+00  4.92603E+00
   4.89945E+00  4.81640E+00  4.69017E+00  4.53809E+00  4.38062E+00  4.23550E+00  4.11760E+00  4.02375E+00  3.94280E+00  3.86974E+00
   3.80250E+00  3.73994E+00  3.68152E+00  3.62685E+00  3.57572E+00  3.52788E+00  3.48323E+00  3.44160E+00  3.40290E+00  3.36698E+00
   3.33373E+00  3.30296E+00  3.27460E+00  3.24849E+00  3.22455E+00  3.20262E+00  3.18262E+00  3.16441E+00  3.14797E+00  3.13321E+00
   3.12015E+00  3.10874E+00  3.09903E+00  3.09104E+00  3.08490E+00  3.08069E+00  3.07863E+00  3.07884E+00  3.08160E+00  3.08717E+00
   3.09593E+00  3.10824E+00  3.12457E+00  3.14537E+00  3.17123E+00  3.20268E+00  3.24039E+00  3.28492E+00  3.33688E+00  3.39676E+00
   3.46500E+00  3.54184E+00  3.62737E+00  3.72135E+00  3.82325E+00  3.93213E+00  4.04674E+00  4.16532E+00  4.28576E+00  4.40547E+00
   4.52164E+00  4.63112E+00  4.73075E+00  4.81729E+00  4.88771E+00  4.93925E+00  4.96966E+00  4.97724E+00  4.96104E+00  4.92078E+00
   4.85702E+00  4.77100E+00  4.66471E+00  4.54065E+00  4.40184E+00  4.25150E+00  4.09306E+00  3.92984E+00  3.76511E+00  3.60175E+00
   3.44236E+00  3.28902E+00  3.14342E+00  3.00674E+00  2.87979E+00  2.76290E+00  2.65615E+00  2.55926E+00  2.47179E+00  2.39311E+00
   2.32255E+00  2.25931E+00  2.20267E+00  2.15182E+00  2.10609E+00  2.06478E+00  2.02735E+00  1.99324E+00  1.96199E+00  1.93317E+00
   1.90646E+00  1.88154E+00  1.85819E+00  1.83617E+00  1.81531E+00  1.79542E+00  1.77642E+00  1.75817E+00  1.74061E+00  1.72362E+00
   1.70716E+00  1.69113E+00  1.67554E+00  1.66031E+00  1.64544E+00  1.63084E+00  1.61654E+00  1.60246E+00  1.58863E+00  1.57500E+00
   1.56158E+00  1.54831E+00  1.53522E+00  1.52227E+00  1.50948E+00  1.49681E+00  1.48428E+00  1.47184E+00  1.45953E+00  1.44731E+00
   1.43520E+00  1.42318E+00  1.41126E+00  1.39940E+00  1.38764E+00  1.37595E+00  1.36436E+00  1.35282E+00  1.34137E+00  1.32997E+00
   1.31866E+00  1.30741E+00  1.29625E+00  1.28514E+00  1.27411E+00  1.26314E+00  1.25226E+00  1.24144E+00  1.23072E+00  1.22006E+00
   1.20950E+00  1.19901E+00  1.18864E+00  1.17837E+00  1.16822E+00  1.15817E+00  1.14826E+00  1.13850E+00
 NY background values follow
     2.799E+00    2.809E+00    2.819E+00    2.829E+00    2.838E+00    2.848E+00    2.858E+00    2.868E+00    2.878E+00    2.888E+00
     2.898E+00    2.908E+00    2.917E+00    2.927E+00    2.937E+00    2.947E+00    2.957E+00    2.967E+00    2.977E+00    2.987E+00
     2.997E+00    3.007E+00    3.017E+00    3.027E+00    3.037E+00    3.047E+00    3.057E+00    3.067E+00    3.077E+00    3.087E+00
     3.097E+00    3.108E+00    3.118E+00    3.128E+00    3.138E+00    3.148E+00    3.158E+00    3.169E+00    3.179E+00    3.189E+00
     3.200E+00    3.210E+00    3.220E+00    3.231E+00    3.241E+00    3.251E+00    3.262E+00    3.272E+00    3.283E+00    3.293E+00
     3.304E+00    3.315E+00    3.325E+00    3.336E+00    3.346E+00    3.357E+00    3.368E+00    3.379E+00    3.389E+00    3.400E+00
     3.411E+00    3.422E+00    3.433E+00    3.444E+00    3.454E+00    3.465E+00    3.476E+00    3.487E+00    3.498E+00    3.510E+00
     3.521E+00    3.532E+00    3.543E+00    3.554E+00    3.565E+00    3.577E+00    3.588E+00    3.599E+00    3.611E+00    3.622E+00
     3.633E+00    3.645E+00    3.656E+00    3.668E+00    3.679E+00    3.691E+00    3.702E+00    3.714E+00    3.726E+00    3.737E+00
     3.749E+00    3.761E+00    3.772E+00    3.784E+00    3.796E+00    3.808E+00    3.820E+00    3.832E+00    3.844E+00    3.856E+00
     3.867E+00    3.879E+00    3.891E+00    3.903E+00    3.915E+00    3.927E+00    3.939E+00    3.951E+00    3.963E+00    3.975E+00
     3.987E+00    3.999E+00    4.012E+00    4.024E+00    4.036E+00    4.048E+00    4.059E+00    4.071E+00    4.083E+00    4.095E+00
     4.107E+00    4.119E+00    4.131E+00    4.143E+00    4.155E+00    4.167E+00    4.178E+00    4.190E+00    4.202E+00    4.213E+00
     4.225E+00    4.237E+00    4.248E+00    4.260E+00    4.271E+00    4.283E+00    4.294E+00    4.306E+00    4.317E+00    4.328E+00
     4.339E+00    4.350E+00    4.362E+00    4.373E+00    4.384E+00    4.394E+00    4.405E+00    4.416E+00    4.427E+00    4.437E+00
     4.448E+00    4.458E+00    4.469E+00    4.479E+00    4.489E+00    4.500E+00    4.510E+00    4.520E+00    4.530E+00    4.539E+00
     4.549E+00    4.559E+00    4.568E+00    4.578E+00    4.587E+00    4.596E+00    4.605E+00    4.615E+00    4.623E+00    4.632E+00
     4.641E+00    4.650E+00    4.658E+00    4.666E+00    4.675E+00    4.683E+00    4.691E+00    4.699E+00    4.706E+00    4.714E+00
     4.721E+00    4.729E+00    4.736E+00    4.743E+00    4.750E+00    4.757E+00    4.763E+00    4.770E+00    4.776E+00    4.783E+00
     4.789E+00    4.794E+00    4.800E+00    4.806E+00    4.811E+00    4.816E+00    4.821E+00    4.826E+00    4.831E+00    4.835E+00
     4.839E+00    4.843E+00    4.847E+00    4.851E+00    4.854E+00    4.858E+00    4.861E+00    4.864E+00    4.866E+00    4.869E+00
     4.871E+00    4.873E+00    4.875E+00    4.876E+00    4.877E+00    4.878E+00    4.879E+00    4.880E+00    4.880E+00    4.880E+00
     4.880E+00    4.880E+00    4.879E+00    4.878E+00    4.877E+00    4.875E+00    4.873E+00    4.871E+00    4.869E+00    4.867E+00
     4.864E+00    4.861E+00    4.857E+00    4.854E+00    4.850E+00    4.846E+00    4.841E+00    4.837E+00    4.832E+00    4.827E+00
     4.821E+00    4.816E+00    4.810E+00    4.804E+00    4.797E+00    4.791E+00    4.784E+00    4.777E+00    4.770E+00    4.762E+00
     4.754E+00    4.746E+00    4.738E+00    4.730E+00    4.721E+00    4.712E+00    4.703E+00    4.694E+00    4.685E+00    4.675E+00
     4.665E+00    4.655E+00    4.645E+00    4.634E+00    4.623E+00    4.612E+00    4.601E+00    4.590E+00    4.579E+00    4.567E+00
     4.555E+00    4.543E+00    4.531E+00    4.518E+00    4.506E+00    4.493E+00    4.480E+00    4.467E+00    4.454E+00    4.440E+00
     4.427E+00    4.413E+00    4.399E+00    4.385E+00    4.371E+00    4.357E+00    4.342E+00    4.327E+00    4.313E+00    4.298E+00
     4.283E+00    4.267E+00    4.252E+00    4.237E+00    4.221E+00    4.205E+00    4.190E+00    4.174E+00    4.158E+00    4.142E+00
     4.125E+00    4.109E+00    4.093E+00    4.076E+00    4.059E+00    4.043E+00    4.026E+00    4.009E+00    3.992E+00    3.975E+00
     3.958E+00    3.941E+00    3.923E+00    3.906E+00    3.889E+00    3.871E+00    3.854E+00    3.836E+00    3.818E+00    3.801E+00
     3.783E+00    3.765E+00    3.747E+00    3.729E+00    3.711E+00    3.693E+00    3.675E+00    3.657E+00    3.639E+00    3.621E+00
     3.603E+00    3.585E+00    3.567E+00    3.549E+00    3.530E+00    3.512E+00    3.494E+00    3.476E+00    3.458E+00    3.440E+00
     3.421E+00    3.403E+00    3.385E+00    3.367E+00    3.349E+00    3.331E+00    3.313E+00    3.295E+00    3.277E+00    3.259E+00
     3.241E+00    3.224E+00    3.206E+00    3.188E+00    3.171E+00    3.153E+00    3.135E+00    3.118E+00    3.100E+00    3.083E+00
     3.066E+00    3.049E+00    3.032E+00    3.015E+00    2.998E+00    2.981E+00    2.964E+00    2.947E+00    2.931E+00    2.914E+00
     2.897E+00    2.881E+00    2.865E+00    2.848E+00    2.832E+00    2.816E+00    2.800E+00    2.784E+00    2.768E+00    2.753E+00
     2.737E+00    2.721E+00    2.706E+00    2.690E+00    2.675E+00    2.659E+00    2.644E+00    2.629E+00    2.614E+00    2.599E+00
     2.584E+00    2.569E+00    2.554E+00    2.539E+00    2.524E+00    2.510E+00    2.495E+00    2.481E+00    2.466E+00    2.452E+00
     2.438E+00    2.423E+00    2.409E+00    2.395E+00    2.381E+00    2.367E+00    2.353E+00    2.340E+00    2.326E+00    2.312E+00
     2.299E+00    2.285E+00    2.271E+00    2.258E+00    2.245E+00    2.231E+00    2.218E+00    2.205E+00    2.192E+00    2.179E+00
     2.166E+00    2.153E+00    2.140E+00    2.127E+00    2.114E+00    2.102E+00    2.089E+00    2.076E+00    2.064E+00    2.051E+00
     2.039E+00    2.026E+00    2.014E+00    2.001E+00    1.989E+00    1.977E+00    1.965E+00    1.952E+00    1.940E+00    1.928E+00
     1.916E+00    1.904E+00    1.892E+00    1.880E+00    1.868E+00    1.856E+00    1.844E+00    1.832E+00    1.820E+00    1.809E+00
     1.797E+00    1.785E+00    1.773E+00    1.762E+00    1.750E+00    1.738E+00    1.727E+00    1.715E+00    1.704E+00    1.692E+00
     1.681E+00    1.669E+00    1.658E+00    1.646E+00    1.635E+00    1.623E+00    1.612E+00    1.600E+00    1.589E+00    1.578E+00
     1.566E+00    1.555E+00    1.544E+00    1.532E+00    1.521E+00    1.510E+00    1.498E+00    1.487E+00    1.476E+00    1.465E+00
     1.454E+00    1.442E+00    1.431E+00    1.420E+00    1.409E+00    1.398E+00    1.386E+00    1.375E+00    1.364E+00    1.353E+00
     1.342E+00    1.331E+00    1.320E+00    1.308E+00    1.297E+00    1.286E+00    1.275E+00    1.264E+00
 Ala      Conc. = 1.19E+02
