 LCModel (Version 6.3-1L) Copyright: S.W. Provencher.          Ref.: Magn. Reson. Med. 30:672-679 (1993).                
 Slice#1 Row#3 Col#10  PD_05_press_1_raw_act
 36 lines in following concentration table = NCONC+1
    Conc.  %SD /Cr+PCr  Metabolite                                         
  899.262  32%   0.913 Ala                                                 
    0.000 999%   0.000 Asp                                                 
    0.000 999%   0.000 Cr                                                  
  985.186   5%   1.000 PCr                                                 
  137.527 108%   0.140 GABA                                                
    5.428 999% 5.5E-03 Glc                                                 
 1.08E+03  40%   1.093 Gln                                                 
    0.000 999%   0.000 Glu                                                 
  431.723   5%   0.438 GPC                                                 
    0.000 999%   0.000 PCh                                                 
  659.089  14%   0.669 GSH                                                 
 1.67E+03  14%   1.695 Ins                                                 
    0.000 999%   0.000 Lac                                                 
 1.90E+03   9%   1.932 NAA                                                 
    0.507 999% 5.1E-04 NAAG                                                
  186.367  15%   0.189 Scyllo                                              
   22.831 793% 2.3E-02 Tau                                                 
  177.184  67%   0.180 -CrCH2                                              
  431.723   5%   0.438 GPC+PCh                                             
 1.90E+03   5%   1.932 NAA+NAAG                                            
  985.186   5%   1.000 Cr+PCr                                              
 1.08E+03  40%   1.093 Glu+Gln                                             
    0.000 999%   0.000 Lip13a                                              
    0.000 999%   0.000 Lip13b                                              
 8.55E-03 999% 8.7E-06 Lip09                                               
 1.33E+03   9%   1.352 MM09                                                
 1.24E-02 999% 1.3E-05 Lip20                                               
 2.03E+03  15%   2.063 MM20                                                
   24.731 450% 2.5E-02 MM12                                                
 1.12E+03  18%   1.139 MM14                                                
 1.05E+03  18%   1.064 MM17                                                
    0.000 999%   0.000 Lip13a+Lip13b                                       
 1.15E+03  18%   1.164 MM14+Lip13a+Lip13b+MM12                             
 1.33E+03   9%   1.352 MM09+Lip09                                          
 2.03E+03  15%   2.063 MM20+Lip20                                          
   6 lines in following misc. output table
  FWHM = 0.122 ppm    S/N =   8                                            
  Data shift = 0.076 ppm                                                   
  Ph: -37 deg     -17.4 deg/ppm                                            
  alphaB,S = 8.5E+01,   4.1E+02                                            
   14 spline knots.   Ns = 7(2)                                            
   2 inflections.     1 extrema                                            
  498 points on ppm-axis = NY
      4.000000     3.992357     3.984714     3.977070     3.969427     3.961784     3.954141     3.946497     3.938854     3.931211
      3.923568     3.915925     3.908281     3.900638     3.892995     3.885352     3.877708     3.870065     3.862422     3.854779
      3.847136     3.839492     3.831849     3.824206     3.816563     3.808919     3.801276     3.793633     3.785990     3.778347
      3.770703     3.763060     3.755417     3.747774     3.740130     3.732487     3.724844     3.717201     3.709558     3.701914
      3.694271     3.686628     3.678985     3.671341     3.663698     3.656055     3.648412     3.640769     3.633125     3.625482
      3.617839     3.610196     3.602552     3.594909     3.587266     3.579623     3.571980     3.564336     3.556693     3.549050
      3.541407     3.533763     3.526120     3.518477     3.510834     3.503191     3.495547     3.487904     3.480261     3.472618
      3.464974     3.457331     3.449688     3.442045     3.434402     3.426758     3.419115     3.411472     3.403829     3.396185
      3.388542     3.380899     3.373256     3.365613     3.357969     3.350326     3.342683     3.335040     3.327396     3.319753
      3.312110     3.304467     3.296824     3.289180     3.281537     3.273894     3.266251     3.258607     3.250964     3.243321
      3.235678     3.228034     3.220391     3.212748     3.205105     3.197462     3.189818     3.182175     3.174532     3.166889
      3.159245     3.151602     3.143959     3.136316     3.128673     3.121029     3.113386     3.105743     3.098100     3.090456
      3.082813     3.075170     3.067527     3.059884     3.052240     3.044597     3.036954     3.029311     3.021667     3.014024
      3.006381     2.998738     2.991095     2.983451     2.975808     2.968165     2.960522     2.952878     2.945235     2.937592
      2.929949     2.922306     2.914662     2.907019     2.899376     2.891733     2.884089     2.876446     2.868803     2.861160
      2.853517     2.845873     2.838230     2.830587     2.822944     2.815300     2.807657     2.800014     2.792371     2.784728
      2.777084     2.769441     2.761798     2.754155     2.746511     2.738868     2.731225     2.723582     2.715939     2.708295
      2.700652     2.693009     2.685366     2.677722     2.670079     2.662436     2.654793     2.647150     2.639506     2.631863
      2.624220     2.616577     2.608933     2.601290     2.593647     2.586004     2.578361     2.570717     2.563074     2.555431
      2.547788     2.540144     2.532501     2.524858     2.517215     2.509572     2.501928     2.494285     2.486642     2.478999
      2.471355     2.463712     2.456069     2.448426     2.440783     2.433139     2.425496     2.417853     2.410210     2.402566
      2.394923     2.387280     2.379637     2.371994     2.364350     2.356707     2.349064     2.341421     2.333777     2.326134
      2.318491     2.310848     2.303205     2.295561     2.287918     2.280275     2.272632     2.264988     2.257345     2.249702
      2.242059     2.234416     2.226772     2.219129     2.211486     2.203843     2.196199     2.188556     2.180913     2.173270
      2.165627     2.157983     2.150340     2.142697     2.135054     2.127410     2.119767     2.112124     2.104481     2.096838
      2.089194     2.081551     2.073908     2.066265     2.058621     2.050978     2.043335     2.035692     2.028049     2.020405
      2.012762     2.005119     1.997476     1.989833     1.982190     1.974546     1.966903     1.959260     1.951617     1.943974
      1.936331     1.928688     1.921045     1.913402     1.905759     1.898115     1.890472     1.882829     1.875186     1.867543
      1.859900     1.852257     1.844614     1.836971     1.829327     1.821684     1.814041     1.806398     1.798755     1.791112
      1.783469     1.775826     1.768183     1.760540     1.752896     1.745253     1.737610     1.729967     1.722324     1.714681
      1.707038     1.699395     1.691752     1.684108     1.676465     1.668822     1.661179     1.653536     1.645893     1.638250
      1.630607     1.622964     1.615321     1.607677     1.600034     1.592391     1.584748     1.577105     1.569462     1.561819
      1.554176     1.546533     1.538890     1.531246     1.523603     1.515960     1.508317     1.500674     1.493031     1.485388
      1.477745     1.470102     1.462458     1.454815     1.447172     1.439529     1.431886     1.424243     1.416600     1.408957
      1.401314     1.393671     1.386027     1.378384     1.370741     1.363098     1.355455     1.347812     1.340169     1.332526
      1.324883     1.317240     1.309596     1.301953     1.294310     1.286667     1.279024     1.271381     1.263738     1.256095
      1.248452     1.240808     1.233165     1.225522     1.217879     1.210236     1.202593     1.194950     1.187307     1.179664
      1.172021     1.164377     1.156734     1.149091     1.141448     1.133805     1.126162     1.118519     1.110876     1.103233
      1.095590     1.087946     1.080303     1.072660     1.065017     1.057374     1.049731     1.042088     1.034445     1.026802
      1.019158     1.011515     1.003872     0.996229     0.988586     0.980943     0.973300     0.965657     0.958014     0.950371
      0.942727     0.935084     0.927441     0.919798     0.912155     0.904512     0.896869     0.889226     0.881583     0.873940
      0.866296     0.858653     0.851010     0.843367     0.835724     0.828081     0.820438     0.812795     0.805152     0.797508
      0.789865     0.782222     0.774579     0.766936     0.759293     0.751650     0.744007     0.736364     0.728721     0.721077
      0.713434     0.705791     0.698148     0.690505     0.682862     0.675219     0.667576     0.659933     0.652290     0.644646
      0.637003     0.629360     0.621717     0.614074     0.606431     0.598788     0.591145     0.583502     0.575858     0.568215
      0.560572     0.552929     0.545286     0.537643     0.530000     0.522357     0.514714     0.507071     0.499427     0.491784
      0.484141     0.476498     0.468855     0.461212     0.453569     0.445925     0.438282     0.430639     0.422996     0.415353
      0.407710     0.400067     0.392424     0.384780     0.377137     0.369494     0.361851     0.354208     0.346565     0.338922
      0.331278     0.323635     0.315992     0.308349     0.300706     0.293063     0.285420     0.277777     0.270133     0.262490
      0.254847     0.247204     0.239561     0.231918     0.224275     0.216631     0.208988     0.201345
 NY phased data points follow
   4.34134E+00  1.01309E+01  9.88893E+00  8.55049E+00  8.47187E+00  7.89569E+00  1.15308E+01  9.94768E+00  1.10225E+01  1.32109E+01
   6.27570E+00  1.04913E+01  6.38754E+00  9.67909E+00  3.92033E+00  6.79103E+00  5.12646E+00  2.06868E+00  3.35837E+00  4.32878E+00
   6.11316E+00  5.91813E+00  6.07541E+00  6.64089E+00  6.97207E+00  3.38968E+00  7.36339E+00  5.98523E+00  9.16475E+00  5.66954E+00
   5.98922E+00  1.03844E+01  9.81766E+00  8.46440E+00  5.51195E+00  4.31756E+00  6.68641E+00  9.74027E+00  8.86283E+00  6.09020E+00
   6.65365E+00  8.33506E+00  7.28595E+00  1.00073E+01  6.16540E+00  8.56151E+00  8.82562E+00  6.89598E+00  6.77345E+00  3.58671E+00
   8.41982E+00  4.79795E+00  5.56622E+00  5.16400E+00  7.27088E+00  5.22079E+00  3.12436E+00  4.73845E+00  3.85377E+00  6.29034E+00
   1.12655E+00  1.10028E+00 -1.38523E+00 -3.13008E-01  3.25012E+00  2.59247E+00  2.18762E+00  4.23315E+00  9.99169E-01  4.91465E+00
   9.30476E-01  1.81347E+00  4.38778E+00  2.35563E+00  2.38450E+00  3.47615E+00 -3.74856E-01  3.34783E+00  2.21732E+00  4.37391E+00
   3.29942E+00  4.47746E+00  2.85645E+00  5.37114E+00  6.83397E+00  6.19402E+00  5.09187E+00  2.32420E+00  9.15045E+00  1.32495E+01
   9.49554E+00  1.06103E+01  6.82041E+00  9.40399E+00  1.24138E+01  1.51741E+01  1.31293E+01  1.58172E+01  1.93493E+01  1.87155E+01
   2.04113E+01  2.33761E+01  1.78709E+01  1.95777E+01  1.77874E+01  1.59824E+01  1.61157E+01  8.98217E+00  8.34074E+00  7.93211E+00
   7.01024E+00  6.59076E+00  6.16437E+00  5.25556E+00  6.30118E+00  7.97781E+00  4.32317E+00  5.76180E+00  1.04648E+01  7.74381E+00
   1.29887E+01  1.12859E+01  1.75081E+01  1.67478E+01  1.78146E+01  1.90411E+01  1.83483E+01  2.01072E+01  1.78352E+01  1.99983E+01
   1.53339E+01  1.17396E+01  1.09363E+01  9.68986E+00  7.68640E+00  8.91819E+00  5.18612E+00  2.54739E+00  4.60830E+00  3.60768E+00
   3.89340E+00  6.35547E+00  2.86072E+00  4.19355E+00 -1.19587E-01  9.74284E-01  3.57600E+00  5.34849E+00  1.72220E+00  3.02924E+00
   1.26421E+00  2.58437E+00  5.53193E+00  5.59851E+00  2.55268E+00 -1.66962E+00  6.34275E+00  4.30523E+00  2.42632E+00  1.19068E+00
   7.14991E-01  2.20003E+00  6.07018E-01  3.24224E-01  1.77861E-01  1.44608E+00  2.36690E+00 -2.19320E+00 -4.10052E+00 -2.59134E+00
  -1.96726E+00 -1.85668E+00 -6.04091E+00 -3.77110E+00 -6.02233E+00 -6.10130E+00 -7.17488E+00 -4.69416E+00 -5.04342E+00 -2.62727E+00
  -1.17831E+00 -6.12139E+00 -4.46748E+00 -2.47634E+00 -5.90312E+00  4.84525E-01 -2.00497E+00 -3.45821E+00 -7.75551E-01 -2.26059E+00
  -8.08313E-02 -3.15173E+00  7.52636E-01  2.38928E+00 -4.68986E-01  1.00933E+00  3.67408E-01  5.85763E-01  5.84235E-01 -4.20273E+00
   1.35649E+00 -1.12854E+00  5.26734E+00  3.97361E-01  4.79805E-01  2.17228E+00  2.17896E+00 -6.54171E-01  4.61551E+00  1.00013E+00
   3.78965E-01  4.07161E+00  4.33161E+00  2.29132E+00  6.40496E+00  3.22627E+00  7.17996E+00  3.75607E+00  4.26375E+00  4.91401E+00
   4.83023E+00  3.75739E+00  4.70170E+00  5.04763E+00  3.08113E+00  8.11867E-01  5.67908E+00  4.18670E+00  4.80012E+00  6.41670E+00
   5.57111E+00  3.03703E+00  6.27555E+00  6.21521E+00  1.00883E+00  7.21128E+00  3.46815E+00  4.48560E+00  6.16364E+00  3.44363E+00
   6.13999E+00  6.67883E+00  6.59708E+00  6.68456E+00  8.56808E+00  9.48864E+00  1.08889E+01  1.48185E+01  1.97544E+01  2.12788E+01
   1.83870E+01  1.98407E+01  2.29401E+01  2.84681E+01  3.49380E+01  3.28378E+01  3.45420E+01  3.63244E+01  3.61244E+01  4.30407E+01
   3.96360E+01  3.95557E+01  3.60247E+01  3.39523E+01  3.17819E+01  2.93756E+01  2.29554E+01  1.75285E+01  1.70195E+01  1.17535E+01
   1.15925E+01  7.90566E+00  5.82832E+00  7.64559E+00  7.52905E+00  4.98339E+00  7.73738E+00  5.67188E+00  3.37956E+00  5.40156E+00
   7.15811E+00  6.94014E+00  8.09264E+00  8.79020E+00  5.87370E+00  7.14144E+00  8.20724E+00  4.66659E+00  4.32480E+00  5.80186E+00
   5.36180E+00  6.82495E+00  6.10814E+00  3.71291E+00  4.78396E+00  8.00324E+00  4.67329E+00  8.50496E+00  4.72102E+00  5.83785E+00
   8.82146E+00  7.85231E+00  6.41178E+00  8.61876E+00  9.55860E+00  8.71525E+00  7.69333E+00  8.25023E+00  8.56404E+00  7.31114E+00
   8.28407E+00  7.82014E+00  1.05444E+01  6.32302E+00  1.08619E+01  8.09691E+00  8.94790E+00  1.08767E+01  1.00113E+01  6.05820E+00
   8.92107E+00  9.70228E+00  8.15788E+00  8.22152E+00  6.70906E+00  5.86888E+00  6.50349E+00  1.10526E+01  8.47590E+00  4.20537E+00
   9.38294E+00  8.42600E+00  9.06379E+00  8.83580E+00  9.92633E+00  1.03472E+01  9.37980E+00  7.76079E+00  7.35897E+00  7.41977E+00
   8.74969E+00  9.41002E+00  1.13447E+01  1.23771E+01  1.20367E+01  6.99502E+00  9.04151E+00  1.06250E+01  6.05888E+00  6.35725E+00
   7.38957E+00  1.86437E+00  4.90860E+00  5.57031E+00  4.11475E+00  1.01332E+00 -3.17942E+00  1.67187E+00  1.45870E+00  7.91781E-01
   2.31394E+00  1.89787E+00  2.65541E+00  1.96769E+00  3.15325E+00  3.85407E+00  8.38609E-01  2.08137E+00  5.43936E+00 -1.74640E-01
   4.34788E+00  5.04732E+00  7.33118E+00  2.85983E+00  7.40062E+00  5.42571E+00  2.70270E-02  5.62860E+00  2.67376E-01  6.13529E+00
   1.11714E-01  4.30946E+00  3.25868E+00  4.30486E+00 -5.97417E-01  5.78673E+00  5.57156E+00  4.47035E+00  7.30440E+00  4.24430E+00
   5.49314E+00  5.88133E+00  7.28010E+00  7.34317E+00  4.32243E+00  1.06859E+01  9.39013E+00  1.06187E+01  1.14313E+01  1.31778E+01
   1.03349E+01  1.15566E+01  1.16732E+01  1.12145E+01  1.24354E+01  1.35155E+01  1.49368E+01  1.33400E+01  1.33686E+01  1.18661E+01
   1.09720E+01  1.23295E+01  1.16887E+01  1.32315E+01  1.14421E+01  1.17866E+01  9.64064E+00  9.36986E+00  5.95349E+00  8.51294E+00
   6.55292E+00  9.38972E+00  6.33152E+00  8.71308E+00  8.16259E+00  5.95772E+00  6.80944E+00  3.46938E+00  5.37446E+00  5.21047E+00
   7.44520E+00  7.04266E+00  3.70412E+00  2.16492E+00  2.87112E+00  2.30083E+00  6.28532E+00  5.67231E+00  7.16461E+00  2.30645E+00
   3.44199E+00  1.70385E+00  1.27264E+00  2.95922E+00  2.36201E+00  5.52131E-01  2.45020E+00  4.85137E+00  2.99578E+00  3.68155E+00
   3.92663E+00  4.39982E+00  2.34819E+00  6.69640E+00  2.06145E+00  5.83626E+00  3.09326E+00  1.75157E+00  5.14506E-01  3.75071E+00
   1.78303E+00  1.36083E-01  3.73574E+00  9.84178E-01  2.40920E+00  3.98856E+00  4.42667E+00  1.47561E+00  2.96429E+00  2.69757E+00
   4.18042E+00  2.72430E+00  2.67698E+00  5.18005E-02  3.31755E+00  3.55324E+00  1.95713E+00  2.97084E+00  5.80635E+00  3.50326E+00
   6.83587E+00  4.31576E+00  1.79318E+00  6.24026E+00  2.31090E+00  1.67396E+00  6.87115E+00  1.85862E-01  2.72793E+00  2.72858E+00
   2.64740E+00  4.87898E+00  4.93196E+00  2.64658E+00  5.06362E+00  3.18179E+00  5.20623E+00  3.32905E+00
 NY points of the fit to the data follow
   7.10774E+00  7.91264E+00  8.06081E+00  9.06517E+00  8.82485E+00  9.96191E+00  9.27049E+00  1.04305E+01  9.27519E+00  1.03291E+01
   8.75226E+00  9.66981E+00  7.75453E+00  8.31089E+00  6.30096E+00  6.66475E+00  5.28902E+00  5.46714E+00  4.81176E+00  4.88293E+00
   4.91703E+00  4.84871E+00  5.48076E+00  5.28991E+00  6.42929E+00  6.16566E+00  7.51525E+00  7.13459E+00  8.34561E+00  7.81337E+00
   8.65695E+00  8.05283E+00  8.43128E+00  7.93947E+00  8.08851E+00  7.83349E+00  7.72432E+00  7.61534E+00  7.33026E+00  7.31953E+00
   7.00684E+00  7.06786E+00  6.81467E+00  6.87963E+00  6.66138E+00  6.66679E+00  6.55898E+00  6.49045E+00  6.49201E+00  6.23191E+00
   6.15221E+00  5.70059E+00  5.51941E+00  4.93851E+00  4.74705E+00  4.14944E+00  4.03534E+00  3.46328E+00  3.48730E+00  2.95997E+00
   3.12380E+00  2.64246E+00  2.89074E+00  2.45377E+00  2.76774E+00  2.38809E+00  2.74606E+00  2.40792E+00  2.72095E+00  2.39984E+00
   2.65629E+00  2.40370E+00  2.79474E+00  2.86263E+00  3.13048E+00  3.44037E+00  3.45563E+00  3.98484E+00  3.75615E+00  4.50767E+00
   4.01522E+00  4.94087E+00  4.16622E+00  5.20862E+00  4.13706E+00  5.20012E+00  3.91419E+00  5.19430E+00  4.98009E+00  6.53572E+00
   7.02812E+00  8.58957E+00  9.55096E+00  1.09860E+01  1.23967E+01  1.36281E+01  1.52442E+01  1.61442E+01  1.76112E+01  1.80641E+01
   1.90226E+01  1.89341E+01  1.90662E+01  1.84338E+01  1.76626E+01  1.65993E+01  1.50002E+01  1.36595E+01  1.16289E+01  1.02710E+01
   8.27127E+00  7.30620E+00  6.52358E+00  6.28920E+00  6.44931E+00  6.82946E+00  7.62907E+00  8.50962E+00  9.84807E+00  1.11839E+01
   1.28445E+01  1.42520E+01  1.55030E+01  1.66398E+01  1.71748E+01  1.79081E+01  1.75931E+01  1.78423E+01  1.67598E+01  1.64736E+01
   1.48276E+01  1.40820E+01  1.22198E+01  1.11863E+01  9.47530E+00  8.34979E+00  7.00658E+00  5.93702E+00  5.07650E+00  4.15678E+00
   3.73539E+00  2.99068E+00  2.92464E+00  2.36885E+00  2.57075E+00  2.15232E+00  2.26219E+00  1.83893E+00  1.85420E+00  1.44482E+00
   1.42928E+00  1.08843E+00  1.02464E+00  7.05923E-01  5.94577E-01  3.10511E-01  1.81947E-01 -4.32853E-02 -1.71294E-01 -3.41282E-01
  -4.86246E-01 -6.41878E-01 -8.72043E-01 -1.00461E+00 -1.25967E+00 -1.37257E+00 -1.63901E+00 -1.80141E+00 -2.04406E+00 -2.24985E+00
  -2.41855E+00 -2.69325E+00 -2.78407E+00 -3.16007E+00 -3.09295E+00 -3.48216E+00 -3.18275E+00 -3.50113E+00 -2.96883E+00 -3.21866E+00
  -2.54514E+00 -2.72147E+00 -1.98730E+00 -2.14768E+00 -1.50352E+00 -1.58535E+00 -1.05155E+00 -9.99760E-01 -5.46397E-01 -3.21747E-01
   4.74929E-02  4.07407E-01  6.83292E-01  1.08029E+00  1.25294E+00  1.59044E+00  1.55629E+00  1.76538E+00  1.71836E+00  1.73936E+00
   1.78630E+00  1.60615E+00  1.76093E+00  1.34943E+00  1.62169E+00  1.00702E+00  1.42681E+00  7.10574E-01  1.29937E+00  6.07158E-01
   1.37989E+00  8.14711E-01  1.71558E+00  1.33980E+00  2.29008E+00  2.11077E+00  2.98415E+00  2.92632E+00  3.62260E+00  3.66694E+00
   4.18298E+00  4.28137E+00  4.53068E+00  4.66681E+00  4.77831E+00  4.87070E+00  4.90868E+00  4.99060E+00  5.03718E+00  4.99475E+00
   5.14483E+00  4.99211E+00  5.30802E+00  5.05168E+00  5.55764E+00  5.18103E+00  5.86179E+00  5.41409E+00  6.23819E+00  5.76357E+00
   6.67788E+00  6.24772E+00  7.19920E+00  6.90122E+00  7.92677E+00  8.21837E+00  1.09392E+01  1.21626E+01  1.56629E+01  1.74637E+01
   2.11079E+01  2.32348E+01  2.67959E+01  2.90181E+01  3.20530E+01  3.40511E+01  3.60633E+01  3.75191E+01  3.80891E+01  3.87700E+01
   3.76247E+01  3.73972E+01  3.46504E+01  3.36286E+01  2.97567E+01  2.81902E+01  2.38940E+01  2.21197E+01  1.80815E+01  1.63966E+01
   1.30259E+01  1.16195E+01  9.15259E+00  8.11631E+00  6.51867E+00  5.85466E+00  5.03151E+00  4.72368E+00  4.57849E+00  4.49342E+00
   4.43823E+00  4.42203E+00  4.42846E+00  4.47449E+00  4.53962E+00  4.64670E+00  4.76802E+00  4.93205E+00  5.10290E+00  5.31632E+00
   5.52708E+00  5.77544E+00  6.01097E+00  6.27494E+00  6.51575E+00  6.77314E+00  6.99646E+00  7.22385E+00  7.40995E+00  7.58832E+00
   7.72132E+00  7.83910E+00  7.91168E+00  7.96723E+00  7.98322E+00  7.98623E+00  7.96092E+00  7.93472E+00  7.89855E+00  7.88310E+00
   7.88875E+00  7.96219E+00  8.15068E+00  8.53181E+00  8.64693E+00  9.03673E+00  8.98859E+00  9.27178E+00  9.03067E+00  9.12521E+00
   8.58860E+00  8.72184E+00  8.23983E+00  8.32541E+00  7.98024E+00  7.91708E+00  7.75022E+00  7.53302E+00  7.66498E+00  7.33694E+00
   7.84929E+00  7.45684E+00  8.34186E+00  7.91940E+00  9.06843E+00  8.59329E+00  9.79335E+00  9.21756E+00  1.02570E+01  9.56774E+00
   1.02840E+01  9.50290E+00  9.84569E+00  9.04441E+00  9.05551E+00  8.29209E+00  8.00972E+00  7.27877E+00  6.86258E+00  6.24214E+00
   5.80018E+00  5.32312E+00  4.93377E+00  4.63157E+00  4.37253E+00  4.16164E+00  3.97590E+00  3.82710E+00  3.69517E+00  3.59337E+00
   3.50266E+00  3.43695E+00  3.37790E+00  3.33989E+00  3.30515E+00  3.28851E+00  3.27273E+00  3.27302E+00  3.27267E+00  3.28722E+00
   3.30037E+00  3.32798E+00  3.35416E+00  3.39503E+00  3.43508E+00  3.49070E+00  3.54676E+00  3.61992E+00  3.69549E+00  3.79045E+00
   3.89058E+00  4.01322E+00  4.14463E+00  4.30254E+00  4.47366E+00  4.67599E+00  4.89652E+00  5.15325E+00  5.43306E+00  5.75343E+00
   6.10053E+00  6.49055E+00  6.90806E+00  7.36710E+00  7.84971E+00  8.36692E+00  8.89755E+00  9.44916E+00  9.99721E+00  1.05460E+01
   1.10684E+01  1.15666E+01  1.20126E+01  1.24084E+01  1.27273E+01  1.29738E+01  1.31250E+01  1.31901E+01  1.31516E+01  1.30249E+01
   1.27987E+01  1.24943E+01  1.21060E+01  1.16596E+01  1.11532E+01  1.06147E+01  1.00433E+01  9.46676E+00  8.88278E+00  8.31699E+00
   7.76405E+00  7.24607E+00  6.75407E+00  6.30645E+00  5.89080E+00  5.52232E+00  5.18596E+00  4.89468E+00  4.63181E+00  4.40907E+00
   4.20910E+00  4.04318E+00  3.89394E+00  3.77279E+00  3.66273E+00  3.57559E+00  3.49491E+00  3.43298E+00  3.37391E+00  3.33044E+00
   3.28715E+00  3.25716E+00  3.22543E+00  3.20532E+00  3.18212E+00  3.16935E+00  3.15252E+00  3.14529E+00  3.13332E+00  3.13032E+00
   3.12209E+00  3.12239E+00  3.11711E+00  3.12002E+00  3.11710E+00  3.12209E+00  3.12107E+00  3.12776E+00  3.12830E+00  3.13640E+00
   3.13823E+00  3.14748E+00  3.15039E+00  3.16063E+00  3.16446E+00  3.17552E+00  3.18014E+00  3.19191E+00  3.19721E+00  3.20960E+00
   3.21550E+00  3.22843E+00  3.23484E+00  3.24825E+00  3.25515E+00  3.26899E+00  3.27632E+00  3.29056E+00  3.29829E+00  3.31290E+00
   3.32100E+00  3.33597E+00  3.34445E+00  3.35977E+00  3.36860E+00  3.38427E+00  3.39349E+00  3.40953E+00  3.41914E+00  3.43557E+00
   3.44562E+00  3.46250E+00  3.47304E+00  3.49044E+00  3.50157E+00  3.51959E+00  3.53145E+00  3.55029E+00
 NY background values follow
    -2.527E+00   -2.514E+00   -2.502E+00   -2.489E+00   -2.476E+00   -2.464E+00   -2.451E+00   -2.438E+00   -2.425E+00   -2.413E+00
    -2.400E+00   -2.387E+00   -2.374E+00   -2.362E+00   -2.349E+00   -2.336E+00   -2.323E+00   -2.311E+00   -2.298E+00   -2.285E+00
    -2.272E+00   -2.260E+00   -2.247E+00   -2.234E+00   -2.221E+00   -2.209E+00   -2.196E+00   -2.183E+00   -2.170E+00   -2.158E+00
    -2.145E+00   -2.132E+00   -2.119E+00   -2.106E+00   -2.094E+00   -2.081E+00   -2.068E+00   -2.055E+00   -2.042E+00   -2.030E+00
    -2.017E+00   -2.004E+00   -1.991E+00   -1.978E+00   -1.966E+00   -1.953E+00   -1.940E+00   -1.927E+00   -1.914E+00   -1.902E+00
    -1.889E+00   -1.876E+00   -1.863E+00   -1.850E+00   -1.838E+00   -1.825E+00   -1.812E+00   -1.799E+00   -1.786E+00   -1.773E+00
    -1.761E+00   -1.748E+00   -1.735E+00   -1.722E+00   -1.709E+00   -1.696E+00   -1.684E+00   -1.671E+00   -1.658E+00   -1.645E+00
    -1.632E+00   -1.619E+00   -1.607E+00   -1.594E+00   -1.581E+00   -1.568E+00   -1.555E+00   -1.542E+00   -1.529E+00   -1.517E+00
    -1.504E+00   -1.491E+00   -1.478E+00   -1.465E+00   -1.452E+00   -1.439E+00   -1.426E+00   -1.414E+00   -1.401E+00   -1.388E+00
    -1.375E+00   -1.362E+00   -1.349E+00   -1.336E+00   -1.323E+00   -1.311E+00   -1.298E+00   -1.285E+00   -1.272E+00   -1.259E+00
    -1.246E+00   -1.233E+00   -1.220E+00   -1.207E+00   -1.195E+00   -1.182E+00   -1.169E+00   -1.156E+00   -1.143E+00   -1.130E+00
    -1.117E+00   -1.104E+00   -1.091E+00   -1.078E+00   -1.066E+00   -1.053E+00   -1.040E+00   -1.027E+00   -1.014E+00   -1.001E+00
    -9.881E-01   -9.752E-01   -9.623E-01   -9.494E-01   -9.365E-01   -9.236E-01   -9.107E-01   -8.977E-01   -8.848E-01   -8.719E-01
    -8.590E-01   -8.461E-01   -8.331E-01   -8.202E-01   -8.073E-01   -7.944E-01   -7.814E-01   -7.685E-01   -7.556E-01   -7.427E-01
    -7.297E-01   -7.168E-01   -7.039E-01   -6.909E-01   -6.780E-01   -6.651E-01   -6.521E-01   -6.392E-01   -6.263E-01   -6.133E-01
    -6.004E-01   -5.875E-01   -5.745E-01   -5.616E-01   -5.487E-01   -5.357E-01   -5.228E-01   -5.098E-01   -4.969E-01   -4.840E-01
    -4.710E-01   -4.581E-01   -4.451E-01   -4.322E-01   -4.192E-01   -4.063E-01   -3.934E-01   -3.804E-01   -3.675E-01   -3.545E-01
    -3.416E-01   -3.286E-01   -3.157E-01   -3.027E-01   -2.898E-01   -2.768E-01   -2.639E-01   -2.509E-01   -2.380E-01   -2.250E-01
    -2.121E-01   -1.991E-01   -1.862E-01   -1.732E-01   -1.603E-01   -1.473E-01   -1.344E-01   -1.214E-01   -1.085E-01   -9.550E-02
    -8.254E-02   -6.959E-02   -5.663E-02   -4.368E-02   -3.072E-02   -1.777E-02   -4.812E-03    8.143E-03    2.110E-02    3.406E-02
     4.701E-02    5.997E-02    7.292E-02    8.588E-02    9.884E-02    1.118E-01    1.248E-01    1.377E-01    1.507E-01    1.636E-01
     1.766E-01    1.895E-01    2.025E-01    2.155E-01    2.284E-01    2.414E-01    2.543E-01    2.673E-01    2.802E-01    2.932E-01
     3.061E-01    3.191E-01    3.321E-01    3.450E-01    3.580E-01    3.709E-01    3.839E-01    3.968E-01    4.098E-01    4.228E-01
     4.357E-01    4.487E-01    4.616E-01    4.746E-01    4.875E-01    5.005E-01    5.134E-01    5.264E-01    5.393E-01    5.523E-01
     5.653E-01    5.782E-01    5.912E-01    6.041E-01    6.171E-01    6.300E-01    6.430E-01    6.559E-01    6.689E-01    6.818E-01
     6.948E-01    7.077E-01    7.207E-01    7.336E-01    7.466E-01    7.595E-01    7.724E-01    7.854E-01    7.983E-01    8.113E-01
     8.242E-01    8.372E-01    8.501E-01    8.631E-01    8.760E-01    8.889E-01    9.019E-01    9.148E-01    9.278E-01    9.407E-01
     9.536E-01    9.666E-01    9.795E-01    9.925E-01    1.005E+00    1.018E+00    1.031E+00    1.044E+00    1.057E+00    1.070E+00
     1.083E+00    1.096E+00    1.109E+00    1.122E+00    1.135E+00    1.148E+00    1.161E+00    1.174E+00    1.186E+00    1.199E+00
     1.212E+00    1.225E+00    1.238E+00    1.251E+00    1.264E+00    1.277E+00    1.290E+00    1.303E+00    1.316E+00    1.329E+00
     1.341E+00    1.354E+00    1.367E+00    1.380E+00    1.393E+00    1.406E+00    1.419E+00    1.432E+00    1.445E+00    1.458E+00
     1.471E+00    1.483E+00    1.496E+00    1.509E+00    1.522E+00    1.535E+00    1.548E+00    1.561E+00    1.574E+00    1.587E+00
     1.600E+00    1.612E+00    1.625E+00    1.638E+00    1.651E+00    1.664E+00    1.677E+00    1.690E+00    1.703E+00    1.716E+00
     1.728E+00    1.741E+00    1.754E+00    1.767E+00    1.780E+00    1.793E+00    1.806E+00    1.819E+00    1.831E+00    1.844E+00
     1.857E+00    1.870E+00    1.883E+00    1.896E+00    1.909E+00    1.921E+00    1.934E+00    1.947E+00    1.960E+00    1.973E+00
     1.986E+00    1.999E+00    2.011E+00    2.024E+00    2.037E+00    2.050E+00    2.063E+00    2.076E+00    2.089E+00    2.101E+00
     2.114E+00    2.127E+00    2.140E+00    2.153E+00    2.166E+00    2.178E+00    2.191E+00    2.204E+00    2.217E+00    2.230E+00
     2.243E+00    2.255E+00    2.268E+00    2.281E+00    2.294E+00    2.307E+00    2.319E+00    2.332E+00    2.345E+00    2.358E+00
     2.371E+00    2.383E+00    2.396E+00    2.409E+00    2.422E+00    2.435E+00    2.447E+00    2.460E+00    2.473E+00    2.486E+00
     2.499E+00    2.511E+00    2.524E+00    2.537E+00    2.550E+00    2.562E+00    2.575E+00    2.588E+00    2.601E+00    2.614E+00
     2.626E+00    2.639E+00    2.652E+00    2.665E+00    2.677E+00    2.690E+00    2.703E+00    2.716E+00    2.728E+00    2.741E+00
     2.754E+00    2.767E+00    2.779E+00    2.792E+00    2.805E+00    2.818E+00    2.830E+00    2.843E+00    2.856E+00    2.868E+00
     2.881E+00    2.894E+00    2.907E+00    2.919E+00    2.932E+00    2.945E+00    2.957E+00    2.970E+00    2.983E+00    2.996E+00
     3.008E+00    3.021E+00    3.034E+00    3.046E+00    3.059E+00    3.072E+00    3.084E+00    3.097E+00    3.110E+00    3.122E+00
     3.135E+00    3.148E+00    3.160E+00    3.173E+00    3.186E+00    3.198E+00    3.211E+00    3.224E+00    3.236E+00    3.249E+00
     3.262E+00    3.274E+00    3.287E+00    3.300E+00    3.312E+00    3.325E+00    3.338E+00    3.350E+00    3.363E+00    3.375E+00
     3.388E+00    3.401E+00    3.413E+00    3.426E+00    3.439E+00    3.451E+00    3.464E+00    3.476E+00    3.489E+00    3.502E+00
     3.514E+00    3.527E+00    3.539E+00    3.552E+00    3.565E+00    3.577E+00    3.590E+00    3.602E+00    3.615E+00    3.627E+00
     3.640E+00    3.653E+00    3.665E+00    3.678E+00    3.690E+00    3.703E+00    3.715E+00    3.728E+00    3.740E+00    3.753E+00
     3.765E+00    3.778E+00    3.791E+00    3.803E+00    3.816E+00    3.828E+00    3.841E+00    3.853E+00
 Ala      Conc. = 8.99E+02
