 LCModel (Version 6.3-1L) Copyright: S.W. Provencher.          Ref.: Magn. Reson. Med. 30:672-679 (1993).                
 Slice#3 Row#9 Col#2  PD_05_press_1_raw_act
 36 lines in following concentration table = NCONC+1
    Conc.  %SD /Cr+PCr  Metabolite                                         
    0.000 999%   0.000 Ala                                                 
    0.000 999%   0.000 Asp                                                 
    0.000 999%   0.000 Cr                                                  
    0.000 999%   0.000 PCr                                                 
    4.205 408%   0.000 GABA                                                
    2.074 822%   0.000 Glc                                                 
 2.59E+03  14%   0.000 Gln                                                 
 1.44E+03  25%   0.000 Glu                                                 
    2.995 281%   0.000 GPC                                                 
    0.000 999%   0.000 PCh                                                 
    0.000 999%   0.000 GSH                                                 
  342.181  35%   0.000 Ins                                                 
  756.810  20%   0.000 Lac                                                 
   22.992 228%   0.000 NAA                                                 
   30.146 188%   0.000 NAAG                                                
    3.696 145%   0.000 Scyllo                                              
   26.294 107%   0.000 Tau                                                 
    0.000 999%   0.000 -CrCH2                                              
    2.995 281%   0.000 GPC+PCh                                             
   53.139  52%   0.000 NAA+NAAG                                            
    0.000 999%   0.000 Cr+PCr                                              
 4.03E+03  17%   0.000 Glu+Gln                                             
    0.000 999%   0.000 Lip13a                                              
  151.905  22%   0.000 Lip13b                                              
    0.000 999%   0.000 Lip09                                               
  813.409  10%   0.000 MM09                                                
  187.484  43%   0.000 Lip20                                               
 1.43E+03   8%   0.000 MM20                                                
  251.941  14%   0.000 MM12                                                
  256.327  41%   0.000 MM14                                                
  384.311  17%   0.000 MM17                                                
  151.905  22%   0.000 Lip13a+Lip13b                                       
  660.173  20%   0.000 MM14+Lip13a+Lip13b+MM12                             
  813.409  10%   0.000 MM09+Lip09                                          
 1.61E+03   8%   0.000 MM20+Lip20                                          
   6 lines in following misc. output table
  FWHM = 0.122 ppm    S/N =   2                                            
  Data shift =-0.038 ppm                                                   
  Ph: -78 deg      71.7 deg/ppm                                            
  alphaB,S = 6.8E-01,   9.0E+01                                            
    8 spline knots.   Ns = 9(2)                                            
  (13) 2 infls.   ( 3) 1 extrs.                                            
  498 points on ppm-axis = NY
      4.000000     3.992357     3.984714     3.977070     3.969427     3.961784     3.954141     3.946497     3.938854     3.931211
      3.923568     3.915925     3.908281     3.900638     3.892995     3.885352     3.877708     3.870065     3.862422     3.854779
      3.847136     3.839492     3.831849     3.824206     3.816563     3.808919     3.801276     3.793633     3.785990     3.778347
      3.770703     3.763060     3.755417     3.747774     3.740130     3.732487     3.724844     3.717201     3.709558     3.701914
      3.694271     3.686628     3.678985     3.671341     3.663698     3.656055     3.648412     3.640769     3.633125     3.625482
      3.617839     3.610196     3.602552     3.594909     3.587266     3.579623     3.571980     3.564336     3.556693     3.549050
      3.541407     3.533763     3.526120     3.518477     3.510834     3.503191     3.495547     3.487904     3.480261     3.472618
      3.464974     3.457331     3.449688     3.442045     3.434402     3.426758     3.419115     3.411472     3.403829     3.396185
      3.388542     3.380899     3.373256     3.365613     3.357969     3.350326     3.342683     3.335040     3.327396     3.319753
      3.312110     3.304467     3.296824     3.289180     3.281537     3.273894     3.266251     3.258607     3.250964     3.243321
      3.235678     3.228034     3.220391     3.212748     3.205105     3.197462     3.189818     3.182175     3.174532     3.166889
      3.159245     3.151602     3.143959     3.136316     3.128673     3.121029     3.113386     3.105743     3.098100     3.090456
      3.082813     3.075170     3.067527     3.059884     3.052240     3.044597     3.036954     3.029311     3.021667     3.014024
      3.006381     2.998738     2.991095     2.983451     2.975808     2.968165     2.960522     2.952878     2.945235     2.937592
      2.929949     2.922306     2.914662     2.907019     2.899376     2.891733     2.884089     2.876446     2.868803     2.861160
      2.853517     2.845873     2.838230     2.830587     2.822944     2.815300     2.807657     2.800014     2.792371     2.784728
      2.777084     2.769441     2.761798     2.754155     2.746511     2.738868     2.731225     2.723582     2.715939     2.708295
      2.700652     2.693009     2.685366     2.677722     2.670079     2.662436     2.654793     2.647150     2.639506     2.631863
      2.624220     2.616577     2.608933     2.601290     2.593647     2.586004     2.578361     2.570717     2.563074     2.555431
      2.547788     2.540144     2.532501     2.524858     2.517215     2.509572     2.501928     2.494285     2.486642     2.478999
      2.471355     2.463712     2.456069     2.448426     2.440783     2.433139     2.425496     2.417853     2.410210     2.402566
      2.394923     2.387280     2.379637     2.371994     2.364350     2.356707     2.349064     2.341421     2.333777     2.326134
      2.318491     2.310848     2.303205     2.295561     2.287918     2.280275     2.272632     2.264988     2.257345     2.249702
      2.242059     2.234416     2.226772     2.219129     2.211486     2.203843     2.196199     2.188556     2.180913     2.173270
      2.165627     2.157983     2.150340     2.142697     2.135054     2.127410     2.119767     2.112124     2.104481     2.096838
      2.089194     2.081551     2.073908     2.066265     2.058621     2.050978     2.043335     2.035692     2.028049     2.020405
      2.012762     2.005119     1.997476     1.989833     1.982190     1.974546     1.966903     1.959260     1.951617     1.943974
      1.936331     1.928688     1.921045     1.913402     1.905759     1.898115     1.890472     1.882829     1.875186     1.867543
      1.859900     1.852257     1.844614     1.836971     1.829327     1.821684     1.814041     1.806398     1.798755     1.791112
      1.783469     1.775826     1.768183     1.760540     1.752896     1.745253     1.737610     1.729967     1.722324     1.714681
      1.707038     1.699395     1.691752     1.684108     1.676465     1.668822     1.661179     1.653536     1.645893     1.638250
      1.630607     1.622964     1.615321     1.607677     1.600034     1.592391     1.584748     1.577105     1.569462     1.561819
      1.554176     1.546533     1.538890     1.531246     1.523603     1.515960     1.508317     1.500674     1.493031     1.485388
      1.477745     1.470102     1.462458     1.454815     1.447172     1.439529     1.431886     1.424243     1.416600     1.408957
      1.401314     1.393671     1.386027     1.378384     1.370741     1.363098     1.355455     1.347812     1.340169     1.332526
      1.324883     1.317240     1.309596     1.301953     1.294310     1.286667     1.279024     1.271381     1.263738     1.256095
      1.248452     1.240808     1.233165     1.225522     1.217879     1.210236     1.202593     1.194950     1.187307     1.179664
      1.172021     1.164377     1.156734     1.149091     1.141448     1.133805     1.126162     1.118519     1.110876     1.103233
      1.095590     1.087946     1.080303     1.072660     1.065017     1.057374     1.049731     1.042088     1.034445     1.026802
      1.019158     1.011515     1.003872     0.996229     0.988586     0.980943     0.973300     0.965657     0.958014     0.950371
      0.942727     0.935084     0.927441     0.919798     0.912155     0.904512     0.896869     0.889226     0.881583     0.873940
      0.866296     0.858653     0.851010     0.843367     0.835724     0.828081     0.820438     0.812795     0.805152     0.797508
      0.789865     0.782222     0.774579     0.766936     0.759293     0.751650     0.744007     0.736364     0.728721     0.721077
      0.713434     0.705791     0.698148     0.690505     0.682862     0.675219     0.667576     0.659933     0.652290     0.644646
      0.637003     0.629360     0.621717     0.614074     0.606431     0.598788     0.591145     0.583502     0.575858     0.568215
      0.560572     0.552929     0.545286     0.537643     0.530000     0.522357     0.514714     0.507071     0.499427     0.491784
      0.484141     0.476498     0.468855     0.461212     0.453569     0.445925     0.438282     0.430639     0.422996     0.415353
      0.407710     0.400067     0.392424     0.384780     0.377137     0.369494     0.361851     0.354208     0.346565     0.338922
      0.331278     0.323635     0.315992     0.308349     0.300706     0.293063     0.285420     0.277777     0.270133     0.262490
      0.254847     0.247204     0.239561     0.231918     0.224275     0.216631     0.208988     0.201345
 NY phased data points follow
  -1.27271E+01 -1.13169E+01 -1.20248E+01 -1.04274E+01 -1.05818E+01 -6.96057E+00 -9.34622E+00 -7.43648E+00 -6.92469E+00 -5.09476E+00
  -6.66276E+00 -6.04487E+00 -6.77866E+00 -5.15391E+00 -3.73340E+00 -3.77887E+00 -3.49505E+00 -1.62855E+00 -4.99819E-01 -1.20830E+00
   2.36808E-01  3.07137E+00  9.48973E-01  1.64636E+00  2.93917E+00 -1.71724E-02  2.01304E+00  3.02175E+00  3.47013E+00  4.37789E+00
   4.43292E+00  5.46502E+00  3.64156E+00  5.47734E+00  5.17219E+00  4.85852E+00  7.00178E+00  6.13693E+00  6.59517E+00  6.56265E+00
   6.57972E+00  7.33518E+00  8.20243E+00  7.94824E+00  7.29543E+00  8.65533E+00  8.27348E+00  9.64417E+00  1.05450E+01  8.23974E+00
   9.32409E+00  9.28567E+00  9.05352E+00  1.10504E+01  9.09182E+00  9.21394E+00  9.03216E+00  1.06215E+01  9.89921E+00  1.20481E+01
   1.02592E+01  1.04194E+01  1.18308E+01  1.27471E+01  1.16557E+01  1.08678E+01  1.23479E+01  9.68578E+00  1.16645E+01  1.27204E+01
   1.20662E+01  1.21765E+01  1.19857E+01  1.12216E+01  1.17567E+01  1.19307E+01  1.16191E+01  1.04740E+01  1.17399E+01  1.12751E+01
   1.21230E+01  1.00338E+01  1.17333E+01  1.03239E+01  1.08001E+01  1.20012E+01  1.05743E+01  1.07726E+01  9.35495E+00  1.05838E+01
   9.79366E+00  1.04196E+01  1.20247E+01  1.16759E+01  1.05660E+01  1.05157E+01  1.08063E+01  1.12279E+01  9.07745E+00  1.11150E+01
   9.69595E+00  1.06560E+01  1.15041E+01  9.24828E+00  8.55319E+00  9.16731E+00  8.98303E+00  9.83460E+00  9.81897E+00  9.07357E+00
   9.06977E+00  9.20693E+00  8.37575E+00  9.74219E+00  8.85993E+00  9.20555E+00  9.14552E+00  9.89941E+00  9.50850E+00  9.41010E+00
   8.51182E+00  8.21547E+00  7.55307E+00  9.47561E+00  7.50963E+00  7.79751E+00  8.11969E+00  8.89965E+00  6.65080E+00  6.10390E+00
   6.58202E+00  7.44258E+00  7.35687E+00  7.68712E+00  6.78331E+00  6.52983E+00  6.56292E+00  6.32999E+00  6.90108E+00  6.56182E+00
   5.79806E+00  6.43947E+00  5.98196E+00  6.30995E+00  6.37880E+00  5.68479E+00  6.51121E+00  5.33189E+00  6.00309E+00  6.33051E+00
   4.62825E+00  4.40224E+00  6.21188E+00  3.82689E+00  6.40927E+00  2.91146E+00  5.30654E+00  6.60624E+00  5.15755E+00  3.63486E+00
   5.15045E+00  5.10419E+00  5.36680E+00  4.00354E+00  5.02987E+00  5.44994E+00  6.13150E+00  5.56311E+00  5.04429E+00  4.37525E+00
   5.12308E+00  4.91557E+00  3.71776E+00  5.58626E+00  4.19436E+00  6.45317E+00  4.45868E+00  5.83173E+00  5.37710E+00  6.01826E+00
   6.09771E+00  4.41922E+00  5.27322E+00  6.37915E+00  7.21622E+00  7.14272E+00  6.50517E+00  5.06961E+00  5.75500E+00  6.88839E+00
   4.81301E+00  6.52957E+00  5.30935E+00  5.27565E+00  5.58678E+00  5.49939E+00  4.86035E+00  6.36749E+00  6.10554E+00  6.36086E+00
   4.52012E+00  7.54020E+00  7.05375E+00  7.16523E+00  6.81580E+00  7.90269E+00  8.07059E+00  7.13944E+00  7.64806E+00  8.97109E+00
   7.42570E+00  8.83887E+00  8.53071E+00  8.64685E+00  9.50491E+00  9.42792E+00  9.69009E+00  9.95363E+00  1.15555E+01  1.12434E+01
   1.20240E+01  1.29270E+01  1.42020E+01  1.42917E+01  1.47075E+01  1.37820E+01  1.42697E+01  1.73895E+01  1.77024E+01  1.70359E+01
   1.92413E+01  1.91639E+01  1.87162E+01  1.97600E+01  2.02667E+01  2.11493E+01  2.21251E+01  2.22866E+01  2.28777E+01  2.39318E+01
   2.50423E+01  2.50743E+01  2.52426E+01  2.73952E+01  2.73226E+01  2.69557E+01  2.73951E+01  2.70226E+01  2.75522E+01  2.78214E+01
   2.76354E+01  2.90674E+01  3.11685E+01  2.89155E+01  2.84148E+01  3.01541E+01  2.97528E+01  3.02131E+01  3.07811E+01  2.93250E+01
   3.05505E+01  3.16590E+01  3.25837E+01  3.31801E+01  3.33219E+01  3.34253E+01  3.52029E+01  3.30164E+01  3.46115E+01  3.35083E+01
   3.38158E+01  3.47951E+01  3.18989E+01  3.46470E+01  3.49332E+01  3.35967E+01  3.42069E+01  3.38210E+01  3.44564E+01  3.52828E+01
   3.53252E+01  3.73140E+01  3.50317E+01  3.52033E+01  3.65008E+01  3.58035E+01  3.61428E+01  3.60290E+01  3.52322E+01  3.51821E+01
   3.49478E+01  3.61413E+01  3.71829E+01  3.46345E+01  3.39496E+01  3.37783E+01  3.41500E+01  3.41389E+01  3.41605E+01  3.56920E+01
   3.45519E+01  3.47586E+01  3.39637E+01  3.35676E+01  3.39644E+01  3.20673E+01  3.31871E+01  3.34608E+01  3.23162E+01  3.25989E+01
   3.18049E+01  3.08436E+01  3.04615E+01  2.92631E+01  2.94389E+01  3.00056E+01  2.90189E+01  2.90513E+01  2.96481E+01  2.83329E+01
   2.74310E+01  2.93501E+01  2.81744E+01  2.81506E+01  2.84674E+01  2.76773E+01  2.60221E+01  2.57783E+01  2.52996E+01  2.57727E+01
   2.32632E+01  2.50631E+01  2.43632E+01  2.35581E+01  2.33300E+01  2.33535E+01  2.23270E+01  2.40326E+01  2.43669E+01  2.42843E+01
   2.42928E+01  2.42237E+01  2.29926E+01  2.32795E+01  2.43867E+01  2.16325E+01  2.17298E+01  2.06344E+01  2.14768E+01  2.22856E+01
   2.05813E+01  2.02772E+01  1.91786E+01  1.86861E+01  1.98657E+01  1.97600E+01  1.71349E+01  1.79320E+01  2.04326E+01  1.78704E+01
   1.85587E+01  1.69974E+01  1.81328E+01  1.80848E+01  1.68384E+01  1.76884E+01  1.88556E+01  1.75531E+01  1.76292E+01  1.64217E+01
   1.81322E+01  1.71553E+01  1.69399E+01  1.66435E+01  1.75370E+01  1.46852E+01  1.49919E+01  1.71816E+01  1.48944E+01  1.34018E+01
   1.36917E+01  1.31562E+01  1.42515E+01  1.43109E+01  1.26658E+01  1.29998E+01  1.24061E+01  1.31039E+01  1.18808E+01  1.12533E+01
   1.31150E+01  1.22526E+01  1.15552E+01  1.28063E+01  1.30809E+01  1.22132E+01  1.26968E+01  1.20462E+01  1.24318E+01  1.22236E+01
   1.29601E+01  1.20018E+01  1.10340E+01  1.02624E+01  9.58403E+00  1.06949E+01  1.09361E+01  1.09376E+01  9.56146E+00  1.13600E+01
   1.06881E+01  9.70968E+00  8.89305E+00  9.44038E+00  9.94544E+00  8.78891E+00  8.78710E+00  7.66743E+00  9.22821E+00  8.68656E+00
   9.86659E+00  8.19266E+00  7.44376E+00  8.08977E+00  9.05529E+00  8.34836E+00  7.63016E+00  6.93992E+00  8.60263E+00  7.79676E+00
   8.53034E+00  7.52062E+00  7.51774E+00  6.58781E+00  7.51542E+00  6.82112E+00  7.51257E+00  8.18571E+00  7.67869E+00  7.17030E+00
   7.41264E+00  6.81118E+00  7.65765E+00  6.10404E+00  5.42194E+00  5.72535E+00  4.63663E+00  4.01099E+00  4.63603E+00  4.58010E+00
   5.25450E+00  5.57031E+00  6.50545E+00  4.62847E+00  5.82129E+00  4.72627E+00  3.95508E+00  4.05203E+00  5.06789E+00  4.48973E+00
   3.73966E+00  5.33667E+00  3.95443E+00  3.48416E+00  3.83823E+00  4.70534E+00  3.88871E+00  4.08181E+00  2.88642E+00  4.35825E+00
   4.68952E+00  3.04024E+00  4.81373E+00  3.17199E+00  3.60256E+00  3.50184E+00  3.65937E+00  3.26426E+00  3.07784E+00  1.83504E+00
   2.38222E+00  3.22707E+00  3.20633E+00  2.25189E+00  2.31819E+00  3.00278E+00  2.48055E+00  2.28998E+00  1.57254E+00  2.48594E+00
   1.52130E+00  3.84074E+00  2.10914E+00  2.04742E+00  8.20442E-01  1.40661E+00 -4.45168E-01  5.34542E-01
 NY points of the fit to the data follow
  -1.13686E+01 -1.04005E+01 -1.02416E+01 -9.41425E+00 -9.17127E+00 -8.44833E+00 -8.22714E+00 -7.62145E+00 -7.30090E+00 -6.69884E+00
  -6.20364E+00 -5.62639E+00 -5.00864E+00 -4.48326E+00 -4.01153E+00 -3.50690E+00 -3.15778E+00 -2.48906E+00 -2.03189E+00 -1.19257E+00
  -7.13313E-01  8.34450E-02  3.56467E-01  9.84167E-01  1.15382E+00  1.80938E+00  2.16873E+00  2.88228E+00  3.44625E+00  3.88669E+00
   4.43579E+00  4.58220E+00  5.14343E+00  5.17270E+00  5.98363E+00  5.95033E+00  6.75093E+00  6.57411E+00  7.37619E+00  7.13799E+00
   7.82847E+00  7.69596E+00  8.37743E+00  8.25876E+00  8.71810E+00  8.73947E+00  9.18625E+00  9.32243E+00  9.53109E+00  9.64828E+00
   9.64082E+00  9.68200E+00  9.52257E+00  9.77277E+00  9.95477E+00  1.02226E+01  1.03878E+01  1.04908E+01  1.05279E+01  1.03825E+01
   1.03100E+01  1.02475E+01  1.02723E+01  1.02553E+01  1.03161E+01  1.03117E+01  1.03942E+01  1.03929E+01  1.05053E+01  1.05626E+01
   1.07309E+01  1.07872E+01  1.09267E+01  1.09514E+01  1.10635E+01  1.10574E+01  1.11362E+01  1.11051E+01  1.11608E+01  1.11054E+01
   1.11332E+01  1.10678E+01  1.10933E+01  1.10041E+01  1.10096E+01  1.08858E+01  1.08791E+01  1.07310E+01  1.07181E+01  1.05613E+01
   1.05437E+01  1.03961E+01  1.03769E+01  1.02450E+01  1.02292E+01  1.01161E+01  1.00931E+01  1.00018E+01  9.96739E+00  9.90125E+00
   9.85161E+00  9.80353E+00  9.73710E+00  9.70069E+00  9.62663E+00  9.60161E+00  9.52291E+00  9.50513E+00  9.43097E+00  9.40028E+00
   9.32187E+00  9.27551E+00  9.20681E+00  9.15673E+00  9.09945E+00  9.04592E+00  9.00342E+00  8.94883E+00  8.91744E+00  8.86180E+00
   8.82655E+00  8.76685E+00  8.72174E+00  8.65660E+00  8.60469E+00  8.53963E+00  8.47421E+00  8.40411E+00  8.32842E+00  8.24888E+00
   8.16366E+00  8.07287E+00  7.97741E+00  7.87531E+00  7.76964E+00  7.65746E+00  7.54339E+00  7.42308E+00  7.30202E+00  7.17611E+00
   7.04955E+00  6.92048E+00  6.79163E+00  6.66310E+00  6.53596E+00  6.41071E+00  6.28778E+00  6.16775E+00  6.05084E+00  5.93832E+00
   5.82925E+00  5.72517E+00  5.62604E+00  5.53185E+00  5.44152E+00  5.35632E+00  5.27275E+00  5.19572E+00  5.12104E+00  5.05375E+00
   4.98847E+00  4.93134E+00  4.87392E+00  4.82575E+00  4.77549E+00  4.73676E+00  4.69411E+00  4.66403E+00  4.63124E+00  4.60918E+00
   4.58577E+00  4.57308E+00  4.55941E+00  4.55812E+00  4.55663E+00  4.57222E+00  4.61490E+00  4.65181E+00  4.78362E+00  4.86469E+00
   5.05371E+00  5.17313E+00  5.34733E+00  5.41546E+00  5.47288E+00  5.44517E+00  5.39720E+00  5.28682E+00  5.17613E+00  5.08959E+00
   4.93942E+00  5.04152E+00  5.09514E+00  5.34498E+00  5.52578E+00  5.83700E+00  5.89894E+00  6.29277E+00  6.18201E+00  6.74416E+00
   6.55092E+00  7.34042E+00  7.11855E+00  7.99817E+00  7.64749E+00  8.52626E+00  7.85812E+00  8.78046E+00  8.20373E+00  9.05460E+00
   8.60183E+00  9.32037E+00  9.02654E+00  9.60988E+00  9.68176E+00  1.01507E+01  1.04371E+01  1.07747E+01  1.14509E+01  1.16148E+01
   1.24811E+01  1.26125E+01  1.37257E+01  1.37990E+01  1.47841E+01  1.50303E+01  1.60317E+01  1.67431E+01  1.76204E+01  1.85677E+01
   1.92344E+01  2.00985E+01  1.98493E+01  2.07200E+01  2.05285E+01  2.16102E+01  2.15358E+01  2.26410E+01  2.28796E+01  2.36974E+01
   2.42515E+01  2.47817E+01  2.55408E+01  2.57005E+01  2.65355E+01  2.60595E+01  2.70047E+01  2.63736E+01  2.75847E+01  2.68822E+01
   2.82093E+01  2.75627E+01  2.88953E+01  2.82301E+01  2.95004E+01  2.90836E+01  3.02954E+01  3.00194E+01  3.08467E+01  3.06949E+01
   3.13151E+01  3.13891E+01  3.19421E+01  3.24030E+01  3.28655E+01  3.31998E+01  3.35317E+01  3.37851E+01  3.38806E+01  3.40317E+01
   3.40431E+01  3.41530E+01  3.40373E+01  3.41460E+01  3.40294E+01  3.41977E+01  3.41265E+01  3.43519E+01  3.43542E+01  3.45683E+01
   3.45670E+01  3.46887E+01  3.47215E+01  3.48411E+01  3.49132E+01  3.50112E+01  3.51161E+01  3.51726E+01  3.52541E+01  3.52809E+01
   3.53239E+01  3.53026E+01  3.52927E+01  3.52153E+01  3.51325E+01  3.50025E+01  3.48711E+01  3.47021E+01  3.45257E+01  3.43219E+01
   3.41086E+01  3.38780E+01  3.36333E+01  3.33770E+01  3.31114E+01  3.28393E+01  3.25618E+01  3.22805E+01  3.19969E+01  3.17114E+01
   3.14243E+01  3.11359E+01  3.08479E+01  3.05581E+01  3.02694E+01  2.99793E+01  2.96901E+01  2.93999E+01  2.91104E+01  2.88201E+01
   2.85303E+01  2.82396E+01  2.79491E+01  2.76576E+01  2.73652E+01  2.70709E+01  2.67728E+01  2.64660E+01  2.61267E+01  2.56737E+01
   2.52722E+01  2.48117E+01  2.44203E+01  2.41513E+01  2.38482E+01  2.37929E+01  2.36566E+01  2.36121E+01  2.34997E+01  2.34006E+01
   2.32289E+01  2.32197E+01  2.30880E+01  2.31713E+01  2.31019E+01  2.29237E+01  2.27901E+01  2.23244E+01  2.20862E+01  2.15219E+01
   2.12702E+01  2.05585E+01  2.05025E+01  1.97790E+01  1.99027E+01  1.91171E+01  1.93305E+01  1.87413E+01  1.91775E+01  1.84906E+01
   1.88883E+01  1.83096E+01  1.86944E+01  1.80642E+01  1.82756E+01  1.76844E+01  1.78678E+01  1.72678E+01  1.73061E+01  1.71043E+01
   1.72003E+01  1.69283E+01  1.69205E+01  1.65570E+01  1.63990E+01  1.58650E+01  1.53565E+01  1.49142E+01  1.45197E+01  1.41632E+01
   1.38394E+01  1.35457E+01  1.32806E+01  1.30432E+01  1.28330E+01  1.26494E+01  1.24919E+01  1.23593E+01  1.22504E+01  1.21636E+01
   1.20968E+01  1.20477E+01  1.20134E+01  1.19910E+01  1.19772E+01  1.19688E+01  1.19623E+01  1.19546E+01  1.19426E+01  1.19236E+01
   1.18949E+01  1.18546E+01  1.18011E+01  1.17332E+01  1.16504E+01  1.15525E+01  1.14398E+01  1.13131E+01  1.11733E+01  1.10218E+01
   1.08598E+01  1.06891E+01  1.05112E+01  1.03277E+01  1.01402E+01  9.95010E+00  9.75873E+00  9.56730E+00  9.37683E+00  9.18822E+00
   9.00219E+00  8.81934E+00  8.64011E+00  8.46487E+00  8.29386E+00  8.12722E+00  7.96504E+00  7.80732E+00  7.65404E+00  7.50512E+00
   7.36047E+00  7.21996E+00  7.08346E+00  6.95079E+00  6.82182E+00  6.69638E+00  6.57432E+00  6.45547E+00  6.33966E+00  6.22676E+00
   6.11662E+00  6.00909E+00  5.90402E+00  5.80130E+00  5.70078E+00  5.60236E+00  5.50591E+00  5.41133E+00  5.31849E+00  5.22732E+00
   5.13769E+00  5.04955E+00  4.96277E+00  4.87729E+00  4.79302E+00  4.70989E+00  4.62782E+00  4.54676E+00  4.46662E+00  4.38735E+00
   4.30889E+00  4.23118E+00  4.15418E+00  4.07782E+00  4.00207E+00  3.92687E+00  3.85219E+00  3.77798E+00  3.70421E+00  3.63084E+00
   3.55785E+00  3.48518E+00  3.41284E+00  3.34077E+00  3.26896E+00  3.19739E+00  3.12604E+00  3.05487E+00  2.98389E+00  2.91306E+00
   2.84239E+00  2.77186E+00  2.70145E+00  2.63115E+00  2.56096E+00  2.49087E+00  2.42088E+00  2.35098E+00  2.28117E+00  2.21145E+00
   2.14183E+00  2.07232E+00  2.00291E+00  1.93363E+00  1.86449E+00  1.79552E+00  1.72677E+00  1.65831E+00
 NY background values follow
    -1.327E+01   -1.267E+01   -1.208E+01   -1.150E+01   -1.093E+01   -1.036E+01   -9.804E+00   -9.255E+00   -8.714E+00   -8.182E+00
    -7.658E+00   -7.143E+00   -6.636E+00   -6.137E+00   -5.646E+00   -5.164E+00   -4.690E+00   -4.224E+00   -3.767E+00   -3.317E+00
    -2.876E+00   -2.443E+00   -2.017E+00   -1.600E+00   -1.191E+00   -7.902E-01   -3.970E-01   -1.182E-02    3.655E-01    7.350E-01
     1.097E+00    1.450E+00    1.797E+00    2.135E+00    2.466E+00    2.789E+00    3.104E+00    3.412E+00    3.713E+00    4.006E+00
     4.292E+00    4.570E+00    4.841E+00    5.105E+00    5.361E+00    5.610E+00    5.852E+00    6.087E+00    6.316E+00    6.537E+00
     6.751E+00    6.958E+00    7.158E+00    7.352E+00    7.539E+00    7.719E+00    7.893E+00    8.060E+00    8.221E+00    8.375E+00
     8.523E+00    8.664E+00    8.799E+00    8.929E+00    9.051E+00    9.168E+00    9.279E+00    9.384E+00    9.483E+00    9.576E+00
     9.664E+00    9.745E+00    9.821E+00    9.892E+00    9.957E+00    1.002E+01    1.007E+01    1.012E+01    1.016E+01    1.020E+01
     1.024E+01    1.026E+01    1.029E+01    1.031E+01    1.032E+01    1.033E+01    1.033E+01    1.033E+01    1.033E+01    1.032E+01
     1.030E+01    1.029E+01    1.026E+01    1.024E+01    1.021E+01    1.017E+01    1.013E+01    1.009E+01    1.005E+01    9.996E+00
     9.942E+00    9.885E+00    9.825E+00    9.761E+00    9.694E+00    9.624E+00    9.552E+00    9.476E+00    9.398E+00    9.318E+00
     9.235E+00    9.150E+00    9.063E+00    8.975E+00    8.884E+00    8.792E+00    8.699E+00    8.604E+00    8.508E+00    8.411E+00
     8.313E+00    8.215E+00    8.116E+00    8.016E+00    7.916E+00    7.816E+00    7.715E+00    7.615E+00    7.515E+00    7.415E+00
     7.316E+00    7.218E+00    7.120E+00    7.023E+00    6.927E+00    6.832E+00    6.739E+00    6.647E+00    6.556E+00    6.467E+00
     6.380E+00    6.295E+00    6.212E+00    6.131E+00    6.053E+00    5.976E+00    5.903E+00    5.832E+00    5.764E+00    5.699E+00
     5.637E+00    5.579E+00    5.523E+00    5.471E+00    5.423E+00    5.379E+00    5.338E+00    5.301E+00    5.268E+00    5.239E+00
     5.215E+00    5.195E+00    5.179E+00    5.169E+00    5.163E+00    5.161E+00    5.165E+00    5.174E+00    5.188E+00    5.207E+00
     5.232E+00    5.262E+00    5.297E+00    5.339E+00    5.386E+00    5.439E+00    5.498E+00    5.564E+00    5.635E+00    5.713E+00
     5.797E+00    5.887E+00    5.985E+00    6.088E+00    6.199E+00    6.316E+00    6.441E+00    6.572E+00    6.711E+00    6.856E+00
     7.009E+00    7.170E+00    7.337E+00    7.512E+00    7.695E+00    7.886E+00    8.084E+00    8.290E+00    8.503E+00    8.725E+00
     8.955E+00    9.192E+00    9.437E+00    9.688E+00    9.947E+00    1.021E+01    1.048E+01    1.076E+01    1.104E+01    1.133E+01
     1.163E+01    1.193E+01    1.223E+01    1.254E+01    1.285E+01    1.317E+01    1.349E+01    1.381E+01    1.414E+01    1.447E+01
     1.480E+01    1.514E+01    1.548E+01    1.582E+01    1.616E+01    1.650E+01    1.684E+01    1.719E+01    1.753E+01    1.788E+01
     1.823E+01    1.857E+01    1.892E+01    1.927E+01    1.961E+01    1.996E+01    2.030E+01    2.064E+01    2.098E+01    2.132E+01
     2.166E+01    2.199E+01    2.233E+01    2.266E+01    2.298E+01    2.331E+01    2.363E+01    2.395E+01    2.426E+01    2.457E+01
     2.488E+01    2.518E+01    2.548E+01    2.577E+01    2.606E+01    2.634E+01    2.662E+01    2.690E+01    2.716E+01    2.743E+01
     2.768E+01    2.793E+01    2.818E+01    2.842E+01    2.865E+01    2.887E+01    2.909E+01    2.930E+01    2.951E+01    2.970E+01
     2.989E+01    3.007E+01    3.025E+01    3.042E+01    3.057E+01    3.073E+01    3.087E+01    3.100E+01    3.113E+01    3.124E+01
     3.135E+01    3.145E+01    3.154E+01    3.163E+01    3.170E+01    3.176E+01    3.182E+01    3.186E+01    3.190E+01    3.192E+01
     3.194E+01    3.194E+01    3.194E+01    3.193E+01    3.190E+01    3.187E+01    3.183E+01    3.177E+01    3.171E+01    3.163E+01
     3.155E+01    3.146E+01    3.135E+01    3.124E+01    3.112E+01    3.098E+01    3.084E+01    3.070E+01    3.054E+01    3.038E+01
     3.020E+01    3.002E+01    2.984E+01    2.964E+01    2.944E+01    2.924E+01    2.902E+01    2.880E+01    2.858E+01    2.835E+01
     2.811E+01    2.787E+01    2.762E+01    2.737E+01    2.712E+01    2.686E+01    2.660E+01    2.633E+01    2.606E+01    2.578E+01
     2.550E+01    2.522E+01    2.494E+01    2.465E+01    2.436E+01    2.407E+01    2.378E+01    2.348E+01    2.318E+01    2.288E+01
     2.258E+01    2.228E+01    2.198E+01    2.168E+01    2.137E+01    2.107E+01    2.076E+01    2.046E+01    2.015E+01    1.985E+01
     1.954E+01    1.924E+01    1.893E+01    1.863E+01    1.833E+01    1.802E+01    1.772E+01    1.742E+01    1.713E+01    1.683E+01
     1.654E+01    1.624E+01    1.595E+01    1.566E+01    1.537E+01    1.509E+01    1.481E+01    1.453E+01    1.425E+01    1.398E+01
     1.370E+01    1.343E+01    1.317E+01    1.291E+01    1.265E+01    1.239E+01    1.214E+01    1.189E+01    1.164E+01    1.140E+01
     1.116E+01    1.092E+01    1.069E+01    1.046E+01    1.024E+01    1.002E+01    9.799E+00    9.587E+00    9.379E+00    9.175E+00
     8.975E+00    8.779E+00    8.587E+00    8.400E+00    8.217E+00    8.039E+00    7.864E+00    7.694E+00    7.529E+00    7.368E+00
     7.211E+00    7.058E+00    6.909E+00    6.765E+00    6.624E+00    6.486E+00    6.353E+00    6.223E+00    6.096E+00    5.973E+00
     5.853E+00    5.736E+00    5.622E+00    5.511E+00    5.403E+00    5.298E+00    5.196E+00    5.096E+00    4.999E+00    4.904E+00
     4.811E+00    4.721E+00    4.633E+00    4.547E+00    4.463E+00    4.381E+00    4.301E+00    4.223E+00    4.147E+00    4.072E+00
     3.999E+00    3.928E+00    3.857E+00    3.789E+00    3.722E+00    3.655E+00    3.591E+00    3.527E+00    3.464E+00    3.403E+00
     3.343E+00    3.283E+00    3.224E+00    3.166E+00    3.109E+00    3.053E+00    2.997E+00    2.942E+00    2.888E+00    2.834E+00
     2.781E+00    2.728E+00    2.675E+00    2.623E+00    2.572E+00    2.520E+00    2.469E+00    2.418E+00    2.368E+00    2.317E+00
     2.267E+00    2.217E+00    2.167E+00    2.117E+00    2.067E+00    2.017E+00    1.968E+00    1.918E+00    1.868E+00    1.819E+00
     1.769E+00    1.719E+00    1.669E+00    1.619E+00    1.569E+00    1.519E+00    1.469E+00    1.419E+00    1.369E+00    1.319E+00
     1.268E+00    1.218E+00    1.168E+00    1.117E+00    1.067E+00    1.016E+00    9.654E-01    9.147E-01    8.641E-01    8.135E-01
     7.630E-01    7.124E-01    6.620E-01    6.117E-01    5.615E-01    5.114E-01    4.615E-01    4.118E-01
 GABA     Conc. = 4.21E+00
