 LCModel (Version 6.3-1L) Copyright: S.W. Provencher.          Ref.: Magn. Reson. Med. 30:672-679 (1993).                
 Slice#1 Row#9 Col#9  PD_05_press_1_raw_act
 36 lines in following concentration table = NCONC+1
    Conc.  %SD /Cr+PCr  Metabolite                                         
   69.042  99%   0.103 Ala                                                 
    0.000 999%   0.000 Asp                                                 
    0.000 999%   0.000 Cr                                                  
  669.941   6%   1.000 PCr                                                 
   66.144 132% 9.9E-02 GABA                                                
   32.734 270% 4.9E-02 Glc                                                 
  481.676  29%   0.719 Gln                                                 
  829.465  19%   1.238 Glu                                                 
  306.248   5%   0.457 GPC                                                 
    0.000 999%   0.000 PCh                                                 
  190.418  26%   0.284 GSH                                                 
  758.142  21%   1.132 Ins                                                 
    0.000 999%   0.000 Lac                                                 
 1.35E+03   4%   2.008 NAA                                                 
  111.470  52%   0.166 NAAG                                                
   80.762  22%   0.121 Scyllo                                              
  141.118  86%   0.211 Tau                                                 
  233.817  28%   0.349 -CrCH2                                              
  306.248   5%   0.457 GPC+PCh                                             
 1.46E+03   4%   2.174 NAA+NAAG                                            
  669.941   6%   1.000 Cr+PCr                                              
 1.31E+03  16%   1.957 Glu+Gln                                             
  342.237  64%   0.511 Lip13a                                              
    0.000 999%   0.000 Lip13b                                              
    0.000 999%   0.000 Lip09                                               
 1.25E+03  11%   1.869 MM09                                                
   75.336 150%   0.112 Lip20                                               
 2.34E+03  11%   3.496 MM20                                                
  642.130  18%   0.958 MM12                                                
    0.000 999%   0.000 MM14                                                
  909.273  19%   1.357 MM17                                                
  342.237  64%   0.511 Lip13a+Lip13b                                       
  984.366  19%   1.469 MM14+Lip13a+Lip13b+MM12                             
 1.25E+03  11%   1.869 MM09+Lip09                                          
 2.42E+03  11%   3.608 MM20+Lip20                                          
   6 lines in following misc. output table
  FWHM = 0.038 ppm    S/N =  11                                            
  Data shift = 0.008 ppm                                                   
  Ph: -71 deg     -21.8 deg/ppm                                            
  alphaB,S = 8.5E+01,   1.2E+02                                            
   14 spline knots.   Ns = 5(1)                                            
   4 inflections.     1 extrema                                            
  498 points on ppm-axis = NY
      4.000000     3.992357     3.984714     3.977070     3.969427     3.961784     3.954141     3.946497     3.938854     3.931211
      3.923568     3.915925     3.908281     3.900638     3.892995     3.885352     3.877708     3.870065     3.862422     3.854779
      3.847136     3.839492     3.831849     3.824206     3.816563     3.808919     3.801276     3.793633     3.785990     3.778347
      3.770703     3.763060     3.755417     3.747774     3.740130     3.732487     3.724844     3.717201     3.709558     3.701914
      3.694271     3.686628     3.678985     3.671341     3.663698     3.656055     3.648412     3.640769     3.633125     3.625482
      3.617839     3.610196     3.602552     3.594909     3.587266     3.579623     3.571980     3.564336     3.556693     3.549050
      3.541407     3.533763     3.526120     3.518477     3.510834     3.503191     3.495547     3.487904     3.480261     3.472618
      3.464974     3.457331     3.449688     3.442045     3.434402     3.426758     3.419115     3.411472     3.403829     3.396185
      3.388542     3.380899     3.373256     3.365613     3.357969     3.350326     3.342683     3.335040     3.327396     3.319753
      3.312110     3.304467     3.296824     3.289180     3.281537     3.273894     3.266251     3.258607     3.250964     3.243321
      3.235678     3.228034     3.220391     3.212748     3.205105     3.197462     3.189818     3.182175     3.174532     3.166889
      3.159245     3.151602     3.143959     3.136316     3.128673     3.121029     3.113386     3.105743     3.098100     3.090456
      3.082813     3.075170     3.067527     3.059884     3.052240     3.044597     3.036954     3.029311     3.021667     3.014024
      3.006381     2.998738     2.991095     2.983451     2.975808     2.968165     2.960522     2.952878     2.945235     2.937592
      2.929949     2.922306     2.914662     2.907019     2.899376     2.891733     2.884089     2.876446     2.868803     2.861160
      2.853517     2.845873     2.838230     2.830587     2.822944     2.815300     2.807657     2.800014     2.792371     2.784728
      2.777084     2.769441     2.761798     2.754155     2.746511     2.738868     2.731225     2.723582     2.715939     2.708295
      2.700652     2.693009     2.685366     2.677722     2.670079     2.662436     2.654793     2.647150     2.639506     2.631863
      2.624220     2.616577     2.608933     2.601290     2.593647     2.586004     2.578361     2.570717     2.563074     2.555431
      2.547788     2.540144     2.532501     2.524858     2.517215     2.509572     2.501928     2.494285     2.486642     2.478999
      2.471355     2.463712     2.456069     2.448426     2.440783     2.433139     2.425496     2.417853     2.410210     2.402566
      2.394923     2.387280     2.379637     2.371994     2.364350     2.356707     2.349064     2.341421     2.333777     2.326134
      2.318491     2.310848     2.303205     2.295561     2.287918     2.280275     2.272632     2.264988     2.257345     2.249702
      2.242059     2.234416     2.226772     2.219129     2.211486     2.203843     2.196199     2.188556     2.180913     2.173270
      2.165627     2.157983     2.150340     2.142697     2.135054     2.127410     2.119767     2.112124     2.104481     2.096838
      2.089194     2.081551     2.073908     2.066265     2.058621     2.050978     2.043335     2.035692     2.028049     2.020405
      2.012762     2.005119     1.997476     1.989833     1.982190     1.974546     1.966903     1.959260     1.951617     1.943974
      1.936331     1.928688     1.921045     1.913402     1.905759     1.898115     1.890472     1.882829     1.875186     1.867543
      1.859900     1.852257     1.844614     1.836971     1.829327     1.821684     1.814041     1.806398     1.798755     1.791112
      1.783469     1.775826     1.768183     1.760540     1.752896     1.745253     1.737610     1.729967     1.722324     1.714681
      1.707038     1.699395     1.691752     1.684108     1.676465     1.668822     1.661179     1.653536     1.645893     1.638250
      1.630607     1.622964     1.615321     1.607677     1.600034     1.592391     1.584748     1.577105     1.569462     1.561819
      1.554176     1.546533     1.538890     1.531246     1.523603     1.515960     1.508317     1.500674     1.493031     1.485388
      1.477745     1.470102     1.462458     1.454815     1.447172     1.439529     1.431886     1.424243     1.416600     1.408957
      1.401314     1.393671     1.386027     1.378384     1.370741     1.363098     1.355455     1.347812     1.340169     1.332526
      1.324883     1.317240     1.309596     1.301953     1.294310     1.286667     1.279024     1.271381     1.263738     1.256095
      1.248452     1.240808     1.233165     1.225522     1.217879     1.210236     1.202593     1.194950     1.187307     1.179664
      1.172021     1.164377     1.156734     1.149091     1.141448     1.133805     1.126162     1.118519     1.110876     1.103233
      1.095590     1.087946     1.080303     1.072660     1.065017     1.057374     1.049731     1.042088     1.034445     1.026802
      1.019158     1.011515     1.003872     0.996229     0.988586     0.980943     0.973300     0.965657     0.958014     0.950371
      0.942727     0.935084     0.927441     0.919798     0.912155     0.904512     0.896869     0.889226     0.881583     0.873940
      0.866296     0.858653     0.851010     0.843367     0.835724     0.828081     0.820438     0.812795     0.805152     0.797508
      0.789865     0.782222     0.774579     0.766936     0.759293     0.751650     0.744007     0.736364     0.728721     0.721077
      0.713434     0.705791     0.698148     0.690505     0.682862     0.675219     0.667576     0.659933     0.652290     0.644646
      0.637003     0.629360     0.621717     0.614074     0.606431     0.598788     0.591145     0.583502     0.575858     0.568215
      0.560572     0.552929     0.545286     0.537643     0.530000     0.522357     0.514714     0.507071     0.499427     0.491784
      0.484141     0.476498     0.468855     0.461212     0.453569     0.445925     0.438282     0.430639     0.422996     0.415353
      0.407710     0.400067     0.392424     0.384780     0.377137     0.369494     0.361851     0.354208     0.346565     0.338922
      0.331278     0.323635     0.315992     0.308349     0.300706     0.293063     0.285420     0.277777     0.270133     0.262490
      0.254847     0.247204     0.239561     0.231918     0.224275     0.216631     0.208988     0.201345
 NY phased data points follow
  -6.05532E+00 -8.57209E+00 -8.53845E+00 -6.45174E+00 -5.80273E+00 -2.19683E+00 -3.01707E+00  6.06803E+00  4.10769E+00  1.14479E+01
   3.55324E+00  8.73994E+00  7.04659E+00 -8.89226E-01  2.67522E+00 -3.74411E+00 -1.36494E+00 -3.72960E+00 -2.01910E+00 -4.86168E+00
  -2.58826E+00 -4.53506E+00 -3.24532E+00 -3.81118E+00 -5.90869E+00 -2.02960E-01 -1.49312E+00 -9.39627E-01 -1.06612E+00 -2.03762E+00
   2.67335E+00 -2.86867E+00  1.50064E+00  5.58978E-01  1.65191E+00 -2.63862E+00 -2.36569E+00 -1.14753E-01 -2.56064E+00 -4.00143E+00
  -3.51341E+00 -4.99380E-01 -1.03298E+00  2.33122E+00  1.99571E+00  4.21764E+00  1.06109E+01  4.09001E+00  2.70939E+00  2.35013E+00
   1.68721E+00  4.05379E+00 -1.23184E+00 -1.16307E+00  6.10287E+00 -3.94859E+00  1.81203E+00 -8.44385E-01  5.41069E-01  2.13847E-01
  -2.45487E+00 -3.88979E+00  2.94853E+00 -1.30411E+00 -4.57508E+00 -7.84577E+00 -3.51872E+00 -5.58450E+00 -6.60306E+00 -5.47734E+00
  -3.58194E+00 -1.94902E+00  3.71092E-01 -5.35182E+00 -2.15813E+00 -2.23474E+00 -6.70651E-01 -5.52235E+00 -7.56678E-01 -3.67009E+00
  -3.75914E-01 -6.41515E-01 -1.12437E-01  1.77555E+00  1.58393E+00 -1.25740E+00 -6.96079E-01 -3.30242E-01 -2.23701E-01 -1.33778E+00
   3.81337E+00  7.75017E+00  1.47798E+00  4.79795E+00 -1.75491E+00  1.13528E+00 -1.44338E+00 -4.28654E-01  1.45692E+00  6.52923E+00
   1.75429E+01  2.66582E+01  3.46343E+01  2.95153E+01  2.34238E+01  1.62820E+01  1.71951E+01  1.30885E+01  5.61317E+00  4.30657E+00
   3.65743E+00  1.74426E+00  3.71599E-01  1.43030E+00 -1.86601E-01 -2.22344E+00  8.48642E-01  2.19213E+00  7.65799E-01  1.44352E+00
   1.13618E-01 -4.28703E+00  2.29028E-01  6.05395E+00  8.59192E+00  2.39897E+01  2.45725E+01  2.71681E+01  2.65515E+01  1.74029E+01
   1.35070E+01  1.03078E+01  7.22294E+00  5.57797E+00  3.31243E+00  1.24967E+00 -1.97274E+00 -5.89752E+00 -2.01983E+00  2.90966E+00
   5.87149E-01 -3.33853E-01 -5.34568E-01 -1.72093E+00 -6.24343E-01 -9.33368E-01 -6.06639E-01  1.24912E+00  5.53641E-01  1.82421E+00
  -1.37975E+00 -5.63960E-01 -2.52504E+00  1.18423E-01 -5.28023E-01  4.02350E-01 -8.78261E-02 -5.91150E-01 -8.20123E-01 -2.23885E+00
  -2.74520E+00 -1.77036E+00 -4.21058E+00  3.75721E+00  1.30793E+00  6.66814E-01 -1.51599E+00  8.91131E-01 -4.94339E+00 -1.15696E+00
  -4.34278E+00 -3.82091E+00 -5.02988E+00 -5.86031E+00 -8.38082E+00 -1.08075E+01 -7.23878E+00 -6.70520E+00 -4.44459E+00 -3.36942E+00
  -6.17489E+00 -6.58185E+00 -7.58492E+00 -5.62112E+00 -3.90121E+00 -6.51232E+00 -3.33243E+00 -1.79810E+00  9.92383E-01 -2.50648E+00
   2.91592E+00  3.93278E+00  4.62001E-01  4.32127E-02 -2.11348E+00 -1.06078E+00 -7.11391E+00 -4.10688E+00 -8.98604E+00 -3.35894E+00
  -3.66261E-01  1.68279E+00  2.03484E+00  6.03261E-01  5.97263E+00  3.27304E+00  2.31750E+00  2.64088E-01 -2.59594E+00  3.92264E-01
  -8.95904E-01 -3.58061E-02 -3.61733E+00  7.36390E+00  5.15394E+00  9.80277E+00  1.00107E+01  7.87729E+00  7.89681E+00  1.46587E+00
  -1.21297E+00  4.78951E-01 -1.71046E+00 -1.57674E+00  4.28110E+00  7.64646E+00  4.43740E+00  3.95572E+00  3.45718E+00  6.17178E+00
   6.25290E+00  6.02796E+00  9.73232E+00  6.55700E+00  6.20963E+00  5.65729E+00  8.11644E+00  1.08997E+01  9.75233E+00  5.18470E+00
   7.23890E+00  3.50602E+00  2.10436E+00  6.59006E+00  2.16078E+00  4.69491E+00  7.12508E+00  7.02439E+00  7.12736E+00  1.02944E+01
   1.49836E+01  9.29079E+00  1.49795E+01  1.40680E+01  1.78954E+01  1.74416E+01  2.11931E+01  2.96427E+01  4.17703E+01  5.92398E+01
   7.04561E+01  6.57748E+01  4.95493E+01  3.05933E+01  2.33647E+01  2.74777E+01  1.89733E+01  1.71669E+01  9.01408E+00  5.62552E+00
   4.62883E+00  4.45407E+00  2.32215E+00  5.28680E+00  8.97440E+00  5.76532E+00  2.76549E+00  3.24555E+00  7.39504E+00  3.09671E+00
   6.99371E+00  6.36019E+00  3.00654E+00  4.79881E+00  7.26663E+00  3.83483E+00  9.03049E+00  6.99555E+00  5.74447E+00  4.31193E+00
   6.70277E+00  2.04294E+00  6.66078E+00  8.14357E+00  7.20963E+00  3.96003E+00  7.95792E+00  7.05028E+00  8.10292E+00  3.81568E+00
   7.50181E+00  5.60750E+00  3.73477E+00  6.10431E+00  4.98557E-01  3.67250E+00  1.02919E+01  6.40475E+00  4.46458E+00  6.16870E+00
   7.32148E-01  8.45022E+00  7.57793E+00  4.36334E+00  8.88599E+00  4.92509E+00  6.43432E+00  7.36249E+00  4.23853E+00  6.85402E+00
   4.70440E+00  1.10784E+01  3.36643E+00  4.49245E+00  5.31855E+00  7.01779E+00  7.40379E+00  5.32550E+00 -6.19739E-01  3.15634E+00
   3.65691E+00  4.65993E+00  3.72493E+00 -5.39483E-02  2.86475E+00  2.58258E+00  3.41659E+00  5.73149E+00  3.24902E+00  3.88085E+00
   3.00850E-01  3.99947E+00  1.13075E+00  3.71219E+00  4.83151E+00  3.38526E-01  2.25860E+00  4.31090E+00  1.72418E+00  3.74995E+00
   3.20587E+00  6.30583E+00  5.88682E+00  8.17846E+00  8.32472E+00  3.06433E+00  5.46124E+00  5.26802E+00  5.23616E+00  9.62747E+00
   9.04829E+00  8.96265E+00  8.58729E+00  1.04769E+01  1.20167E+01  1.06615E+01  9.19380E+00  1.03607E+01  9.09289E+00  7.36652E+00
   1.10006E+01  9.33134E+00  1.00974E+01  9.53392E+00  6.58301E+00  7.87918E+00  1.47200E+01  9.85661E+00  1.02089E+01  7.07141E+00
   5.62898E+00  7.31113E+00  9.06003E+00  7.60440E+00  7.65065E+00  5.03773E+00  6.92836E+00  8.06991E+00  3.19164E+00  9.45642E+00
   4.95804E+00  1.11185E+01  6.50085E+00  4.43166E+00  7.55637E+00  1.00666E+01  7.25448E+00  8.27829E+00  7.30698E+00  8.93147E+00
   7.12648E+00  1.12786E+01  1.06826E+01  1.23268E+01  9.85368E+00  1.04295E+01  8.45883E+00  1.13218E+01  1.17887E+01  1.12693E+01
   1.24301E+01  1.16428E+01  1.09874E+01  1.52425E+01  1.02851E+01  1.14089E+01  5.61613E+00  1.15404E+01  9.73375E+00  4.85075E+00
   7.33505E+00  5.12325E+00  6.09015E+00  7.81276E+00  8.52389E+00  6.50127E+00  1.17830E+01  8.30923E+00  6.59450E+00  1.96417E+00
   8.41418E+00  3.75502E+00  5.74374E+00  3.16561E+00  7.32795E+00  7.22018E+00  4.20141E+00  3.76530E+00  1.99078E+00  4.13592E+00
   4.86861E+00  4.66085E+00  4.42587E+00  5.69040E+00  5.23671E+00  3.94497E+00  5.10485E+00  1.98968E+00  5.94102E+00  6.28006E+00
   3.40118E+00  6.41389E+00  4.74924E+00  6.65319E+00  1.29343E+00  5.33691E+00  5.22899E+00  3.56284E+00  4.65080E+00  3.81293E+00
   3.66806E+00  5.00948E+00  5.33177E+00  2.01887E+00  2.80325E+00  3.01534E+00  1.14615E+00  4.31192E+00  6.67315E+00  1.03858E+00
  -4.69866E-01  5.06059E+00  3.91752E+00  2.21863E+00  2.33967E+00  2.04843E+00  6.70206E+00  6.93758E+00  5.69636E+00  7.03309E-01
   3.98389E+00  7.01210E+00  5.43523E+00  8.61181E+00  1.99402E+00  1.24620E+00  4.18255E+00  4.28783E+00  6.10975E+00  6.84510E+00
   6.23107E+00  5.03420E+00  4.73812E+00  6.31797E+00  5.43609E+00  6.46028E+00  3.35015E+00  5.45271E+00
 NY points of the fit to the data follow
  -4.76439E+00 -4.99409E+00 -5.05947E+00 -4.93928E+00 -4.39247E+00 -2.72068E+00  1.17359E-01  3.62908E+00  6.77773E+00  8.39469E+00
   7.99423E+00  6.17131E+00  4.11157E+00  2.56078E+00  1.34262E+00 -1.38470E-02 -1.22998E+00 -1.74538E+00 -2.00377E+00 -2.15176E+00
  -2.20708E+00 -2.25760E+00 -2.37314E+00 -2.62673E+00 -3.00443E+00 -3.21204E+00 -3.01772E+00 -2.22611E+00 -8.45866E-01  7.78827E-01
   2.18673E+00  3.02350E+00  3.24966E+00  2.88589E+00  1.92417E+00  4.43292E-01 -1.16602E+00 -2.34199E+00 -3.02276E+00 -3.22138E+00
  -3.03176E+00 -2.52197E+00 -1.54856E+00 -5.90624E-02  1.81189E+00  3.59634E+00  4.62693E+00  4.48515E+00  3.29569E+00  1.68745E+00
   2.95276E-01 -7.73686E-01 -1.70450E+00 -2.42399E+00 -2.66135E+00 -2.42497E+00 -1.89635E+00 -1.22111E+00 -6.09174E-01 -3.08554E-01
  -4.75465E-01 -1.03336E+00 -1.69346E+00 -2.20896E+00 -2.49179E+00 -2.57617E+00 -2.48146E+00 -2.25850E+00 -1.95079E+00 -1.62658E+00
  -1.34190E+00 -1.11553E+00 -9.80308E-01 -9.31954E-01 -9.56660E-01 -1.11046E+00 -1.41772E+00 -1.84863E+00 -2.23252E+00 -2.42540E+00
  -2.43419E+00 -2.24392E+00 -1.64188E+00 -6.54903E-01  4.30492E-01  1.21459E+00  1.34228E+00  7.58329E-01 -1.84865E-01 -9.98849E-01
  -1.48376E+00 -1.81267E+00 -2.23532E+00 -2.66820E+00 -2.84214E+00 -2.89813E+00 -2.83154E+00 -1.97262E+00  1.54150E+00  8.42047E+00
   1.75597E+01  2.62961E+01  3.13761E+01  3.09977E+01  2.61308E+01  1.97803E+01  1.44282E+01  1.02199E+01  6.11210E+00  2.35940E+00
   4.59386E-01 -2.16754E-01 -5.49730E-01 -7.54110E-01 -9.04452E-01 -1.02377E+00 -1.13536E+00 -1.24488E+00 -1.34219E+00 -1.39587E+00
  -1.34421E+00 -9.40756E-01  1.02525E+00  5.66839E+00  1.25388E+01  1.99357E+01  2.52809E+01  2.65417E+01  2.37791E+01  1.90765E+01
   1.46996E+01  1.12996E+01  7.99103E+00  4.33793E+00  1.63597E+00  3.91005E-01 -1.63510E-01 -2.25670E-01  2.51946E-02  3.84572E-01
   7.16268E-01  9.16415E-01  9.22666E-01  7.99931E-01  6.20865E-01  4.12602E-01  2.07921E-01  9.41387E-03 -1.68514E-01 -3.22889E-01
  -4.80390E-01 -6.31794E-01 -7.53515E-01 -8.21320E-01 -8.18076E-01 -7.52068E-01 -7.06604E-01 -8.35979E-01 -1.18460E+00 -1.66845E+00
  -2.06139E+00 -2.12178E+00 -1.83725E+00 -1.40760E+00 -1.15253E+00 -1.26668E+00 -1.65366E+00 -2.05649E+00 -2.33644E+00 -2.53736E+00
  -2.72337E+00 -2.99163E+00 -3.37370E+00 -3.78568E+00 -4.14440E+00 -4.27080E+00 -4.09140E+00 -3.77404E+00 -3.53978E+00 -3.51641E+00
  -3.62958E+00 -3.65778E+00 -3.52561E+00 -3.43009E+00 -3.48546E+00 -3.46153E+00 -3.03000E+00 -2.06518E+00 -8.09537E-01  2.60248E-01
   8.72873E-01  9.62678E-01  6.76366E-01  2.48299E-01 -2.14432E-01 -6.34362E-01 -8.07214E-01 -6.50101E-01 -1.65675E-01  6.38130E-01
   1.69896E+00  2.83519E+00  3.82106E+00  4.34666E+00  4.17314E+00  3.09401E+00  1.22543E+00 -8.94496E-01 -2.66915E+00 -3.69056E+00
  -3.75808E+00 -2.80409E+00 -8.92527E-01  1.54189E+00  3.98468E+00  5.80454E+00  6.40638E+00  5.47034E+00  3.43637E+00  1.10395E+00
  -9.57588E-01 -2.35498E+00 -2.64905E+00 -1.63617E+00  3.21102E-01  2.31179E+00  3.76628E+00  4.60059E+00  5.01383E+00  5.12268E+00
   4.96918E+00  4.76036E+00  4.78108E+00  5.05275E+00  5.48801E+00  6.09250E+00  6.84113E+00  7.55177E+00  7.85409E+00  7.59630E+00
   7.01124E+00  6.45624E+00  6.17437E+00  6.26829E+00  6.78216E+00  7.49951E+00  8.11424E+00  8.56208E+00  8.96233E+00  9.39815E+00
   9.89455E+00  1.07519E+01  1.21050E+01  1.37257E+01  1.52196E+01  1.72232E+01  2.28168E+01  3.31254E+01  4.64855E+01  5.86865E+01
   6.44860E+01  6.11624E+01  5.10085E+01  3.95014E+01  3.04210E+01  2.34618E+01  1.65963E+01  1.03855E+01  7.53483E+00  6.56508E+00
   6.01989E+00  5.73229E+00  5.64440E+00  5.62414E+00  5.59601E+00  5.51649E+00  5.36161E+00  5.15094E+00  4.92565E+00  4.70097E+00
   4.49286E+00  4.33893E+00  4.25906E+00  4.24223E+00  4.26560E+00  4.31101E+00  4.37317E+00  4.45354E+00  4.54844E+00  4.66164E+00
   4.79643E+00  4.94520E+00  5.10096E+00  5.26237E+00  5.42627E+00  5.58976E+00  5.75006E+00  5.90349E+00  6.04762E+00  6.18334E+00
   6.30773E+00  6.41300E+00  6.49258E+00  6.54289E+00  6.56290E+00  6.55182E+00  6.50898E+00  6.43652E+00  6.33712E+00  6.21362E+00
   6.07005E+00  5.91089E+00  5.74023E+00  5.56208E+00  5.38083E+00  5.20110E+00  5.02763E+00  4.86476E+00  4.71680E+00  4.58896E+00
   4.48949E+00  4.43528E+00  4.45747E+00  4.53177E+00  4.56438E+00  4.45892E+00  4.15736E+00  3.69076E+00  3.17660E+00  2.74083E+00
   2.47398E+00  2.42138E+00  2.57566E+00  2.93528E+00  3.45451E+00  3.95350E+00  4.26712E+00  4.39686E+00  4.43622E+00  4.46875E+00
   4.49821E+00  4.49241E+00  4.48988E+00  4.54756E+00  4.64551E+00  4.76884E+00  4.91170E+00  5.07101E+00  5.24503E+00  5.43243E+00
   5.63193E+00  5.84185E+00  6.06026E+00  6.28491E+00  6.51342E+00  6.74299E+00  6.97037E+00  7.19172E+00  7.40300E+00  7.60006E+00
   7.77898E+00  7.93585E+00  8.06703E+00  8.16920E+00  8.23988E+00  8.27755E+00  8.28178E+00  8.25302E+00  8.19273E+00  8.10331E+00
   7.98828E+00  7.85208E+00  7.69984E+00  7.53694E+00  7.36896E+00  7.20150E+00  7.04019E+00  6.89034E+00  6.75679E+00  6.64362E+00
   6.55435E+00  6.49189E+00  6.45874E+00  6.45675E+00  6.48722E+00  6.55079E+00  6.64775E+00  6.77803E+00  6.94129E+00  7.13667E+00
   7.36282E+00  7.61773E+00  7.89899E+00  8.20360E+00  8.52795E+00  8.86756E+00  9.21717E+00  9.57072E+00  9.92170E+00  1.02631E+01
   1.05876E+01  1.08875E+01  1.11555E+01  1.13843E+01  1.15678E+01  1.17008E+01  1.17793E+01  1.18004E+01  1.17630E+01  1.16677E+01
   1.15166E+01  1.13135E+01  1.10634E+01  1.07722E+01  1.04468E+01  1.00945E+01  9.72310E+00  9.34012E+00  8.95265E+00  8.56714E+00
   8.18940E+00  7.82441E+00  7.47627E+00  7.14799E+00  6.84166E+00  6.55850E+00  6.29912E+00  6.06350E+00  5.85113E+00  5.66095E+00
   5.49164E+00  5.34168E+00  5.20962E+00  5.09389E+00  4.99296E+00  4.90520E+00  4.82918E+00  4.76354E+00  4.70720E+00  4.65909E+00
   4.61825E+00  4.58370E+00  4.55470E+00  4.53060E+00  4.51092E+00  4.49513E+00  4.48277E+00  4.47335E+00  4.46657E+00  4.46218E+00
   4.46002E+00  4.45979E+00  4.46129E+00  4.46425E+00  4.46860E+00  4.47424E+00  4.48112E+00  4.48904E+00  4.49787E+00  4.50749E+00
   4.51793E+00  4.52913E+00  4.54108E+00  4.55361E+00  4.56666E+00  4.58019E+00  4.59424E+00  4.60880E+00  4.62381E+00  4.63915E+00
   4.65481E+00  4.67079E+00  4.68716E+00  4.70387E+00  4.72088E+00  4.73808E+00  4.75552E+00  4.77319E+00  4.79117E+00  4.80938E+00
   4.82779E+00  4.84633E+00  4.86506E+00  4.88400E+00  4.90321E+00  4.92259E+00  4.94212E+00  4.96176E+00  4.98161E+00  5.00168E+00
   5.02199E+00  5.04245E+00  5.06307E+00  5.08383E+00  5.10487E+00  5.12618E+00  5.14776E+00  5.16954E+00
 NY background values follow
    -5.131E+00   -5.110E+00   -5.090E+00   -5.069E+00   -5.048E+00   -5.028E+00   -5.007E+00   -4.987E+00   -4.966E+00   -4.945E+00
    -4.925E+00   -4.904E+00   -4.883E+00   -4.863E+00   -4.842E+00   -4.821E+00   -4.800E+00   -4.780E+00   -4.759E+00   -4.738E+00
    -4.717E+00   -4.697E+00   -4.676E+00   -4.655E+00   -4.634E+00   -4.613E+00   -4.593E+00   -4.572E+00   -4.551E+00   -4.530E+00
    -4.509E+00   -4.488E+00   -4.467E+00   -4.447E+00   -4.426E+00   -4.405E+00   -4.384E+00   -4.363E+00   -4.342E+00   -4.321E+00
    -4.300E+00   -4.279E+00   -4.258E+00   -4.237E+00   -4.216E+00   -4.195E+00   -4.174E+00   -4.153E+00   -4.132E+00   -4.111E+00
    -4.090E+00   -4.069E+00   -4.048E+00   -4.027E+00   -4.006E+00   -3.985E+00   -3.963E+00   -3.942E+00   -3.921E+00   -3.900E+00
    -3.879E+00   -3.858E+00   -3.837E+00   -3.815E+00   -3.794E+00   -3.773E+00   -3.752E+00   -3.731E+00   -3.710E+00   -3.688E+00
    -3.667E+00   -3.646E+00   -3.625E+00   -3.603E+00   -3.582E+00   -3.561E+00   -3.540E+00   -3.518E+00   -3.497E+00   -3.476E+00
    -3.454E+00   -3.433E+00   -3.412E+00   -3.390E+00   -3.369E+00   -3.348E+00   -3.326E+00   -3.305E+00   -3.284E+00   -3.262E+00
    -3.241E+00   -3.220E+00   -3.198E+00   -3.177E+00   -3.155E+00   -3.134E+00   -3.113E+00   -3.091E+00   -3.070E+00   -3.048E+00
    -3.027E+00   -3.006E+00   -2.984E+00   -2.963E+00   -2.941E+00   -2.920E+00   -2.898E+00   -2.877E+00   -2.855E+00   -2.834E+00
    -2.812E+00   -2.791E+00   -2.769E+00   -2.748E+00   -2.726E+00   -2.705E+00   -2.683E+00   -2.662E+00   -2.640E+00   -2.618E+00
    -2.597E+00   -2.575E+00   -2.554E+00   -2.532E+00   -2.511E+00   -2.489E+00   -2.467E+00   -2.446E+00   -2.424E+00   -2.403E+00
    -2.381E+00   -2.359E+00   -2.338E+00   -2.316E+00   -2.294E+00   -2.273E+00   -2.251E+00   -2.229E+00   -2.208E+00   -2.186E+00
    -2.164E+00   -2.143E+00   -2.121E+00   -2.099E+00   -2.078E+00   -2.056E+00   -2.034E+00   -2.013E+00   -1.991E+00   -1.969E+00
    -1.948E+00   -1.926E+00   -1.904E+00   -1.882E+00   -1.861E+00   -1.839E+00   -1.817E+00   -1.795E+00   -1.774E+00   -1.752E+00
    -1.730E+00   -1.708E+00   -1.687E+00   -1.665E+00   -1.643E+00   -1.621E+00   -1.600E+00   -1.578E+00   -1.556E+00   -1.534E+00
    -1.512E+00   -1.491E+00   -1.469E+00   -1.447E+00   -1.425E+00   -1.403E+00   -1.382E+00   -1.360E+00   -1.338E+00   -1.316E+00
    -1.294E+00   -1.272E+00   -1.251E+00   -1.229E+00   -1.207E+00   -1.185E+00   -1.163E+00   -1.141E+00   -1.120E+00   -1.098E+00
    -1.076E+00   -1.054E+00   -1.032E+00   -1.010E+00   -9.884E-01   -9.666E-01   -9.447E-01   -9.228E-01   -9.009E-01   -8.791E-01
    -8.572E-01   -8.353E-01   -8.134E-01   -7.915E-01   -7.697E-01   -7.478E-01   -7.259E-01   -7.040E-01   -6.821E-01   -6.602E-01
    -6.383E-01   -6.164E-01   -5.945E-01   -5.726E-01   -5.507E-01   -5.288E-01   -5.069E-01   -4.850E-01   -4.631E-01   -4.412E-01
    -4.193E-01   -3.974E-01   -3.754E-01   -3.535E-01   -3.316E-01   -3.097E-01   -2.878E-01   -2.659E-01   -2.439E-01   -2.220E-01
    -2.001E-01   -1.782E-01   -1.563E-01   -1.343E-01   -1.124E-01   -9.050E-02   -6.857E-02   -4.665E-02   -2.473E-02   -2.801E-03
     1.912E-02    4.105E-02    6.298E-02    8.490E-02    1.068E-01    1.288E-01    1.507E-01    1.726E-01    1.945E-01    2.165E-01
     2.384E-01    2.603E-01    2.822E-01    3.042E-01    3.261E-01    3.480E-01    3.699E-01    3.919E-01    4.138E-01    4.357E-01
     4.576E-01    4.795E-01    5.015E-01    5.234E-01    5.453E-01    5.672E-01    5.891E-01    6.111E-01    6.330E-01    6.549E-01
     6.768E-01    6.987E-01    7.206E-01    7.425E-01    7.644E-01    7.864E-01    8.083E-01    8.302E-01    8.521E-01    8.740E-01
     8.959E-01    9.178E-01    9.397E-01    9.616E-01    9.835E-01    1.005E+00    1.027E+00    1.049E+00    1.071E+00    1.093E+00
     1.115E+00    1.137E+00    1.159E+00    1.180E+00    1.202E+00    1.224E+00    1.246E+00    1.268E+00    1.290E+00    1.312E+00
     1.333E+00    1.355E+00    1.377E+00    1.399E+00    1.421E+00    1.443E+00    1.465E+00    1.486E+00    1.508E+00    1.530E+00
     1.552E+00    1.574E+00    1.596E+00    1.617E+00    1.639E+00    1.661E+00    1.683E+00    1.705E+00    1.727E+00    1.748E+00
     1.770E+00    1.792E+00    1.814E+00    1.836E+00    1.857E+00    1.879E+00    1.901E+00    1.923E+00    1.944E+00    1.966E+00
     1.988E+00    2.010E+00    2.032E+00    2.053E+00    2.075E+00    2.097E+00    2.119E+00    2.140E+00    2.162E+00    2.184E+00
     2.205E+00    2.227E+00    2.249E+00    2.271E+00    2.292E+00    2.314E+00    2.336E+00    2.357E+00    2.379E+00    2.401E+00
     2.422E+00    2.444E+00    2.466E+00    2.488E+00    2.509E+00    2.531E+00    2.552E+00    2.574E+00    2.596E+00    2.617E+00
     2.639E+00    2.661E+00    2.682E+00    2.704E+00    2.726E+00    2.747E+00    2.769E+00    2.790E+00    2.812E+00    2.834E+00
     2.855E+00    2.877E+00    2.898E+00    2.920E+00    2.941E+00    2.963E+00    2.984E+00    3.006E+00    3.028E+00    3.049E+00
     3.071E+00    3.092E+00    3.114E+00    3.135E+00    3.157E+00    3.178E+00    3.200E+00    3.221E+00    3.243E+00    3.264E+00
     3.286E+00    3.307E+00    3.328E+00    3.350E+00    3.371E+00    3.393E+00    3.414E+00    3.436E+00    3.457E+00    3.478E+00
     3.500E+00    3.521E+00    3.543E+00    3.564E+00    3.585E+00    3.607E+00    3.628E+00    3.649E+00    3.671E+00    3.692E+00
     3.713E+00    3.735E+00    3.756E+00    3.777E+00    3.799E+00    3.820E+00    3.841E+00    3.862E+00    3.884E+00    3.905E+00
     3.926E+00    3.947E+00    3.969E+00    3.990E+00    4.011E+00    4.032E+00    4.053E+00    4.075E+00    4.096E+00    4.117E+00
     4.138E+00    4.159E+00    4.180E+00    4.202E+00    4.223E+00    4.244E+00    4.265E+00    4.286E+00    4.307E+00    4.328E+00
     4.349E+00    4.370E+00    4.392E+00    4.413E+00    4.434E+00    4.455E+00    4.476E+00    4.497E+00    4.518E+00    4.539E+00
     4.560E+00    4.581E+00    4.602E+00    4.623E+00    4.644E+00    4.665E+00    4.685E+00    4.706E+00    4.727E+00    4.748E+00
     4.769E+00    4.790E+00    4.811E+00    4.832E+00    4.853E+00    4.874E+00    4.894E+00    4.915E+00    4.936E+00    4.957E+00
     4.978E+00    4.998E+00    5.019E+00    5.040E+00    5.061E+00    5.082E+00    5.102E+00    5.123E+00    5.144E+00    5.164E+00
     5.185E+00    5.206E+00    5.226E+00    5.247E+00    5.268E+00    5.288E+00    5.309E+00    5.330E+00    5.350E+00    5.371E+00
     5.392E+00    5.412E+00    5.433E+00    5.453E+00    5.474E+00    5.494E+00    5.515E+00    5.535E+00
 Ala      Conc. = 6.90E+01
