 LCModel (Version 6.3-1L) Copyright: S.W. Provencher.          Ref.: Magn. Reson. Med. 30:672-679 (1993).                
 Slice#2 Row#7 Col#1  PD_05_press_1_raw_act
 36 lines in following concentration table = NCONC+1
    Conc.  %SD /Cr+PCr  Metabolite                                         
    0.592 999% 6.6E-03 Ala                                                 
   10.113 153%   0.112 Asp                                                 
    0.000 999%   0.000 Cr                                                  
   90.055  17%   1.000 PCr                                                 
    8.274 113% 9.2E-02 GABA                                                
    4.884 191% 5.4E-02 Glc                                                 
    0.000 999%   0.000 Gln                                                 
   74.451 124%   0.827 Glu                                                 
   26.417  21%   0.293 GPC                                                 
    0.000 999%   0.000 PCh                                                 
    0.000 999%   0.000 GSH                                                 
    0.000 999%   0.000 Ins                                                 
    0.000 999%   0.000 Lac                                                 
   88.399  27%   0.982 NAA                                                 
   16.759 150%   0.186 NAAG                                                
    1.695 174% 1.9E-02 Scyllo                                              
    4.800 320% 5.3E-02 Tau                                                 
    0.000 999%   0.000 -CrCH2                                              
   26.417  21%   0.293 GPC+PCh                                             
  105.158  19%   1.168 NAA+NAAG                                            
   90.055  17%   1.000 Cr+PCr                                              
   74.451 124%   0.827 Glu+Gln                                             
    0.000 999%   0.000 Lip13a                                              
  156.918  32%   1.742 Lip13b                                              
   40.359  66%   0.448 Lip09                                               
  116.311  42%   1.292 MM09                                                
   27.978  64%   0.311 Lip20                                               
  187.282  42%   2.080 MM20                                                
   34.400  60%   0.382 MM12                                                
   67.105  91%   0.745 MM14                                                
   41.767 100%   0.464 MM17                                                
  156.918  32%   1.742 Lip13a+Lip13b                                       
  258.423  34%   2.870 MM14+Lip13a+Lip13b+MM12                             
  156.671  31%   1.740 MM09+Lip09                                          
  215.260  37%   2.390 MM20+Lip20                                          
   6 lines in following misc. output table
  FWHM = 0.076 ppm    S/N =   2                                            
  Data shift = 0.008 ppm                                                   
  Ph:  84 deg     -19.2 deg/ppm                                            
  alphaB,S = 6.7E-01,   9.1E+01                                            
   14 spline knots.   Ns = 7(1)                                            
  ( 5) 2 infls.   ( 1) 1 extrs.                                            
  498 points on ppm-axis = NY
      4.000000     3.992357     3.984714     3.977070     3.969427     3.961784     3.954141     3.946497     3.938854     3.931211
      3.923568     3.915925     3.908281     3.900638     3.892995     3.885352     3.877708     3.870065     3.862422     3.854779
      3.847136     3.839492     3.831849     3.824206     3.816563     3.808919     3.801276     3.793633     3.785990     3.778347
      3.770703     3.763060     3.755417     3.747774     3.740130     3.732487     3.724844     3.717201     3.709558     3.701914
      3.694271     3.686628     3.678985     3.671341     3.663698     3.656055     3.648412     3.640769     3.633125     3.625482
      3.617839     3.610196     3.602552     3.594909     3.587266     3.579623     3.571980     3.564336     3.556693     3.549050
      3.541407     3.533763     3.526120     3.518477     3.510834     3.503191     3.495547     3.487904     3.480261     3.472618
      3.464974     3.457331     3.449688     3.442045     3.434402     3.426758     3.419115     3.411472     3.403829     3.396185
      3.388542     3.380899     3.373256     3.365613     3.357969     3.350326     3.342683     3.335040     3.327396     3.319753
      3.312110     3.304467     3.296824     3.289180     3.281537     3.273894     3.266251     3.258607     3.250964     3.243321
      3.235678     3.228034     3.220391     3.212748     3.205105     3.197462     3.189818     3.182175     3.174532     3.166889
      3.159245     3.151602     3.143959     3.136316     3.128673     3.121029     3.113386     3.105743     3.098100     3.090456
      3.082813     3.075170     3.067527     3.059884     3.052240     3.044597     3.036954     3.029311     3.021667     3.014024
      3.006381     2.998738     2.991095     2.983451     2.975808     2.968165     2.960522     2.952878     2.945235     2.937592
      2.929949     2.922306     2.914662     2.907019     2.899376     2.891733     2.884089     2.876446     2.868803     2.861160
      2.853517     2.845873     2.838230     2.830587     2.822944     2.815300     2.807657     2.800014     2.792371     2.784728
      2.777084     2.769441     2.761798     2.754155     2.746511     2.738868     2.731225     2.723582     2.715939     2.708295
      2.700652     2.693009     2.685366     2.677722     2.670079     2.662436     2.654793     2.647150     2.639506     2.631863
      2.624220     2.616577     2.608933     2.601290     2.593647     2.586004     2.578361     2.570717     2.563074     2.555431
      2.547788     2.540144     2.532501     2.524858     2.517215     2.509572     2.501928     2.494285     2.486642     2.478999
      2.471355     2.463712     2.456069     2.448426     2.440783     2.433139     2.425496     2.417853     2.410210     2.402566
      2.394923     2.387280     2.379637     2.371994     2.364350     2.356707     2.349064     2.341421     2.333777     2.326134
      2.318491     2.310848     2.303205     2.295561     2.287918     2.280275     2.272632     2.264988     2.257345     2.249702
      2.242059     2.234416     2.226772     2.219129     2.211486     2.203843     2.196199     2.188556     2.180913     2.173270
      2.165627     2.157983     2.150340     2.142697     2.135054     2.127410     2.119767     2.112124     2.104481     2.096838
      2.089194     2.081551     2.073908     2.066265     2.058621     2.050978     2.043335     2.035692     2.028049     2.020405
      2.012762     2.005119     1.997476     1.989833     1.982190     1.974546     1.966903     1.959260     1.951617     1.943974
      1.936331     1.928688     1.921045     1.913402     1.905759     1.898115     1.890472     1.882829     1.875186     1.867543
      1.859900     1.852257     1.844614     1.836971     1.829327     1.821684     1.814041     1.806398     1.798755     1.791112
      1.783469     1.775826     1.768183     1.760540     1.752896     1.745253     1.737610     1.729967     1.722324     1.714681
      1.707038     1.699395     1.691752     1.684108     1.676465     1.668822     1.661179     1.653536     1.645893     1.638250
      1.630607     1.622964     1.615321     1.607677     1.600034     1.592391     1.584748     1.577105     1.569462     1.561819
      1.554176     1.546533     1.538890     1.531246     1.523603     1.515960     1.508317     1.500674     1.493031     1.485388
      1.477745     1.470102     1.462458     1.454815     1.447172     1.439529     1.431886     1.424243     1.416600     1.408957
      1.401314     1.393671     1.386027     1.378384     1.370741     1.363098     1.355455     1.347812     1.340169     1.332526
      1.324883     1.317240     1.309596     1.301953     1.294310     1.286667     1.279024     1.271381     1.263738     1.256095
      1.248452     1.240808     1.233165     1.225522     1.217879     1.210236     1.202593     1.194950     1.187307     1.179664
      1.172021     1.164377     1.156734     1.149091     1.141448     1.133805     1.126162     1.118519     1.110876     1.103233
      1.095590     1.087946     1.080303     1.072660     1.065017     1.057374     1.049731     1.042088     1.034445     1.026802
      1.019158     1.011515     1.003872     0.996229     0.988586     0.980943     0.973300     0.965657     0.958014     0.950371
      0.942727     0.935084     0.927441     0.919798     0.912155     0.904512     0.896869     0.889226     0.881583     0.873940
      0.866296     0.858653     0.851010     0.843367     0.835724     0.828081     0.820438     0.812795     0.805152     0.797508
      0.789865     0.782222     0.774579     0.766936     0.759293     0.751650     0.744007     0.736364     0.728721     0.721077
      0.713434     0.705791     0.698148     0.690505     0.682862     0.675219     0.667576     0.659933     0.652290     0.644646
      0.637003     0.629360     0.621717     0.614074     0.606431     0.598788     0.591145     0.583502     0.575858     0.568215
      0.560572     0.552929     0.545286     0.537643     0.530000     0.522357     0.514714     0.507071     0.499427     0.491784
      0.484141     0.476498     0.468855     0.461212     0.453569     0.445925     0.438282     0.430639     0.422996     0.415353
      0.407710     0.400067     0.392424     0.384780     0.377137     0.369494     0.361851     0.354208     0.346565     0.338922
      0.331278     0.323635     0.315992     0.308349     0.300706     0.293063     0.285420     0.277777     0.270133     0.262490
      0.254847     0.247204     0.239561     0.231918     0.224275     0.216631     0.208988     0.201345
 NY phased data points follow
   4.83799E+01  4.85386E+01  4.82083E+01  4.96341E+01  4.71225E+01  4.66568E+01  4.70396E+01  4.62229E+01  4.58613E+01  4.51094E+01
   4.55143E+01  4.43116E+01  4.22439E+01  4.35088E+01  4.37599E+01  4.26617E+01  4.06414E+01  3.97956E+01  4.16514E+01  4.29124E+01
   4.12444E+01  3.93283E+01  4.03795E+01  3.93696E+01  3.65264E+01  3.81610E+01  3.68125E+01  3.59618E+01  3.59554E+01  3.68145E+01
   3.60185E+01  3.67471E+01  3.68429E+01  3.69273E+01  3.51961E+01  3.35327E+01  3.54387E+01  3.54602E+01  3.30144E+01  3.39572E+01
   3.42475E+01  3.30279E+01  3.32432E+01  3.26955E+01  3.33142E+01  3.22801E+01  3.19734E+01  3.07717E+01  3.21850E+01  3.24736E+01
   3.03004E+01  3.12583E+01  3.08085E+01  2.91958E+01  3.03125E+01  3.00893E+01  3.01119E+01  2.94135E+01  2.87676E+01  2.83868E+01
   3.05511E+01  2.81804E+01  2.69335E+01  2.87057E+01  2.82027E+01  2.64215E+01  2.65512E+01  2.70644E+01  2.63209E+01  2.74816E+01
   2.62659E+01  2.72395E+01  2.64629E+01  2.44160E+01  2.60602E+01  2.48399E+01  2.41177E+01  2.56985E+01  2.51100E+01  2.42830E+01
   2.59696E+01  2.37990E+01  2.49218E+01  2.49735E+01  2.25115E+01  2.36209E+01  2.41555E+01  2.29145E+01  2.28106E+01  2.24443E+01
   2.38499E+01  2.27155E+01  2.38383E+01  2.28335E+01  2.27885E+01  2.13699E+01  2.30458E+01  2.22660E+01  2.32325E+01  2.32325E+01
   2.31633E+01  2.30366E+01  2.31690E+01  2.34925E+01  2.26131E+01  2.27208E+01  2.17647E+01  2.21764E+01  2.13584E+01  1.88857E+01
   2.01192E+01  2.06963E+01  1.92175E+01  2.16871E+01  1.95524E+01  1.85515E+01  1.88536E+01  2.05583E+01  2.04860E+01  1.91715E+01
   1.81468E+01  1.94439E+01  1.88474E+01  1.82732E+01  1.94670E+01  2.04419E+01  1.96911E+01  1.95696E+01  2.07432E+01  1.72116E+01
   1.97098E+01  1.96117E+01  1.95191E+01  1.77022E+01  1.85394E+01  1.72982E+01  1.66452E+01  1.70472E+01  1.80616E+01  1.45932E+01
   1.78102E+01  1.59049E+01  1.64016E+01  1.64731E+01  1.61054E+01  1.81331E+01  1.74594E+01  1.69050E+01  1.66662E+01  1.52657E+01
   1.64463E+01  1.71347E+01  1.52853E+01  1.50224E+01  1.51507E+01  1.61805E+01  1.57130E+01  1.66680E+01  1.50418E+01  1.64670E+01
   1.49710E+01  1.29776E+01  1.28146E+01  1.37406E+01  1.46493E+01  1.44851E+01  1.50625E+01  1.51403E+01  1.53901E+01  1.51750E+01
   1.41156E+01  1.24300E+01  1.35361E+01  1.36960E+01  1.30499E+01  1.30472E+01  1.22494E+01  1.31073E+01  1.19603E+01  1.25567E+01
   1.27738E+01  1.23021E+01  1.25207E+01  1.20611E+01  1.08831E+01  1.35644E+01  1.20104E+01  1.31819E+01  1.17704E+01  1.30161E+01
   1.22600E+01  1.11985E+01  1.19646E+01  1.20521E+01  1.33068E+01  1.06220E+01  1.27170E+01  1.16258E+01  1.31100E+01  1.25988E+01
   1.25277E+01  1.27605E+01  1.16687E+01  1.30279E+01  1.04732E+01  1.16032E+01  1.06270E+01  1.25503E+01  1.13375E+01  1.17124E+01
   1.14920E+01  1.22819E+01  1.29618E+01  1.21700E+01  1.02072E+01  1.16857E+01  1.01798E+01  1.03439E+01  1.27786E+01  1.06114E+01
   1.07990E+01  9.90889E+00  1.10086E+01  9.86593E+00  1.16811E+01  1.06081E+01  1.06978E+01  1.09254E+01  1.04895E+01  1.07996E+01
   9.58682E+00  1.12440E+01  1.11237E+01  1.12303E+01  1.08880E+01  1.10254E+01  9.84575E+00  8.50480E+00  1.11734E+01  9.44155E+00
   9.90329E+00  1.05003E+01  8.55923E+00  9.55617E+00  1.05744E+01  1.11625E+01  1.09151E+01  1.01784E+01  9.22677E+00  1.00558E+01
   1.02535E+01  1.17011E+01  1.15234E+01  9.37188E+00  1.21105E+01  9.66724E+00  9.03254E+00  1.20225E+01  1.29050E+01  1.30676E+01
   1.04333E+01  1.24160E+01  1.18712E+01  1.21370E+01  1.10696E+01  9.09455E+00  8.67343E+00  7.49054E+00  8.47285E+00  8.36433E+00
   9.19152E+00  7.58189E+00  7.95238E+00  8.35829E+00  7.86084E+00  8.41017E+00  8.15955E+00  9.23240E+00  6.77878E+00  6.13318E+00
   1.00934E+01  7.25691E+00  7.72804E+00  6.95033E+00  7.13273E+00  6.19496E+00  7.11590E+00  9.74162E+00  8.44686E+00  7.93330E+00
   8.14740E+00  8.94252E+00  7.76144E+00  7.57736E+00  8.11079E+00  5.27533E+00  7.32867E+00  6.13828E+00  6.91382E+00  5.10320E+00
   6.17012E+00  7.59910E+00  6.94679E+00  6.53034E+00  7.81918E+00  7.23816E+00  7.07512E+00  7.15403E+00  6.11370E+00  7.81674E+00
   6.21431E+00  7.96288E+00  5.42085E+00  7.24570E+00  5.26391E+00  6.23455E+00  6.06997E+00  5.82761E+00  5.93449E+00  5.91086E+00
   6.96541E+00  6.15675E+00  7.72098E+00  6.61895E+00  7.56776E+00  6.14673E+00  5.97114E+00  6.01631E+00  6.87333E+00  7.61486E+00
   6.42470E+00  4.99470E+00  4.31099E+00  8.39096E+00  5.53105E+00  6.23076E+00  4.56223E+00  4.08987E+00  5.20299E+00  5.12013E+00
   5.67484E+00  5.25450E+00  5.29931E+00  5.77876E+00  7.20457E+00  5.57075E+00  5.68995E+00  7.15163E+00  6.85519E+00  7.92777E+00
   5.01096E+00  6.09927E+00  4.50603E+00  6.29342E+00  6.94299E+00  7.56397E+00  5.98597E+00  5.21417E+00  6.14031E+00  6.62977E+00
   4.77834E+00  7.08419E+00  6.45582E+00  4.80459E+00  6.68312E+00  6.15711E+00  5.70181E+00  5.26640E+00  6.91009E+00  5.70167E+00
   5.65477E+00  7.76532E+00  2.91642E+00  3.01753E+00  4.27839E+00  5.04424E+00  3.57642E+00  4.74762E+00  2.33261E+00  5.44710E+00
   3.78629E+00  3.73742E+00  6.28976E+00  5.11966E+00  3.79588E+00  3.93260E+00  4.32090E+00  4.63718E+00  4.09027E+00  4.87084E+00
   5.63651E+00  3.88195E+00  3.78112E+00  5.24441E+00  6.16743E+00  4.97471E+00  5.68671E+00  5.07843E+00  3.76335E+00  6.51970E+00
   5.25124E+00  5.22104E+00  5.58551E+00  3.36407E+00  5.64229E+00  5.64041E+00  6.82387E+00  4.15417E+00  5.63212E+00  4.51940E+00
   3.83031E+00  3.87915E+00  5.29141E+00  3.60311E+00  4.75150E+00  3.72174E+00  4.75398E+00  4.92396E+00  3.37872E+00  4.87681E+00
   4.73839E+00  3.49239E+00  4.01566E+00  3.54451E+00  3.14263E+00  4.01859E+00  2.85096E+00  3.99859E+00  5.22896E+00  3.76497E+00
   4.22346E+00  2.78250E+00  4.50716E+00  3.05684E+00  4.34094E+00  3.84221E+00  3.06011E+00  4.12309E+00  4.71417E+00  4.15218E+00
   3.09701E+00  3.90538E+00  4.56802E+00  3.30527E+00  2.34326E+00  1.94427E+00  4.87511E+00  3.03665E+00  3.89600E+00  3.44501E+00
   5.53548E+00  2.82014E+00  4.14961E+00  3.19585E+00  2.68196E+00  3.19678E+00  3.07469E+00  1.61481E+00  2.98944E+00  3.24702E+00
   2.75494E+00  2.93428E+00  3.14405E+00  3.22242E+00  3.74578E+00  1.63085E+00  1.23930E+00  2.21078E+00  2.07160E+00  1.98127E+00
   1.33226E+00  2.95916E+00  1.66887E+00  1.30722E+00  4.48850E+00  1.75540E+00  3.15095E+00  1.71101E+00  1.69497E+00  2.75416E+00
   3.02825E+00  2.81515E+00  2.19337E+00  2.23387E+00  1.43025E+00  7.83692E-01  8.36464E-01  1.16295E+00  2.56002E+00  2.20528E+00
   2.85612E+00  3.46427E+00  2.61876E+00  1.80636E+00  1.51998E+00  2.53152E+00  7.61893E-01  2.02431E+00
 NY points of the fit to the data follow
   4.59137E+01  4.56977E+01  4.55942E+01  4.55733E+01  4.55733E+01  4.55592E+01  4.55011E+01  4.53682E+01  4.51471E+01  4.48437E+01
   4.44662E+01  4.40185E+01  4.35106E+01  4.29580E+01  4.23840E+01  4.18245E+01  4.13195E+01  4.08944E+01  4.05453E+01  4.02315E+01
   3.99272E+01  3.96197E+01  3.93060E+01  3.89885E+01  3.86708E+01  3.83599E+01  3.80624E+01  3.77810E+01  3.75112E+01  3.72457E+01
   3.69796E+01  3.67086E+01  3.64332E+01  3.61587E+01  3.58843E+01  3.56092E+01  3.53339E+01  3.50540E+01  3.47702E+01  3.44900E+01
   3.42173E+01  3.39511E+01  3.36908E+01  3.34371E+01  3.31841E+01  3.29269E+01  3.26656E+01  3.24021E+01  3.21392E+01  3.18782E+01
   3.16185E+01  3.13605E+01  3.11035E+01  3.08464E+01  3.05892E+01  3.03327E+01  3.00762E+01  2.98210E+01  2.95702E+01  2.93253E+01
   2.90855E+01  2.88497E+01  2.86175E+01  2.83886E+01  2.81623E+01  2.79382E+01  2.77162E+01  2.74964E+01  2.72799E+01  2.70680E+01
   2.68598E+01  2.66539E+01  2.64496E+01  2.62463E+01  2.60437E+01  2.58421E+01  2.56419E+01  2.54434E+01  2.52475E+01  2.50581E+01
   2.48760E+01  2.46983E+01  2.45231E+01  2.43496E+01  2.41767E+01  2.40029E+01  2.38269E+01  2.36480E+01  2.34662E+01  2.32826E+01
   2.30991E+01  2.29187E+01  2.27456E+01  2.25841E+01  2.24448E+01  2.23783E+01  2.24705E+01  2.26702E+01  2.28978E+01  2.31080E+01
   2.32617E+01  2.33203E+01  2.32663E+01  2.31060E+01  2.28492E+01  2.25038E+01  2.20856E+01  2.16156E+01  2.11242E+01  2.06585E+01
   2.02714E+01  1.99948E+01  1.98170E+01  1.96781E+01  1.95499E+01  1.94284E+01  1.93129E+01  1.92058E+01  1.91191E+01  1.91138E+01
   1.92845E+01  1.95725E+01  1.98903E+01  2.01879E+01  2.04207E+01  2.05450E+01  2.05414E+01  2.04162E+01  2.01784E+01  1.98369E+01
   1.94087E+01  1.89177E+01  1.84000E+01  1.79115E+01  1.75122E+01  1.72363E+01  1.70681E+01  1.69416E+01  1.68272E+01  1.67196E+01
   1.66162E+01  1.65149E+01  1.64141E+01  1.63134E+01  1.62127E+01  1.61120E+01  1.60116E+01  1.59113E+01  1.58111E+01  1.57114E+01
   1.56125E+01  1.55149E+01  1.54195E+01  1.53250E+01  1.52276E+01  1.51267E+01  1.50245E+01  1.49235E+01  1.48277E+01  1.47368E+01
   1.46488E+01  1.45625E+01  1.44766E+01  1.43899E+01  1.43029E+01  1.42175E+01  1.41338E+01  1.40503E+01  1.39640E+01  1.38707E+01
   1.37710E+01  1.36733E+01  1.35829E+01  1.35000E+01  1.34211E+01  1.33433E+01  1.32670E+01  1.31940E+01  1.31256E+01  1.30611E+01
   1.29979E+01  1.29371E+01  1.28813E+01  1.28293E+01  1.27801E+01  1.27344E+01  1.26926E+01  1.26537E+01  1.26148E+01  1.25741E+01
   1.25325E+01  1.24887E+01  1.24417E+01  1.23908E+01  1.23337E+01  1.22694E+01  1.22018E+01  1.21391E+01  1.20833E+01  1.20324E+01
   1.19820E+01  1.19291E+01  1.18705E+01  1.18026E+01  1.17264E+01  1.16438E+01  1.15549E+01  1.14662E+01  1.13900E+01  1.13421E+01
   1.13171E+01  1.13036E+01  1.12946E+01  1.12808E+01  1.12477E+01  1.11803E+01  1.10780E+01  1.09574E+01  1.08345E+01  1.07165E+01
   1.06135E+01  1.05336E+01  1.04824E+01  1.04629E+01  1.04709E+01  1.04979E+01  1.05303E+01  1.05576E+01  1.05734E+01  1.05721E+01
   1.05503E+01  1.05107E+01  1.04639E+01  1.04182E+01  1.03746E+01  1.03313E+01  1.02865E+01  1.02429E+01  1.02038E+01  1.01691E+01
   1.01384E+01  1.01146E+01  1.00974E+01  1.00822E+01  1.00646E+01  1.00443E+01  1.00231E+01  1.00023E+01  9.98905E+00  1.00027E+01
   1.00397E+01  1.00845E+01  1.01477E+01  1.03145E+01  1.06358E+01  1.10201E+01  1.13938E+01  1.17141E+01  1.19325E+01  1.20100E+01
   1.19437E+01  1.17515E+01  1.14515E+01  1.10638E+01  1.06151E+01  1.01302E+01  9.63903E+00  9.19529E+00  8.85601E+00  8.64640E+00
   8.53032E+00  8.44533E+00  8.37213E+00  8.30511E+00  8.24044E+00  8.17656E+00  8.11303E+00  8.04885E+00  7.98349E+00  7.91755E+00
   7.85229E+00  7.78897E+00  7.72904E+00  7.67327E+00  7.62139E+00  7.57302E+00  7.52775E+00  7.48493E+00  7.44399E+00  7.40454E+00
   7.36639E+00  7.32951E+00  7.29375E+00  7.25908E+00  7.22549E+00  7.19290E+00  7.16104E+00  7.12964E+00  7.09847E+00  7.06734E+00
   7.03604E+00  7.00444E+00  6.97227E+00  6.93924E+00  6.90516E+00  6.86989E+00  6.83330E+00  6.79538E+00  6.75622E+00  6.71605E+00
   6.67520E+00  6.63395E+00  6.59265E+00  6.55160E+00  6.51113E+00  6.47153E+00  6.43308E+00  6.39602E+00  6.36058E+00  6.32699E+00
   6.29549E+00  6.26586E+00  6.23763E+00  6.21061E+00  6.18462E+00  6.15949E+00  6.13503E+00  6.11113E+00  6.08799E+00  6.06588E+00
   6.04472E+00  6.02437E+00  6.00473E+00  5.98573E+00  5.96733E+00  5.94948E+00  5.93223E+00  5.91565E+00  5.90014E+00  5.88646E+00
   5.87559E+00  5.86874E+00  5.86743E+00  5.87335E+00  5.88822E+00  5.91340E+00  5.94968E+00  5.99720E+00  6.05521E+00  6.12178E+00
   6.19369E+00  6.26648E+00  6.33470E+00  6.39236E+00  6.43352E+00  6.45306E+00  6.44726E+00  6.41436E+00  6.35474E+00  6.27090E+00
   6.16707E+00  6.04865E+00  5.92155E+00  5.79148E+00  5.66344E+00  5.54137E+00  5.42798E+00  5.32480E+00  5.23235E+00  5.15039E+00
   5.07817E+00  5.01467E+00  4.95881E+00  4.90956E+00  4.86603E+00  4.82752E+00  4.79349E+00  4.76358E+00  4.73757E+00  4.71536E+00
   4.69698E+00  4.68248E+00  4.67202E+00  4.66575E+00  4.66387E+00  4.66654E+00  4.67394E+00  4.68616E+00  4.70322E+00  4.72506E+00
   4.75148E+00  4.78211E+00  4.81645E+00  4.85379E+00  4.89326E+00  4.93379E+00  4.97418E+00  5.01310E+00  5.04912E+00  5.08083E+00
   5.10682E+00  5.12581E+00  5.13665E+00  5.13846E+00  5.13060E+00  5.11272E+00  5.08481E+00  5.04717E+00  5.00040E+00  4.94536E+00
   4.88311E+00  4.81490E+00  4.74202E+00  4.66585E+00  4.58770E+00  4.50881E+00  4.43032E+00  4.35319E+00  4.27823E+00  4.20607E+00
   4.13716E+00  4.07179E+00  4.01012E+00  3.95216E+00  3.89784E+00  3.84701E+00  3.79944E+00  3.75490E+00  3.71311E+00  3.67380E+00
   3.63670E+00  3.60155E+00  3.56810E+00  3.53612E+00  3.50543E+00  3.47583E+00  3.44716E+00  3.41928E+00  3.39208E+00  3.36543E+00
   3.33925E+00  3.31345E+00  3.28796E+00  3.26272E+00  3.23768E+00  3.21277E+00  3.18798E+00  3.16324E+00  3.13854E+00  3.11384E+00
   3.08911E+00  3.06433E+00  3.03948E+00  3.01454E+00  2.98950E+00  2.96436E+00  2.93912E+00  2.91377E+00  2.88831E+00  2.86275E+00
   2.83709E+00  2.81132E+00  2.78545E+00  2.75948E+00  2.73342E+00  2.70726E+00  2.68102E+00  2.65469E+00  2.62828E+00  2.60180E+00
   2.57525E+00  2.54863E+00  2.52195E+00  2.49522E+00  2.46844E+00  2.44161E+00  2.41475E+00  2.38786E+00  2.36094E+00  2.33401E+00
   2.30706E+00  2.28011E+00  2.25316E+00  2.22621E+00  2.19928E+00  2.17237E+00  2.14549E+00  2.11864E+00  2.09184E+00  2.06508E+00
   2.03837E+00  2.01173E+00  1.98516E+00  1.95867E+00  1.93225E+00  1.90593E+00  1.87971E+00  1.85359E+00
 NY background values follow
     4.574E+01    4.544E+01    4.514E+01    4.483E+01    4.453E+01    4.423E+01    4.393E+01    4.363E+01    4.332E+01    4.302E+01
     4.272E+01    4.242E+01    4.212E+01    4.182E+01    4.152E+01    4.122E+01    4.092E+01    4.062E+01    4.032E+01    4.003E+01
     3.973E+01    3.943E+01    3.914E+01    3.885E+01    3.855E+01    3.826E+01    3.797E+01    3.768E+01    3.739E+01    3.711E+01
     3.682E+01    3.653E+01    3.625E+01    3.597E+01    3.569E+01    3.541E+01    3.513E+01    3.485E+01    3.458E+01    3.431E+01
     3.404E+01    3.377E+01    3.350E+01    3.323E+01    3.297E+01    3.271E+01    3.245E+01    3.219E+01    3.193E+01    3.168E+01
     3.142E+01    3.117E+01    3.093E+01    3.068E+01    3.043E+01    3.019E+01    2.995E+01    2.971E+01    2.948E+01    2.924E+01
     2.901E+01    2.878E+01    2.855E+01    2.833E+01    2.810E+01    2.788E+01    2.766E+01    2.744E+01    2.722E+01    2.701E+01
     2.680E+01    2.659E+01    2.638E+01    2.617E+01    2.597E+01    2.576E+01    2.556E+01    2.537E+01    2.517E+01    2.498E+01
     2.478E+01    2.459E+01    2.440E+01    2.422E+01    2.403E+01    2.385E+01    2.367E+01    2.349E+01    2.332E+01    2.314E+01
     2.297E+01    2.280E+01    2.263E+01    2.247E+01    2.230E+01    2.214E+01    2.198E+01    2.182E+01    2.166E+01    2.151E+01
     2.136E+01    2.121E+01    2.106E+01    2.091E+01    2.076E+01    2.062E+01    2.048E+01    2.034E+01    2.020E+01    2.006E+01
     1.992E+01    1.979E+01    1.965E+01    1.952E+01    1.939E+01    1.926E+01    1.914E+01    1.901E+01    1.889E+01    1.876E+01
     1.864E+01    1.852E+01    1.840E+01    1.829E+01    1.817E+01    1.805E+01    1.794E+01    1.783E+01    1.771E+01    1.760E+01
     1.749E+01    1.739E+01    1.728E+01    1.717E+01    1.707E+01    1.696E+01    1.686E+01    1.676E+01    1.665E+01    1.655E+01
     1.645E+01    1.635E+01    1.626E+01    1.616E+01    1.606E+01    1.597E+01    1.587E+01    1.578E+01    1.569E+01    1.559E+01
     1.550E+01    1.541E+01    1.532E+01    1.523E+01    1.515E+01    1.506E+01    1.497E+01    1.489E+01    1.480E+01    1.472E+01
     1.463E+01    1.455E+01    1.447E+01    1.439E+01    1.431E+01    1.423E+01    1.415E+01    1.407E+01    1.399E+01    1.391E+01
     1.384E+01    1.376E+01    1.369E+01    1.361E+01    1.354E+01    1.346E+01    1.339E+01    1.332E+01    1.324E+01    1.317E+01
     1.310E+01    1.303E+01    1.296E+01    1.289E+01    1.282E+01    1.276E+01    1.269E+01    1.262E+01    1.255E+01    1.249E+01
     1.242E+01    1.236E+01    1.229E+01    1.223E+01    1.216E+01    1.210E+01    1.204E+01    1.197E+01    1.191E+01    1.185E+01
     1.179E+01    1.173E+01    1.166E+01    1.160E+01    1.154E+01    1.148E+01    1.142E+01    1.136E+01    1.130E+01    1.125E+01
     1.119E+01    1.113E+01    1.107E+01    1.101E+01    1.096E+01    1.090E+01    1.084E+01    1.078E+01    1.073E+01    1.067E+01
     1.061E+01    1.056E+01    1.050E+01    1.045E+01    1.039E+01    1.034E+01    1.028E+01    1.022E+01    1.017E+01    1.011E+01
     1.006E+01    1.000E+01    9.950E+00    9.895E+00    9.841E+00    9.787E+00    9.732E+00    9.678E+00    9.625E+00    9.571E+00
     9.518E+00    9.464E+00    9.411E+00    9.358E+00    9.305E+00    9.253E+00    9.200E+00    9.148E+00    9.096E+00    9.044E+00
     8.993E+00    8.941E+00    8.890E+00    8.839E+00    8.788E+00    8.737E+00    8.687E+00    8.637E+00    8.587E+00    8.537E+00
     8.487E+00    8.438E+00    8.389E+00    8.340E+00    8.291E+00    8.243E+00    8.195E+00    8.147E+00    8.099E+00    8.052E+00
     8.004E+00    7.958E+00    7.911E+00    7.864E+00    7.818E+00    7.773E+00    7.727E+00    7.682E+00    7.636E+00    7.592E+00
     7.547E+00    7.503E+00    7.459E+00    7.415E+00    7.371E+00    7.328E+00    7.285E+00    7.242E+00    7.200E+00    7.157E+00
     7.115E+00    7.073E+00    7.032E+00    6.990E+00    6.949E+00    6.908E+00    6.868E+00    6.827E+00    6.787E+00    6.747E+00
     6.708E+00    6.668E+00    6.629E+00    6.590E+00    6.552E+00    6.513E+00    6.475E+00    6.437E+00    6.399E+00    6.361E+00
     6.324E+00    6.287E+00    6.250E+00    6.214E+00    6.177E+00    6.141E+00    6.105E+00    6.069E+00    6.034E+00    5.998E+00
     5.963E+00    5.928E+00    5.894E+00    5.859E+00    5.825E+00    5.791E+00    5.758E+00    5.724E+00    5.691E+00    5.658E+00
     5.625E+00    5.593E+00    5.561E+00    5.529E+00    5.497E+00    5.465E+00    5.434E+00    5.403E+00    5.372E+00    5.342E+00
     5.311E+00    5.281E+00    5.252E+00    5.222E+00    5.193E+00    5.164E+00    5.135E+00    5.107E+00    5.079E+00    5.051E+00
     5.023E+00    4.996E+00    4.969E+00    4.942E+00    4.915E+00    4.889E+00    4.863E+00    4.837E+00    4.811E+00    4.786E+00
     4.761E+00    4.737E+00    4.712E+00    4.688E+00    4.664E+00    4.641E+00    4.618E+00    4.595E+00    4.572E+00    4.549E+00
     4.527E+00    4.505E+00    4.483E+00    4.461E+00    4.440E+00    4.419E+00    4.398E+00    4.377E+00    4.357E+00    4.336E+00
     4.316E+00    4.296E+00    4.276E+00    4.256E+00    4.237E+00    4.217E+00    4.198E+00    4.179E+00    4.160E+00    4.141E+00
     4.123E+00    4.104E+00    4.085E+00    4.067E+00    4.049E+00    4.031E+00    4.013E+00    3.995E+00    3.977E+00    3.959E+00
     3.941E+00    3.923E+00    3.906E+00    3.888E+00    3.870E+00    3.853E+00    3.835E+00    3.818E+00    3.800E+00    3.783E+00
     3.765E+00    3.748E+00    3.731E+00    3.713E+00    3.696E+00    3.678E+00    3.661E+00    3.643E+00    3.626E+00    3.608E+00
     3.590E+00    3.573E+00    3.555E+00    3.537E+00    3.519E+00    3.501E+00    3.483E+00    3.465E+00    3.446E+00    3.428E+00
     3.410E+00    3.391E+00    3.372E+00    3.353E+00    3.334E+00    3.315E+00    3.296E+00    3.277E+00    3.257E+00    3.237E+00
     3.217E+00    3.197E+00    3.177E+00    3.157E+00    3.136E+00    3.115E+00    3.094E+00    3.073E+00    3.051E+00    3.030E+00
     3.008E+00    2.986E+00    2.963E+00    2.941E+00    2.918E+00    2.895E+00    2.871E+00    2.848E+00    2.824E+00    2.800E+00
     2.776E+00    2.752E+00    2.727E+00    2.703E+00    2.678E+00    2.653E+00    2.628E+00    2.603E+00    2.577E+00    2.552E+00
     2.526E+00    2.501E+00    2.475E+00    2.449E+00    2.423E+00    2.397E+00    2.371E+00    2.345E+00    2.319E+00    2.292E+00
     2.266E+00    2.240E+00    2.214E+00    2.187E+00    2.161E+00    2.135E+00    2.108E+00    2.082E+00    2.056E+00    2.029E+00
     2.003E+00    1.977E+00    1.951E+00    1.925E+00    1.899E+00    1.873E+00    1.847E+00    1.821E+00
 Ala      Conc. = 5.92E-01
