 LCModel (Version 6.3-1L) Copyright: S.W. Provencher.          Ref.: Magn. Reson. Med. 30:672-679 (1993).                
 Slice#2 Row#1 Col#14  PD_05_press_1_raw_act
 36 lines in following concentration table = NCONC+1
    Conc.  %SD /Cr+PCr  Metabolite                                         
    0.000 999%   0.000 Ala                                                 
 3.41E-02 680%   0.000 Asp                                                 
    0.000 999%   0.000 Cr                                                  
    0.000 999%   0.000 PCr                                                 
 1.91E-02 730%   0.000 GABA                                                
 2.33E-02 599%   0.000 Glc                                                 
    2.186 199%   0.000 Gln                                                 
    6.209  78%   0.000 Glu                                                 
 7.34E-04 999%   0.000 GPC                                                 
    0.000 999%   0.000 PCh                                                 
    0.000 999%   0.000 GSH                                                 
    8.735  50%   0.000 Ins                                                 
    0.000 999%   0.000 Lac                                                 
    0.000 999%   0.000 NAA                                                 
    0.552 203%   0.000 NAAG                                                
 6.45E-03 719%   0.000 Scyllo                                              
 2.71E-02 851%   0.000 Tau                                                 
    0.000 999%   0.000 -CrCH2                                              
 7.34E-04 999%   0.000 GPC+PCh                                             
    0.552 203%   0.000 NAA+NAAG                                            
    0.000 999%   0.000 Cr+PCr                                              
    8.395  79%   0.000 Glu+Gln                                             
   68.268  14%   0.000 Lip13a                                              
    0.000 999%   0.000 Lip13b                                              
   12.401  30%   0.000 Lip09                                               
    0.000 999%   0.000 MM09                                                
    0.809 518%   0.000 Lip20                                               
    0.000 999%   0.000 MM20                                                
    0.736 260%   0.000 MM12                                                
    0.118 999%   0.000 MM14                                                
    2.616 138%   0.000 MM17                                                
   68.268  14%   0.000 Lip13a+Lip13b                                       
   69.121  12%   0.000 MM14+Lip13a+Lip13b+MM12                             
   12.401  30%   0.000 MM09+Lip09                                          
    0.809 518%   0.000 MM20+Lip20                                          
   6 lines in following misc. output table
  FWHM = 0.054 ppm    S/N =   2                                            
  Data shift =-0.008 ppm                                                   
  Ph:-168 deg     -54.1 deg/ppm                                            
  alphaB,S = 8.5E+01,   5.1E+01                                            
   14 spline knots.   Ns = 5(1)                                            
   2 inflections.     1 extrema                                            
  498 points on ppm-axis = NY
      4.000000     3.992357     3.984714     3.977070     3.969427     3.961784     3.954141     3.946497     3.938854     3.931211
      3.923568     3.915925     3.908281     3.900638     3.892995     3.885352     3.877708     3.870065     3.862422     3.854779
      3.847136     3.839492     3.831849     3.824206     3.816563     3.808919     3.801276     3.793633     3.785990     3.778347
      3.770703     3.763060     3.755417     3.747774     3.740130     3.732487     3.724844     3.717201     3.709558     3.701914
      3.694271     3.686628     3.678985     3.671341     3.663698     3.656055     3.648412     3.640769     3.633125     3.625482
      3.617839     3.610196     3.602552     3.594909     3.587266     3.579623     3.571980     3.564336     3.556693     3.549050
      3.541407     3.533763     3.526120     3.518477     3.510834     3.503191     3.495547     3.487904     3.480261     3.472618
      3.464974     3.457331     3.449688     3.442045     3.434402     3.426758     3.419115     3.411472     3.403829     3.396185
      3.388542     3.380899     3.373256     3.365613     3.357969     3.350326     3.342683     3.335040     3.327396     3.319753
      3.312110     3.304467     3.296824     3.289180     3.281537     3.273894     3.266251     3.258607     3.250964     3.243321
      3.235678     3.228034     3.220391     3.212748     3.205105     3.197462     3.189818     3.182175     3.174532     3.166889
      3.159245     3.151602     3.143959     3.136316     3.128673     3.121029     3.113386     3.105743     3.098100     3.090456
      3.082813     3.075170     3.067527     3.059884     3.052240     3.044597     3.036954     3.029311     3.021667     3.014024
      3.006381     2.998738     2.991095     2.983451     2.975808     2.968165     2.960522     2.952878     2.945235     2.937592
      2.929949     2.922306     2.914662     2.907019     2.899376     2.891733     2.884089     2.876446     2.868803     2.861160
      2.853517     2.845873     2.838230     2.830587     2.822944     2.815300     2.807657     2.800014     2.792371     2.784728
      2.777084     2.769441     2.761798     2.754155     2.746511     2.738868     2.731225     2.723582     2.715939     2.708295
      2.700652     2.693009     2.685366     2.677722     2.670079     2.662436     2.654793     2.647150     2.639506     2.631863
      2.624220     2.616577     2.608933     2.601290     2.593647     2.586004     2.578361     2.570717     2.563074     2.555431
      2.547788     2.540144     2.532501     2.524858     2.517215     2.509572     2.501928     2.494285     2.486642     2.478999
      2.471355     2.463712     2.456069     2.448426     2.440783     2.433139     2.425496     2.417853     2.410210     2.402566
      2.394923     2.387280     2.379637     2.371994     2.364350     2.356707     2.349064     2.341421     2.333777     2.326134
      2.318491     2.310848     2.303205     2.295561     2.287918     2.280275     2.272632     2.264988     2.257345     2.249702
      2.242059     2.234416     2.226772     2.219129     2.211486     2.203843     2.196199     2.188556     2.180913     2.173270
      2.165627     2.157983     2.150340     2.142697     2.135054     2.127410     2.119767     2.112124     2.104481     2.096838
      2.089194     2.081551     2.073908     2.066265     2.058621     2.050978     2.043335     2.035692     2.028049     2.020405
      2.012762     2.005119     1.997476     1.989833     1.982190     1.974546     1.966903     1.959260     1.951617     1.943974
      1.936331     1.928688     1.921045     1.913402     1.905759     1.898115     1.890472     1.882829     1.875186     1.867543
      1.859900     1.852257     1.844614     1.836971     1.829327     1.821684     1.814041     1.806398     1.798755     1.791112
      1.783469     1.775826     1.768183     1.760540     1.752896     1.745253     1.737610     1.729967     1.722324     1.714681
      1.707038     1.699395     1.691752     1.684108     1.676465     1.668822     1.661179     1.653536     1.645893     1.638250
      1.630607     1.622964     1.615321     1.607677     1.600034     1.592391     1.584748     1.577105     1.569462     1.561819
      1.554176     1.546533     1.538890     1.531246     1.523603     1.515960     1.508317     1.500674     1.493031     1.485388
      1.477745     1.470102     1.462458     1.454815     1.447172     1.439529     1.431886     1.424243     1.416600     1.408957
      1.401314     1.393671     1.386027     1.378384     1.370741     1.363098     1.355455     1.347812     1.340169     1.332526
      1.324883     1.317240     1.309596     1.301953     1.294310     1.286667     1.279024     1.271381     1.263738     1.256095
      1.248452     1.240808     1.233165     1.225522     1.217879     1.210236     1.202593     1.194950     1.187307     1.179664
      1.172021     1.164377     1.156734     1.149091     1.141448     1.133805     1.126162     1.118519     1.110876     1.103233
      1.095590     1.087946     1.080303     1.072660     1.065017     1.057374     1.049731     1.042088     1.034445     1.026802
      1.019158     1.011515     1.003872     0.996229     0.988586     0.980943     0.973300     0.965657     0.958014     0.950371
      0.942727     0.935084     0.927441     0.919798     0.912155     0.904512     0.896869     0.889226     0.881583     0.873940
      0.866296     0.858653     0.851010     0.843367     0.835724     0.828081     0.820438     0.812795     0.805152     0.797508
      0.789865     0.782222     0.774579     0.766936     0.759293     0.751650     0.744007     0.736364     0.728721     0.721077
      0.713434     0.705791     0.698148     0.690505     0.682862     0.675219     0.667576     0.659933     0.652290     0.644646
      0.637003     0.629360     0.621717     0.614074     0.606431     0.598788     0.591145     0.583502     0.575858     0.568215
      0.560572     0.552929     0.545286     0.537643     0.530000     0.522357     0.514714     0.507071     0.499427     0.491784
      0.484141     0.476498     0.468855     0.461212     0.453569     0.445925     0.438282     0.430639     0.422996     0.415353
      0.407710     0.400067     0.392424     0.384780     0.377137     0.369494     0.361851     0.354208     0.346565     0.338922
      0.331278     0.323635     0.315992     0.308349     0.300706     0.293063     0.285420     0.277777     0.270133     0.262490
      0.254847     0.247204     0.239561     0.231918     0.224275     0.216631     0.208988     0.201345
 NY phased data points follow
   5.19152E-02  4.62379E-02  4.82186E-02  1.64364E-01  1.27783E-01  1.60035E-02  8.59429E-02  4.76150E-02 -8.19089E-02  4.42888E-03
   1.07655E-01  1.29463E-02  5.86732E-02  1.59118E-01  1.40355E-02  1.30466E-02  2.76553E-02  2.61220E-02 -1.37787E-02  3.63993E-02
   1.33310E-02  3.18210E-02  1.57508E-01  3.97158E-02  1.33174E-01  9.97063E-02 -1.15057E-01  3.74924E-02  1.07183E-01  1.20546E-01
   1.24433E-02  5.34761E-02 -6.65350E-02  4.10923E-02  6.26335E-02  7.96900E-02  5.41851E-02  1.01090E-01 -1.29864E-01  7.35638E-02
   4.83170E-02  1.24585E-01 -5.55189E-02 -7.03983E-02  5.66315E-04  1.67831E-01  3.43292E-02 -1.57748E-02  8.23600E-02 -3.20482E-03
  -3.99157E-03  1.45899E-01  1.05005E-01 -1.37393E-03  7.59832E-02 -6.37402E-02 -8.13477E-03  1.59777E-01 -1.59187E-02 -8.77306E-02
   5.44806E-02 -3.17971E-02 -7.68625E-03 -1.04034E-02 -2.22071E-02  1.85714E-02  8.66220E-02 -3.47063E-02  7.65891E-02  6.13630E-02
  -5.90132E-02 -1.57286E-02  4.81508E-02  7.16372E-02  4.95253E-02  6.16467E-02  1.74994E-01  1.18631E-02  4.71867E-02 -5.73242E-02
  -2.71502E-02 -6.58630E-02  4.01440E-02  7.38531E-02  1.42752E-01 -2.30637E-02  6.07802E-02 -1.93507E-01 -7.75028E-02 -1.63034E-03
   7.86248E-03  9.86021E-02  4.89255E-02  1.01373E-02 -5.39976E-02  1.81139E-02  1.26737E-01  6.94855E-03 -7.36539E-02  1.39914E-01
  -4.52414E-02  5.00401E-02 -1.80694E-01  1.25006E-01  2.09543E-02 -9.59802E-02 -5.83385E-02 -6.07021E-02 -4.08539E-02 -2.07375E-01
  -8.19171E-02 -2.58783E-02  8.70812E-02 -9.52732E-02 -3.40327E-02  2.97485E-02 -3.44120E-03 -3.02587E-02 -1.48745E-01  5.36886E-02
  -2.09091E-02 -5.03048E-02  4.82296E-02 -7.71439E-02  1.36459E-02 -2.39129E-01  1.03437E-02  1.25659E-02  3.85568E-02 -1.61341E-01
  -1.20094E-01 -2.94253E-02  4.22137E-02 -4.84998E-02 -1.39675E-01 -1.05322E-01  7.07993E-02 -6.94090E-02  9.36112E-03 -1.33398E-01
  -5.38355E-02  8.86806E-02 -7.02424E-02 -3.91709E-02  6.15688E-03 -1.12770E-01 -3.53905E-02  4.90852E-02 -5.75926E-02  3.84806E-02
  -2.41015E-03  7.76618E-02 -2.74387E-04  3.85918E-02 -7.03303E-02  5.37718E-02  5.22094E-02 -3.49014E-02  8.33360E-03  2.80714E-02
  -1.68907E-01  8.03373E-02 -8.37335E-02 -1.22416E-01 -3.94911E-02 -1.15756E-01  1.39800E-02  1.48897E-02 -5.99646E-02 -1.37348E-01
  -9.89495E-02 -6.70675E-02  1.24470E-01  2.65034E-02 -1.28945E-01  3.47383E-02 -5.31411E-04  7.17930E-03 -1.52319E-01 -9.10302E-02
   5.89139E-03 -1.32984E-01  7.08914E-02 -1.41083E-02 -4.11835E-02 -6.70155E-02 -4.67382E-02  7.45679E-02 -2.29168E-02 -1.08393E-01
  -1.03499E-01 -7.79848E-02 -6.63204E-02 -1.21587E-01  3.91342E-02 -1.31760E-02 -4.07064E-02  3.02852E-03 -1.10785E-02  5.78232E-02
   7.62701E-02  1.67559E-02 -7.23393E-02 -8.91506E-02  2.51392E-02  1.70204E-02  2.00955E-02 -3.28202E-02 -1.14684E-01  9.24076E-03
   1.73548E-02 -2.02435E-02  1.53956E-02 -4.95950E-02  1.31471E-02  9.95302E-02  6.64881E-02 -3.22884E-02 -1.74271E-01 -1.04771E-01
  -9.85819E-02 -6.23857E-02 -1.19846E-01  1.44032E-01 -6.09340E-02  9.41170E-02 -1.38938E-02 -3.14870E-02 -1.36915E-01 -4.47508E-02
   1.32028E-02 -7.68747E-02 -7.93571E-02  1.36174E-01 -1.82803E-01 -3.20285E-02 -8.74999E-02 -8.40532E-02 -5.03926E-02  2.32169E-02
  -6.58829E-02 -6.16109E-02  9.24118E-03  4.30431E-02 -6.11173E-02 -4.48228E-02 -7.44038E-02 -8.87208E-02  1.47334E-01 -7.79623E-02
  -8.45859E-02  2.26222E-03  3.80970E-02 -1.84370E-01  7.19537E-02  4.68871E-02  2.32790E-02  2.39664E-02 -4.61064E-02 -6.28318E-02
  -1.49180E-02  8.70910E-03 -3.83859E-02 -9.39283E-02 -1.22887E-01  1.09789E-01 -1.58161E-01 -7.14080E-02 -8.65965E-02  9.13428E-02
  -5.08859E-02  3.56400E-02  1.75193E-02 -1.01675E-01  7.18767E-02 -5.08581E-02  1.15506E-01 -6.77867E-02  2.42365E-02  5.42381E-02
  -1.61600E-01 -6.20077E-02  3.11052E-02 -3.72737E-02 -1.56044E-01 -3.92893E-02  7.86719E-02  8.79065E-02  5.57085E-02  2.86188E-02
  -5.00351E-02 -1.26580E-01 -9.14627E-03 -8.63239E-02  7.83622E-02 -1.44262E-03 -3.35223E-02 -3.84685E-02 -8.67459E-03  1.85221E-02
   4.98716E-02  1.75519E-02  6.63578E-02 -3.90483E-02 -1.17810E-01  2.95828E-02  9.63230E-02 -8.32173E-02 -1.80776E-02  2.20814E-02
   1.39060E-02  8.93400E-02  1.16822E-01  9.25788E-02 -2.53029E-02 -8.80375E-02 -1.59524E-01 -2.82404E-02  3.00865E-02 -7.96577E-02
  -3.64076E-02 -1.73522E-01  7.76045E-02 -2.15587E-02 -6.37442E-02 -2.14500E-02  2.47396E-01 -3.07581E-02 -2.00037E-02  7.77087E-02
   1.15648E-01  7.91162E-02  5.79821E-02 -4.06394E-02  6.14508E-02  6.33153E-02  1.71891E-01  3.28635E-02  8.64320E-02 -1.47134E-02
   3.47866E-02 -6.26422E-03  1.20186E-01  1.76338E-01  1.02306E-01  1.67433E-01  2.03838E-01  1.07081E-01  1.00259E-01  1.48144E-01
   1.32911E-01  2.55017E-01  2.57979E-01  2.04615E-01  2.98719E-01  2.40172E-01  2.82260E-01  3.34289E-01  1.48271E-01  1.96315E-01
   1.99373E-01  3.06956E-01  1.98331E-01  1.90340E-01  2.01320E-01  2.46545E-01  3.08603E-01  3.28122E-01  8.39184E-02  1.82267E-01
   2.04064E-01  1.62759E-01  2.42425E-01  1.59290E-01  1.82056E-01  1.09945E-01  5.24334E-02  1.21554E-01  6.81359E-02  2.44374E-02
   3.96416E-02  1.45466E-01 -1.07724E-02  2.43967E-02  3.35870E-02  9.09180E-02  2.11385E-02  8.53642E-02  1.07240E-01  1.95530E-01
   2.40495E-02 -7.65819E-02  2.08670E-01  2.32916E-01 -4.97923E-02  1.43051E-01  1.23641E-01 -7.30365E-02 -3.52232E-03  1.94057E-03
   1.23756E-01  3.75494E-02  1.40871E-01 -1.58262E-02 -1.33984E-02  6.54960E-02  2.30990E-02 -3.37131E-02  2.76551E-02  9.74983E-03
  -1.04940E-02  2.57831E-02  2.29275E-01 -6.03866E-02  3.98003E-02 -2.14795E-02 -7.00441E-02 -1.78801E-02  1.88074E-02 -3.32559E-01
  -8.54872E-02 -2.48882E-02  2.12896E-02 -3.56931E-02 -9.02479E-02 -1.33502E-01  3.33063E-02 -6.54473E-03 -1.82379E-01  8.74067E-02
  -5.12180E-02 -1.05040E-01 -4.20591E-02 -1.05237E-02 -2.09543E-02 -1.61456E-01 -6.69724E-02 -1.32514E-01 -3.19075E-02 -1.93421E-01
  -2.85841E-03 -1.27221E-01 -8.18299E-02  8.08526E-02 -3.57441E-02 -9.49837E-02 -2.24506E-01 -2.38025E-02  5.79299E-02  9.75515E-02
   3.01717E-02 -5.29056E-02 -3.52245E-02  1.32273E-01  2.01357E-03 -2.08741E-03 -1.51939E-02 -1.63884E-01  7.90024E-02  4.72126E-02
  -1.83918E-02  6.64327E-02  5.32468E-05 -1.14413E-01 -1.64423E-01  5.21902E-02  6.12248E-03 -2.04676E-02 -1.45357E-01 -1.29739E-01
  -4.09129E-02 -9.09081E-02 -1.47416E-01 -6.07165E-02 -6.90516E-02 -8.39067E-04  4.54349E-02 -5.92352E-02  7.51260E-02  6.81203E-02
   1.19476E-02 -1.19624E-01 -8.70235E-02 -1.53280E-02  6.39318E-03  9.41099E-02  2.77112E-03  3.11023E-02 -1.67124E-01 -1.77039E-01
  -7.49982E-02  1.00072E-02 -1.31902E-01 -1.16747E-01  2.59743E-02 -8.85985E-02 -4.71472E-02 -2.37635E-01
 NY points of the fit to the data follow
   3.12986E-02  2.61686E-02  2.20720E-02  1.95888E-02  1.82608E-02  1.74704E-02  1.69837E-02  1.66881E-02  1.65083E-02  1.63950E-02
   1.63165E-02  1.62649E-02  1.62557E-02  1.62998E-02  1.63965E-02  1.65701E-02  1.68695E-02  1.73459E-02  1.80632E-02  1.91408E-02
   2.07700E-02  2.27712E-02  2.38708E-02  2.27678E-02  1.95266E-02  1.50427E-02  1.08629E-02  9.45818E-03  1.20924E-02  1.82227E-02
   2.57892E-02  3.27078E-02  3.75799E-02  3.94615E-02  3.78672E-02  3.32860E-02  2.69610E-02  2.01588E-02  1.43501E-02  1.09649E-02
   1.01152E-02  1.16384E-02  1.70662E-02  2.88439E-02  4.54691E-02  6.17226E-02  7.28897E-02  7.67309E-02  7.31855E-02  6.36552E-02
   5.01582E-02  3.49037E-02  2.00892E-02  8.01819E-03  2.07225E-03  4.16909E-03  1.17067E-02  2.10080E-02  2.92628E-02  3.47633E-02
   3.66400E-02  3.48931E-02  3.05315E-02  2.50674E-02  1.97223E-02  1.53826E-02  1.30253E-02  1.37935E-02  1.72112E-02  2.18971E-02
   2.61100E-02  2.87816E-02  2.95913E-02  2.87090E-02  2.67419E-02  2.42709E-02  2.16358E-02  1.90857E-02  1.68589E-02  1.54108E-02
   1.44784E-02  1.35014E-02  1.14282E-02  7.51176E-03  1.69582E-03 -5.06934E-03 -1.14255E-02 -1.62208E-02 -1.87139E-02 -1.85082E-02
  -1.57665E-02 -1.09408E-02 -4.78998E-03  9.24064E-04  4.36000E-03  4.83220E-03  2.70438E-03 -1.02222E-03 -5.46222E-03 -9.90442E-03
  -1.36710E-02 -1.60510E-02 -1.68691E-02 -1.62119E-02 -1.45382E-02 -1.26573E-02 -1.09280E-02 -9.41428E-03 -8.10983E-03 -7.07070E-03
  -6.36510E-03 -5.99274E-03 -5.83193E-03 -5.76144E-03 -5.85416E-03 -6.11583E-03 -6.51535E-03 -6.97977E-03 -7.44069E-03 -7.83770E-03
  -8.13689E-03 -8.32652E-03 -8.41806E-03 -8.43870E-03 -8.41246E-03 -8.37868E-03 -8.36443E-03 -8.38105E-03 -8.42677E-03 -8.49785E-03
  -8.59363E-03 -8.70604E-03 -8.82757E-03 -8.95170E-03 -9.06971E-03 -9.17661E-03 -9.27359E-03 -9.36558E-03 -9.45677E-03 -9.54700E-03
  -9.63390E-03 -9.71395E-03 -9.78788E-03 -9.86084E-03 -9.93928E-03 -1.00250E-02 -1.01153E-02 -1.02096E-02 -1.03141E-02 -1.04635E-02
  -1.06801E-02 -1.09286E-02 -1.11627E-02 -1.13370E-02 -1.14226E-02 -1.14672E-02 -1.15251E-02 -1.16218E-02 -1.17615E-02 -1.19422E-02
  -1.21676E-02 -1.24478E-02 -1.27642E-02 -1.30793E-02 -1.33822E-02 -1.36856E-02 -1.39643E-02 -1.41841E-02 -1.43258E-02 -1.43947E-02
  -1.44460E-02 -1.45452E-02 -1.46901E-02 -1.48598E-02 -1.50402E-02 -1.52354E-02 -1.54647E-02 -1.57476E-02 -1.60520E-02 -1.62672E-02
  -1.63421E-02 -1.63008E-02 -1.61963E-02 -1.60580E-02 -1.58977E-02 -1.57433E-02 -1.56106E-02 -1.54908E-02 -1.54507E-02 -1.56973E-02
  -1.62747E-02 -1.72018E-02 -1.84612E-02 -1.98272E-02 -2.10094E-02 -2.17186E-02 -2.15729E-02 -2.02132E-02 -1.76737E-02 -1.44059E-02
  -1.07381E-02 -7.24322E-03 -5.03453E-03 -4.77135E-03 -7.28609E-03 -1.34702E-02 -2.21882E-02 -3.08495E-02 -3.70621E-02 -3.90151E-02
  -3.53522E-02 -2.53505E-02 -1.19263E-02  1.01829E-03  1.02653E-02  1.39065E-02  1.00967E-02 -2.10484E-03 -1.97195E-02 -3.73446E-02
  -5.07714E-02 -5.75655E-02 -5.65644E-02 -4.88227E-02 -3.77889E-02 -2.59083E-02 -1.51996E-02 -7.33809E-03 -3.56200E-03 -3.99063E-03
  -6.87645E-03 -1.04656E-02 -1.39117E-02 -1.65849E-02 -1.79251E-02 -1.81328E-02 -1.73405E-02 -1.63619E-02 -1.64701E-02 -1.73857E-02
  -1.84045E-02 -1.94512E-02 -2.06233E-02 -2.17582E-02 -2.26695E-02 -2.35639E-02 -2.45563E-02 -2.52992E-02 -2.51304E-02 -2.41280E-02
  -2.21032E-02 -1.76571E-02 -1.15898E-02 -6.21103E-03 -2.61893E-03 -8.32542E-04 -7.66315E-04 -2.21760E-03 -4.53661E-03 -6.93351E-03
  -9.32865E-03 -1.15872E-02 -1.31077E-02 -1.36043E-02 -1.41129E-02 -1.53841E-02 -1.71542E-02 -1.89764E-02 -2.04279E-02 -2.12172E-02
  -2.12292E-02 -2.06303E-02 -1.98925E-02 -1.91344E-02 -1.84172E-02 -1.79391E-02 -1.77959E-02 -1.79678E-02 -1.83832E-02 -1.88678E-02
  -1.91991E-02 -1.92724E-02 -1.91340E-02 -1.88661E-02 -1.85233E-02 -1.81286E-02 -1.77144E-02 -1.73011E-02 -1.68532E-02 -1.63230E-02
  -1.56909E-02 -1.49604E-02 -1.41508E-02 -1.32805E-02 -1.23833E-02 -1.14866E-02 -1.05997E-02 -9.73013E-03 -8.88056E-03 -8.04715E-03
  -7.24172E-03 -6.48455E-03 -5.79405E-03 -5.18536E-03 -4.67077E-03 -4.26056E-03 -3.95988E-03 -3.75910E-03 -3.64306E-03 -3.59427E-03
  -3.59128E-03 -3.61404E-03 -3.64105E-03 -3.64874E-03 -3.61318E-03 -3.51051E-03 -3.31736E-03 -3.01130E-03 -2.57103E-03 -1.97636E-03
  -1.20808E-03 -2.47823E-04  9.22736E-04  2.32218E-03  3.96979E-03  5.88617E-03  8.09377E-03  1.06173E-02  1.34839E-02  1.67234E-02
   2.03682E-02  2.44529E-02  2.90145E-02  3.40906E-02  3.97190E-02  4.59358E-02  5.27737E-02  6.02601E-02  6.84141E-02  7.72442E-02
   8.67454E-02  9.68959E-02  1.07655E-01  1.18960E-01  1.30726E-01  1.42843E-01  1.55177E-01  1.67570E-01  1.79846E-01  1.91808E-01
   2.03251E-01  2.13960E-01  2.23726E-01  2.32343E-01  2.39625E-01  2.45409E-01  2.49562E-01  2.51988E-01  2.52630E-01  2.51476E-01
   2.48558E-01  2.43947E-01  2.37757E-01  2.30136E-01  2.21257E-01  2.11320E-01  2.00533E-01  1.89116E-01  1.77283E-01  1.65243E-01
   1.53191E-01  1.41306E-01  1.29744E-01  1.18639E-01  1.08103E-01  9.82239E-02  8.90670E-02  8.06792E-02  7.30890E-02  6.63098E-02
   6.03421E-02  5.51763E-02  5.07939E-02  4.71698E-02  4.42732E-02  4.20683E-02  4.05144E-02  3.95662E-02  3.91737E-02  3.92813E-02
   3.98278E-02  4.07459E-02  4.19625E-02  4.33987E-02  4.49712E-02  4.65929E-02  4.81753E-02  4.96301E-02  5.08725E-02  5.18233E-02
   5.24118E-02  5.25788E-02  5.22782E-02  5.14788E-02  5.01661E-02  4.83415E-02  4.60229E-02  4.32426E-02  4.00458E-02  3.64880E-02
   3.26326E-02  2.85476E-02  2.43027E-02  1.99662E-02  1.56030E-02  1.12726E-02  7.02715E-03  2.91081E-03 -1.04087E-03 -4.80099E-03
  -8.35082E-03 -1.16791E-02 -1.47813E-02 -1.76584E-02 -2.03158E-02 -2.27627E-02 -2.50106E-02 -2.70726E-02 -2.89627E-02 -3.06952E-02
  -3.22844E-02 -3.37438E-02 -3.50863E-02 -3.63239E-02 -3.74675E-02 -3.85270E-02 -3.95113E-02 -4.04285E-02 -4.12856E-02 -4.20888E-02
  -4.28438E-02 -4.35553E-02 -4.42277E-02 -4.48649E-02 -4.54702E-02 -4.60465E-02 -4.65964E-02 -4.71224E-02 -4.76264E-02 -4.81105E-02
  -4.85761E-02 -4.90247E-02 -4.94576E-02 -4.98761E-02 -5.02812E-02 -5.06740E-02 -5.10552E-02 -5.14256E-02 -5.17861E-02 -5.21372E-02
  -5.24797E-02 -5.28139E-02 -5.31405E-02 -5.34598E-02 -5.37724E-02 -5.40786E-02 -5.43789E-02 -5.46735E-02 -5.49626E-02 -5.52468E-02
  -5.55261E-02 -5.58010E-02 -5.60715E-02 -5.63379E-02 -5.66004E-02 -5.68592E-02 -5.71144E-02 -5.73664E-02 -5.76152E-02 -5.78608E-02
  -5.81036E-02 -5.83436E-02 -5.85809E-02 -5.88158E-02 -5.90481E-02 -5.92781E-02 -5.95058E-02 -5.97314E-02 -5.99550E-02 -6.01766E-02
  -6.03962E-02 -6.06139E-02 -6.08299E-02 -6.10441E-02 -6.12567E-02 -6.14676E-02 -6.16769E-02 -6.18847E-02
 NY background values follow
     1.205E-02    1.189E-02    1.174E-02    1.158E-02    1.143E-02    1.127E-02    1.112E-02    1.096E-02    1.081E-02    1.065E-02
     1.049E-02    1.034E-02    1.018E-02    1.003E-02    9.873E-03    9.718E-03    9.563E-03    9.408E-03    9.252E-03    9.097E-03
     8.942E-03    8.786E-03    8.631E-03    8.476E-03    8.320E-03    8.165E-03    8.010E-03    7.854E-03    7.699E-03    7.544E-03
     7.389E-03    7.233E-03    7.078E-03    6.923E-03    6.767E-03    6.612E-03    6.457E-03    6.301E-03    6.146E-03    5.991E-03
     5.835E-03    5.680E-03    5.525E-03    5.370E-03    5.214E-03    5.059E-03    4.904E-03    4.748E-03    4.593E-03    4.438E-03
     4.282E-03    4.127E-03    3.972E-03    3.817E-03    3.661E-03    3.506E-03    3.351E-03    3.195E-03    3.040E-03    2.885E-03
     2.729E-03    2.574E-03    2.419E-03    2.264E-03    2.108E-03    1.953E-03    1.798E-03    1.642E-03    1.487E-03    1.332E-03
     1.176E-03    1.021E-03    8.658E-04    7.105E-04    5.552E-04    3.999E-04    2.446E-04    8.928E-05   -6.602E-05   -2.213E-04
    -3.766E-04   -5.319E-04   -6.872E-04   -8.425E-04   -9.978E-04   -1.153E-03   -1.308E-03   -1.464E-03   -1.619E-03   -1.774E-03
    -1.930E-03   -2.085E-03   -2.240E-03   -2.396E-03   -2.551E-03   -2.706E-03   -2.861E-03   -3.017E-03   -3.172E-03   -3.327E-03
    -3.483E-03   -3.638E-03   -3.793E-03   -3.949E-03   -4.104E-03   -4.259E-03   -4.414E-03   -4.570E-03   -4.725E-03   -4.880E-03
    -5.036E-03   -5.191E-03   -5.346E-03   -5.502E-03   -5.657E-03   -5.812E-03   -5.967E-03   -6.123E-03   -6.278E-03   -6.433E-03
    -6.589E-03   -6.744E-03   -6.899E-03   -7.054E-03   -7.210E-03   -7.365E-03   -7.520E-03   -7.676E-03   -7.831E-03   -7.986E-03
    -8.142E-03   -8.297E-03   -8.452E-03   -8.607E-03   -8.763E-03   -8.918E-03   -9.073E-03   -9.229E-03   -9.384E-03   -9.539E-03
    -9.694E-03   -9.850E-03   -1.001E-02   -1.016E-02   -1.032E-02   -1.047E-02   -1.063E-02   -1.078E-02   -1.094E-02   -1.109E-02
    -1.125E-02   -1.140E-02   -1.156E-02   -1.171E-02   -1.187E-02   -1.202E-02   -1.218E-02   -1.233E-02   -1.249E-02   -1.264E-02
    -1.280E-02   -1.296E-02   -1.311E-02   -1.327E-02   -1.342E-02   -1.358E-02   -1.373E-02   -1.389E-02   -1.404E-02   -1.420E-02
    -1.435E-02   -1.451E-02   -1.466E-02   -1.482E-02   -1.497E-02   -1.513E-02   -1.528E-02   -1.544E-02   -1.560E-02   -1.575E-02
    -1.591E-02   -1.606E-02   -1.622E-02   -1.637E-02   -1.653E-02   -1.668E-02   -1.684E-02   -1.699E-02   -1.715E-02   -1.730E-02
    -1.746E-02   -1.761E-02   -1.777E-02   -1.792E-02   -1.808E-02   -1.824E-02   -1.839E-02   -1.855E-02   -1.870E-02   -1.886E-02
    -1.901E-02   -1.917E-02   -1.932E-02   -1.948E-02   -1.963E-02   -1.979E-02   -1.994E-02   -2.010E-02   -2.025E-02   -2.041E-02
    -2.056E-02   -2.072E-02   -2.087E-02   -2.103E-02   -2.119E-02   -2.134E-02   -2.150E-02   -2.165E-02   -2.181E-02   -2.196E-02
    -2.212E-02   -2.227E-02   -2.243E-02   -2.258E-02   -2.274E-02   -2.289E-02   -2.305E-02   -2.320E-02   -2.336E-02   -2.351E-02
    -2.367E-02   -2.383E-02   -2.398E-02   -2.414E-02   -2.429E-02   -2.445E-02   -2.460E-02   -2.476E-02   -2.491E-02   -2.507E-02
    -2.522E-02   -2.538E-02   -2.553E-02   -2.569E-02   -2.584E-02   -2.600E-02   -2.615E-02   -2.631E-02   -2.646E-02   -2.662E-02
    -2.678E-02   -2.693E-02   -2.709E-02   -2.724E-02   -2.740E-02   -2.755E-02   -2.771E-02   -2.786E-02   -2.802E-02   -2.817E-02
    -2.833E-02   -2.848E-02   -2.864E-02   -2.879E-02   -2.895E-02   -2.910E-02   -2.926E-02   -2.941E-02   -2.957E-02   -2.973E-02
    -2.988E-02   -3.004E-02   -3.019E-02   -3.035E-02   -3.050E-02   -3.066E-02   -3.081E-02   -3.097E-02   -3.112E-02   -3.128E-02
    -3.143E-02   -3.159E-02   -3.174E-02   -3.190E-02   -3.205E-02   -3.221E-02   -3.237E-02   -3.252E-02   -3.268E-02   -3.283E-02
    -3.299E-02   -3.314E-02   -3.330E-02   -3.345E-02   -3.361E-02   -3.376E-02   -3.392E-02   -3.407E-02   -3.423E-02   -3.438E-02
    -3.454E-02   -3.469E-02   -3.485E-02   -3.500E-02   -3.516E-02   -3.532E-02   -3.547E-02   -3.563E-02   -3.578E-02   -3.594E-02
    -3.609E-02   -3.625E-02   -3.640E-02   -3.656E-02   -3.671E-02   -3.687E-02   -3.702E-02   -3.718E-02   -3.733E-02   -3.749E-02
    -3.764E-02   -3.780E-02   -3.795E-02   -3.811E-02   -3.827E-02   -3.842E-02   -3.858E-02   -3.873E-02   -3.889E-02   -3.904E-02
    -3.920E-02   -3.935E-02   -3.951E-02   -3.966E-02   -3.982E-02   -3.997E-02   -4.013E-02   -4.028E-02   -4.044E-02   -4.059E-02
    -4.075E-02   -4.090E-02   -4.106E-02   -4.121E-02   -4.137E-02   -4.153E-02   -4.168E-02   -4.184E-02   -4.199E-02   -4.215E-02
    -4.230E-02   -4.246E-02   -4.261E-02   -4.277E-02   -4.292E-02   -4.308E-02   -4.323E-02   -4.339E-02   -4.354E-02   -4.370E-02
    -4.385E-02   -4.401E-02   -4.416E-02   -4.432E-02   -4.448E-02   -4.463E-02   -4.479E-02   -4.494E-02   -4.510E-02   -4.525E-02
    -4.541E-02   -4.556E-02   -4.572E-02   -4.587E-02   -4.603E-02   -4.618E-02   -4.634E-02   -4.649E-02   -4.665E-02   -4.680E-02
    -4.696E-02   -4.711E-02   -4.727E-02   -4.743E-02   -4.758E-02   -4.774E-02   -4.789E-02   -4.805E-02   -4.820E-02   -4.836E-02
    -4.851E-02   -4.867E-02   -4.882E-02   -4.898E-02   -4.913E-02   -4.929E-02   -4.944E-02   -4.960E-02   -4.975E-02   -4.991E-02
    -5.006E-02   -5.022E-02   -5.038E-02   -5.053E-02   -5.069E-02   -5.084E-02   -5.100E-02   -5.115E-02   -5.131E-02   -5.146E-02
    -5.162E-02   -5.177E-02   -5.193E-02   -5.208E-02   -5.224E-02   -5.239E-02   -5.255E-02   -5.270E-02   -5.286E-02   -5.301E-02
    -5.317E-02   -5.332E-02   -5.348E-02   -5.364E-02   -5.379E-02   -5.395E-02   -5.410E-02   -5.426E-02   -5.441E-02   -5.457E-02
    -5.472E-02   -5.488E-02   -5.503E-02   -5.519E-02   -5.534E-02   -5.550E-02   -5.565E-02   -5.581E-02   -5.596E-02   -5.612E-02
    -5.627E-02   -5.643E-02   -5.659E-02   -5.674E-02   -5.690E-02   -5.705E-02   -5.721E-02   -5.736E-02   -5.752E-02   -5.767E-02
    -5.783E-02   -5.798E-02   -5.814E-02   -5.829E-02   -5.845E-02   -5.860E-02   -5.876E-02   -5.891E-02   -5.907E-02   -5.922E-02
    -5.938E-02   -5.953E-02   -5.969E-02   -5.985E-02   -6.000E-02   -6.016E-02   -6.031E-02   -6.047E-02   -6.062E-02   -6.078E-02
    -6.093E-02   -6.109E-02   -6.124E-02   -6.140E-02   -6.155E-02   -6.171E-02   -6.186E-02   -6.202E-02   -6.217E-02   -6.233E-02
    -6.248E-02   -6.264E-02   -6.280E-02   -6.295E-02   -6.311E-02   -6.326E-02   -6.342E-02   -6.357E-02   -6.373E-02   -6.388E-02
    -6.404E-02   -6.419E-02   -6.435E-02   -6.450E-02   -6.466E-02   -6.481E-02   -6.497E-02   -6.512E-02
 Asp      Conc. = 3.41E-02
