 LCModel (Version 6.3-1L) Copyright: S.W. Provencher.          Ref.: Magn. Reson. Med. 30:672-679 (1993).                
 Slice#2 Row#5 Col#8  PD_05_press_1_raw_act
 36 lines in following concentration table = NCONC+1
    Conc.  %SD /Cr+PCr  Metabolite                                         
   61.438 183% 3.7E-02 Ala                                                 
   55.636 428% 3.4E-02 Asp                                                 
  221.643 103%   0.135 Cr                                                  
 1.42E+03  17%   0.865 PCr                                                 
    0.000 999%   0.000 GABA                                                
   63.070 269% 3.8E-02 Glc                                                 
 1.23E+03  19%   0.750 Gln                                                 
 2.13E+03  12%   1.298 Glu                                                 
  751.504   3%   0.458 GPC                                                 
    0.000 999%   0.000 PCh                                                 
  489.484  16%   0.299 GSH                                                 
 1.54E+03  17%   0.938 Ins                                                 
    0.000 999%   0.000 Lac                                                 
 2.52E+03   3%   1.536 NAA                                                 
    0.000 999%   0.000 NAAG                                                
  164.924  17%   0.101 Scyllo                                              
    3.454 999% 2.1E-03 Tau                                                 
  148.806  77% 9.1E-02 -CrCH2                                              
  751.504   3%   0.458 GPC+PCh                                             
 2.52E+03   3%   1.536 NAA+NAAG                                            
 1.64E+03   4%   1.000 Cr+PCr                                              
 3.36E+03  11%   2.049 Glu+Gln                                             
 2.00E+03  23%   1.218 Lip13a                                              
    0.000 999%   0.000 Lip13b                                              
    0.000 999%   0.000 Lip09                                               
 1.22E+03  17%   0.746 MM09                                                
  338.532  48%   0.206 Lip20                                               
 2.62E+03  14%   1.595 MM20                                                
  434.090  33%   0.265 MM12                                                
 2.43E+03  17%   1.481 MM14                                                
  564.903  43%   0.345 MM17                                                
 2.00E+03  23%   1.218 Lip13a+Lip13b                                       
 4.86E+03  10%   2.963 MM14+Lip13a+Lip13b+MM12                             
 1.22E+03  17%   0.746 MM09+Lip09                                          
 2.95E+03  13%   1.801 MM20+Lip20                                          
   6 lines in following misc. output table
  FWHM = 0.054 ppm    S/N =  13                                            
  Data shift =-0.038 ppm                                                   
  Ph: -42 deg     -14.9 deg/ppm                                            
  alphaB,S = 9.3E-01,   2.2E+02                                            
   14 spline knots.   Ns = 7(1)                                            
  (10) 4 infls.   ( 3) 1 extrs.                                            
  498 points on ppm-axis = NY
      4.000000     3.992357     3.984714     3.977070     3.969427     3.961784     3.954141     3.946497     3.938854     3.931211
      3.923568     3.915925     3.908281     3.900638     3.892995     3.885352     3.877708     3.870065     3.862422     3.854779
      3.847136     3.839492     3.831849     3.824206     3.816563     3.808919     3.801276     3.793633     3.785990     3.778347
      3.770703     3.763060     3.755417     3.747774     3.740130     3.732487     3.724844     3.717201     3.709558     3.701914
      3.694271     3.686628     3.678985     3.671341     3.663698     3.656055     3.648412     3.640769     3.633125     3.625482
      3.617839     3.610196     3.602552     3.594909     3.587266     3.579623     3.571980     3.564336     3.556693     3.549050
      3.541407     3.533763     3.526120     3.518477     3.510834     3.503191     3.495547     3.487904     3.480261     3.472618
      3.464974     3.457331     3.449688     3.442045     3.434402     3.426758     3.419115     3.411472     3.403829     3.396185
      3.388542     3.380899     3.373256     3.365613     3.357969     3.350326     3.342683     3.335040     3.327396     3.319753
      3.312110     3.304467     3.296824     3.289180     3.281537     3.273894     3.266251     3.258607     3.250964     3.243321
      3.235678     3.228034     3.220391     3.212748     3.205105     3.197462     3.189818     3.182175     3.174532     3.166889
      3.159245     3.151602     3.143959     3.136316     3.128673     3.121029     3.113386     3.105743     3.098100     3.090456
      3.082813     3.075170     3.067527     3.059884     3.052240     3.044597     3.036954     3.029311     3.021667     3.014024
      3.006381     2.998738     2.991095     2.983451     2.975808     2.968165     2.960522     2.952878     2.945235     2.937592
      2.929949     2.922306     2.914662     2.907019     2.899376     2.891733     2.884089     2.876446     2.868803     2.861160
      2.853517     2.845873     2.838230     2.830587     2.822944     2.815300     2.807657     2.800014     2.792371     2.784728
      2.777084     2.769441     2.761798     2.754155     2.746511     2.738868     2.731225     2.723582     2.715939     2.708295
      2.700652     2.693009     2.685366     2.677722     2.670079     2.662436     2.654793     2.647150     2.639506     2.631863
      2.624220     2.616577     2.608933     2.601290     2.593647     2.586004     2.578361     2.570717     2.563074     2.555431
      2.547788     2.540144     2.532501     2.524858     2.517215     2.509572     2.501928     2.494285     2.486642     2.478999
      2.471355     2.463712     2.456069     2.448426     2.440783     2.433139     2.425496     2.417853     2.410210     2.402566
      2.394923     2.387280     2.379637     2.371994     2.364350     2.356707     2.349064     2.341421     2.333777     2.326134
      2.318491     2.310848     2.303205     2.295561     2.287918     2.280275     2.272632     2.264988     2.257345     2.249702
      2.242059     2.234416     2.226772     2.219129     2.211486     2.203843     2.196199     2.188556     2.180913     2.173270
      2.165627     2.157983     2.150340     2.142697     2.135054     2.127410     2.119767     2.112124     2.104481     2.096838
      2.089194     2.081551     2.073908     2.066265     2.058621     2.050978     2.043335     2.035692     2.028049     2.020405
      2.012762     2.005119     1.997476     1.989833     1.982190     1.974546     1.966903     1.959260     1.951617     1.943974
      1.936331     1.928688     1.921045     1.913402     1.905759     1.898115     1.890472     1.882829     1.875186     1.867543
      1.859900     1.852257     1.844614     1.836971     1.829327     1.821684     1.814041     1.806398     1.798755     1.791112
      1.783469     1.775826     1.768183     1.760540     1.752896     1.745253     1.737610     1.729967     1.722324     1.714681
      1.707038     1.699395     1.691752     1.684108     1.676465     1.668822     1.661179     1.653536     1.645893     1.638250
      1.630607     1.622964     1.615321     1.607677     1.600034     1.592391     1.584748     1.577105     1.569462     1.561819
      1.554176     1.546533     1.538890     1.531246     1.523603     1.515960     1.508317     1.500674     1.493031     1.485388
      1.477745     1.470102     1.462458     1.454815     1.447172     1.439529     1.431886     1.424243     1.416600     1.408957
      1.401314     1.393671     1.386027     1.378384     1.370741     1.363098     1.355455     1.347812     1.340169     1.332526
      1.324883     1.317240     1.309596     1.301953     1.294310     1.286667     1.279024     1.271381     1.263738     1.256095
      1.248452     1.240808     1.233165     1.225522     1.217879     1.210236     1.202593     1.194950     1.187307     1.179664
      1.172021     1.164377     1.156734     1.149091     1.141448     1.133805     1.126162     1.118519     1.110876     1.103233
      1.095590     1.087946     1.080303     1.072660     1.065017     1.057374     1.049731     1.042088     1.034445     1.026802
      1.019158     1.011515     1.003872     0.996229     0.988586     0.980943     0.973300     0.965657     0.958014     0.950371
      0.942727     0.935084     0.927441     0.919798     0.912155     0.904512     0.896869     0.889226     0.881583     0.873940
      0.866296     0.858653     0.851010     0.843367     0.835724     0.828081     0.820438     0.812795     0.805152     0.797508
      0.789865     0.782222     0.774579     0.766936     0.759293     0.751650     0.744007     0.736364     0.728721     0.721077
      0.713434     0.705791     0.698148     0.690505     0.682862     0.675219     0.667576     0.659933     0.652290     0.644646
      0.637003     0.629360     0.621717     0.614074     0.606431     0.598788     0.591145     0.583502     0.575858     0.568215
      0.560572     0.552929     0.545286     0.537643     0.530000     0.522357     0.514714     0.507071     0.499427     0.491784
      0.484141     0.476498     0.468855     0.461212     0.453569     0.445925     0.438282     0.430639     0.422996     0.415353
      0.407710     0.400067     0.392424     0.384780     0.377137     0.369494     0.361851     0.354208     0.346565     0.338922
      0.331278     0.323635     0.315992     0.308349     0.300706     0.293063     0.285420     0.277777     0.270133     0.262490
      0.254847     0.247204     0.239561     0.231918     0.224275     0.216631     0.208988     0.201345
 NY phased data points follow
  -2.79224E+01 -2.40256E+01 -2.43386E+01 -2.29716E+01 -1.99571E+01 -1.53384E+01 -6.17947E+00 -6.33245E-01  1.04927E+01  1.39691E+01
   1.30572E+01  1.70878E+01  1.03158E+01  5.75308E+00 -2.48696E+00  9.26996E-01 -1.00138E+01 -1.65140E+01 -1.47548E+01 -1.12982E+01
  -1.88615E+01 -1.37077E+01 -1.39433E+01 -1.19331E+01 -1.52940E+01 -1.27290E+01 -1.24001E+01 -9.47922E+00 -9.03979E+00 -2.71410E+00
  -7.15958E+00 -2.02779E+00 -2.21181E+00 -1.08686E+01 -9.25886E+00 -1.10567E+01 -1.47298E+01 -8.64150E+00 -1.17083E+01 -1.17856E+01
  -1.10502E+01 -8.84687E+00 -8.96345E+00 -8.26009E+00 -7.40099E+00 -6.89280E+00  6.70253E-01 -1.57612E-02 -2.26110E+00 -1.28320E+00
  -3.36286E+00 -1.12116E+01 -1.01200E+01 -8.92727E+00 -1.21137E+01 -5.84825E+00 -8.00243E+00 -8.35233E+00 -1.31988E+01 -7.90341E+00
  -8.45310E+00 -1.35688E+01 -1.39925E+01 -1.82275E+01 -1.60974E+01 -1.60524E+01 -1.67013E+01 -1.23131E+01 -1.88431E+01 -1.80168E+01
  -1.89931E+01 -1.43288E+01 -1.35679E+01 -1.38065E+01 -1.43049E+01 -1.43758E+01 -1.63612E+01 -1.34099E+01 -1.64914E+01 -1.45490E+01
  -1.11751E+01 -1.15558E+01 -1.16967E+01 -6.50719E+00 -1.30445E+01 -8.52723E+00 -3.39639E+00 -8.48469E+00 -7.07803E+00 -1.07592E+01
  -1.14843E+01 -9.02274E+00 -1.28385E+01 -1.23028E+01 -9.90486E+00 -1.08602E+01 -6.74682E+00 -1.58068E+00  1.19409E+00  8.77959E+00
   2.36362E+01  3.62217E+01  5.08646E+01  5.47464E+01  5.07684E+01  3.98938E+01  3.44428E+01  2.44907E+01  1.52285E+01  8.79020E+00
   1.67286E+00  4.34712E-01 -7.37724E+00 -3.66749E+00 -7.51754E+00 -7.20322E+00 -1.08843E+01 -1.27339E+01 -1.11345E+01 -1.17186E+01
  -9.52036E+00 -8.78049E+00 -8.40533E+00  3.31023E+00  1.71424E+01  2.75368E+01  4.28622E+01  4.98047E+01  4.43288E+01  3.81630E+01
   2.38302E+01  2.22887E+01  1.15451E+01  7.08035E+00  5.52188E+00 -1.89050E+00 -3.50484E+00 -1.35907E+01 -3.35118E+00 -6.85575E+00
  -9.83412E+00 -8.20937E+00 -1.29130E+01 -9.76617E+00 -1.23489E+01 -1.11563E+01 -9.67067E+00 -1.27408E+01 -1.50699E+01 -1.11805E+01
  -8.80255E+00 -1.00910E+01 -1.07554E+01 -6.84984E+00 -4.87738E+00 -7.94515E+00 -1.10355E+01 -8.00988E+00 -1.07469E+01 -7.29767E+00
  -1.07793E+01 -1.15575E+01 -1.23779E+01 -1.59257E+01 -8.38429E+00 -5.17551E+00 -5.11335E+00 -6.62330E+00 -1.09079E+01 -1.10013E+01
  -1.29530E+01 -7.57896E+00 -1.28460E+01 -9.93785E+00 -1.71988E+01 -1.67318E+01 -1.47506E+01 -1.12576E+01 -1.31667E+01 -9.91352E+00
  -1.37899E+01 -1.79411E+01 -1.62489E+01 -1.65734E+01 -1.63520E+01 -1.76570E+01 -1.65414E+01 -1.56171E+01 -6.76492E+00 -5.82153E+00
  -6.71005E+00 -6.08131E+00  1.84358E-02 -1.50466E+00 -2.51133E-01  5.34357E-01 -7.98603E+00 -3.52869E+00 -3.14949E+00 -1.60669E+00
  -2.77242E+00  2.61185E+00 -1.51182E+00  5.38863E+00  6.62380E+00  2.96601E+00 -2.22007E+00 -1.92875E+00 -8.97886E+00 -4.62037E+00
  -1.12103E+01 -6.35363E+00 -2.63782E+00  2.22295E+00  8.23021E+00  6.56916E+00  1.28452E+01  1.03103E+01  6.12793E+00  1.74752E+00
  -6.43167E+00 -8.78514E+00 -7.72657E+00 -4.95045E+00 -2.72033E+00  7.89299E+00  5.13915E+00  5.96565E+00  4.44181E+00  5.98558E+00
   1.04915E+01  1.14744E+01  2.23744E+00  7.26170E+00  7.32106E+00  4.86906E+00  5.40613E+00  5.67280E+00  1.23990E+01  8.04768E+00
   7.42178E+00  4.12178E+00  5.04591E+00  6.32366E+00  4.59854E+00  9.55913E+00  7.49018E+00  9.78496E+00  5.76045E+00  6.86194E+00
   1.12646E+01  8.45078E+00  1.01064E+01  1.57706E+01  1.33568E+01  2.24410E+01  2.52561E+01  3.67866E+01  5.95391E+01  8.41164E+01
   9.16269E+01  9.61232E+01  8.28941E+01  7.03216E+01  5.44760E+01  4.49965E+01  3.62515E+01  2.85855E+01  2.53090E+01  9.34219E+00
   1.40292E+01  1.83303E+01  8.34112E+00  5.98468E+00  7.85010E+00  6.65115E+00  5.87964E+00  4.12192E+00  2.26261E+00 -3.31570E-01
   2.92079E+00  5.40536E+00  4.99764E+00  5.06267E+00  4.00896E+00  3.87835E+00  2.48508E+00  2.37027E+00  3.50642E+00  2.29438E+00
   7.02637E-01  7.25328E-01 -2.83035E+00  3.02308E+00  5.19807E+00  2.50054E-01  9.74211E-01  7.10178E-01 -1.70005E+00 -1.45462E+00
   1.55336E+00  5.25897E+00  1.07793E+00  3.94608E+00  2.64877E+00  2.57639E-01  4.94616E+00  5.78266E+00  9.12335E+00  1.09063E+01
   8.41615E+00  6.85853E+00  1.06484E+01  8.71990E+00  6.88060E+00  1.20945E+01  1.00558E+01  1.24847E+01  1.00981E+01  1.67648E+01
   1.34968E+01  9.74485E+00  1.54119E+01  1.64887E+01  1.44584E+01  1.40929E+01  1.28731E+01  1.42525E+01  1.43087E+01  2.00949E+01
   1.92210E+01  1.82727E+01  1.96375E+01  1.75519E+01  2.03381E+01  2.21919E+01  2.14654E+01  2.26802E+01  2.55426E+01  2.70995E+01
   2.01818E+01  1.92589E+01  1.92873E+01  2.13108E+01  2.20622E+01  1.91289E+01  2.54310E+01  2.48280E+01  1.98318E+01  1.81986E+01
   1.83188E+01  1.87699E+01  2.00675E+01  1.89002E+01  1.65934E+01  2.33174E+01  1.75305E+01  1.65373E+01  1.55159E+01  1.43228E+01
   1.44117E+01  1.31706E+01  1.37753E+01  1.37453E+01  1.46364E+01  1.05355E+01  1.38402E+01  1.25557E+01  9.97373E+00  1.06294E+01
   1.40319E+01  9.81842E+00  1.24687E+01  1.40465E+01  1.24863E+01  1.66309E+01  1.52235E+01  9.00740E+00  8.61113E+00  1.07690E+01
   1.08648E+01  8.19736E+00  1.29078E+01  1.34864E+01  8.87187E+00  8.01908E+00  7.00528E+00  7.87362E+00  8.60923E+00  4.84367E+00
   3.91977E+00  6.68964E+00  6.34708E+00  2.85514E+00  9.45181E+00  7.93000E+00  6.24495E+00  9.00067E+00  9.61492E+00  1.20162E+01
   9.63984E+00  8.99570E+00  1.30908E+01  1.28919E+01  1.35156E+01  9.32348E+00  1.15064E+01  1.45260E+01  1.23317E+01  1.32344E+01
   1.26164E+01  1.41314E+01  1.29354E+01  1.56421E+01  1.12058E+01  8.71659E+00  1.07085E+01  8.03584E+00  1.23959E+01  1.08411E+01
   7.87693E+00  6.78444E+00  1.18674E+01  9.65437E+00  7.95249E+00  1.08966E+01  8.52454E+00  3.11886E+00  1.07125E+01  6.87986E+00
   8.34622E+00  9.14145E+00  8.37617E+00  1.12978E+01  6.45839E+00  1.07346E+01  9.75637E+00  9.76087E+00  8.53567E+00  1.13171E+01
   2.36718E+00  1.13856E+01  1.07627E+01  4.94742E+00  6.12227E+00  6.11442E+00  9.42349E+00  8.50208E+00  6.82881E+00  9.01035E+00
   8.02806E+00  6.72337E+00  9.82875E+00  8.05652E+00  6.36766E+00  5.54119E+00  4.24071E+00  3.33114E+00  9.55499E-01  1.41467E+00
   4.24628E+00  5.12237E+00  2.83715E+00  3.06605E+00  7.51570E+00  6.78000E+00  1.95522E+00  4.38856E+00  3.87099E+00  7.38064E+00
   3.62737E+00  7.91571E+00  4.92985E+00  9.09785E+00  7.57898E+00  6.11484E+00  8.44886E+00  6.89300E+00  4.15625E+00  7.06777E+00
   8.91560E+00  5.24732E+00  4.63459E+00  7.20191E+00  5.90466E+00  3.64530E+00  7.06090E+00  9.78913E+00  6.80246E+00  7.03722E+00
   6.08963E+00  4.16651E+00  6.48654E-01  7.99692E+00  3.39419E+00  8.42604E+00  8.89537E+00  1.11841E+01
 NY points of the fit to the data follow
  -2.07185E+01 -2.10780E+01 -2.08361E+01 -1.96439E+01 -1.71864E+01 -1.28818E+01 -6.48048E+00  1.30725E+00  8.74405E+00  1.37729E+01
   1.51505E+01  1.30682E+01  8.88064E+00  4.20644E+00  8.24872E-02 -3.32913E+00 -6.49810E+00 -9.80236E+00 -1.26436E+01 -1.39740E+01
  -1.45301E+01 -1.48328E+01 -1.50777E+01 -1.53259E+01 -1.55487E+01 -1.53657E+01 -1.43322E+01 -1.23135E+01 -9.56104E+00 -6.64211E+00
  -4.22869E+00 -2.92566E+00 -3.07307E+00 -4.53913E+00 -6.82956E+00 -9.38544E+00 -1.17421E+01 -1.35979E+01 -1.45639E+01 -1.46596E+01
  -1.43311E+01 -1.35058E+01 -1.20532E+01 -9.93356E+00 -7.30841E+00 -4.72533E+00 -2.89891E+00 -2.44560E+00 -3.41973E+00 -5.29089E+00
  -7.50799E+00 -9.57401E+00 -1.11516E+01 -1.22779E+01 -1.31606E+01 -1.36874E+01 -1.35599E+01 -1.28584E+01 -1.20463E+01 -1.15256E+01
  -1.14922E+01 -1.19779E+01 -1.28160E+01 -1.37230E+01 -1.44068E+01 -1.47077E+01 -1.46876E+01 -1.44634E+01 -1.40608E+01 -1.35323E+01
  -1.29876E+01 -1.25403E+01 -1.22959E+01 -1.22634E+01 -1.23919E+01 -1.26025E+01 -1.28101E+01 -1.29853E+01 -1.31174E+01 -1.31514E+01
  -1.29273E+01 -1.23107E+01 -1.12295E+01 -9.75248E+00 -8.24474E+00 -7.24385E+00 -7.14951E+00 -7.95671E+00 -9.26608E+00 -1.05369E+01
  -1.14054E+01 -1.18283E+01 -1.20096E+01 -1.22145E+01 -1.24987E+01 -1.24233E+01 -1.10110E+01 -7.49304E+00 -9.60334E-01  9.61128E+00
   2.37546E+01  3.86324E+01  5.00454E+01  5.46549E+01  5.17992E+01  4.35944E+01  3.33298E+01  2.36173E+01  1.54454E+01  8.33844E+00
   1.44982E+00 -4.91475E+00 -8.86890E+00 -1.02156E+01 -1.06911E+01 -1.09107E+01 -1.10259E+01 -1.10687E+01 -1.10206E+01 -1.07762E+01
  -9.80427E+00 -7.20637E+00 -2.36240E+00  5.62912E+00  1.68412E+01  2.93731E+01  3.98416E+01  4.51136E+01  4.41141E+01  3.82379E+01
   3.01551E+01  2.21373E+01  1.51211E+01  8.80638E+00  2.50183E+00 -3.61656E+00 -7.70258E+00 -8.64882E+00 -8.39306E+00 -7.87204E+00
  -7.43242E+00 -7.17655E+00 -7.04198E+00 -7.00920E+00 -7.08270E+00 -7.22418E+00 -7.43372E+00 -7.71745E+00 -8.02476E+00 -8.32449E+00
  -8.54579E+00 -8.68605E+00 -8.75687E+00 -8.75567E+00 -8.70691E+00 -8.67342E+00 -8.71463E+00 -8.89471E+00 -9.23321E+00 -9.64846E+00
  -9.98091E+00 -1.00434E+01 -9.77557E+00 -9.32496E+00 -8.95099E+00 -8.85559E+00 -9.07631E+00 -9.48165E+00 -9.87894E+00 -1.01681E+01
  -1.04475E+01 -1.08679E+01 -1.14275E+01 -1.20582E+01 -1.25635E+01 -1.27679E+01 -1.26798E+01 -1.23920E+01 -1.20881E+01 -1.19114E+01
  -1.18829E+01 -1.19177E+01 -1.18778E+01 -1.16975E+01 -1.13527E+01 -1.07911E+01 -9.92747E+00 -8.61471E+00 -6.94592E+00 -5.34469E+00
  -4.29117E+00 -4.03409E+00 -4.41399E+00 -5.11165E+00 -5.76648E+00 -6.09335E+00 -6.00676E+00 -5.47866E+00 -4.36198E+00 -2.71080E+00
  -7.30597E-01  1.29715E+00  2.96487E+00  3.74922E+00  3.29957E+00  1.45546E+00 -1.59382E+00 -5.12862E+00 -8.18270E+00 -9.80692E+00
  -9.49198E+00 -7.27805E+00 -3.67140E+00  5.13700E-01  4.28431E+00  6.56991E+00  6.74713E+00  4.90893E+00  1.54434E+00 -2.68493E+00
  -6.45229E+00 -8.60157E+00 -8.82137E+00 -7.37520E+00 -4.74853E+00 -1.52557E+00  1.37897E+00  3.41121E+00  4.63756E+00  5.34466E+00
   5.75913E+00  5.83955E+00  5.65897E+00  5.58079E+00  5.83213E+00  6.31938E+00  6.88806E+00  7.38918E+00  7.64166E+00  7.46178E+00
   6.81355E+00  6.00796E+00  5.49237E+00  5.48496E+00  5.87401E+00  6.37304E+00  6.89808E+00  7.37031E+00  7.79206E+00  8.34669E+00
   9.23071E+00  1.03544E+01  1.13948E+01  1.26632E+01  1.54102E+01  2.06282E+01  2.97254E+01  4.39723E+01  6.19939E+01  7.93113E+01
   9.04808E+01  9.21646E+01  8.49217E+01  7.23904E+01  5.88622E+01  4.70358E+01  3.73046E+01  2.84178E+01  1.94200E+01  1.16289E+01
   7.90578E+00  6.79074E+00  6.33699E+00  6.15895E+00  6.05156E+00  5.88333E+00  5.66096E+00  5.39142E+00  5.09944E+00  4.81262E+00
   4.54024E+00  4.27719E+00  4.04528E+00  3.86614E+00  3.72898E+00  3.61564E+00  3.52032E+00  3.44616E+00  3.39530E+00  3.36115E+00
   3.33708E+00  3.32931E+00  3.34085E+00  3.37284E+00  3.42666E+00  3.50401E+00  3.60604E+00  3.73222E+00  3.88318E+00  4.06190E+00
   4.26953E+00  4.50561E+00  4.76954E+00  5.05943E+00  5.37288E+00  5.70771E+00  6.06155E+00  6.43147E+00  6.81392E+00  7.20513E+00
   7.60164E+00  8.00088E+00  8.40168E+00  8.80345E+00  9.20640E+00  9.61272E+00  1.00265E+01  1.04535E+01  1.09014E+01  1.13805E+01
   1.19054E+01  1.24823E+01  1.31105E+01  1.37784E+01  1.44483E+01  1.50679E+01  1.56013E+01  1.60520E+01  1.64680E+01  1.69122E+01
   1.74285E+01  1.80408E+01  1.87470E+01  1.95110E+01  2.02711E+01  2.09647E+01  2.15433E+01  2.19533E+01  2.21837E+01  2.22740E+01
   2.22597E+01  2.21566E+01  2.19624E+01  2.16802E+01  2.13510E+01  2.10126E+01  2.06633E+01  2.03048E+01  1.99420E+01  1.95798E+01
   1.92218E+01  1.88701E+01  1.85252E+01  1.81857E+01  1.78495E+01  1.75139E+01  1.71755E+01  1.68309E+01  1.64772E+01  1.61117E+01
   1.57327E+01  1.53396E+01  1.49328E+01  1.45134E+01  1.40832E+01  1.36452E+01  1.32026E+01  1.27594E+01  1.23197E+01  1.18873E+01
   1.14662E+01  1.10601E+01  1.06725E+01  1.03066E+01  9.96500E+00  9.64973E+00  9.36250E+00  9.10474E+00  8.87754E+00  8.68167E+00
   8.51753E+00  8.38530E+00  8.28512E+00  8.21712E+00  8.18140E+00  8.17795E+00  8.20662E+00  8.26728E+00  8.35978E+00  8.48395E+00
   8.63937E+00  8.82525E+00  9.04037E+00  9.28311E+00  9.55136E+00  9.84237E+00  1.01526E+01  1.04775E+01  1.08121E+01  1.11504E+01
   1.14861E+01  1.18121E+01  1.21212E+01  1.24059E+01  1.26591E+01  1.28740E+01  1.30448E+01  1.31668E+01  1.32361E+01  1.32504E+01
   1.32091E+01  1.31131E+01  1.29649E+01  1.27680E+01  1.25276E+01  1.22494E+01  1.19400E+01  1.16067E+01  1.12564E+01  1.08962E+01
   1.05324E+01  1.01712E+01  9.81759E+00  9.47621E+00  9.15052E+00  8.84312E+00  8.55578E+00  8.28959E+00  8.04508E+00  7.82214E+00
   7.62019E+00  7.43825E+00  7.27514E+00  7.12961E+00  7.00032E+00  6.88588E+00  6.78484E+00  6.69580E+00  6.61753E+00  6.54892E+00
   6.48896E+00  6.43667E+00  6.39113E+00  6.35152E+00  6.31722E+00  6.28768E+00  6.26240E+00  6.24085E+00  6.22257E+00  6.20720E+00
   6.19449E+00  6.18420E+00  6.17609E+00  6.16987E+00  6.16534E+00  6.16235E+00  6.16083E+00  6.16066E+00  6.16169E+00  6.16377E+00
   6.16678E+00  6.17072E+00  6.17555E+00  6.18122E+00  6.18760E+00  6.19460E+00  6.20219E+00  6.21039E+00  6.21919E+00  6.22852E+00
   6.23831E+00  6.24850E+00  6.25912E+00  6.27020E+00  6.28172E+00  6.29361E+00  6.30582E+00  6.31833E+00  6.33119E+00  6.34442E+00
   6.35800E+00  6.37185E+00  6.38595E+00  6.40033E+00  6.41503E+00  6.43007E+00  6.44540E+00  6.46096E+00  6.47678E+00  6.49288E+00
   6.50932E+00  6.52609E+00  6.54315E+00  6.56046E+00  6.57807E+00  6.59604E+00  6.61442E+00  6.63316E+00
 NY background values follow
    -2.472E+01   -2.461E+01   -2.450E+01   -2.439E+01   -2.427E+01   -2.416E+01   -2.405E+01   -2.394E+01   -2.383E+01   -2.371E+01
    -2.360E+01   -2.349E+01   -2.338E+01   -2.327E+01   -2.316E+01   -2.305E+01   -2.294E+01   -2.283E+01   -2.272E+01   -2.261E+01
    -2.250E+01   -2.239E+01   -2.228E+01   -2.217E+01   -2.206E+01   -2.195E+01   -2.184E+01   -2.173E+01   -2.163E+01   -2.152E+01
    -2.141E+01   -2.131E+01   -2.120E+01   -2.109E+01   -2.099E+01   -2.088E+01   -2.078E+01   -2.067E+01   -2.057E+01   -2.047E+01
    -2.036E+01   -2.026E+01   -2.016E+01   -2.006E+01   -1.995E+01   -1.985E+01   -1.975E+01   -1.965E+01   -1.955E+01   -1.945E+01
    -1.936E+01   -1.926E+01   -1.916E+01   -1.906E+01   -1.897E+01   -1.887E+01   -1.878E+01   -1.868E+01   -1.859E+01   -1.849E+01
    -1.840E+01   -1.830E+01   -1.821E+01   -1.812E+01   -1.802E+01   -1.793E+01   -1.784E+01   -1.775E+01   -1.766E+01   -1.757E+01
    -1.748E+01   -1.739E+01   -1.730E+01   -1.721E+01   -1.712E+01   -1.703E+01   -1.694E+01   -1.686E+01   -1.677E+01   -1.668E+01
    -1.659E+01   -1.651E+01   -1.642E+01   -1.633E+01   -1.625E+01   -1.616E+01   -1.608E+01   -1.599E+01   -1.590E+01   -1.582E+01
    -1.573E+01   -1.565E+01   -1.557E+01   -1.548E+01   -1.540E+01   -1.531E+01   -1.523E+01   -1.515E+01   -1.506E+01   -1.498E+01
    -1.490E+01   -1.481E+01   -1.473E+01   -1.465E+01   -1.456E+01   -1.448E+01   -1.440E+01   -1.431E+01   -1.423E+01   -1.415E+01
    -1.407E+01   -1.398E+01   -1.390E+01   -1.382E+01   -1.373E+01   -1.365E+01   -1.357E+01   -1.348E+01   -1.340E+01   -1.331E+01
    -1.323E+01   -1.315E+01   -1.306E+01   -1.298E+01   -1.289E+01   -1.281E+01   -1.272E+01   -1.263E+01   -1.255E+01   -1.246E+01
    -1.238E+01   -1.229E+01   -1.220E+01   -1.211E+01   -1.203E+01   -1.194E+01   -1.185E+01   -1.176E+01   -1.167E+01   -1.158E+01
    -1.149E+01   -1.140E+01   -1.131E+01   -1.122E+01   -1.113E+01   -1.103E+01   -1.094E+01   -1.085E+01   -1.076E+01   -1.066E+01
    -1.057E+01   -1.048E+01   -1.038E+01   -1.029E+01   -1.019E+01   -1.010E+01   -1.000E+01   -9.907E+00   -9.811E+00   -9.714E+00
    -9.618E+00   -9.521E+00   -9.424E+00   -9.327E+00   -9.229E+00   -9.132E+00   -9.034E+00   -8.935E+00   -8.837E+00   -8.738E+00
    -8.639E+00   -8.540E+00   -8.441E+00   -8.341E+00   -8.241E+00   -8.141E+00   -8.041E+00   -7.941E+00   -7.840E+00   -7.740E+00
    -7.639E+00   -7.538E+00   -7.436E+00   -7.335E+00   -7.233E+00   -7.132E+00   -7.030E+00   -6.929E+00   -6.827E+00   -6.725E+00
    -6.624E+00   -6.522E+00   -6.421E+00   -6.320E+00   -6.219E+00   -6.118E+00   -6.017E+00   -5.917E+00   -5.817E+00   -5.717E+00
    -5.618E+00   -5.519E+00   -5.420E+00   -5.322E+00   -5.224E+00   -5.126E+00   -5.030E+00   -4.933E+00   -4.838E+00   -4.742E+00
    -4.648E+00   -4.554E+00   -4.461E+00   -4.368E+00   -4.276E+00   -4.185E+00   -4.095E+00   -4.005E+00   -3.917E+00   -3.829E+00
    -3.742E+00   -3.656E+00   -3.571E+00   -3.487E+00   -3.404E+00   -3.322E+00   -3.241E+00   -3.161E+00   -3.082E+00   -3.005E+00
    -2.928E+00   -2.852E+00   -2.777E+00   -2.704E+00   -2.631E+00   -2.559E+00   -2.488E+00   -2.418E+00   -2.349E+00   -2.280E+00
    -2.213E+00   -2.146E+00   -2.080E+00   -2.015E+00   -1.951E+00   -1.888E+00   -1.825E+00   -1.763E+00   -1.701E+00   -1.641E+00
    -1.581E+00   -1.522E+00   -1.463E+00   -1.405E+00   -1.347E+00   -1.291E+00   -1.234E+00   -1.178E+00   -1.123E+00   -1.069E+00
    -1.014E+00   -9.605E-01   -9.072E-01   -8.544E-01   -8.019E-01   -7.499E-01   -6.983E-01   -6.470E-01   -5.961E-01   -5.455E-01
    -4.952E-01   -4.452E-01   -3.955E-01   -3.461E-01   -2.970E-01   -2.481E-01   -1.994E-01   -1.511E-01   -1.030E-01   -5.510E-02
    -7.483E-03    3.989E-02    8.703E-02    1.339E-01    1.806E-01    2.271E-01    2.733E-01    3.193E-01    3.651E-01    4.107E-01
     4.561E-01    5.013E-01    5.462E-01    5.910E-01    6.356E-01    6.801E-01    7.243E-01    7.684E-01    8.123E-01    8.560E-01
     8.995E-01    9.429E-01    9.862E-01    1.029E+00    1.072E+00    1.115E+00    1.158E+00    1.200E+00    1.243E+00    1.285E+00
     1.327E+00    1.369E+00    1.411E+00    1.453E+00    1.494E+00    1.536E+00    1.577E+00    1.619E+00    1.660E+00    1.701E+00
     1.742E+00    1.783E+00    1.824E+00    1.865E+00    1.906E+00    1.946E+00    1.986E+00    2.027E+00    2.067E+00    2.106E+00
     2.146E+00    2.186E+00    2.225E+00    2.264E+00    2.304E+00    2.342E+00    2.381E+00    2.420E+00    2.458E+00    2.496E+00
     2.534E+00    2.572E+00    2.609E+00    2.646E+00    2.683E+00    2.720E+00    2.757E+00    2.793E+00    2.829E+00    2.865E+00
     2.901E+00    2.936E+00    2.971E+00    3.006E+00    3.041E+00    3.075E+00    3.109E+00    3.142E+00    3.176E+00    3.209E+00
     3.242E+00    3.274E+00    3.306E+00    3.338E+00    3.370E+00    3.401E+00    3.432E+00    3.463E+00    3.493E+00    3.523E+00
     3.553E+00    3.583E+00    3.612E+00    3.641E+00    3.670E+00    3.699E+00    3.728E+00    3.756E+00    3.784E+00    3.812E+00
     3.839E+00    3.867E+00    3.894E+00    3.921E+00    3.948E+00    3.975E+00    4.002E+00    4.028E+00    4.054E+00    4.081E+00
     4.107E+00    4.133E+00    4.159E+00    4.184E+00    4.210E+00    4.236E+00    4.261E+00    4.286E+00    4.312E+00    4.337E+00
     4.362E+00    4.388E+00    4.413E+00    4.438E+00    4.463E+00    4.488E+00    4.513E+00    4.538E+00    4.563E+00    4.588E+00
     4.613E+00    4.638E+00    4.663E+00    4.688E+00    4.713E+00    4.738E+00    4.763E+00    4.788E+00    4.813E+00    4.837E+00
     4.862E+00    4.887E+00    4.912E+00    4.936E+00    4.961E+00    4.985E+00    5.010E+00    5.034E+00    5.059E+00    5.083E+00
     5.107E+00    5.131E+00    5.156E+00    5.180E+00    5.204E+00    5.228E+00    5.251E+00    5.275E+00    5.299E+00    5.322E+00
     5.346E+00    5.369E+00    5.392E+00    5.416E+00    5.439E+00    5.462E+00    5.484E+00    5.507E+00    5.530E+00    5.552E+00
     5.575E+00    5.597E+00    5.619E+00    5.641E+00    5.663E+00    5.685E+00    5.707E+00    5.728E+00    5.750E+00    5.771E+00
     5.792E+00    5.813E+00    5.835E+00    5.856E+00    5.877E+00    5.897E+00    5.918E+00    5.939E+00    5.960E+00    5.980E+00
     6.001E+00    6.022E+00    6.042E+00    6.063E+00    6.083E+00    6.104E+00    6.124E+00    6.145E+00    6.165E+00    6.185E+00
     6.206E+00    6.226E+00    6.247E+00    6.267E+00    6.288E+00    6.308E+00    6.329E+00    6.350E+00    6.370E+00    6.391E+00
     6.412E+00    6.432E+00    6.453E+00    6.474E+00    6.495E+00    6.516E+00    6.538E+00    6.559E+00
 Ala      Conc. = 6.14E+01
