 LCModel (Version 6.3-1L) Copyright: S.W. Provencher.          Ref.: Magn. Reson. Med. 30:672-679 (1993).                
 Slice#2 Row#11 Col#6  PD_05_press_1_raw_act
 36 lines in following concentration table = NCONC+1
    Conc.  %SD /Cr+PCr  Metabolite                                         
  181.425  49%   0.148 Ala                                                 
    0.000 999%   0.000 Asp                                                 
  470.209  35%   0.384 Cr                                                  
  754.754  22%   0.616 PCr                                                 
    0.000 999%   0.000 GABA                                                
    0.000 999%   0.000 Glc                                                 
  941.533  21%   0.769 Gln                                                 
 1.69E+03  13%   1.377 Glu                                                 
  428.113   4%   0.349 GPC                                                 
    0.000 999%   0.000 PCh                                                 
  434.345  12%   0.355 GSH                                                 
  754.029  24%   0.616 Ins                                                 
   77.580 127% 6.3E-02 Lac                                                 
 2.18E+03   6%   1.777 NAA                                                 
  322.738  41%   0.263 NAAG                                                
   58.682  33% 4.8E-02 Scyllo                                              
    0.000 999%   0.000 Tau                                                 
    0.000 999%   0.000 -CrCH2                                              
  428.113   4%   0.349 GPC+PCh                                             
 2.50E+03   3%   2.040 NAA+NAAG                                            
 1.22E+03   3%   1.000 Cr+PCr                                              
 2.63E+03  13%   2.145 Glu+Gln                                             
  928.223  28%   0.758 Lip13a                                              
    0.000 999%   0.000 Lip13b                                              
    0.000 999%   0.000 Lip09                                               
 1.09E+03  13%   0.888 MM09                                                
  176.497  61%   0.144 Lip20                                               
 2.84E+03  10%   2.321 MM20                                                
  286.028  38%   0.233 MM12                                                
 1.31E+03  21%   1.067 MM14                                                
  844.501  22%   0.689 MM17                                                
  928.223  28%   0.758 Lip13a+Lip13b                                       
 2.52E+03  12%   2.058 MM14+Lip13a+Lip13b+MM12                             
 1.09E+03  13%   0.888 MM09+Lip09                                          
 3.02E+03  10%   2.465 MM20+Lip20                                          
   6 lines in following misc. output table
  FWHM = 0.054 ppm    S/N =  18                                            
  Data shift = 0.015 ppm                                                   
  Ph: -15 deg      -1.7 deg/ppm                                            
  alphaB,S = 9.0E-01,   9.3E+01                                            
   14 spline knots.   Ns = 8(1)                                            
  (16) 2 infls.   ( 9) 1 extrs.                                            
  498 points on ppm-axis = NY
      4.000000     3.992357     3.984714     3.977070     3.969427     3.961784     3.954141     3.946497     3.938854     3.931211
      3.923568     3.915925     3.908281     3.900638     3.892995     3.885352     3.877708     3.870065     3.862422     3.854779
      3.847136     3.839492     3.831849     3.824206     3.816563     3.808919     3.801276     3.793633     3.785990     3.778347
      3.770703     3.763060     3.755417     3.747774     3.740130     3.732487     3.724844     3.717201     3.709558     3.701914
      3.694271     3.686628     3.678985     3.671341     3.663698     3.656055     3.648412     3.640769     3.633125     3.625482
      3.617839     3.610196     3.602552     3.594909     3.587266     3.579623     3.571980     3.564336     3.556693     3.549050
      3.541407     3.533763     3.526120     3.518477     3.510834     3.503191     3.495547     3.487904     3.480261     3.472618
      3.464974     3.457331     3.449688     3.442045     3.434402     3.426758     3.419115     3.411472     3.403829     3.396185
      3.388542     3.380899     3.373256     3.365613     3.357969     3.350326     3.342683     3.335040     3.327396     3.319753
      3.312110     3.304467     3.296824     3.289180     3.281537     3.273894     3.266251     3.258607     3.250964     3.243321
      3.235678     3.228034     3.220391     3.212748     3.205105     3.197462     3.189818     3.182175     3.174532     3.166889
      3.159245     3.151602     3.143959     3.136316     3.128673     3.121029     3.113386     3.105743     3.098100     3.090456
      3.082813     3.075170     3.067527     3.059884     3.052240     3.044597     3.036954     3.029311     3.021667     3.014024
      3.006381     2.998738     2.991095     2.983451     2.975808     2.968165     2.960522     2.952878     2.945235     2.937592
      2.929949     2.922306     2.914662     2.907019     2.899376     2.891733     2.884089     2.876446     2.868803     2.861160
      2.853517     2.845873     2.838230     2.830587     2.822944     2.815300     2.807657     2.800014     2.792371     2.784728
      2.777084     2.769441     2.761798     2.754155     2.746511     2.738868     2.731225     2.723582     2.715939     2.708295
      2.700652     2.693009     2.685366     2.677722     2.670079     2.662436     2.654793     2.647150     2.639506     2.631863
      2.624220     2.616577     2.608933     2.601290     2.593647     2.586004     2.578361     2.570717     2.563074     2.555431
      2.547788     2.540144     2.532501     2.524858     2.517215     2.509572     2.501928     2.494285     2.486642     2.478999
      2.471355     2.463712     2.456069     2.448426     2.440783     2.433139     2.425496     2.417853     2.410210     2.402566
      2.394923     2.387280     2.379637     2.371994     2.364350     2.356707     2.349064     2.341421     2.333777     2.326134
      2.318491     2.310848     2.303205     2.295561     2.287918     2.280275     2.272632     2.264988     2.257345     2.249702
      2.242059     2.234416     2.226772     2.219129     2.211486     2.203843     2.196199     2.188556     2.180913     2.173270
      2.165627     2.157983     2.150340     2.142697     2.135054     2.127410     2.119767     2.112124     2.104481     2.096838
      2.089194     2.081551     2.073908     2.066265     2.058621     2.050978     2.043335     2.035692     2.028049     2.020405
      2.012762     2.005119     1.997476     1.989833     1.982190     1.974546     1.966903     1.959260     1.951617     1.943974
      1.936331     1.928688     1.921045     1.913402     1.905759     1.898115     1.890472     1.882829     1.875186     1.867543
      1.859900     1.852257     1.844614     1.836971     1.829327     1.821684     1.814041     1.806398     1.798755     1.791112
      1.783469     1.775826     1.768183     1.760540     1.752896     1.745253     1.737610     1.729967     1.722324     1.714681
      1.707038     1.699395     1.691752     1.684108     1.676465     1.668822     1.661179     1.653536     1.645893     1.638250
      1.630607     1.622964     1.615321     1.607677     1.600034     1.592391     1.584748     1.577105     1.569462     1.561819
      1.554176     1.546533     1.538890     1.531246     1.523603     1.515960     1.508317     1.500674     1.493031     1.485388
      1.477745     1.470102     1.462458     1.454815     1.447172     1.439529     1.431886     1.424243     1.416600     1.408957
      1.401314     1.393671     1.386027     1.378384     1.370741     1.363098     1.355455     1.347812     1.340169     1.332526
      1.324883     1.317240     1.309596     1.301953     1.294310     1.286667     1.279024     1.271381     1.263738     1.256095
      1.248452     1.240808     1.233165     1.225522     1.217879     1.210236     1.202593     1.194950     1.187307     1.179664
      1.172021     1.164377     1.156734     1.149091     1.141448     1.133805     1.126162     1.118519     1.110876     1.103233
      1.095590     1.087946     1.080303     1.072660     1.065017     1.057374     1.049731     1.042088     1.034445     1.026802
      1.019158     1.011515     1.003872     0.996229     0.988586     0.980943     0.973300     0.965657     0.958014     0.950371
      0.942727     0.935084     0.927441     0.919798     0.912155     0.904512     0.896869     0.889226     0.881583     0.873940
      0.866296     0.858653     0.851010     0.843367     0.835724     0.828081     0.820438     0.812795     0.805152     0.797508
      0.789865     0.782222     0.774579     0.766936     0.759293     0.751650     0.744007     0.736364     0.728721     0.721077
      0.713434     0.705791     0.698148     0.690505     0.682862     0.675219     0.667576     0.659933     0.652290     0.644646
      0.637003     0.629360     0.621717     0.614074     0.606431     0.598788     0.591145     0.583502     0.575858     0.568215
      0.560572     0.552929     0.545286     0.537643     0.530000     0.522357     0.514714     0.507071     0.499427     0.491784
      0.484141     0.476498     0.468855     0.461212     0.453569     0.445925     0.438282     0.430639     0.422996     0.415353
      0.407710     0.400067     0.392424     0.384780     0.377137     0.369494     0.361851     0.354208     0.346565     0.338922
      0.331278     0.323635     0.315992     0.308349     0.300706     0.293063     0.285420     0.277777     0.270133     0.262490
      0.254847     0.247204     0.239561     0.231918     0.224275     0.216631     0.208988     0.201345
 NY phased data points follow
   1.18482E+01  1.26420E+01  9.68615E+00  1.51490E+01  1.66180E+01  1.96407E+01  2.14052E+01  2.72239E+01  2.84615E+01  3.22040E+01
   3.43861E+01  3.36223E+01  3.16854E+01  2.97332E+01  2.79307E+01  2.59885E+01  1.70520E+01  1.73906E+01  1.55227E+01  1.72671E+01
   1.20538E+01  1.46086E+01  1.18738E+01  1.53962E+01  1.36589E+01  1.37907E+01  1.45681E+01  1.37695E+01  1.34193E+01  1.63369E+01
   1.79079E+01  2.00990E+01  1.66983E+01  1.83134E+01  1.54185E+01  1.36731E+01  1.51300E+01  1.42478E+01  1.17362E+01  1.27626E+01
   1.22194E+01  1.44723E+01  1.26633E+01  1.48994E+01  1.61629E+01  1.31000E+01  1.34703E+01  1.63889E+01  1.39208E+01  1.67802E+01
   1.58051E+01  1.19949E+01  1.06274E+01  1.17048E+01  8.19724E+00  8.16922E+00  8.83635E+00  7.79757E+00  5.19108E+00  7.47719E+00
   8.35412E+00  9.98325E+00  5.19215E+00  4.10978E+00  3.76815E+00  6.13825E+00  2.67927E+00  1.07546E+00  2.09929E+00  3.98445E+00
   2.56865E+00  3.11633E+00  3.90123E+00  2.49295E+00  3.98902E+00  9.55411E-01  2.77905E+00  4.70037E+00  2.88335E+00  2.37566E+00
   3.90381E+00  3.08609E+00  6.95470E+00  3.56167E+00  6.79328E-01  3.96138E+00  3.94054E+00  5.58755E+00  4.57164E+00  2.33730E+00
   6.68582E+00  4.31502E+00  6.33834E+00  4.45663E+00  3.42146E+00  6.78150E+00  6.39290E+00  8.15646E+00  9.38251E+00  1.71701E+01
   2.17356E+01  2.69799E+01  3.27296E+01  3.32677E+01  3.88910E+01  3.34126E+01  2.64378E+01  2.42686E+01  1.94896E+01  1.45975E+01
   1.50791E+01  7.25203E+00  7.36333E+00  8.37191E+00  5.36232E+00  4.83768E+00  7.73953E+00  7.78463E+00  5.75989E+00  1.01022E+01
   9.14840E+00  9.68188E+00  1.30945E+01  1.77827E+01  2.02688E+01  2.66495E+01  3.41608E+01  3.87391E+01  3.94881E+01  3.69414E+01
   2.96613E+01  2.33967E+01  1.89879E+01  1.32735E+01  1.04234E+01  6.87660E+00  4.84259E+00  6.02940E+00  1.62645E+00  2.63271E+00
   3.21852E+00  1.43032E+00  2.91197E+00  2.13603E+00  3.60978E-01  2.78348E+00 -1.61888E+00  9.44881E-01  1.35829E+00 -9.82592E-01
  -6.29026E-01  6.08045E-01 -1.22951E+00  1.61488E+00 -2.47178E-02  1.36465E+00 -3.68880E+00  1.65082E+00 -1.49536E+00  8.72067E-02
  -3.45174E+00 -4.82405E+00 -4.67296E+00  2.55612E-01 -2.26100E+00 -2.85525E+00 -3.39666E-01 -2.57261E+00 -3.31291E+00 -2.93911E+00
  -6.96681E+00 -2.76003E+00 -5.83545E+00 -1.02186E+01 -7.47092E+00 -1.15981E+01 -1.14892E+01 -1.06881E+01 -1.17297E+01 -9.58382E+00
  -1.04172E+01 -8.83135E+00 -1.02535E+01 -1.08664E+01 -1.05945E+01 -8.98177E+00 -7.26498E+00 -6.94086E+00 -2.92849E+00 -3.89749E+00
   1.38811E+00 -1.43549E+00  1.88214E+00  5.69620E-01  2.59396E+00  1.12406E+00 -2.74193E+00 -1.27278E+00  2.28424E-01 -4.08585E+00
  -3.94042E+00 -6.05962E-01 -9.36397E-01 -1.12487E+00  3.18205E+00  9.72892E-01 -4.39144E-01 -1.07529E+00 -4.61989E+00 -2.20971E+00
  -4.06444E+00 -2.70379E+00  1.18856E-01  5.69141E+00  4.28603E+00  8.85224E+00  8.35373E+00  8.55789E+00  5.70392E+00 -1.05914E-01
   4.49323E-02 -1.44181E-01 -2.44695E+00 -1.69912E+00  7.50204E-01  1.42083E+00  6.86995E+00  7.39638E+00  7.20677E+00  6.44751E+00
   9.13367E+00  5.51607E+00  5.65339E+00  8.05791E+00  5.75615E+00  5.44842E+00  5.28150E+00  7.06057E+00  5.77519E+00  4.09426E+00
   6.05480E+00  3.53316E+00  2.28094E+00  4.28530E+00  4.66044E+00  6.37629E+00  1.12444E+01  8.79119E+00  1.07178E+01  1.05891E+01
   1.20178E+01  1.52331E+01  1.60591E+01  2.22359E+01  3.17990E+01  4.10158E+01  4.74185E+01  5.45547E+01  6.42295E+01  7.03969E+01
   7.52432E+01  7.45764E+01  6.73118E+01  5.55301E+01  4.25253E+01  3.33146E+01  2.52160E+01  1.86140E+01  1.23328E+01  8.85257E+00
   7.60544E+00  5.97163E+00  5.30696E+00  6.02578E+00  5.27341E+00  5.37520E+00  2.19582E+00  3.53184E+00  3.46153E+00  3.72538E+00
   1.43324E+00  3.18329E+00  2.97853E-01  3.59694E+00  2.84214E+00  1.58312E+00  2.05724E+00  2.01992E+00  4.17859E-01  1.63285E+00
   7.35811E-01  4.97058E-01  6.93042E-01  1.68540E+00  3.50267E+00  7.13611E-01  6.92400E-01  1.18821E+00  1.92051E+00  4.64091E-01
   9.10430E-01  5.65112E-02  1.05742E-01  4.76908E+00  1.28330E+00  4.00390E+00  2.21102E+00  2.92251E+00  5.57362E+00  3.03455E+00
   5.15015E+00  6.93560E+00  5.14080E+00  6.35617E+00  7.53039E+00  6.59987E+00  7.67295E+00  5.05915E+00  5.25146E+00  4.69626E+00
   6.72044E+00  4.62372E+00  3.65996E+00  4.25131E+00  4.62287E+00  3.14224E+00  6.05992E+00  5.98062E+00  4.75180E+00  4.37548E+00
   4.14991E+00  4.38511E+00  4.54405E+00  4.84376E+00  5.32224E+00  3.35238E+00  3.62741E+00  6.52881E+00  5.55155E+00  8.35642E+00
   8.51125E+00  8.56844E+00  1.03304E+01  1.00741E+01  8.62127E+00  9.68470E+00  7.29757E+00  7.13616E+00  6.45324E+00  7.98584E+00
   6.99196E+00  8.30807E+00  7.87671E+00  6.07973E+00  7.53387E+00  7.29685E+00  5.74159E+00  6.91709E+00  4.03675E+00  7.50307E+00
   5.52703E+00  6.15191E+00  5.23245E+00  4.78160E+00  3.15993E+00  3.64386E+00  4.23602E+00  1.22254E+00  5.84795E+00  3.46949E+00
  -2.99193E-01  2.44162E+00 -6.09700E-01 -3.42399E-01  2.61934E-01  4.03757E+00 -1.80013E+00  3.77955E-01 -7.43652E-01 -1.06396E+00
  -1.09905E+00 -2.11481E+00 -7.71066E-01 -2.11544E+00  4.52972E-02 -1.20727E+00 -2.08696E+00  2.75815E-01 -7.46230E-01 -3.47209E+00
   1.49147E+00  1.88885E+00  1.66456E+00  5.36412E+00  2.49120E+00  3.39242E+00  2.85647E+00  6.87632E+00  5.06184E+00  4.03752E+00
   4.09963E+00  4.48098E+00  3.44829E+00  5.14718E+00  6.04268E+00  1.59854E+00  6.07730E+00  6.68692E+00  8.68891E+00  4.92284E+00
   4.23885E+00  5.12869E+00  4.24954E+00  3.47767E+00  1.36231E+00  4.17312E+00  2.13517E+00  2.55649E+00  1.71782E+00  1.62557E+00
   2.19731E+00  1.17224E+00  2.19957E-01 -1.76170E-01  1.30789E+00  6.20815E-01 -1.45941E+00 -1.85059E+00  9.16689E-01 -1.62686E+00
  -1.03305E+00 -1.08755E+00 -3.54196E+00  2.41351E-01 -2.91636E+00  1.28166E-01 -3.73941E-01 -1.62517E+00  2.39150E-01  6.70642E-01
  -1.81486E+00 -1.59486E-02 -3.72501E+00 -2.64387E+00 -2.14601E+00 -2.24604E+00 -1.85560E+00  5.08972E-01 -2.56604E+00 -5.33041E-01
  -2.83815E+00 -7.91496E-01 -1.46758E+00 -1.47964E+00  7.20491E-01 -1.46999E-01 -1.28933E+00 -5.67608E-01 -1.46172E+00 -9.36615E-01
  -1.09106E+00 -2.09077E+00 -1.57257E-01 -1.53270E+00 -2.21602E+00 -1.03388E+00 -9.66666E-01 -2.31968E-01 -5.09807E+00 -8.23657E-02
  -2.19928E+00 -4.03698E-01  4.38103E-01 -5.66225E-01 -1.68595E+00 -2.91356E+00  2.88365E-01 -1.41048E+00  8.49302E-01 -1.54194E+00
  -1.76319E+00 -2.19567E+00 -3.60338E-01 -2.50197E-01 -6.77372E-01 -2.89693E-01 -1.81699E+00 -3.67402E+00 -2.99009E+00  8.66076E-02
  -2.57486E+00 -8.48586E-01 -1.65087E-01 -2.94207E+00 -5.19570E+00  3.53027E-01  7.41626E-01 -3.33901E-01
 NY points of the fit to the data follow
   1.14513E+01  1.18097E+01  1.27183E+01  1.41601E+01  1.62545E+01  1.87944E+01  2.18335E+01  2.53553E+01  2.89802E+01  3.20982E+01
   3.39290E+01  3.39069E+01  3.21889E+01  2.94013E+01  2.62320E+01  2.32252E+01  2.06076E+01  1.83836E+01  1.64217E+01  1.48900E+01
   1.36843E+01  1.27974E+01  1.25127E+01  1.24722E+01  1.25604E+01  1.27593E+01  1.31377E+01  1.38617E+01  1.51041E+01  1.68586E+01
   1.87362E+01  2.00467E+01  2.02710E+01  1.93028E+01  1.74901E+01  1.53781E+01  1.33615E+01  1.17121E+01  1.06040E+01  1.01377E+01
   1.03153E+01  1.07321E+01  1.12085E+01  1.17400E+01  1.23864E+01  1.30901E+01  1.36853E+01  1.39988E+01  1.38264E+01  1.30729E+01
   1.19548E+01  1.07825E+01  9.78521E+00  9.03696E+00  8.50331E+00  8.07500E+00  7.74295E+00  7.58419E+00  7.58353E+00  7.62633E+00
   7.59755E+00  7.42060E+00  7.06054E+00  6.57967E+00  6.10942E+00  5.74571E+00  5.53584E+00  5.45928E+00  5.45305E+00  5.48720E+00
   5.54388E+00  5.58925E+00  5.59718E+00  5.52437E+00  5.35912E+00  5.13298E+00  4.89298E+00  4.68356E+00  4.54748E+00  4.51883E+00
   4.50348E+00  4.48812E+00  4.52070E+00  4.59518E+00  4.71179E+00  4.84031E+00  4.89002E+00  4.75533E+00  4.39721E+00  3.89477E+00
   3.42683E+00  3.13187E+00  3.01057E+00  3.01014E+00  3.24943E+00  4.43144E+00  6.67401E+00  9.35268E+00  1.25417E+01  1.63628E+01
   2.09385E+01  2.63315E+01  3.18651E+01  3.60906E+01  3.74143E+01  3.49913E+01  2.97593E+01  2.38277E+01  1.87036E+01  1.46420E+01
   1.12329E+01  8.16119E+00  5.40508E+00  3.58193E+00  2.92570E+00  2.68022E+00  2.58779E+00  2.63656E+00  3.08550E+00  4.73839E+00
   7.30389E+00  1.02694E+01  1.38346E+01  1.80613E+01  2.30464E+01  2.87495E+01  3.42780E+01  3.80420E+01  3.85256E+01  3.52820E+01
   2.96785E+01  2.38664E+01  1.90142E+01  1.50201E+01  1.13690E+01  7.81738E+00  4.60304E+00  2.72630E+00  2.17241E+00  2.19656E+00
   2.45568E+00  2.71720E+00  2.83020E+00  2.77180E+00  2.59914E+00  2.34131E+00  2.03363E+00  1.70287E+00  1.35161E+00  9.93600E-01
   6.51928E-01  3.44971E-01  7.45137E-02 -2.22606E-01 -5.02528E-01 -7.33753E-01 -9.04052E-01 -1.01758E+00 -1.20271E+00 -1.50487E+00
  -1.86801E+00 -2.19170E+00 -2.35577E+00 -2.33283E+00 -2.27456E+00 -2.38787E+00 -2.75770E+00 -3.32511E+00 -3.94772E+00 -4.44677E+00
  -4.77474E+00 -5.07380E+00 -5.39949E+00 -5.79801E+00 -6.21236E+00 -6.50362E+00 -6.61216E+00 -6.53194E+00 -6.34849E+00 -6.25330E+00
  -6.28537E+00 -6.33523E+00 -6.22993E+00 -5.87101E+00 -5.32598E+00 -4.72882E+00 -4.12080E+00 -3.35550E+00 -2.34422E+00 -1.22641E+00
  -3.37742E-01  1.01052E-01  8.13972E-02 -2.58474E-01 -7.11702E-01 -1.08501E+00 -1.21498E+00 -1.04796E+00 -5.15035E-01  3.62283E-01
   1.48020E+00  2.51306E+00  3.10969E+00  3.23692E+00  2.75592E+00  1.59645E+00 -4.66275E-02 -1.86512E+00 -3.40772E+00 -4.35866E+00
  -4.39285E+00 -3.34037E+00 -1.43085E+00  8.08425E-01  2.80304E+00  4.14694E+00  4.58247E+00  3.83961E+00  2.05488E+00 -1.95083E-01
  -2.39837E+00 -3.95063E+00 -4.48535E+00 -3.96143E+00 -2.44098E+00 -3.34067E-01  1.83343E+00  3.46994E+00  4.46471E+00  5.05207E+00
   5.38338E+00  5.53122E+00  5.55119E+00  5.61777E+00  5.82354E+00  6.12976E+00  6.50505E+00  6.89968E+00  7.15971E+00  7.11879E+00
   6.76086E+00  6.18410E+00  5.63619E+00  5.41252E+00  5.67714E+00  6.37336E+00  7.22788E+00  8.16920E+00  9.36121E+00  1.07009E+01
   1.21737E+01  1.44137E+01  1.89106E+01  2.51631E+01  3.19574E+01  3.93646E+01  4.71291E+01  5.50851E+01  6.33060E+01  7.08295E+01
   7.54912E+01  7.47278E+01  6.74146E+01  5.57882E+01  4.37759E+01  3.37780E+01  2.60551E+01  1.96530E+01  1.38695E+01  8.73268E+00
   5.64481E+00  4.54065E+00  4.01106E+00  3.68479E+00  3.46020E+00  3.22297E+00  2.92424E+00  2.59383E+00  2.26398E+00  1.96052E+00
   1.69180E+00  1.45609E+00  1.25097E+00  1.08130E+00  9.49211E-01  8.39820E-01  7.43427E-01  6.60505E-01  5.99439E-01  5.69198E-01
   5.71209E-01  6.03624E-01  6.69791E-01  7.67768E-01  8.91417E-01  1.03432E+00  1.19715E+00  1.38213E+00  1.59063E+00  1.82378E+00
   2.08189E+00  2.36124E+00  2.65777E+00  2.96276E+00  3.26654E+00  3.56132E+00  3.84073E+00  4.09909E+00  4.33107E+00  4.53066E+00
   4.69542E+00  4.82502E+00  4.91978E+00  4.98236E+00  5.01708E+00  5.03043E+00  5.03144E+00  5.03230E+00  5.05215E+00  5.12531E+00
   5.23931E+00  5.32219E+00  5.39520E+00  5.46343E+00  5.51006E+00  5.51084E+00  5.39499E+00  5.11080E+00  4.71055E+00  4.22668E+00
   3.80662E+00  3.62697E+00  3.73688E+00  4.10722E+00  4.69742E+00  5.44774E+00  6.25862E+00  6.99484E+00  7.53855E+00  7.84760E+00
   8.01037E+00  8.10477E+00  8.16960E+00  8.19082E+00  8.14541E+00  8.02792E+00  7.88838E+00  7.71754E+00  7.48795E+00  7.21320E+00
   6.96871E+00  6.81430E+00  6.75833E+00  6.78083E+00  6.84794E+00  6.91682E+00  6.92928E+00  6.83905E+00  6.62171E+00  6.29386E+00
   5.90852E+00  5.49403E+00  5.05555E+00  4.59407E+00  4.11249E+00  3.64712E+00  3.21561E+00  2.81016E+00  2.42939E+00  2.07451E+00
   1.74716E+00  1.44875E+00  1.18026E+00  9.42157E-01  7.34478E-01  5.57002E-01  4.09383E-01  2.91207E-01  2.02014E-01  1.41362E-01
   1.08939E-01  1.04661E-01  1.28680E-01  1.81311E-01  2.62948E-01  3.74034E-01  5.15045E-01  6.86421E-01  8.88406E-01  1.12083E+00
   1.38296E+00  1.67336E+00  1.98983E+00  2.32930E+00  2.68762E+00  3.05949E+00  3.43854E+00  3.81739E+00  4.18792E+00  4.54144E+00
   4.86893E+00  5.16139E+00  5.41027E+00  5.60791E+00  5.74795E+00  5.82560E+00  5.83788E+00  5.78375E+00  5.66425E+00  5.48248E+00
   5.24342E+00  4.95362E+00  4.62081E+00  4.25354E+00  3.86088E+00  3.45195E+00  3.03557E+00  2.61985E+00  2.21194E+00  1.81793E+00
   1.44277E+00  1.09024E+00  7.62943E-01  4.62369E-01  1.89028E-01 -5.73289E-02 -2.77539E-01 -4.72899E-01 -6.45073E-01 -7.95970E-01
  -9.27590E-01 -1.04189E+00 -1.14074E+00 -1.22589E+00 -1.29903E+00 -1.36169E+00 -1.41526E+00 -1.46088E+00 -1.49957E+00 -1.53220E+00
  -1.55960E+00 -1.58248E+00 -1.60142E+00 -1.61688E+00 -1.62924E+00 -1.63889E+00 -1.64618E+00 -1.65141E+00 -1.65481E+00 -1.65652E+00
  -1.65671E+00 -1.65555E+00 -1.65324E+00 -1.64988E+00 -1.64555E+00 -1.64030E+00 -1.63421E+00 -1.62738E+00 -1.61992E+00 -1.61186E+00
  -1.60322E+00 -1.59401E+00 -1.58430E+00 -1.57416E+00 -1.56363E+00 -1.55273E+00 -1.54143E+00 -1.52975E+00 -1.51776E+00 -1.50551E+00
  -1.49301E+00 -1.48023E+00 -1.46716E+00 -1.45383E+00 -1.44029E+00 -1.42657E+00 -1.41266E+00 -1.39852E+00 -1.38416E+00 -1.36961E+00
  -1.35492E+00 -1.34008E+00 -1.32507E+00 -1.30985E+00 -1.29445E+00 -1.27890E+00 -1.26322E+00 -1.24739E+00 -1.23137E+00 -1.21515E+00
  -1.19874E+00 -1.18218E+00 -1.16546E+00 -1.14854E+00 -1.13138E+00 -1.11395E+00 -1.09628E+00 -1.07839E+00
 NY background values follow
     9.445E+00    9.361E+00    9.277E+00    9.193E+00    9.109E+00    9.025E+00    8.940E+00    8.856E+00    8.772E+00    8.687E+00
     8.603E+00    8.519E+00    8.434E+00    8.350E+00    8.265E+00    8.181E+00    8.096E+00    8.012E+00    7.928E+00    7.843E+00
     7.759E+00    7.674E+00    7.590E+00    7.506E+00    7.422E+00    7.337E+00    7.253E+00    7.169E+00    7.085E+00    7.001E+00
     6.917E+00    6.833E+00    6.749E+00    6.665E+00    6.582E+00    6.498E+00    6.414E+00    6.331E+00    6.247E+00    6.164E+00
     6.081E+00    5.998E+00    5.915E+00    5.832E+00    5.749E+00    5.666E+00    5.584E+00    5.501E+00    5.419E+00    5.337E+00
     5.255E+00    5.173E+00    5.091E+00    5.010E+00    4.928E+00    4.847E+00    4.766E+00    4.685E+00    4.604E+00    4.524E+00
     4.443E+00    4.363E+00    4.283E+00    4.203E+00    4.124E+00    4.045E+00    3.966E+00    3.887E+00    3.808E+00    3.730E+00
     3.652E+00    3.574E+00    3.497E+00    3.420E+00    3.343E+00    3.266E+00    3.190E+00    3.114E+00    3.038E+00    2.963E+00
     2.888E+00    2.813E+00    2.738E+00    2.664E+00    2.590E+00    2.517E+00    2.444E+00    2.371E+00    2.299E+00    2.227E+00
     2.155E+00    2.084E+00    2.013E+00    1.943E+00    1.873E+00    1.803E+00    1.734E+00    1.665E+00    1.596E+00    1.528E+00
     1.461E+00    1.393E+00    1.326E+00    1.260E+00    1.194E+00    1.128E+00    1.063E+00    9.984E-01    9.341E-01    8.702E-01
     8.067E-01    7.437E-01    6.811E-01    6.189E-01    5.572E-01    4.959E-01    4.351E-01    3.747E-01    3.148E-01    2.553E-01
     1.963E-01    1.377E-01    7.961E-02    2.197E-02   -3.520E-02   -9.191E-02   -1.481E-01   -2.039E-01   -2.592E-01   -3.140E-01
    -3.683E-01   -4.222E-01   -4.755E-01   -5.284E-01   -5.808E-01   -6.327E-01   -6.840E-01   -7.349E-01   -7.853E-01   -8.352E-01
    -8.845E-01   -9.333E-01   -9.815E-01   -1.029E+00   -1.076E+00   -1.123E+00   -1.169E+00   -1.214E+00   -1.259E+00   -1.303E+00
    -1.347E+00   -1.390E+00   -1.432E+00   -1.474E+00   -1.515E+00   -1.555E+00   -1.595E+00   -1.634E+00   -1.672E+00   -1.709E+00
    -1.746E+00   -1.783E+00   -1.818E+00   -1.853E+00   -1.887E+00   -1.920E+00   -1.952E+00   -1.984E+00   -2.015E+00   -2.045E+00
    -2.074E+00   -2.103E+00   -2.130E+00   -2.157E+00   -2.183E+00   -2.209E+00   -2.233E+00   -2.256E+00   -2.279E+00   -2.301E+00
    -2.322E+00   -2.341E+00   -2.361E+00   -2.379E+00   -2.396E+00   -2.412E+00   -2.428E+00   -2.443E+00   -2.457E+00   -2.470E+00
    -2.483E+00   -2.495E+00   -2.506E+00   -2.516E+00   -2.526E+00   -2.535E+00   -2.544E+00   -2.552E+00   -2.559E+00   -2.566E+00
    -2.572E+00   -2.577E+00   -2.583E+00   -2.587E+00   -2.591E+00   -2.595E+00   -2.598E+00   -2.601E+00   -2.604E+00   -2.606E+00
    -2.607E+00   -2.609E+00   -2.610E+00   -2.610E+00   -2.611E+00   -2.611E+00   -2.611E+00   -2.611E+00   -2.610E+00   -2.609E+00
    -2.609E+00   -2.608E+00   -2.606E+00   -2.605E+00   -2.604E+00   -2.602E+00   -2.601E+00   -2.599E+00   -2.598E+00   -2.596E+00
    -2.594E+00   -2.593E+00   -2.591E+00   -2.589E+00   -2.588E+00   -2.586E+00   -2.584E+00   -2.582E+00   -2.581E+00   -2.579E+00
    -2.577E+00   -2.575E+00   -2.574E+00   -2.572E+00   -2.570E+00   -2.568E+00   -2.567E+00   -2.565E+00   -2.563E+00   -2.561E+00
    -2.560E+00   -2.558E+00   -2.557E+00   -2.555E+00   -2.554E+00   -2.552E+00   -2.551E+00   -2.549E+00   -2.548E+00   -2.547E+00
    -2.545E+00   -2.544E+00   -2.543E+00   -2.542E+00   -2.541E+00   -2.540E+00   -2.539E+00   -2.538E+00   -2.538E+00   -2.537E+00
    -2.536E+00   -2.536E+00   -2.535E+00   -2.535E+00   -2.535E+00   -2.535E+00   -2.535E+00   -2.535E+00   -2.535E+00   -2.535E+00
    -2.535E+00   -2.535E+00   -2.536E+00   -2.536E+00   -2.537E+00   -2.537E+00   -2.538E+00   -2.539E+00   -2.540E+00   -2.540E+00
    -2.541E+00   -2.542E+00   -2.543E+00   -2.545E+00   -2.546E+00   -2.547E+00   -2.548E+00   -2.550E+00   -2.551E+00   -2.553E+00
    -2.554E+00   -2.556E+00   -2.557E+00   -2.559E+00   -2.561E+00   -2.563E+00   -2.565E+00   -2.567E+00   -2.568E+00   -2.570E+00
    -2.573E+00   -2.575E+00   -2.577E+00   -2.579E+00   -2.581E+00   -2.583E+00   -2.586E+00   -2.588E+00   -2.590E+00   -2.593E+00
    -2.595E+00   -2.598E+00   -2.600E+00   -2.603E+00   -2.605E+00   -2.608E+00   -2.610E+00   -2.613E+00   -2.615E+00   -2.617E+00
    -2.620E+00   -2.622E+00   -2.624E+00   -2.627E+00   -2.629E+00   -2.631E+00   -2.633E+00   -2.635E+00   -2.637E+00   -2.639E+00
    -2.641E+00   -2.643E+00   -2.644E+00   -2.646E+00   -2.647E+00   -2.649E+00   -2.650E+00   -2.651E+00   -2.652E+00   -2.653E+00
    -2.654E+00   -2.654E+00   -2.655E+00   -2.655E+00   -2.655E+00   -2.655E+00   -2.655E+00   -2.655E+00   -2.654E+00   -2.654E+00
    -2.653E+00   -2.652E+00   -2.651E+00   -2.649E+00   -2.647E+00   -2.646E+00   -2.644E+00   -2.641E+00   -2.639E+00   -2.636E+00
    -2.634E+00   -2.631E+00   -2.627E+00   -2.624E+00   -2.620E+00   -2.616E+00   -2.612E+00   -2.608E+00   -2.603E+00   -2.599E+00
    -2.594E+00   -2.588E+00   -2.583E+00   -2.577E+00   -2.571E+00   -2.565E+00   -2.559E+00   -2.552E+00   -2.546E+00   -2.539E+00
    -2.531E+00   -2.524E+00   -2.516E+00   -2.508E+00   -2.500E+00   -2.492E+00   -2.483E+00   -2.474E+00   -2.465E+00   -2.455E+00
    -2.446E+00   -2.436E+00   -2.425E+00   -2.415E+00   -2.404E+00   -2.393E+00   -2.382E+00   -2.371E+00   -2.359E+00   -2.347E+00
    -2.335E+00   -2.322E+00   -2.310E+00   -2.297E+00   -2.283E+00   -2.270E+00   -2.256E+00   -2.243E+00   -2.229E+00   -2.214E+00
    -2.200E+00   -2.186E+00   -2.171E+00   -2.156E+00   -2.141E+00   -2.126E+00   -2.110E+00   -2.095E+00   -2.079E+00   -2.063E+00
    -2.047E+00   -2.031E+00   -2.015E+00   -1.999E+00   -1.982E+00   -1.966E+00   -1.949E+00   -1.932E+00   -1.915E+00   -1.899E+00
    -1.882E+00   -1.865E+00   -1.847E+00   -1.830E+00   -1.813E+00   -1.796E+00   -1.779E+00   -1.761E+00   -1.744E+00   -1.727E+00
    -1.709E+00   -1.692E+00   -1.674E+00   -1.657E+00   -1.640E+00   -1.622E+00   -1.605E+00   -1.588E+00   -1.570E+00   -1.553E+00
    -1.535E+00   -1.518E+00   -1.501E+00   -1.483E+00   -1.466E+00   -1.448E+00   -1.431E+00   -1.414E+00   -1.396E+00   -1.379E+00
    -1.362E+00   -1.344E+00   -1.327E+00   -1.310E+00   -1.292E+00   -1.275E+00   -1.258E+00   -1.240E+00   -1.223E+00   -1.206E+00
    -1.188E+00   -1.171E+00   -1.154E+00   -1.136E+00   -1.119E+00   -1.102E+00   -1.085E+00   -1.067E+00   -1.050E+00   -1.033E+00
    -1.016E+00   -9.984E-01   -9.812E-01   -9.640E-01   -9.468E-01   -9.296E-01   -9.124E-01   -8.952E-01
 Ala      Conc. = 1.81E+02
