 LCModel (Version 6.3-1L) Copyright: S.W. Provencher.          Ref.: Magn. Reson. Med. 30:672-679 (1993).                
 Slice#2 Row#12 Col#1  PD_05_press_1_raw_act
 36 lines in following concentration table = NCONC+1
    Conc.  %SD /Cr+PCr  Metabolite                                         
  537.658  46%   0.000 Ala                                                 
   19.367  74%   0.000 Asp                                                 
    0.000 999%   0.000 Cr                                                  
    0.000 999%   0.000 PCr                                                 
   13.205  65%   0.000 GABA                                                
   14.667  58%   0.000 Glc                                                 
 3.15E+03  10%   0.000 Gln                                                 
 1.18E+03  35%   0.000 Glu                                                 
    0.000 999%   0.000 GPC                                                 
   24.403  49%   0.000 PCh                                                 
    0.000 999%   0.000 GSH                                                 
  449.272  30%   0.000 Ins                                                 
  330.253  93%   0.000 Lac                                                 
  161.576  64%   0.000 NAA                                                 
  200.477  58%   0.000 NAAG                                                
    5.713  49%   0.000 Scyllo                                              
   27.807  51%   0.000 Tau                                                 
   37.680 120%   0.000 -CrCH2                                              
   24.403  49%   0.000 GPC+PCh                                             
  362.054  15%   0.000 NAA+NAAG                                            
    0.000 999%   0.000 Cr+PCr                                              
 4.33E+03  12%   0.000 Glu+Gln                                             
  164.321 112%   0.000 Lip13a                                              
    0.000 999%   0.000 Lip13b                                              
    0.000 999%   0.000 Lip09                                               
  131.115  53%   0.000 MM09                                                
   77.717  63%   0.000 Lip20                                               
  323.648  45%   0.000 MM20                                                
   51.078  82%   0.000 MM12                                                
  163.081  70%   0.000 MM14                                                
  371.540  20%   0.000 MM17                                                
  164.321 112%   0.000 Lip13a+Lip13b                                       
  378.480  63%   0.000 MM14+Lip13a+Lip13b+MM12                             
  131.115  37%   0.000 MM09+Lip09                                          
  401.365  36%   0.000 MM20+Lip20                                          
   6 lines in following misc. output table
  FWHM = 0.199 ppm    S/N =   2                                            
  Data shift =-0.046 ppm                                                   
  Ph:-139 deg      28.0 deg/ppm                                            
  alphaB,S = 1.5E+01,   1.6E+02                                            
    9 spline knots.   Ns = 9(2)                                            
  (15) 9 infls.   (15) 1 extrs.                                            
  498 points on ppm-axis = NY
      4.000000     3.992357     3.984714     3.977070     3.969427     3.961784     3.954141     3.946497     3.938854     3.931211
      3.923568     3.915925     3.908281     3.900638     3.892995     3.885352     3.877708     3.870065     3.862422     3.854779
      3.847136     3.839492     3.831849     3.824206     3.816563     3.808919     3.801276     3.793633     3.785990     3.778347
      3.770703     3.763060     3.755417     3.747774     3.740130     3.732487     3.724844     3.717201     3.709558     3.701914
      3.694271     3.686628     3.678985     3.671341     3.663698     3.656055     3.648412     3.640769     3.633125     3.625482
      3.617839     3.610196     3.602552     3.594909     3.587266     3.579623     3.571980     3.564336     3.556693     3.549050
      3.541407     3.533763     3.526120     3.518477     3.510834     3.503191     3.495547     3.487904     3.480261     3.472618
      3.464974     3.457331     3.449688     3.442045     3.434402     3.426758     3.419115     3.411472     3.403829     3.396185
      3.388542     3.380899     3.373256     3.365613     3.357969     3.350326     3.342683     3.335040     3.327396     3.319753
      3.312110     3.304467     3.296824     3.289180     3.281537     3.273894     3.266251     3.258607     3.250964     3.243321
      3.235678     3.228034     3.220391     3.212748     3.205105     3.197462     3.189818     3.182175     3.174532     3.166889
      3.159245     3.151602     3.143959     3.136316     3.128673     3.121029     3.113386     3.105743     3.098100     3.090456
      3.082813     3.075170     3.067527     3.059884     3.052240     3.044597     3.036954     3.029311     3.021667     3.014024
      3.006381     2.998738     2.991095     2.983451     2.975808     2.968165     2.960522     2.952878     2.945235     2.937592
      2.929949     2.922306     2.914662     2.907019     2.899376     2.891733     2.884089     2.876446     2.868803     2.861160
      2.853517     2.845873     2.838230     2.830587     2.822944     2.815300     2.807657     2.800014     2.792371     2.784728
      2.777084     2.769441     2.761798     2.754155     2.746511     2.738868     2.731225     2.723582     2.715939     2.708295
      2.700652     2.693009     2.685366     2.677722     2.670079     2.662436     2.654793     2.647150     2.639506     2.631863
      2.624220     2.616577     2.608933     2.601290     2.593647     2.586004     2.578361     2.570717     2.563074     2.555431
      2.547788     2.540144     2.532501     2.524858     2.517215     2.509572     2.501928     2.494285     2.486642     2.478999
      2.471355     2.463712     2.456069     2.448426     2.440783     2.433139     2.425496     2.417853     2.410210     2.402566
      2.394923     2.387280     2.379637     2.371994     2.364350     2.356707     2.349064     2.341421     2.333777     2.326134
      2.318491     2.310848     2.303205     2.295561     2.287918     2.280275     2.272632     2.264988     2.257345     2.249702
      2.242059     2.234416     2.226772     2.219129     2.211486     2.203843     2.196199     2.188556     2.180913     2.173270
      2.165627     2.157983     2.150340     2.142697     2.135054     2.127410     2.119767     2.112124     2.104481     2.096838
      2.089194     2.081551     2.073908     2.066265     2.058621     2.050978     2.043335     2.035692     2.028049     2.020405
      2.012762     2.005119     1.997476     1.989833     1.982190     1.974546     1.966903     1.959260     1.951617     1.943974
      1.936331     1.928688     1.921045     1.913402     1.905759     1.898115     1.890472     1.882829     1.875186     1.867543
      1.859900     1.852257     1.844614     1.836971     1.829327     1.821684     1.814041     1.806398     1.798755     1.791112
      1.783469     1.775826     1.768183     1.760540     1.752896     1.745253     1.737610     1.729967     1.722324     1.714681
      1.707038     1.699395     1.691752     1.684108     1.676465     1.668822     1.661179     1.653536     1.645893     1.638250
      1.630607     1.622964     1.615321     1.607677     1.600034     1.592391     1.584748     1.577105     1.569462     1.561819
      1.554176     1.546533     1.538890     1.531246     1.523603     1.515960     1.508317     1.500674     1.493031     1.485388
      1.477745     1.470102     1.462458     1.454815     1.447172     1.439529     1.431886     1.424243     1.416600     1.408957
      1.401314     1.393671     1.386027     1.378384     1.370741     1.363098     1.355455     1.347812     1.340169     1.332526
      1.324883     1.317240     1.309596     1.301953     1.294310     1.286667     1.279024     1.271381     1.263738     1.256095
      1.248452     1.240808     1.233165     1.225522     1.217879     1.210236     1.202593     1.194950     1.187307     1.179664
      1.172021     1.164377     1.156734     1.149091     1.141448     1.133805     1.126162     1.118519     1.110876     1.103233
      1.095590     1.087946     1.080303     1.072660     1.065017     1.057374     1.049731     1.042088     1.034445     1.026802
      1.019158     1.011515     1.003872     0.996229     0.988586     0.980943     0.973300     0.965657     0.958014     0.950371
      0.942727     0.935084     0.927441     0.919798     0.912155     0.904512     0.896869     0.889226     0.881583     0.873940
      0.866296     0.858653     0.851010     0.843367     0.835724     0.828081     0.820438     0.812795     0.805152     0.797508
      0.789865     0.782222     0.774579     0.766936     0.759293     0.751650     0.744007     0.736364     0.728721     0.721077
      0.713434     0.705791     0.698148     0.690505     0.682862     0.675219     0.667576     0.659933     0.652290     0.644646
      0.637003     0.629360     0.621717     0.614074     0.606431     0.598788     0.591145     0.583502     0.575858     0.568215
      0.560572     0.552929     0.545286     0.537643     0.530000     0.522357     0.514714     0.507071     0.499427     0.491784
      0.484141     0.476498     0.468855     0.461212     0.453569     0.445925     0.438282     0.430639     0.422996     0.415353
      0.407710     0.400067     0.392424     0.384780     0.377137     0.369494     0.361851     0.354208     0.346565     0.338922
      0.331278     0.323635     0.315992     0.308349     0.300706     0.293063     0.285420     0.277777     0.270133     0.262490
      0.254847     0.247204     0.239561     0.231918     0.224275     0.216631     0.208988     0.201345
 NY phased data points follow
   9.34034E+00  1.12038E+01  1.03316E+01  9.90915E+00  9.94319E+00  1.02966E+01  1.05329E+01  1.08461E+01  1.16543E+01  1.13584E+01
   9.91804E+00  1.13308E+01  1.00093E+01  1.04134E+01  1.10654E+01  1.20376E+01  1.24002E+01  1.26618E+01  1.14512E+01  1.22338E+01
   1.18835E+01  1.19184E+01  1.40227E+01  1.20260E+01  1.19974E+01  9.45860E+00  1.12973E+01  1.19662E+01  1.23844E+01  1.27108E+01
   1.18951E+01  1.29038E+01  1.17366E+01  1.17195E+01  1.27726E+01  1.31732E+01  1.41756E+01  1.17276E+01  1.16938E+01  1.32158E+01
   1.25472E+01  1.26764E+01  1.24285E+01  1.11994E+01  1.18314E+01  1.33843E+01  1.01803E+01  1.25902E+01  1.15476E+01  1.30379E+01
   1.26138E+01  1.09527E+01  1.18236E+01  1.24800E+01  1.13216E+01  1.04255E+01  1.32513E+01  1.11939E+01  1.07689E+01  1.12271E+01
   1.11233E+01  1.10674E+01  9.55104E+00  1.16991E+01  1.13890E+01  1.11178E+01  1.15062E+01  1.31310E+01  1.15766E+01  1.15721E+01
   1.14852E+01  1.13037E+01  1.13053E+01  1.11518E+01  1.16767E+01  1.12882E+01  8.51951E+00  1.11163E+01  1.06200E+01  1.17254E+01
   1.05242E+01  1.08373E+01  1.04355E+01  1.00461E+01  9.99205E+00  1.03146E+01  1.04697E+01  9.94943E+00  1.07941E+01  8.84867E+00
   9.84066E+00  9.24547E+00  9.54081E+00  8.80121E+00  9.93297E+00  1.09369E+01  8.73228E+00  1.08378E+01  9.00042E+00  8.91479E+00
   8.96112E+00  1.01160E+01  8.25259E+00  9.24689E+00  8.48427E+00  9.04279E+00  8.47122E+00  9.03676E+00  1.08093E+01  1.03521E+01
   1.01703E+01  8.32855E+00  1.06501E+01  9.74545E+00  9.90709E+00  7.83674E+00  8.75056E+00  7.76738E+00  8.76994E+00  8.04819E+00
   7.85821E+00  7.56442E+00  6.47587E+00  8.19396E+00  7.71481E+00  6.80813E+00  7.93962E+00  6.36229E+00  8.89248E+00  6.70424E+00
   8.24732E+00  7.09523E+00  6.06367E+00  6.35717E+00  7.34305E+00  6.41018E+00  7.09139E+00  7.85469E+00  6.17035E+00  6.29394E+00
   6.00640E+00  7.17549E+00  7.07521E+00  7.05916E+00  8.95142E+00  6.97363E+00  6.37679E+00  6.60878E+00  6.43271E+00  6.96304E+00
   8.01580E+00  9.77307E+00  9.89745E+00  6.67051E+00  1.03303E+01  8.36273E+00  6.85671E+00  9.08440E+00  8.14503E+00  1.00524E+01
   7.96164E+00  9.97462E+00  9.16574E+00  9.28908E+00  7.78872E+00  9.53412E+00  1.06941E+01  9.04055E+00  8.04579E+00  7.24376E+00
   7.26613E+00  7.01660E+00  8.91807E+00  1.00061E+01  9.07979E+00  8.11360E+00  8.21827E+00  9.03885E+00  8.89050E+00  9.31750E+00
   7.40810E+00  7.08872E+00  7.29315E+00  6.80857E+00  6.31459E+00  6.70699E+00  5.68639E+00  7.35207E+00  5.74651E+00  6.74818E+00
   7.06305E+00  7.09275E+00  6.35247E+00  7.41714E+00  5.87114E+00  5.93537E+00  6.87658E+00  7.35261E+00  5.35937E+00  7.37651E+00
   5.54364E+00  5.33968E+00  6.65529E+00  5.27187E+00  6.84634E+00  5.26390E+00  5.98693E+00  6.85391E+00  5.02007E+00  5.69916E+00
   5.60325E+00  8.12497E+00  7.90199E+00  5.95244E+00  7.20381E+00  8.32129E+00  7.71200E+00  8.61577E+00  8.39125E+00  7.53945E+00
   9.04237E+00  1.07940E+01  8.12863E+00  9.46303E+00  1.05269E+01  9.85227E+00  9.69003E+00  8.04694E+00  8.61932E+00  1.13841E+01
   1.01463E+01  9.52783E+00  1.06783E+01  1.02862E+01  9.24737E+00  1.08816E+01  9.82595E+00  1.00525E+01  1.02412E+01  9.64914E+00
   1.03902E+01  1.08077E+01  1.02255E+01  1.12560E+01  1.16133E+01  1.12230E+01  9.69216E+00  1.17832E+01  1.10904E+01  1.04623E+01
   1.05972E+01  1.14892E+01  1.13117E+01  1.23628E+01  1.05490E+01  1.19928E+01  1.03447E+01  1.13453E+01  1.11197E+01  1.03899E+01
   1.06181E+01  1.15529E+01  1.26972E+01  1.22335E+01  1.07409E+01  1.14078E+01  1.34786E+01  1.32136E+01  1.37391E+01  1.28597E+01
   1.15497E+01  1.25923E+01  1.18253E+01  1.18559E+01  1.23607E+01  1.10308E+01  1.13978E+01  1.12347E+01  9.02207E+00  9.90209E+00
   1.01489E+01  1.09584E+01  1.08447E+01  1.18784E+01  1.04695E+01  9.19526E+00  1.07452E+01  9.81165E+00  1.03878E+01  9.37661E+00
   1.11010E+01  1.09768E+01  8.73977E+00  1.07348E+01  9.48081E+00  9.92610E+00  9.79886E+00  9.19727E+00  9.76662E+00  1.05136E+01
   8.88445E+00  8.59729E+00  1.02756E+01  8.93752E+00  9.56657E+00  8.62290E+00  8.71212E+00  9.02915E+00  8.21407E+00  8.17464E+00
   8.84032E+00  8.03799E+00  8.96216E+00  8.74635E+00  9.19119E+00  8.86387E+00  9.07434E+00  9.19289E+00  9.40461E+00  9.05953E+00
   1.10559E+01  8.43345E+00  1.01569E+01  8.43560E+00  1.03661E+01  8.85725E+00  9.42777E+00  9.54205E+00  8.51264E+00  9.90965E+00
   8.55872E+00  8.24322E+00  6.52828E+00  8.20034E+00  8.03024E+00  9.41330E+00  8.64442E+00  8.71259E+00  8.72090E+00  8.57279E+00
   8.39238E+00  8.80159E+00  9.15118E+00  9.84412E+00  9.44008E+00  9.18709E+00  9.89954E+00  7.26070E+00  8.85259E+00  8.25216E+00
   9.19127E+00  7.31765E+00  8.29122E+00  1.00310E+01  8.58705E+00  7.75299E+00  8.10016E+00  8.30115E+00  8.67418E+00  9.29106E+00
   8.11956E+00  7.53997E+00  8.47262E+00  9.20649E+00  8.38081E+00  7.37988E+00  6.65829E+00  7.82720E+00  7.92980E+00  7.87331E+00
   8.40285E+00  7.57819E+00  7.97563E+00  8.56294E+00  8.31420E+00  6.71929E+00  7.46988E+00  7.10823E+00  6.72563E+00  5.55998E+00
   6.64130E+00  6.38703E+00  7.13985E+00  6.76162E+00  7.29127E+00  7.34106E+00  7.30894E+00  7.65829E+00  5.66239E+00  7.04174E+00
   5.60619E+00  6.73218E+00  7.65005E+00  7.82814E+00  6.57617E+00  6.31857E+00  6.27671E+00  6.03406E+00  7.24411E+00  5.98859E+00
   5.93484E+00  7.21058E+00  7.24374E+00  6.92792E+00  6.01733E+00  4.87739E+00  5.14070E+00  5.06404E+00  6.42838E+00  6.33949E+00
   5.64926E+00  5.38251E+00  4.81419E+00  5.46449E+00  6.51589E+00  7.13755E+00  4.11617E+00  4.99425E+00  4.86840E+00  6.30635E+00
   4.57885E+00  5.93333E+00  5.34291E+00  5.16161E+00  4.23160E+00  5.94511E+00  5.57607E+00  5.96374E+00  5.82453E+00  4.76726E+00
   4.51037E+00  4.23415E+00  6.55072E+00  4.86560E+00  4.92635E+00  6.71409E+00  4.38066E+00  4.83872E+00  5.41790E+00  4.92999E+00
   5.11161E+00  5.03263E+00  4.22694E+00  4.79175E+00  4.33547E+00  5.69217E+00  3.83420E+00  4.87156E+00  4.50642E+00  6.27895E+00
   4.70533E+00  5.69537E+00  5.16399E+00  3.64693E+00  5.34488E+00  5.08900E+00  5.36121E+00  4.25396E+00  3.36932E+00  4.06275E+00
   5.95314E+00  4.66682E+00  4.32883E+00  6.21928E+00  3.88913E+00  4.23850E+00  5.01806E+00  3.33758E+00  4.07285E+00  3.74023E+00
   3.61696E+00  4.82572E+00  4.99690E+00  3.53602E+00  4.56820E+00  3.19472E+00  3.64126E+00  3.76636E+00  4.95422E+00  4.35550E+00
   4.82282E+00  4.36969E+00  2.44411E+00  5.04155E+00  3.48072E+00  2.98284E+00  3.52091E+00  4.05476E+00  1.92675E+00  3.22278E+00
   2.56019E+00  3.63014E+00  2.72760E+00  3.37979E+00  2.38329E+00  3.27593E+00  4.77822E+00  3.33020E+00
 NY points of the fit to the data follow
   1.11974E+01  1.12130E+01  1.11286E+01  1.11335E+01  1.11009E+01  1.11439E+01  1.11551E+01  1.12586E+01  1.13148E+01  1.12803E+01
   1.11074E+01  1.10241E+01  1.08109E+01  1.08026E+01  1.06587E+01  1.11024E+01  1.10633E+01  1.14553E+01  1.13425E+01  1.17308E+01
   1.15089E+01  1.18538E+01  1.16822E+01  1.20369E+01  1.18260E+01  1.21223E+01  1.19394E+01  1.23229E+01  1.22704E+01  1.26050E+01
   1.25653E+01  1.27630E+01  1.26901E+01  1.27047E+01  1.26827E+01  1.26908E+01  1.27794E+01  1.26841E+01  1.28752E+01  1.27079E+01
   1.29368E+01  1.26507E+01  1.29277E+01  1.24396E+01  1.26563E+01  1.21745E+01  1.25924E+01  1.22743E+01  1.29065E+01  1.24841E+01
   1.27827E+01  1.20716E+01  1.20599E+01  1.13169E+01  1.13435E+01  1.12497E+01  1.15406E+01  1.15231E+01  1.16535E+01  1.15465E+01
   1.14197E+01  1.11714E+01  1.11192E+01  1.09331E+01  1.09134E+01  1.07299E+01  1.06967E+01  1.05132E+01  1.05018E+01  1.03747E+01
   1.04331E+01  1.03303E+01  1.03723E+01  1.02542E+01  1.02876E+01  1.01590E+01  1.01833E+01  1.00418E+01  1.00524E+01  9.91004E+00
   9.89246E+00  9.76672E+00  9.75078E+00  9.64837E+00  9.64868E+00  9.59929E+00  9.59526E+00  9.53601E+00  9.51978E+00  9.46790E+00
   9.44272E+00  9.41171E+00  9.38516E+00  9.36037E+00  9.34758E+00  9.33068E+00  9.32411E+00  9.33512E+00  9.34096E+00  9.35801E+00
   9.36180E+00  9.36934E+00  9.36517E+00  9.36210E+00  9.35320E+00  9.36016E+00  9.35457E+00  9.35869E+00  9.36490E+00  9.35071E+00
   9.34015E+00  9.29394E+00  9.27230E+00  9.19723E+00  9.17142E+00  9.08692E+00  9.07022E+00  8.98981E+00  8.98769E+00  8.91605E+00
   8.90554E+00  8.80875E+00  8.78044E+00  8.68472E+00  8.66356E+00  8.64715E+00  8.63938E+00  8.62811E+00  8.62035E+00  8.60889E+00
   8.60008E+00  8.58615E+00  8.57558E+00  8.56024E+00  8.54869E+00  8.53127E+00  8.51451E+00  8.49437E+00  8.47739E+00  8.45711E+00
   8.44100E+00  8.42145E+00  8.39696E+00  8.37230E+00  8.34399E+00  8.31880E+00  8.29000E+00  8.26784E+00  8.23269E+00  8.20879E+00
   8.16908E+00  8.14334E+00  8.10036E+00  8.08088E+00  8.03541E+00  8.01621E+00  7.96419E+00  7.93904E+00  7.88047E+00  7.85859E+00
   7.80292E+00  7.78274E+00  7.72315E+00  7.69666E+00  7.63287E+00  7.60929E+00  7.55701E+00  7.53919E+00  7.49388E+00  7.47075E+00
   7.43859E+00  7.42449E+00  7.40554E+00  7.39913E+00  7.39677E+00  7.38892E+00  7.37885E+00  7.30999E+00  7.28879E+00  7.16323E+00
   7.08075E+00  6.96197E+00  6.85660E+00  6.74555E+00  6.72335E+00  6.79132E+00  6.83799E+00  6.94951E+00  7.08463E+00  7.21213E+00
   7.28619E+00  7.34009E+00  7.15706E+00  6.83567E+00  6.60755E+00  6.57281E+00  6.41203E+00  6.52620E+00  6.46854E+00  6.56718E+00
   6.48691E+00  6.64519E+00  6.53676E+00  6.68643E+00  6.43189E+00  6.50155E+00  6.29931E+00  6.53719E+00  6.43405E+00  6.82881E+00
   6.80361E+00  7.24133E+00  7.17432E+00  7.51152E+00  7.43023E+00  7.89491E+00  7.79479E+00  8.20675E+00  8.12439E+00  8.29228E+00
   8.16353E+00  8.49314E+00  8.38909E+00  8.72687E+00  8.76363E+00  9.20727E+00  9.13693E+00  9.68229E+00  9.78818E+00  1.05580E+01
   1.05966E+01  1.11168E+01  1.06321E+01  1.04084E+01  9.68197E+00  9.76517E+00  9.12114E+00  9.54895E+00  9.19032E+00  9.64718E+00
   9.26207E+00  9.84253E+00  9.50474E+00  1.00988E+01  9.62320E+00  1.01299E+01  9.69318E+00  1.03651E+01  9.98219E+00  1.07423E+01
   1.03874E+01  1.11274E+01  1.06973E+01  1.13542E+01  1.10346E+01  1.18063E+01  1.15590E+01  1.23509E+01  1.20305E+01  1.23340E+01
   1.18577E+01  1.21525E+01  1.18393E+01  1.21934E+01  1.21940E+01  1.25215E+01  1.23153E+01  1.26024E+01  1.22590E+01  1.23893E+01
   1.18901E+01  1.18807E+01  1.12517E+01  1.11115E+01  1.05279E+01  1.04858E+01  1.00438E+01  1.01608E+01  9.98945E+00  1.00332E+01
   9.88889E+00  9.89375E+00  9.90651E+00  9.96952E+00  1.00044E+01  1.00598E+01  1.01151E+01  1.01304E+01  1.01714E+01  1.01645E+01
   1.01787E+01  1.01335E+01  1.01055E+01  1.00176E+01  9.94740E+00  9.83811E+00  9.75244E+00  9.63340E+00  9.53442E+00  9.41008E+00
   9.30740E+00  9.18815E+00  9.08721E+00  8.98042E+00  8.89743E+00  8.82064E+00  8.77361E+00  8.75016E+00  8.79153E+00  8.89945E+00
   8.85388E+00  8.88799E+00  8.80975E+00  8.83484E+00  8.72542E+00  8.72549E+00  8.53032E+00  8.63334E+00  8.54383E+00  8.63575E+00
   8.57847E+00  8.68389E+00  8.61461E+00  8.70054E+00  8.65751E+00  8.70614E+00  8.70174E+00  8.71737E+00  8.78265E+00  8.90042E+00
   8.96302E+00  8.94900E+00  9.04644E+00  8.96418E+00  9.05608E+00  8.86116E+00  8.90657E+00  8.74895E+00  8.91368E+00  8.73183E+00
   8.93792E+00  8.78963E+00  9.01239E+00  8.85567E+00  9.05677E+00  8.78667E+00  9.00002E+00  8.76515E+00  9.08673E+00  9.10548E+00
   9.30069E+00  9.24620E+00  9.37059E+00  9.19741E+00  9.13916E+00  8.82221E+00  8.55925E+00  8.39928E+00  8.27236E+00  8.16829E+00
   8.08090E+00  8.01812E+00  7.95284E+00  7.90024E+00  7.82703E+00  7.70330E+00  7.64636E+00  7.55529E+00  7.57154E+00  7.62533E+00
   7.60667E+00  7.60214E+00  7.56076E+00  7.44824E+00  7.35225E+00  7.13735E+00  6.99742E+00  6.90106E+00  6.82597E+00  6.76592E+00
   6.71639E+00  6.67670E+00  6.64462E+00  6.62056E+00  6.60282E+00  6.59205E+00  6.58658E+00  6.58699E+00  6.59151E+00  6.60057E+00
   6.61218E+00  6.62656E+00  6.64149E+00  6.65701E+00  6.67077E+00  6.68275E+00  6.69063E+00  6.69448E+00  6.69215E+00  6.68400E+00
   6.66824E+00  6.64570E+00  6.61506E+00  6.57762E+00  6.53254E+00  6.48159E+00  6.42434E+00  6.36290E+00  6.29705E+00  6.22905E+00
   6.15872E+00  6.08828E+00  6.01743E+00  5.94821E+00  5.88008E+00  5.81481E+00  5.75160E+00  5.69194E+00  5.63478E+00  5.58141E+00
   5.53055E+00  5.48333E+00  5.43837E+00  5.39672E+00  5.35692E+00  5.32000E+00  5.28448E+00  5.25141E+00  5.21932E+00  5.18929E+00
   5.15989E+00  5.13223E+00  5.10490E+00  5.07906E+00  5.05334E+00  5.02891E+00  5.00442E+00  4.98109E+00  4.95756E+00  4.93509E+00
   4.91233E+00  4.89054E+00  4.86839E+00  4.84715E+00  4.82550E+00  4.80470E+00  4.78345E+00  4.76303E+00  4.74213E+00  4.72202E+00
   4.70140E+00  4.68155E+00  4.66117E+00  4.64156E+00  4.62139E+00  4.60197E+00  4.58198E+00  4.56273E+00  4.54290E+00  4.52380E+00
   4.50411E+00  4.48515E+00  4.46557E+00  4.44673E+00  4.42727E+00  4.40854E+00  4.38917E+00  4.37053E+00  4.35126E+00  4.33271E+00
   4.31353E+00  4.29507E+00  4.27596E+00  4.25757E+00  4.23854E+00  4.22023E+00  4.20126E+00  4.18302E+00  4.16412E+00  4.14594E+00
   4.12711E+00  4.10900E+00  4.09024E+00  4.07219E+00  4.05349E+00  4.03551E+00  4.01688E+00  3.99897E+00  3.98042E+00  3.96259E+00
   3.94412E+00  3.92639E+00  3.90802E+00  3.89041E+00  3.87218E+00  3.85473E+00  3.83668E+00  3.81946E+00
 NY background values follow
     9.834E+00    9.826E+00    9.818E+00    9.810E+00    9.802E+00    9.794E+00    9.786E+00    9.778E+00    9.770E+00    9.761E+00
     9.753E+00    9.745E+00    9.737E+00    9.729E+00    9.721E+00    9.713E+00    9.705E+00    9.697E+00    9.689E+00    9.681E+00
     9.673E+00    9.665E+00    9.657E+00    9.648E+00    9.640E+00    9.632E+00    9.624E+00    9.616E+00    9.608E+00    9.600E+00
     9.592E+00    9.584E+00    9.576E+00    9.567E+00    9.559E+00    9.551E+00    9.543E+00    9.535E+00    9.527E+00    9.519E+00
     9.510E+00    9.502E+00    9.494E+00    9.486E+00    9.478E+00    9.470E+00    9.462E+00    9.453E+00    9.445E+00    9.437E+00
     9.429E+00    9.421E+00    9.412E+00    9.404E+00    9.396E+00    9.388E+00    9.380E+00    9.371E+00    9.363E+00    9.355E+00
     9.347E+00    9.338E+00    9.330E+00    9.322E+00    9.314E+00    9.305E+00    9.297E+00    9.289E+00    9.281E+00    9.272E+00
     9.264E+00    9.256E+00    9.247E+00    9.239E+00    9.231E+00    9.222E+00    9.214E+00    9.206E+00    9.197E+00    9.189E+00
     9.181E+00    9.172E+00    9.164E+00    9.156E+00    9.147E+00    9.139E+00    9.130E+00    9.122E+00    9.114E+00    9.105E+00
     9.097E+00    9.088E+00    9.080E+00    9.071E+00    9.063E+00    9.054E+00    9.046E+00    9.038E+00    9.029E+00    9.021E+00
     9.012E+00    9.003E+00    8.995E+00    8.986E+00    8.978E+00    8.969E+00    8.961E+00    8.952E+00    8.944E+00    8.935E+00
     8.926E+00    8.918E+00    8.909E+00    8.900E+00    8.892E+00    8.883E+00    8.874E+00    8.866E+00    8.857E+00    8.848E+00
     8.840E+00    8.831E+00    8.822E+00    8.813E+00    8.805E+00    8.796E+00    8.787E+00    8.778E+00    8.770E+00    8.761E+00
     8.752E+00    8.743E+00    8.734E+00    8.725E+00    8.716E+00    8.707E+00    8.699E+00    8.690E+00    8.681E+00    8.672E+00
     8.663E+00    8.654E+00    8.645E+00    8.636E+00    8.627E+00    8.618E+00    8.609E+00    8.600E+00    8.590E+00    8.581E+00
     8.572E+00    8.563E+00    8.554E+00    8.545E+00    8.536E+00    8.526E+00    8.517E+00    8.508E+00    8.499E+00    8.489E+00
     8.480E+00    8.471E+00    8.462E+00    8.452E+00    8.443E+00    8.434E+00    8.424E+00    8.415E+00    8.405E+00    8.396E+00
     8.386E+00    8.377E+00    8.367E+00    8.358E+00    8.348E+00    8.339E+00    8.329E+00    8.320E+00    8.310E+00    8.301E+00
     8.291E+00    8.281E+00    8.271E+00    8.262E+00    8.252E+00    8.242E+00    8.232E+00    8.223E+00    8.213E+00    8.203E+00
     8.193E+00    8.183E+00    8.173E+00    8.163E+00    8.153E+00    8.143E+00    8.133E+00    8.123E+00    8.113E+00    8.103E+00
     8.093E+00    8.083E+00    8.073E+00    8.062E+00    8.052E+00    8.042E+00    8.032E+00    8.021E+00    8.011E+00    8.001E+00
     7.990E+00    7.980E+00    7.969E+00    7.959E+00    7.948E+00    7.938E+00    7.927E+00    7.916E+00    7.906E+00    7.895E+00
     7.884E+00    7.874E+00    7.863E+00    7.852E+00    7.841E+00    7.830E+00    7.819E+00    7.808E+00    7.797E+00    7.786E+00
     7.775E+00    7.764E+00    7.753E+00    7.742E+00    7.731E+00    7.719E+00    7.708E+00    7.697E+00    7.685E+00    7.674E+00
     7.662E+00    7.651E+00    7.639E+00    7.628E+00    7.616E+00    7.605E+00    7.593E+00    7.581E+00    7.570E+00    7.558E+00
     7.546E+00    7.534E+00    7.522E+00    7.510E+00    7.498E+00    7.486E+00    7.474E+00    7.462E+00    7.450E+00    7.438E+00
     7.425E+00    7.413E+00    7.401E+00    7.388E+00    7.376E+00    7.364E+00    7.351E+00    7.339E+00    7.326E+00    7.313E+00
     7.301E+00    7.288E+00    7.275E+00    7.263E+00    7.250E+00    7.237E+00    7.224E+00    7.211E+00    7.198E+00    7.185E+00
     7.172E+00    7.159E+00    7.146E+00    7.133E+00    7.120E+00    7.107E+00    7.093E+00    7.080E+00    7.067E+00    7.054E+00
     7.040E+00    7.027E+00    7.013E+00    7.000E+00    6.986E+00    6.973E+00    6.959E+00    6.945E+00    6.932E+00    6.918E+00
     6.904E+00    6.891E+00    6.877E+00    6.863E+00    6.849E+00    6.835E+00    6.821E+00    6.807E+00    6.793E+00    6.779E+00
     6.765E+00    6.751E+00    6.737E+00    6.722E+00    6.708E+00    6.694E+00    6.680E+00    6.665E+00    6.651E+00    6.636E+00
     6.622E+00    6.608E+00    6.593E+00    6.579E+00    6.564E+00    6.549E+00    6.535E+00    6.520E+00    6.505E+00    6.491E+00
     6.476E+00    6.461E+00    6.446E+00    6.431E+00    6.416E+00    6.402E+00    6.387E+00    6.372E+00    6.357E+00    6.341E+00
     6.326E+00    6.311E+00    6.296E+00    6.281E+00    6.266E+00    6.251E+00    6.235E+00    6.220E+00    6.205E+00    6.189E+00
     6.174E+00    6.159E+00    6.143E+00    6.128E+00    6.112E+00    6.097E+00    6.081E+00    6.066E+00    6.050E+00    6.034E+00
     6.019E+00    6.003E+00    5.987E+00    5.972E+00    5.956E+00    5.940E+00    5.924E+00    5.908E+00    5.893E+00    5.877E+00
     5.861E+00    5.845E+00    5.829E+00    5.813E+00    5.797E+00    5.781E+00    5.765E+00    5.749E+00    5.733E+00    5.717E+00
     5.701E+00    5.685E+00    5.668E+00    5.652E+00    5.636E+00    5.620E+00    5.604E+00    5.587E+00    5.571E+00    5.555E+00
     5.539E+00    5.522E+00    5.506E+00    5.489E+00    5.473E+00    5.457E+00    5.440E+00    5.424E+00    5.407E+00    5.391E+00
     5.374E+00    5.358E+00    5.341E+00    5.325E+00    5.308E+00    5.292E+00    5.275E+00    5.259E+00    5.242E+00    5.225E+00
     5.209E+00    5.192E+00    5.175E+00    5.159E+00    5.142E+00    5.125E+00    5.109E+00    5.092E+00    5.075E+00    5.058E+00
     5.042E+00    5.025E+00    5.008E+00    4.991E+00    4.974E+00    4.958E+00    4.941E+00    4.924E+00    4.907E+00    4.890E+00
     4.873E+00    4.856E+00    4.840E+00    4.823E+00    4.806E+00    4.789E+00    4.772E+00    4.755E+00    4.738E+00    4.721E+00
     4.704E+00    4.687E+00    4.670E+00    4.653E+00    4.636E+00    4.619E+00    4.602E+00    4.585E+00    4.568E+00    4.551E+00
     4.534E+00    4.517E+00    4.500E+00    4.483E+00    4.465E+00    4.448E+00    4.431E+00    4.414E+00    4.397E+00    4.380E+00
     4.363E+00    4.346E+00    4.329E+00    4.311E+00    4.294E+00    4.277E+00    4.260E+00    4.243E+00    4.226E+00    4.208E+00
     4.191E+00    4.174E+00    4.157E+00    4.140E+00    4.123E+00    4.105E+00    4.088E+00    4.071E+00    4.054E+00    4.037E+00
     4.019E+00    4.002E+00    3.985E+00    3.968E+00    3.951E+00    3.933E+00    3.916E+00    3.899E+00    3.882E+00    3.865E+00
     3.847E+00    3.830E+00    3.813E+00    3.796E+00    3.779E+00    3.761E+00    3.744E+00    3.727E+00
 Ala      Conc. = 5.38E+02
