 LCModel (Version 6.3-1L) Copyright: S.W. Provencher.          Ref.: Magn. Reson. Med. 30:672-679 (1993).                
 Slice#1 Row#1 Col#8  PD_05_press_1_raw_act
 36 lines in following concentration table = NCONC+1
    Conc.  %SD /Cr+PCr  Metabolite                                         
    0.000 999%   0.000 Ala                                                 
   17.417  76%   0.157 Asp                                                 
   13.603 565%   0.122 Cr                                                  
   97.659  80%   0.878 PCr                                                 
   10.480  75% 9.4E-02 GABA                                                
   11.521  69%   0.104 Glc                                                 
   47.640 182%   0.428 Gln                                                 
  134.889  72%   1.212 Glu                                                 
   38.715  25%   0.348 GPC                                                 
    0.000 999%   0.000 PCh                                                 
   60.575  54%   0.544 GSH                                                 
  286.948  35%   2.579 Ins                                                 
   57.989  82%   0.521 Lac                                                 
  129.452  22%   1.163 NAA                                                 
    0.000 999%   0.000 NAAG                                                
    3.868  68% 3.5E-02 Scyllo                                              
   16.475  79%   0.148 Tau                                                 
    0.000 999%   0.000 -CrCH2                                              
   38.715  25%   0.348 GPC+PCh                                             
  129.452  22%   1.163 NAA+NAAG                                            
  111.262  22%   1.000 Cr+PCr                                              
  182.529  68%   1.641 Glu+Gln                                             
    0.000 999%   0.000 Lip13a                                              
    0.000 999%   0.000 Lip13b                                              
 2.61E-04 999% 2.3E-06 Lip09                                               
   20.225 293%   0.182 MM09                                                
 3.64E-05 999% 3.3E-07 Lip20                                               
   30.336 293%   0.273 MM20                                                
    6.067 293% 5.5E-02 MM12                                                
   15.176 293%   0.136 MM14                                                
    7.584 293% 6.8E-02 MM17                                                
    0.000 999%   0.000 Lip13a+Lip13b                                       
   21.243 293%   0.191 MM14+Lip13a+Lip13b+MM12                             
   20.226 293%   0.182 MM09+Lip09                                          
   30.336 293%   0.273 MM20+Lip20                                          
   6 lines in following misc. output table
  FWHM = 0.046 ppm    S/N =   1                                            
  Data shift = 0.031 ppm                                                   
  Ph:-138 deg      -1.1 deg/ppm                                            
  alphaB,S = 8.5E+01,   2.6E+01                                            
   14 spline knots.   Ns = 5(1)                                            
   2 inflections.     1 extrema                                            
  498 points on ppm-axis = NY
      4.000000     3.992357     3.984714     3.977070     3.969427     3.961784     3.954141     3.946497     3.938854     3.931211
      3.923568     3.915925     3.908281     3.900638     3.892995     3.885352     3.877708     3.870065     3.862422     3.854779
      3.847136     3.839492     3.831849     3.824206     3.816563     3.808919     3.801276     3.793633     3.785990     3.778347
      3.770703     3.763060     3.755417     3.747774     3.740130     3.732487     3.724844     3.717201     3.709558     3.701914
      3.694271     3.686628     3.678985     3.671341     3.663698     3.656055     3.648412     3.640769     3.633125     3.625482
      3.617839     3.610196     3.602552     3.594909     3.587266     3.579623     3.571980     3.564336     3.556693     3.549050
      3.541407     3.533763     3.526120     3.518477     3.510834     3.503191     3.495547     3.487904     3.480261     3.472618
      3.464974     3.457331     3.449688     3.442045     3.434402     3.426758     3.419115     3.411472     3.403829     3.396185
      3.388542     3.380899     3.373256     3.365613     3.357969     3.350326     3.342683     3.335040     3.327396     3.319753
      3.312110     3.304467     3.296824     3.289180     3.281537     3.273894     3.266251     3.258607     3.250964     3.243321
      3.235678     3.228034     3.220391     3.212748     3.205105     3.197462     3.189818     3.182175     3.174532     3.166889
      3.159245     3.151602     3.143959     3.136316     3.128673     3.121029     3.113386     3.105743     3.098100     3.090456
      3.082813     3.075170     3.067527     3.059884     3.052240     3.044597     3.036954     3.029311     3.021667     3.014024
      3.006381     2.998738     2.991095     2.983451     2.975808     2.968165     2.960522     2.952878     2.945235     2.937592
      2.929949     2.922306     2.914662     2.907019     2.899376     2.891733     2.884089     2.876446     2.868803     2.861160
      2.853517     2.845873     2.838230     2.830587     2.822944     2.815300     2.807657     2.800014     2.792371     2.784728
      2.777084     2.769441     2.761798     2.754155     2.746511     2.738868     2.731225     2.723582     2.715939     2.708295
      2.700652     2.693009     2.685366     2.677722     2.670079     2.662436     2.654793     2.647150     2.639506     2.631863
      2.624220     2.616577     2.608933     2.601290     2.593647     2.586004     2.578361     2.570717     2.563074     2.555431
      2.547788     2.540144     2.532501     2.524858     2.517215     2.509572     2.501928     2.494285     2.486642     2.478999
      2.471355     2.463712     2.456069     2.448426     2.440783     2.433139     2.425496     2.417853     2.410210     2.402566
      2.394923     2.387280     2.379637     2.371994     2.364350     2.356707     2.349064     2.341421     2.333777     2.326134
      2.318491     2.310848     2.303205     2.295561     2.287918     2.280275     2.272632     2.264988     2.257345     2.249702
      2.242059     2.234416     2.226772     2.219129     2.211486     2.203843     2.196199     2.188556     2.180913     2.173270
      2.165627     2.157983     2.150340     2.142697     2.135054     2.127410     2.119767     2.112124     2.104481     2.096838
      2.089194     2.081551     2.073908     2.066265     2.058621     2.050978     2.043335     2.035692     2.028049     2.020405
      2.012762     2.005119     1.997476     1.989833     1.982190     1.974546     1.966903     1.959260     1.951617     1.943974
      1.936331     1.928688     1.921045     1.913402     1.905759     1.898115     1.890472     1.882829     1.875186     1.867543
      1.859900     1.852257     1.844614     1.836971     1.829327     1.821684     1.814041     1.806398     1.798755     1.791112
      1.783469     1.775826     1.768183     1.760540     1.752896     1.745253     1.737610     1.729967     1.722324     1.714681
      1.707038     1.699395     1.691752     1.684108     1.676465     1.668822     1.661179     1.653536     1.645893     1.638250
      1.630607     1.622964     1.615321     1.607677     1.600034     1.592391     1.584748     1.577105     1.569462     1.561819
      1.554176     1.546533     1.538890     1.531246     1.523603     1.515960     1.508317     1.500674     1.493031     1.485388
      1.477745     1.470102     1.462458     1.454815     1.447172     1.439529     1.431886     1.424243     1.416600     1.408957
      1.401314     1.393671     1.386027     1.378384     1.370741     1.363098     1.355455     1.347812     1.340169     1.332526
      1.324883     1.317240     1.309596     1.301953     1.294310     1.286667     1.279024     1.271381     1.263738     1.256095
      1.248452     1.240808     1.233165     1.225522     1.217879     1.210236     1.202593     1.194950     1.187307     1.179664
      1.172021     1.164377     1.156734     1.149091     1.141448     1.133805     1.126162     1.118519     1.110876     1.103233
      1.095590     1.087946     1.080303     1.072660     1.065017     1.057374     1.049731     1.042088     1.034445     1.026802
      1.019158     1.011515     1.003872     0.996229     0.988586     0.980943     0.973300     0.965657     0.958014     0.950371
      0.942727     0.935084     0.927441     0.919798     0.912155     0.904512     0.896869     0.889226     0.881583     0.873940
      0.866296     0.858653     0.851010     0.843367     0.835724     0.828081     0.820438     0.812795     0.805152     0.797508
      0.789865     0.782222     0.774579     0.766936     0.759293     0.751650     0.744007     0.736364     0.728721     0.721077
      0.713434     0.705791     0.698148     0.690505     0.682862     0.675219     0.667576     0.659933     0.652290     0.644646
      0.637003     0.629360     0.621717     0.614074     0.606431     0.598788     0.591145     0.583502     0.575858     0.568215
      0.560572     0.552929     0.545286     0.537643     0.530000     0.522357     0.514714     0.507071     0.499427     0.491784
      0.484141     0.476498     0.468855     0.461212     0.453569     0.445925     0.438282     0.430639     0.422996     0.415353
      0.407710     0.400067     0.392424     0.384780     0.377137     0.369494     0.361851     0.354208     0.346565     0.338922
      0.331278     0.323635     0.315992     0.308349     0.300706     0.293063     0.285420     0.277777     0.270133     0.262490
      0.254847     0.247204     0.239561     0.231918     0.224275     0.216631     0.208988     0.201345
 NY phased data points follow
   6.06837E+00  3.73505E+00  2.94064E+00  2.00491E+00  2.79750E+00  5.37506E+00  8.05028E-01  7.95559E-01  4.24040E+00  3.69313E+00
   6.35068E+00  5.77295E+00  7.80726E+00  8.12233E+00  6.93405E+00  4.67484E+00  2.11931E+00  4.25720E+00  2.00532E+00  2.95945E+00
   9.40203E-01  5.28752E+00  1.14240E+00  1.99456E+00  5.08355E+00  1.82283E+00  4.06039E+00  6.28855E+00  5.53440E+00  2.64713E+00
   2.26292E-01  4.01235E+00  2.10759E+00  4.20761E+00  4.03067E+00  6.37796E+00  4.28452E+00  3.74055E+00  4.98464E+00  3.65357E+00
  -1.96400E-01  9.52778E-01  2.29405E+00  2.64363E+00  1.03121E+00  3.25222E+00  3.99320E+00  3.05802E+00  2.43727E-01  4.97975E+00
   5.03514E+00  1.43033E+00  4.90347E+00  4.89016E+00  4.23359E+00  4.53321E+00  9.17530E-01  4.45985E+00  3.53587E+00  2.89941E+00
   3.47658E+00  3.92893E+00  6.02309E-02  2.08943E+00  2.03685E+00  6.49758E+00 -3.07564E+00  1.35878E+00  1.72086E+00 -4.95517E-01
   3.42666E+00  1.55003E+00  3.55964E+00  2.94240E+00  4.10913E+00 -8.54854E-01  2.87847E+00  6.83314E+00  1.34217E+00  1.03692E+00
   4.49858E+00 -1.86852E-01  1.00520E+00  2.81473E+00  2.11499E+00  1.92150E+00  2.83265E-01  2.44317E+00  7.82783E-01  4.05917E+00
   2.69938E-01  5.13470E+00 -1.10824E-01 -2.57833E-01  1.91753E+00 -1.78086E+00  3.11660E+00 -1.64543E+00 -1.87857E+00 -1.37964E+00
  -7.82330E-02  3.04094E+00  3.42102E+00  3.24893E+00  4.91571E+00  5.37665E+00  6.28665E+00  4.66119E+00  5.05687E+00  5.51659E-01
   1.12698E+00  9.23482E-01  1.06851E-01  1.15741E+00  5.23422E-01  1.95429E+00 -3.45035E-01  1.47810E+00  1.77059E+00  6.63413E-01
   1.39589E-01  2.17635E-02 -1.81863E+00  2.69147E+00 -1.09129E+00 -1.02188E+00  5.48645E+00  3.49834E+00  3.23541E+00  4.60250E+00
   5.53117E+00  2.05203E+00  4.69201E+00  4.58178E+00  3.06017E+00 -2.42508E+00  3.96128E+00  1.91503E+00 -2.25051E+00  3.42189E+00
   1.22587E+00 -4.31762E-01  3.59455E-01 -3.59250E+00  2.39506E+00  1.03480E+00  1.23329E+00 -9.62009E-01  1.66292E+00  4.82871E+00
   2.11403E+00  2.34799E+00  3.90305E+00  1.89098E+00  1.20256E+00  2.67970E+00  2.11883E+00  5.01694E-01  2.90666E+00  4.26706E-01
  -1.62281E+00  3.04253E+00  4.75291E+00  2.17357E+00  2.74296E-01  3.95938E+00  8.23298E-01 -9.86702E-01 -6.66628E-01  6.57544E+00
   1.52381E+00 -9.22812E-01  2.18674E+00  1.07628E+00  3.62920E+00 -2.67985E+00  1.17678E+00  7.50952E-01  1.91979E+00  2.97388E+00
   1.75112E+00  2.43008E+00 -2.66621E+00 -9.20700E-01  7.55536E-01  2.23673E+00 -6.05998E-01  7.28153E-01 -1.70964E+00  4.73488E+00
  -1.10490E+00  4.05201E+00  8.38343E-01  3.76896E+00  2.90811E-01  1.53639E+00  1.76835E+00  4.01602E+00  1.05089E+00  4.58923E+00
  -1.32292E+00  7.49813E-01 -9.97094E-01  2.48874E+00  9.39014E-01  1.61867E+00  2.61840E+00  2.01543E+00 -1.22877E+00  1.95114E+00
   2.68652E+00  3.65738E+00  2.56636E+00 -1.84706E+00  7.03054E-01  1.17412E+00  3.09842E+00  2.58838E+00  5.82377E+00  4.58308E+00
  -3.15070E+00 -1.24000E+00  1.92920E+00  6.06588E+00  5.42074E-01  3.00115E+00  1.96597E+00  1.92169E+00  4.23159E+00  5.86410E+00
   3.92840E+00  2.18428E+00  3.55475E+00  3.72383E+00  1.21708E+00  1.94063E+00 -3.62042E+00  4.22352E+00  4.97131E+00  2.88408E+00
   3.47734E-01  1.05159E-01  3.29130E+00  2.30627E+00  1.65098E+00 -1.86462E+00 -9.60423E-01  3.28778E+00 -1.95415E-01 -1.89442E+00
   6.14811E+00  1.27331E+00 -3.68188E-01 -9.18290E-01  2.35006E+00 -3.18838E+00 -2.22374E+00  1.18422E-02  2.14997E+00  1.99468E+00
   6.72433E+00  4.82208E+00  7.42001E+00  6.15404E+00  6.42327E+00  4.88437E+00  5.73439E-01  1.56761E+00 -3.82413E-01 -2.46559E+00
  -2.93450E-01  1.93580E+00 -5.78978E-01  1.33576E+00 -1.48409E+00  1.98410E-01 -3.79555E-01  2.19410E+00  2.39864E-02  6.93841E-01
   5.54645E-02 -1.16908E+00 -9.25847E-01  8.88710E-01 -1.99317E+00  4.08268E+00  2.05779E+00  2.34416E+00 -7.84377E-02  1.02515E+00
   2.14092E+00  2.88550E+00  2.69135E+00  2.20369E-01  6.90821E-02 -1.08119E+00  9.82102E-02 -2.01605E+00  1.81642E+00  4.49514E+00
   3.29267E-01  2.22989E+00  6.02604E-01  3.90784E-01 -2.95885E-01 -1.16475E+00 -1.80970E+00  4.14625E+00 -3.65249E-02  7.51523E-01
   1.64282E+00  5.82341E+00  2.85448E+00  3.47516E+00 -2.61157E+00  8.36598E-01  5.92043E-01  1.95490E+00  1.98995E+00 -1.17887E+00
  -1.83164E+00  3.20352E-02  2.76412E+00 -1.86694E+00 -7.03786E-01 -2.11111E-01 -3.32000E-01  3.82211E-02  3.24212E-02  1.79893E+00
   2.62037E+00  4.35938E-01  4.30533E+00  2.22072E+00  2.22907E+00  4.20151E+00  2.10849E+00  3.80565E+00  2.09822E+00  2.94564E+00
   5.99199E+00  1.41478E+00  3.32489E+00  3.32621E+00  1.45592E+00 -1.75254E+00  3.85251E+00  6.59952E+00  2.02672E+00  1.85695E+00
   2.71021E+00  5.24811E-01 -2.80302E+00 -1.23627E+00  2.09549E+00 -2.58442E+00 -4.49327E+00 -3.40432E+00 -1.43369E+00 -1.37959E+00
  -3.75757E+00  8.10021E-01  4.43960E-01 -1.54862E+00 -2.74150E+00 -2.26208E+00 -1.75545E+00 -5.94796E-01 -3.46629E+00  2.61541E+00
  -1.25877E+00 -1.48658E+00  3.57973E+00 -2.87251E+00  7.75857E-01 -2.80418E+00 -1.97041E+00  2.50230E-01  6.90863E-01  1.20908E+00
  -4.24476E-02 -2.18471E+00  7.03429E-01  2.03327E-01  1.02894E+00  3.57628E+00  4.61786E-02  3.09259E+00  1.48423E+00  3.52984E+00
   1.36402E+00 -3.62283E+00  1.64162E+00 -6.91435E-01 -3.18877E+00 -4.95012E+00  1.02182E+00  1.58314E+00  3.04204E-03  7.66633E-01
   5.83520E-01 -1.61508E+00  1.67594E+00  2.79277E-02  3.46661E-01  3.55866E+00  5.35605E+00  2.87415E+00  2.88946E+00  8.24240E-01
   2.47136E+00  2.46727E-01  3.69006E+00  1.60395E-01 -6.41337E-01  1.72934E+00 -2.13129E+00  1.39255E+00 -2.12933E-01  3.24190E+00
  -1.39571E+00  1.82018E+00  1.36480E-01  1.87187E+00  5.28764E+00  2.24464E+00  1.07731E+00  1.44081E+00  2.53573E+00  7.28615E-01
   3.78741E-01  3.27122E+00  4.48449E-01  9.67191E-01  5.99053E-01  3.47284E+00 -1.81789E+00 -1.24432E+00  4.71361E-01  1.14365E+00
   1.35508E+00  1.29910E-01  2.32722E+00 -1.08435E+00  4.34768E+00  4.56365E-01 -1.51261E+00  3.47636E+00 -6.27474E-01 -6.16004E-01
  -3.65341E+00 -8.85593E-01 -1.91803E+00  1.52197E+00 -4.65127E-01  2.90922E+00  8.14785E-01  3.33334E+00  2.82319E+00  1.32740E+00
  -1.00258E+00  4.27653E+00 -6.02595E-01  1.83960E+00  2.78431E+00  1.55501E+00  1.40622E+00  1.44048E+00 -2.06741E+00  2.11520E+00
  -1.01842E-01  1.15256E-01 -1.03767E+00  2.63385E+00  8.92525E-01  2.19227E+00 -1.41920E+00 -1.49908E-01  2.16464E+00  2.52464E+00
  -6.55564E-01  2.37997E+00 -1.23187E+00  4.34608E-01  5.52165E-01  2.89979E+00  3.58353E-01  2.64637E+00 -1.03462E+00  2.64287E-01
   3.88830E+00  1.81493E+00 -1.68641E+00  2.01113E+00  2.34819E+00 -6.94997E-01  8.22527E-01 -5.93764E-02
 NY points of the fit to the data follow
   2.63963E+00  2.34917E+00  2.06785E+00  1.89678E+00  1.78318E+00  1.70452E+00  1.84062E+00  2.27182E+00  2.92196E+00  3.63532E+00
   4.29557E+00  4.81217E+00  5.05534E+00  4.89717E+00  4.29988E+00  3.43364E+00  2.73463E+00  2.40020E+00  2.22954E+00  2.15890E+00
   2.12410E+00  2.08687E+00  2.05547E+00  2.05349E+00  2.05585E+00  1.97326E+00  1.81366E+00  1.74143E+00  1.86654E+00  2.18953E+00
   2.64753E+00  3.18165E+00  3.72145E+00  4.13498E+00  4.24403E+00  3.94127E+00  3.34980E+00  2.78843E+00  2.41485E+00  2.14523E+00
   1.99617E+00  1.92717E+00  1.84006E+00  1.70082E+00  1.68683E+00  1.99732E+00  2.60384E+00  3.30926E+00  3.92757E+00  4.37795E+00
   4.58735E+00  4.40868E+00  3.76350E+00  2.81951E+00  1.95272E+00  1.48147E+00  1.39763E+00  1.53105E+00  1.78161E+00  2.10027E+00
   2.42030E+00  2.68128E+00  2.83768E+00  2.85865E+00  2.71913E+00  2.41474E+00  2.06299E+00  1.80001E+00  1.68593E+00  1.75486E+00
   1.94242E+00  2.16101E+00  2.34746E+00  2.47396E+00  2.54749E+00  2.57099E+00  2.53790E+00  2.44177E+00  2.29471E+00  2.17556E+00
   2.09237E+00  2.01518E+00  1.97501E+00  1.99523E+00  2.03451E+00  2.02073E+00  1.91464E+00  1.72358E+00  1.48234E+00  1.22654E+00
   9.92360E-01  8.33348E-01  8.19400E-01  1.00352E+00  1.28716E+00  1.53593E+00  1.66902E+00  1.64805E+00  1.42560E+00  1.31203E+00
   1.63497E+00  2.39896E+00  3.37136E+00  4.34881E+00  5.24251E+00  5.86405E+00  5.93348E+00  5.24402E+00  3.90594E+00  2.51104E+00
   1.83732E+00  1.65320E+00  1.57147E+00  1.52880E+00  1.50187E+00  1.48744E+00  1.47397E+00  1.45241E+00  1.42156E+00  1.38407E+00
   1.33932E+00  1.26907E+00  1.09694E+00  1.00180E+00  1.34196E+00  2.18159E+00  3.29403E+00  4.39796E+00  5.35085E+00  6.03503E+00
   6.24176E+00  5.77501E+00  4.64124E+00  3.24754E+00  2.35916E+00  2.03182E+00  1.80456E+00  1.56521E+00  1.32906E+00  1.14634E+00
   1.08572E+00  1.18724E+00  1.38346E+00  1.57961E+00  1.71925E+00  1.76265E+00  1.71601E+00  1.63142E+00  1.53704E+00  1.47104E+00
   1.42450E+00  1.38336E+00  1.34379E+00  1.30933E+00  1.27996E+00  1.25754E+00  1.25061E+00  1.24916E+00  1.23632E+00  1.20833E+00
   1.16927E+00  1.13303E+00  1.10446E+00  1.08652E+00  1.08862E+00  1.11498E+00  1.16074E+00  1.19972E+00  1.19741E+00  1.15903E+00
   1.10962E+00  1.07518E+00  1.06454E+00  1.04159E+00  1.00001E+00  9.59298E-01  9.34096E-01  9.16766E-01  8.95664E-01  8.76232E-01
   8.76192E-01  9.02197E-01  9.27221E-01  9.05709E-01  8.43252E-01  7.93104E-01  7.76670E-01  7.94092E-01  8.36109E-01  9.23313E-01
   1.06941E+00  1.25841E+00  1.44368E+00  1.56702E+00  1.57148E+00  1.44498E+00  1.22965E+00  9.99105E-01  8.30088E-01  7.58941E-01
   7.90358E-01  9.17236E-01  1.14061E+00  1.41887E+00  1.66781E+00  1.80045E+00  1.79425E+00  1.65856E+00  1.41509E+00  1.10928E+00
   8.04379E-01  5.58513E-01  4.74950E-01  6.21345E-01  9.51408E-01  1.37558E+00  1.77998E+00  2.03757E+00  2.08961E+00  1.87835E+00
   1.39342E+00  7.98424E-01  3.07056E-01  8.53376E-02  8.20029E-02  2.54329E-01  5.99644E-01  1.04812E+00  1.43239E+00  1.58217E+00
   1.50431E+00  1.35004E+00  1.20142E+00  1.05790E+00  9.79342E-01  1.02471E+00  1.18384E+00  1.38220E+00  1.53201E+00  1.56622E+00
   1.49027E+00  1.32195E+00  1.08745E+00  8.31984E-01  6.56819E-01  6.43174E-01  7.51604E-01  9.01387E-01  1.05725E+00  1.18142E+00
   1.20874E+00  1.16620E+00  1.10060E+00  1.05927E+00  1.02863E+00  9.09454E-01  8.30362E-01  1.19140E+00  2.09571E+00  3.30829E+00
   4.52847E+00  5.60481E+00  6.41602E+00  6.69612E+00  6.15870E+00  4.76790E+00  3.00253E+00  1.81535E+00  1.42893E+00  1.25810E+00
   1.14772E+00  1.08486E+00  1.04830E+00  1.02836E+00  1.03548E+00  1.06463E+00  1.10274E+00  1.13290E+00  1.14263E+00  1.12630E+00
   1.09382E+00  1.05812E+00  1.02395E+00  9.96366E-01  9.79438E-01  9.72123E-01  9.72009E-01  9.75498E-01  9.78505E-01  9.80615E-01
   9.80747E-01  9.77958E-01  9.73534E-01  9.69342E-01  9.65429E-01  9.61081E-01  9.56940E-01  9.53843E-01  9.51281E-01  9.48906E-01
   9.47063E-01  9.45309E-01  9.43549E-01  9.41679E-01  9.39594E-01  9.37248E-01  9.34620E-01  9.31677E-01  9.28366E-01  9.24715E-01
   9.20969E-01  9.17268E-01  9.13651E-01  9.10191E-01  9.06891E-01  9.03752E-01  9.00832E-01  8.98219E-01  8.95999E-01  8.94207E-01
   8.92821E-01  8.91805E-01  8.91162E-01  8.90927E-01  8.91115E-01  8.91687E-01  8.92574E-01  8.93725E-01  8.95139E-01  8.96834E-01
   8.98806E-01  9.01019E-01  9.03455E-01  9.06172E-01  9.09295E-01  9.12993E-01  9.17448E-01  9.22877E-01  9.29603E-01  9.38079E-01
   9.48695E-01  9.60616E-01  9.70399E-01  1.01507E+00  1.15955E+00  1.36251E+00  1.52738E+00  1.58324E+00  1.51950E+00  1.33694E+00
   9.84327E-01  4.65714E-01 -5.26440E-02 -3.51903E-01 -2.82855E-01  6.17901E-02  4.53575E-01  8.53561E-01  1.22299E+00  1.47218E+00
   1.50947E+00  1.32707E+00  1.10357E+00  9.82091E-01  9.14701E-01  8.70895E-01  8.39634E-01  8.15910E-01  7.97117E-01  7.81765E-01
   7.68899E-01  7.57850E-01  7.48157E-01  7.39539E-01  7.31840E-01  7.24960E-01  7.18797E-01  7.13253E-01  7.08274E-01  7.03862E-01
   7.00048E-01  6.96850E-01  6.94258E-01  6.92261E-01  6.90879E-01  6.90162E-01  6.90155E-01  6.90864E-01  6.92268E-01  6.94340E-01
   6.97069E-01  7.00438E-01  7.04388E-01  7.08806E-01  7.13549E-01  7.18469E-01  7.23417E-01  7.28227E-01  7.32691E-01  7.36581E-01
   7.39675E-01  7.41794E-01  7.42789E-01  7.42533E-01  7.40912E-01  7.37849E-01  7.33333E-01  7.27420E-01  7.20214E-01  7.11838E-01
   7.02431E-01  6.92159E-01  6.81227E-01  6.69857E-01  6.58259E-01  6.46609E-01  6.35054E-01  6.23734E-01  6.12782E-01  6.02307E-01
   5.92372E-01  5.82999E-01  5.74189E-01  5.65944E-01  5.58266E-01  5.51136E-01  5.44510E-01  5.38328E-01  5.32540E-01  5.27113E-01
   5.22022E-01  5.17232E-01  5.12690E-01  5.08348E-01  5.04181E-01  5.00180E-01  4.96334E-01  4.92618E-01  4.88999E-01  4.85453E-01
   4.81980E-01  4.78587E-01  4.75270E-01  4.72008E-01  4.68779E-01  4.65580E-01  4.62419E-01  4.59307E-01  4.56235E-01  4.53183E-01
   4.50141E-01  4.47113E-01  4.44114E-01  4.41148E-01  4.38203E-01  4.35262E-01  4.32322E-01  4.29397E-01  4.26500E-01  4.23626E-01
   4.20758E-01  4.17887E-01  4.15016E-01  4.12161E-01  4.09329E-01  4.06512E-01  4.03692E-01  4.00866E-01  3.98046E-01  3.95246E-01
   3.92463E-01  3.89684E-01  3.86898E-01  3.84108E-01  3.81330E-01  3.78574E-01  3.75830E-01  3.73082E-01  3.70328E-01  3.67576E-01
   3.64841E-01  3.62124E-01  3.59412E-01  3.56693E-01  3.53969E-01  3.51256E-01  3.48564E-01  3.45887E-01  3.43208E-01  3.40523E-01
   3.37841E-01  3.35179E-01  3.32538E-01  3.29907E-01  3.27273E-01  3.24639E-01  3.22021E-01  3.19430E-01
 NY background values follow
     1.599E+00    1.597E+00    1.594E+00    1.592E+00    1.589E+00    1.587E+00    1.584E+00    1.582E+00    1.579E+00    1.577E+00
     1.574E+00    1.572E+00    1.569E+00    1.567E+00    1.564E+00    1.562E+00    1.559E+00    1.557E+00    1.554E+00    1.552E+00
     1.549E+00    1.547E+00    1.544E+00    1.542E+00    1.539E+00    1.537E+00    1.534E+00    1.532E+00    1.529E+00    1.527E+00
     1.524E+00    1.522E+00    1.519E+00    1.517E+00    1.514E+00    1.512E+00    1.509E+00    1.507E+00    1.504E+00    1.502E+00
     1.499E+00    1.497E+00    1.494E+00    1.492E+00    1.489E+00    1.487E+00    1.484E+00    1.482E+00    1.479E+00    1.477E+00
     1.474E+00    1.472E+00    1.469E+00    1.467E+00    1.464E+00    1.462E+00    1.459E+00    1.457E+00    1.454E+00    1.452E+00
     1.449E+00    1.447E+00    1.444E+00    1.441E+00    1.439E+00    1.436E+00    1.434E+00    1.431E+00    1.429E+00    1.426E+00
     1.424E+00    1.421E+00    1.419E+00    1.416E+00    1.414E+00    1.411E+00    1.409E+00    1.406E+00    1.404E+00    1.401E+00
     1.399E+00    1.396E+00    1.393E+00    1.391E+00    1.388E+00    1.386E+00    1.383E+00    1.381E+00    1.378E+00    1.376E+00
     1.373E+00    1.371E+00    1.368E+00    1.366E+00    1.363E+00    1.360E+00    1.358E+00    1.355E+00    1.353E+00    1.350E+00
     1.348E+00    1.345E+00    1.343E+00    1.340E+00    1.338E+00    1.335E+00    1.333E+00    1.330E+00    1.327E+00    1.325E+00
     1.322E+00    1.320E+00    1.317E+00    1.315E+00    1.312E+00    1.310E+00    1.307E+00    1.305E+00    1.302E+00    1.299E+00
     1.297E+00    1.294E+00    1.292E+00    1.289E+00    1.287E+00    1.284E+00    1.282E+00    1.279E+00    1.277E+00    1.274E+00
     1.271E+00    1.269E+00    1.266E+00    1.264E+00    1.261E+00    1.259E+00    1.256E+00    1.254E+00    1.251E+00    1.248E+00
     1.246E+00    1.243E+00    1.241E+00    1.238E+00    1.236E+00    1.233E+00    1.231E+00    1.228E+00    1.225E+00    1.223E+00
     1.220E+00    1.218E+00    1.215E+00    1.213E+00    1.210E+00    1.208E+00    1.205E+00    1.202E+00    1.200E+00    1.197E+00
     1.195E+00    1.192E+00    1.190E+00    1.187E+00    1.184E+00    1.182E+00    1.179E+00    1.177E+00    1.174E+00    1.172E+00
     1.169E+00    1.166E+00    1.164E+00    1.161E+00    1.159E+00    1.156E+00    1.154E+00    1.151E+00    1.149E+00    1.146E+00
     1.143E+00    1.141E+00    1.138E+00    1.136E+00    1.133E+00    1.131E+00    1.128E+00    1.125E+00    1.123E+00    1.120E+00
     1.118E+00    1.115E+00    1.113E+00    1.110E+00    1.107E+00    1.105E+00    1.102E+00    1.100E+00    1.097E+00    1.094E+00
     1.092E+00    1.089E+00    1.087E+00    1.084E+00    1.082E+00    1.079E+00    1.076E+00    1.074E+00    1.071E+00    1.069E+00
     1.066E+00    1.064E+00    1.061E+00    1.058E+00    1.056E+00    1.053E+00    1.051E+00    1.048E+00    1.046E+00    1.043E+00
     1.040E+00    1.038E+00    1.035E+00    1.033E+00    1.030E+00    1.027E+00    1.025E+00    1.022E+00    1.020E+00    1.017E+00
     1.015E+00    1.012E+00    1.009E+00    1.007E+00    1.004E+00    1.002E+00    9.990E-01    9.964E-01    9.938E-01    9.912E-01
     9.886E-01    9.861E-01    9.835E-01    9.809E-01    9.783E-01    9.757E-01    9.731E-01    9.705E-01    9.679E-01    9.653E-01
     9.628E-01    9.602E-01    9.576E-01    9.550E-01    9.524E-01    9.498E-01    9.472E-01    9.446E-01    9.420E-01    9.394E-01
     9.368E-01    9.343E-01    9.317E-01    9.291E-01    9.265E-01    9.239E-01    9.213E-01    9.187E-01    9.161E-01    9.135E-01
     9.109E-01    9.083E-01    9.057E-01    9.031E-01    9.005E-01    8.979E-01    8.953E-01    8.927E-01    8.902E-01    8.876E-01
     8.850E-01    8.824E-01    8.798E-01    8.772E-01    8.746E-01    8.720E-01    8.694E-01    8.668E-01    8.642E-01    8.616E-01
     8.590E-01    8.564E-01    8.538E-01    8.512E-01    8.486E-01    8.460E-01    8.434E-01    8.408E-01    8.382E-01    8.356E-01
     8.330E-01    8.304E-01    8.278E-01    8.252E-01    8.226E-01    8.200E-01    8.174E-01    8.148E-01    8.122E-01    8.096E-01
     8.070E-01    8.044E-01    8.018E-01    7.992E-01    7.966E-01    7.940E-01    7.914E-01    7.888E-01    7.862E-01    7.836E-01
     7.809E-01    7.783E-01    7.757E-01    7.731E-01    7.705E-01    7.679E-01    7.653E-01    7.627E-01    7.601E-01    7.575E-01
     7.549E-01    7.523E-01    7.497E-01    7.471E-01    7.445E-01    7.419E-01    7.393E-01    7.367E-01    7.341E-01    7.315E-01
     7.288E-01    7.262E-01    7.236E-01    7.210E-01    7.184E-01    7.158E-01    7.132E-01    7.106E-01    7.080E-01    7.054E-01
     7.028E-01    7.002E-01    6.976E-01    6.950E-01    6.923E-01    6.897E-01    6.871E-01    6.845E-01    6.819E-01    6.793E-01
     6.767E-01    6.741E-01    6.715E-01    6.689E-01    6.663E-01    6.636E-01    6.610E-01    6.584E-01    6.558E-01    6.532E-01
     6.506E-01    6.480E-01    6.454E-01    6.428E-01    6.402E-01    6.376E-01    6.349E-01    6.323E-01    6.297E-01    6.271E-01
     6.245E-01    6.219E-01    6.193E-01    6.167E-01    6.141E-01    6.114E-01    6.088E-01    6.062E-01    6.036E-01    6.010E-01
     5.984E-01    5.958E-01    5.932E-01    5.906E-01    5.879E-01    5.853E-01    5.827E-01    5.801E-01    5.775E-01    5.749E-01
     5.723E-01    5.697E-01    5.671E-01    5.644E-01    5.618E-01    5.592E-01    5.566E-01    5.540E-01    5.514E-01    5.488E-01
     5.462E-01    5.435E-01    5.409E-01    5.383E-01    5.357E-01    5.331E-01    5.305E-01    5.279E-01    5.253E-01    5.226E-01
     5.200E-01    5.174E-01    5.148E-01    5.122E-01    5.096E-01    5.070E-01    5.043E-01    5.017E-01    4.991E-01    4.965E-01
     4.939E-01    4.913E-01    4.887E-01    4.861E-01    4.834E-01    4.808E-01    4.782E-01    4.756E-01    4.730E-01    4.704E-01
     4.678E-01    4.652E-01    4.625E-01    4.599E-01    4.573E-01    4.547E-01    4.521E-01    4.495E-01    4.469E-01    4.442E-01
     4.416E-01    4.390E-01    4.364E-01    4.338E-01    4.312E-01    4.286E-01    4.260E-01    4.233E-01    4.207E-01    4.181E-01
     4.155E-01    4.129E-01    4.103E-01    4.077E-01    4.051E-01    4.024E-01    3.998E-01    3.972E-01    3.946E-01    3.920E-01
     3.894E-01    3.868E-01    3.841E-01    3.815E-01    3.789E-01    3.763E-01    3.737E-01    3.711E-01    3.685E-01    3.659E-01
     3.632E-01    3.606E-01    3.580E-01    3.554E-01    3.528E-01    3.502E-01    3.476E-01    3.450E-01    3.424E-01    3.397E-01
     3.371E-01    3.345E-01    3.319E-01    3.293E-01    3.267E-01    3.241E-01    3.215E-01    3.188E-01
 Asp      Conc. = 1.74E+01
