 LCModel (Version 6.3-1L) Copyright: S.W. Provencher.          Ref.: Magn. Reson. Med. 30:672-679 (1993).                
 Slice#3 Row#2 Col#3  PD_05_press_1_raw_act
 36 lines in following concentration table = NCONC+1
    Conc.  %SD /Cr+PCr  Metabolite                                         
 1.49E+03  27%   0.000 Ala                                                 
    6.704 281%   0.000 Asp                                                 
    0.000 999%   0.000 Cr                                                  
    0.000 999%   0.000 PCr                                                 
    1.921 587%   0.000 GABA                                                
    3.944 286%   0.000 Glc                                                 
    0.000 999%   0.000 Gln                                                 
 4.04E+03  14%   0.000 Glu                                                 
    0.000 999%   0.000 GPC                                                 
    0.000 999%   0.000 PCh                                                 
    0.000 999%   0.000 GSH                                                 
  244.177  68%   0.000 Ins                                                 
 1.68E+03  23%   0.000 Lac                                                 
   96.969  50%   0.000 NAA                                                 
    0.000 999%   0.000 NAAG                                                
    2.647 140%   0.000 Scyllo                                              
   10.064 186%   0.000 Tau                                                 
    0.000 999%   0.000 -CrCH2                                              
    0.000 999%   0.000 GPC+PCh                                             
   96.969  50%   0.000 NAA+NAAG                                            
    0.000 999%   0.000 Cr+PCr                                              
 4.04E+03  14%   0.000 Glu+Gln                                             
 2.38E+03   7%   0.000 Lip13a                                              
    0.000 999%   0.000 Lip13b                                              
    0.000 999%   0.000 Lip09                                               
    0.000 999%   0.000 MM09                                                
    0.000 999%   0.000 Lip20                                               
    0.000 999%   0.000 MM20                                                
    2.723 999%   0.000 MM12                                                
  398.424  30%   0.000 MM14                                                
  252.180  38%   0.000 MM17                                                
 2.38E+03   7%   0.000 Lip13a+Lip13b                                       
 2.78E+03   9%   0.000 MM14+Lip13a+Lip13b+MM12                             
    0.000 999%   0.000 MM09+Lip09                                          
    0.000 999%   0.000 MM20+Lip20                                          
   6 lines in following misc. output table
  FWHM = 0.168 ppm    S/N =   5                                            
  Data shift =-0.092 ppm                                                   
  Ph: -37 deg      66.3 deg/ppm                                            
  alphaB,S = 4.5E-01,   2.1E+02                                            
    9 spline knots.   Ns = 9(2)                                            
  (12) 2 infls.   ( 5) 1 extrs.                                            
  498 points on ppm-axis = NY
      4.000000     3.992357     3.984714     3.977070     3.969427     3.961784     3.954141     3.946497     3.938854     3.931211
      3.923568     3.915925     3.908281     3.900638     3.892995     3.885352     3.877708     3.870065     3.862422     3.854779
      3.847136     3.839492     3.831849     3.824206     3.816563     3.808919     3.801276     3.793633     3.785990     3.778347
      3.770703     3.763060     3.755417     3.747774     3.740130     3.732487     3.724844     3.717201     3.709558     3.701914
      3.694271     3.686628     3.678985     3.671341     3.663698     3.656055     3.648412     3.640769     3.633125     3.625482
      3.617839     3.610196     3.602552     3.594909     3.587266     3.579623     3.571980     3.564336     3.556693     3.549050
      3.541407     3.533763     3.526120     3.518477     3.510834     3.503191     3.495547     3.487904     3.480261     3.472618
      3.464974     3.457331     3.449688     3.442045     3.434402     3.426758     3.419115     3.411472     3.403829     3.396185
      3.388542     3.380899     3.373256     3.365613     3.357969     3.350326     3.342683     3.335040     3.327396     3.319753
      3.312110     3.304467     3.296824     3.289180     3.281537     3.273894     3.266251     3.258607     3.250964     3.243321
      3.235678     3.228034     3.220391     3.212748     3.205105     3.197462     3.189818     3.182175     3.174532     3.166889
      3.159245     3.151602     3.143959     3.136316     3.128673     3.121029     3.113386     3.105743     3.098100     3.090456
      3.082813     3.075170     3.067527     3.059884     3.052240     3.044597     3.036954     3.029311     3.021667     3.014024
      3.006381     2.998738     2.991095     2.983451     2.975808     2.968165     2.960522     2.952878     2.945235     2.937592
      2.929949     2.922306     2.914662     2.907019     2.899376     2.891733     2.884089     2.876446     2.868803     2.861160
      2.853517     2.845873     2.838230     2.830587     2.822944     2.815300     2.807657     2.800014     2.792371     2.784728
      2.777084     2.769441     2.761798     2.754155     2.746511     2.738868     2.731225     2.723582     2.715939     2.708295
      2.700652     2.693009     2.685366     2.677722     2.670079     2.662436     2.654793     2.647150     2.639506     2.631863
      2.624220     2.616577     2.608933     2.601290     2.593647     2.586004     2.578361     2.570717     2.563074     2.555431
      2.547788     2.540144     2.532501     2.524858     2.517215     2.509572     2.501928     2.494285     2.486642     2.478999
      2.471355     2.463712     2.456069     2.448426     2.440783     2.433139     2.425496     2.417853     2.410210     2.402566
      2.394923     2.387280     2.379637     2.371994     2.364350     2.356707     2.349064     2.341421     2.333777     2.326134
      2.318491     2.310848     2.303205     2.295561     2.287918     2.280275     2.272632     2.264988     2.257345     2.249702
      2.242059     2.234416     2.226772     2.219129     2.211486     2.203843     2.196199     2.188556     2.180913     2.173270
      2.165627     2.157983     2.150340     2.142697     2.135054     2.127410     2.119767     2.112124     2.104481     2.096838
      2.089194     2.081551     2.073908     2.066265     2.058621     2.050978     2.043335     2.035692     2.028049     2.020405
      2.012762     2.005119     1.997476     1.989833     1.982190     1.974546     1.966903     1.959260     1.951617     1.943974
      1.936331     1.928688     1.921045     1.913402     1.905759     1.898115     1.890472     1.882829     1.875186     1.867543
      1.859900     1.852257     1.844614     1.836971     1.829327     1.821684     1.814041     1.806398     1.798755     1.791112
      1.783469     1.775826     1.768183     1.760540     1.752896     1.745253     1.737610     1.729967     1.722324     1.714681
      1.707038     1.699395     1.691752     1.684108     1.676465     1.668822     1.661179     1.653536     1.645893     1.638250
      1.630607     1.622964     1.615321     1.607677     1.600034     1.592391     1.584748     1.577105     1.569462     1.561819
      1.554176     1.546533     1.538890     1.531246     1.523603     1.515960     1.508317     1.500674     1.493031     1.485388
      1.477745     1.470102     1.462458     1.454815     1.447172     1.439529     1.431886     1.424243     1.416600     1.408957
      1.401314     1.393671     1.386027     1.378384     1.370741     1.363098     1.355455     1.347812     1.340169     1.332526
      1.324883     1.317240     1.309596     1.301953     1.294310     1.286667     1.279024     1.271381     1.263738     1.256095
      1.248452     1.240808     1.233165     1.225522     1.217879     1.210236     1.202593     1.194950     1.187307     1.179664
      1.172021     1.164377     1.156734     1.149091     1.141448     1.133805     1.126162     1.118519     1.110876     1.103233
      1.095590     1.087946     1.080303     1.072660     1.065017     1.057374     1.049731     1.042088     1.034445     1.026802
      1.019158     1.011515     1.003872     0.996229     0.988586     0.980943     0.973300     0.965657     0.958014     0.950371
      0.942727     0.935084     0.927441     0.919798     0.912155     0.904512     0.896869     0.889226     0.881583     0.873940
      0.866296     0.858653     0.851010     0.843367     0.835724     0.828081     0.820438     0.812795     0.805152     0.797508
      0.789865     0.782222     0.774579     0.766936     0.759293     0.751650     0.744007     0.736364     0.728721     0.721077
      0.713434     0.705791     0.698148     0.690505     0.682862     0.675219     0.667576     0.659933     0.652290     0.644646
      0.637003     0.629360     0.621717     0.614074     0.606431     0.598788     0.591145     0.583502     0.575858     0.568215
      0.560572     0.552929     0.545286     0.537643     0.530000     0.522357     0.514714     0.507071     0.499427     0.491784
      0.484141     0.476498     0.468855     0.461212     0.453569     0.445925     0.438282     0.430639     0.422996     0.415353
      0.407710     0.400067     0.392424     0.384780     0.377137     0.369494     0.361851     0.354208     0.346565     0.338922
      0.331278     0.323635     0.315992     0.308349     0.300706     0.293063     0.285420     0.277777     0.270133     0.262490
      0.254847     0.247204     0.239561     0.231918     0.224275     0.216631     0.208988     0.201345
 NY phased data points follow
  -1.68793E+00 -2.80236E+00 -2.82953E+00 -2.60340E+00 -2.06545E+00 -2.50100E+00 -2.62614E+00 -2.15388E+00 -1.72352E+00 -2.23350E-01
  -1.35463E+00 -2.90606E+00 -2.44187E+00 -2.22871E+00 -2.78978E+00 -1.72675E+00 -3.81363E+00 -1.67634E+00 -1.26078E+00 -1.98528E+00
  -6.49934E-01 -3.56723E+00 -3.87237E+00 -2.39698E+00 -2.25288E+00 -1.62897E+00 -2.72613E+00 -1.69924E+00 -2.18497E+00 -1.08218E+00
   6.28291E-01 -2.95271E+00 -2.32255E+00 -3.49351E+00 -1.08833E+00 -1.22205E+00 -2.57412E+00 -2.55796E+00 -7.17501E-01 -3.52818E+00
  -1.44290E+00 -2.57250E+00 -1.75500E+00 -3.12072E+00 -2.37404E+00 -3.73023E+00 -2.42722E+00 -3.05162E+00 -1.71318E+00 -3.59932E+00
  -1.55765E+00 -3.23070E-01 -1.11544E+00 -1.06622E+00 -2.61238E+00 -2.43833E+00 -8.42673E-01 -1.27688E+00 -2.21322E+00 -1.87191E+00
  -3.33592E+00 -3.27887E+00 -1.21050E+00 -1.08455E+00 -3.02952E+00 -1.39408E+00 -3.14017E+00 -2.35967E+00 -3.67348E+00 -1.25048E+00
  -9.66637E-01 -2.19211E+00 -4.18992E+00 -1.11070E+00 -3.84526E+00 -1.50540E+00 -1.05095E+00 -2.18684E+00  1.69936E-01 -1.34257E+00
  -3.64230E+00 -1.39738E+00 -1.99082E+00 -2.40518E+00 -1.96238E+00 -3.51027E+00 -7.03744E-01 -2.37914E+00 -2.84698E+00 -2.79300E+00
  -1.33523E+00 -2.36776E+00 -3.70157E+00 -2.73344E+00 -4.34476E+00 -5.48551E+00 -2.60873E+00 -2.82415E+00 -2.28026E+00 -3.55111E+00
  -3.15859E+00 -3.83754E+00 -3.86943E+00 -2.47564E+00 -3.75276E+00 -2.73030E+00 -2.14017E+00 -2.61718E+00 -2.34447E+00 -3.82586E+00
  -3.09869E+00 -4.33047E+00 -4.28335E+00 -4.65914E+00 -3.73509E+00 -4.53031E+00 -4.95250E+00 -3.16017E+00 -4.59429E+00 -2.89579E+00
  -3.96089E+00 -3.98122E+00 -5.58291E+00 -3.76172E+00 -2.21004E+00 -1.55642E+00 -4.46364E+00 -3.55982E+00 -3.65375E+00 -2.89674E+00
  -4.55108E+00 -3.25406E+00 -3.73048E+00 -4.74667E+00 -2.95319E+00 -3.45487E+00 -4.81955E+00 -5.93922E+00 -4.21066E+00 -4.14150E+00
  -4.50869E+00 -4.88071E+00 -6.18775E+00 -5.93973E+00 -6.74531E+00 -5.69394E+00 -4.17992E+00 -4.77856E+00 -5.65338E+00 -5.75605E+00
  -4.06543E+00 -6.14297E+00 -6.50756E+00 -7.08418E+00 -5.95346E+00 -6.91701E+00 -7.68808E+00 -5.43481E+00 -5.87461E+00 -7.68221E+00
  -6.97633E+00 -8.30909E+00 -8.82690E+00 -7.34669E+00 -7.68831E+00 -7.24938E+00 -8.85620E+00 -6.46333E+00 -7.86938E+00 -6.03030E+00
  -7.16866E+00 -7.39350E+00 -6.81646E+00 -5.63883E+00 -8.06129E+00 -9.48798E+00 -6.53620E+00 -6.83851E+00 -7.64604E+00 -8.25624E+00
  -7.75641E+00 -8.00187E+00 -8.60988E+00 -9.03989E+00 -8.67544E+00 -7.12981E+00 -8.52300E+00 -1.17265E+01 -7.65293E+00 -9.53721E+00
  -9.93706E+00 -7.90652E+00 -1.09018E+01 -1.15314E+01 -1.03236E+01 -1.02585E+01 -1.08468E+01 -1.02092E+01 -9.84974E+00 -1.01829E+01
  -1.02309E+01 -1.15911E+01 -1.34397E+01 -1.19993E+01 -1.18391E+01 -1.26317E+01 -1.33875E+01 -1.26465E+01 -1.24161E+01 -1.27488E+01
  -1.38073E+01 -1.33332E+01 -1.52308E+01 -1.27845E+01 -1.53711E+01 -1.63458E+01 -1.46513E+01 -1.42469E+01 -1.45218E+01 -1.46795E+01
  -1.78982E+01 -1.76719E+01 -1.77774E+01 -1.56532E+01 -1.64378E+01 -1.72041E+01 -1.76945E+01 -1.96853E+01 -1.87960E+01 -1.78764E+01
  -1.94039E+01 -1.88067E+01 -1.70198E+01 -1.83790E+01 -1.61332E+01 -1.53931E+01 -1.79325E+01 -1.51633E+01 -1.70764E+01 -1.74694E+01
  -1.61609E+01 -1.52235E+01 -1.51230E+01 -1.49058E+01 -1.56140E+01 -1.38499E+01 -1.52601E+01 -1.17654E+01 -1.40913E+01 -1.35958E+01
  -1.37605E+01 -1.23486E+01 -1.35585E+01 -1.08453E+01 -1.23452E+01 -1.19442E+01 -1.26796E+01 -1.30916E+01 -1.23285E+01 -9.07385E+00
  -1.01612E+01 -1.03336E+01 -1.01959E+01 -1.02639E+01 -9.07152E+00 -7.64894E+00 -7.17645E+00 -7.77042E+00 -8.11542E+00 -7.18525E+00
  -6.30279E+00 -6.63443E+00 -6.51901E+00 -6.85477E+00 -6.76727E+00 -5.98430E+00 -5.71636E+00 -3.55441E+00 -5.04174E+00 -4.76266E+00
  -4.29314E+00 -4.98697E+00 -4.32118E+00 -4.51513E+00 -1.92033E+00 -3.17195E+00 -1.63036E+00 -2.43302E+00 -6.09919E-01 -5.13051E-01
  -1.93799E+00 -2.25486E+00 -2.26328E+00 -2.07374E+00 -1.00543E+00 -1.45587E+00  1.62612E+00 -4.81303E-01  1.30378E-01  4.06620E-02
  -8.05879E-01 -2.28085E+00  6.76863E-01  8.89261E-01  2.24876E+00  1.11433E+00  3.62828E+00  3.33396E+00  3.46925E+00  4.06278E+00
   2.78017E+00  4.03177E+00  4.38646E+00  4.37796E+00  5.04795E+00  6.38297E+00  6.77886E+00  5.47914E+00  8.17759E+00  7.09681E+00
   5.37719E+00  9.20785E+00  8.67617E+00  6.10201E+00  1.11295E+01  9.21306E+00  1.03406E+01  9.49630E+00  8.85581E+00  1.14086E+01
   1.11949E+01  1.03023E+01  1.09745E+01  1.16956E+01  1.16726E+01  9.90404E+00  1.27954E+01  1.12960E+01  1.20138E+01  1.26267E+01
   1.32965E+01  1.40407E+01  1.28789E+01  1.34397E+01  1.31454E+01  1.31418E+01  1.49738E+01  1.37332E+01  1.49276E+01  1.43668E+01
   1.47481E+01  1.52076E+01  1.63783E+01  1.49310E+01  1.78389E+01  1.73136E+01  1.66700E+01  1.97151E+01  1.90384E+01  2.01335E+01
   2.08082E+01  2.28273E+01  2.16814E+01  2.27696E+01  1.90100E+01  1.93793E+01  1.90832E+01  1.94516E+01  2.12717E+01  2.25850E+01
   2.16388E+01  2.13073E+01  2.27085E+01  2.32143E+01  2.47314E+01  2.25607E+01  2.34222E+01  2.24224E+01  2.19668E+01  2.29731E+01
   2.18376E+01  2.19573E+01  1.92233E+01  1.91400E+01  1.93155E+01  1.76251E+01  1.96573E+01  1.82846E+01  1.63897E+01  1.52675E+01
   1.63284E+01  1.55475E+01  1.56883E+01  1.50560E+01  1.39982E+01  1.12759E+01  1.17042E+01  1.05431E+01  1.35331E+01  1.11216E+01
   1.04917E+01  1.04454E+01  1.06618E+01  1.05135E+01  1.00149E+01  1.07192E+01  1.09182E+01  9.80554E+00  9.44708E+00  1.06031E+01
   1.08348E+01  9.58681E+00  1.07004E+01  1.04720E+01  7.94749E+00  8.95336E+00  1.04582E+01  1.04143E+01  8.27272E+00  9.33969E+00
   8.87788E+00  9.21798E+00  9.20258E+00  9.17603E+00  7.88225E+00  9.10100E+00  7.57617E+00  8.82711E+00  8.43135E+00  9.02401E+00
   9.82920E+00  8.74366E+00  7.66200E+00  8.36568E+00  7.51683E+00  7.21689E+00  8.83474E+00  6.57817E+00  7.50490E+00  6.66383E+00
   5.60191E+00  6.32155E+00  4.55544E+00  5.92832E+00  6.97810E+00  7.98147E+00  6.40614E+00  5.24488E+00  5.53717E+00  6.13689E+00
   5.17264E+00  6.55575E+00  6.17308E+00  6.96103E+00  6.02966E+00  3.93173E+00  5.60478E+00  6.04357E+00  5.51702E+00  3.82539E+00
   5.87038E+00  6.25548E+00  5.05877E+00  4.99482E+00  4.01519E+00  5.36595E+00  2.72494E+00  6.54656E+00  4.84095E+00  5.47946E+00
   6.29774E+00  5.09634E+00  3.70870E+00  4.33134E+00  4.16745E+00  4.99547E+00  4.76531E+00  3.57498E+00  4.85870E+00  5.82080E+00
   5.71549E+00  2.66470E+00  1.92450E+00  3.53997E+00  4.01590E+00  3.73178E+00  4.09619E+00  3.16357E+00  2.77704E+00  5.32573E+00
   3.13748E+00  3.08251E+00  4.94103E+00  4.42470E+00  5.29153E+00  4.62063E+00  4.63044E+00  3.75335E+00
 NY points of the fit to the data follow
  -3.17649E+00 -2.76729E+00 -2.98975E+00 -2.54072E+00 -2.56254E+00 -2.22805E+00 -2.31871E+00 -2.05738E+00 -2.28414E+00 -2.20087E+00
  -2.57713E+00 -2.49175E+00 -2.67997E+00 -2.35720E+00 -2.41890E+00 -1.84887E+00 -1.95845E+00 -1.39575E+00 -1.69858E+00 -1.26205E+00
  -1.71265E+00 -1.19662E+00 -1.66677E+00 -1.13299E+00 -1.65416E+00 -1.14231E+00 -1.69514E+00 -1.16585E+00 -1.67058E+00 -1.12559E+00
  -1.55484E+00 -1.05975E+00 -1.43502E+00 -1.06856E+00 -1.39058E+00 -1.17207E+00 -1.44606E+00 -1.39747E+00 -1.60170E+00 -1.71771E+00
  -1.82465E+00 -1.96779E+00 -1.94433E+00 -2.10406E+00 -1.93797E+00 -2.07851E+00 -1.70646E+00 -1.85280E+00 -1.53914E+00 -2.00469E+00
  -1.99796E+00 -2.58141E+00 -2.67647E+00 -3.11016E+00 -2.93264E+00 -2.89889E+00 -2.56613E+00 -2.58850E+00 -2.45034E+00 -2.58283E+00
  -2.67368E+00 -2.75063E+00 -2.78260E+00 -2.81949E+00 -2.82458E+00 -2.85385E+00 -2.84721E+00 -2.86211E+00 -2.82459E+00 -2.79736E+00
  -2.73750E+00 -2.73005E+00 -2.68979E+00 -2.70183E+00 -2.67159E+00 -2.69907E+00 -2.67432E+00 -2.71341E+00 -2.68775E+00 -2.73745E+00
  -2.71091E+00 -2.75086E+00 -2.71674E+00 -2.75487E+00 -2.72227E+00 -2.77374E+00 -2.74534E+00 -2.80482E+00 -2.77571E+00 -2.83388E+00
  -2.80379E+00 -2.85496E+00 -2.82702E+00 -2.86737E+00 -2.83610E+00 -2.87500E+00 -2.84861E+00 -2.88495E+00 -2.86333E+00 -2.89786E+00
  -2.88169E+00 -2.91342E+00 -2.90259E+00 -2.92972E+00 -2.92193E+00 -2.94254E+00 -2.93811E+00 -2.95187E+00 -2.95577E+00 -2.98169E+00
  -3.00117E+00 -3.03559E+00 -3.06109E+00 -3.09707E+00 -3.12609E+00 -3.16074E+00 -3.18979E+00 -3.22490E+00 -3.25210E+00 -3.29259E+00
  -3.32713E+00 -3.37421E+00 -3.41662E+00 -3.46929E+00 -3.51977E+00 -3.57853E+00 -3.63614E+00 -3.69658E+00 -3.75851E+00 -3.82239E+00
  -3.88839E+00 -3.95637E+00 -4.02627E+00 -4.09799E+00 -4.17135E+00 -4.24679E+00 -4.32356E+00 -4.40300E+00 -4.48359E+00 -4.56713E+00
  -4.65209E+00 -4.74012E+00 -4.83022E+00 -4.92403E+00 -5.01829E+00 -5.11661E+00 -5.21408E+00 -5.31562E+00 -5.41793E+00 -5.52385E+00
  -5.63086E+00 -5.74099E+00 -5.85214E+00 -5.96647E+00 -6.08237E+00 -6.20112E+00 -6.32191E+00 -6.44497E+00 -6.57164E+00 -6.69884E+00
  -6.82855E+00 -6.95942E+00 -7.09328E+00 -7.22982E+00 -7.36763E+00 -7.50810E+00 -7.64842E+00 -7.79261E+00 -7.93617E+00 -8.08619E+00
  -8.22940E+00 -8.38174E+00 -8.52341E+00 -8.67727E+00 -8.81697E+00 -8.97159E+00 -9.10710E+00 -9.26057E+00 -9.39026E+00 -9.53803E+00
  -9.66010E+00 -9.79957E+00 -9.91675E+00 -1.00502E+01 -1.01576E+01 -1.02731E+01 -1.03570E+01 -1.04373E+01 -1.04932E+01 -1.05995E+01
  -1.06545E+01 -1.07802E+01 -1.09321E+01 -1.10528E+01 -1.12611E+01 -1.13211E+01 -1.14653E+01 -1.13356E+01 -1.11890E+01 -1.10740E+01
  -1.09224E+01 -1.09241E+01 -1.08580E+01 -1.10770E+01 -1.12616E+01 -1.17247E+01 -1.18792E+01 -1.23144E+01 -1.24258E+01 -1.28191E+01
  -1.28914E+01 -1.32717E+01 -1.32826E+01 -1.36915E+01 -1.36900E+01 -1.41692E+01 -1.42521E+01 -1.47742E+01 -1.49524E+01 -1.54598E+01
  -1.57561E+01 -1.61487E+01 -1.64771E+01 -1.66601E+01 -1.69239E+01 -1.69146E+01 -1.69616E+01 -1.67143E+01 -1.65372E+01 -1.62889E+01
  -1.59934E+01 -1.58568E+01 -1.58301E+01 -1.59288E+01 -1.61518E+01 -1.62404E+01 -1.63508E+01 -1.61029E+01 -1.54101E+01 -1.50647E+01
  -1.41925E+01 -1.39189E+01 -1.30042E+01 -1.30447E+01 -1.26791E+01 -1.32496E+01 -1.28620E+01 -1.33218E+01 -1.29585E+01 -1.31795E+01
  -1.28074E+01 -1.27984E+01 -1.24459E+01 -1.23169E+01 -1.20968E+01 -1.18025E+01 -1.16604E+01 -1.11862E+01 -1.10678E+01 -1.03797E+01
  -1.03519E+01 -9.46873E+00 -9.63800E+00 -8.72424E+00 -9.07607E+00 -8.27795E+00 -8.68001E+00 -7.83024E+00 -8.17554E+00 -7.33177E+00
  -7.52347E+00 -6.69942E+00 -6.90703E+00 -6.30012E+00 -6.51212E+00 -5.96720E+00 -6.05187E+00 -5.55204E+00 -5.54354E+00 -5.15469E+00
  -5.22474E+00 -4.99271E+00 -4.92756E+00 -4.63091E+00 -4.46797E+00 -4.16911E+00 -3.85973E+00 -3.58950E+00 -3.26453E+00 -2.96679E+00
  -2.61983E+00 -2.32506E+00 -1.98696E+00 -1.71949E+00 -1.43408E+00 -1.17650E+00 -8.77216E-01 -6.00664E-01 -2.96533E-01 -7.76130E-03
   2.96235E-01  5.94665E-01  8.85538E-01  1.17168E+00  1.46012E+00  1.75287E+00  2.06283E+00  2.40649E+00  2.84563E+00  3.47113E+00
   3.90342E+00  4.41917E+00  4.78171E+00  5.16269E+00  5.45692E+00  5.69160E+00  5.79943E+00  6.01731E+00  6.36626E+00  6.54751E+00
   7.08001E+00  7.13849E+00  7.78396E+00  7.69617E+00  8.48833E+00  8.22381E+00  9.13597E+00  8.62511E+00  9.79836E+00  9.42375E+00
   1.06640E+01  9.99254E+00  1.12618E+01  1.03554E+01  1.17394E+01  1.06647E+01  1.19424E+01  1.11588E+01  1.25132E+01  1.18861E+01
   1.31553E+01  1.26379E+01  1.36387E+01  1.32453E+01  1.39600E+01  1.36401E+01  1.41225E+01  1.39717E+01  1.44524E+01  1.51510E+01
   1.55986E+01  1.63257E+01  1.66557E+01  1.74628E+01  1.75858E+01  1.83181E+01  1.78690E+01  1.87305E+01  1.86664E+01  1.95531E+01
   1.96726E+01  2.04468E+01  2.05862E+01  2.11447E+01  2.12076E+01  2.14390E+01  2.14964E+01  2.15647E+01  2.18616E+01  2.26606E+01
   2.30034E+01  2.34791E+01  2.37222E+01  2.36729E+01  2.36080E+01  2.27742E+01  2.20377E+01  2.13972E+01  2.08023E+01  2.02332E+01
   1.96823E+01  1.91469E+01  1.86267E+01  1.81227E+01  1.76361E+01  1.71680E+01  1.67193E+01  1.62902E+01  1.58812E+01  1.54919E+01
   1.51221E+01  1.47712E+01  1.44382E+01  1.41222E+01  1.38222E+01  1.35372E+01  1.32661E+01  1.30078E+01  1.27615E+01  1.25261E+01
   1.23007E+01  1.20846E+01  1.18772E+01  1.16776E+01  1.14853E+01  1.12997E+01  1.11203E+01  1.09468E+01  1.07787E+01  1.06157E+01
   1.04574E+01  1.03036E+01  1.01540E+01  1.00084E+01  9.86666E+00  9.72851E+00  9.59376E+00  9.46224E+00  9.33380E+00  9.20827E+00
   9.08548E+00  8.96528E+00  8.84754E+00  8.73219E+00  8.61910E+00  8.50818E+00  8.39930E+00  8.29238E+00  8.18735E+00  8.08416E+00
   7.98272E+00  7.88295E+00  7.78478E+00  7.68816E+00  7.59304E+00  7.49940E+00  7.40714E+00  7.31624E+00  7.22662E+00  7.13827E+00
   7.05114E+00  6.96523E+00  6.88045E+00  6.79679E+00  6.71419E+00  6.63266E+00  6.55215E+00  6.47265E+00  6.39410E+00  6.31648E+00
   6.23977E+00  6.16396E+00  6.08901E+00  6.01491E+00  5.94162E+00  5.86911E+00  5.79737E+00  5.72640E+00  5.65617E+00  5.58665E+00
   5.51781E+00  5.44964E+00  5.38212E+00  5.31526E+00  5.24900E+00  5.18334E+00  5.11824E+00  5.05370E+00  4.98971E+00  4.92624E+00
   4.86327E+00  4.80077E+00  4.73872E+00  4.67712E+00  4.61594E+00  4.55516E+00  4.49474E+00  4.43465E+00  4.37488E+00  4.31542E+00
   4.25622E+00  4.19725E+00  4.13847E+00  4.07984E+00  4.02134E+00  3.96292E+00  3.90454E+00  3.84612E+00  3.78760E+00  3.72892E+00
   3.67001E+00  3.61078E+00  3.55110E+00  3.49085E+00  3.42988E+00  3.36799E+00  3.30495E+00  3.24047E+00
 NY background values follow
    -5.300E+00   -5.284E+00   -5.268E+00   -5.250E+00   -5.232E+00   -5.212E+00   -5.192E+00   -5.171E+00   -5.150E+00   -5.127E+00
    -5.104E+00   -5.079E+00   -5.055E+00   -5.029E+00   -5.003E+00   -4.976E+00   -4.948E+00   -4.919E+00   -4.890E+00   -4.861E+00
    -4.831E+00   -4.800E+00   -4.769E+00   -4.737E+00   -4.704E+00   -4.671E+00   -4.638E+00   -4.604E+00   -4.570E+00   -4.536E+00
    -4.501E+00   -4.466E+00   -4.430E+00   -4.394E+00   -4.358E+00   -4.322E+00   -4.285E+00   -4.248E+00   -4.211E+00   -4.174E+00
    -4.137E+00   -4.100E+00   -4.063E+00   -4.025E+00   -3.988E+00   -3.951E+00   -3.914E+00   -3.877E+00   -3.840E+00   -3.803E+00
    -3.766E+00   -3.730E+00   -3.694E+00   -3.658E+00   -3.622E+00   -3.587E+00   -3.552E+00   -3.518E+00   -3.484E+00   -3.450E+00
    -3.417E+00   -3.385E+00   -3.353E+00   -3.322E+00   -3.291E+00   -3.261E+00   -3.232E+00   -3.203E+00   -3.175E+00   -3.148E+00
    -3.122E+00   -3.097E+00   -3.072E+00   -3.049E+00   -3.026E+00   -3.005E+00   -2.985E+00   -2.965E+00   -2.947E+00   -2.930E+00
    -2.914E+00   -2.899E+00   -2.886E+00   -2.874E+00   -2.863E+00   -2.854E+00   -2.846E+00   -2.839E+00   -2.834E+00   -2.830E+00
    -2.827E+00   -2.826E+00   -2.827E+00   -2.828E+00   -2.832E+00   -2.837E+00   -2.843E+00   -2.851E+00   -2.860E+00   -2.871E+00
    -2.883E+00   -2.898E+00   -2.913E+00   -2.930E+00   -2.949E+00   -2.970E+00   -2.992E+00   -3.015E+00   -3.041E+00   -3.068E+00
    -3.096E+00   -3.127E+00   -3.159E+00   -3.192E+00   -3.228E+00   -3.265E+00   -3.304E+00   -3.345E+00   -3.387E+00   -3.431E+00
    -3.477E+00   -3.525E+00   -3.574E+00   -3.626E+00   -3.679E+00   -3.734E+00   -3.791E+00   -3.849E+00   -3.909E+00   -3.972E+00
    -4.036E+00   -4.102E+00   -4.170E+00   -4.239E+00   -4.311E+00   -4.384E+00   -4.460E+00   -4.537E+00   -4.616E+00   -4.697E+00
    -4.780E+00   -4.865E+00   -4.952E+00   -5.040E+00   -5.131E+00   -5.223E+00   -5.318E+00   -5.414E+00   -5.513E+00   -5.613E+00
    -5.715E+00   -5.819E+00   -5.925E+00   -6.033E+00   -6.143E+00   -6.255E+00   -6.369E+00   -6.485E+00   -6.603E+00   -6.723E+00
    -6.844E+00   -6.968E+00   -7.094E+00   -7.221E+00   -7.351E+00   -7.482E+00   -7.616E+00   -7.751E+00   -7.888E+00   -8.027E+00
    -8.168E+00   -8.309E+00   -8.452E+00   -8.597E+00   -8.742E+00   -8.889E+00   -9.036E+00   -9.184E+00   -9.332E+00   -9.481E+00
    -9.630E+00   -9.780E+00   -9.929E+00   -1.008E+01   -1.023E+01   -1.038E+01   -1.053E+01   -1.067E+01   -1.082E+01   -1.097E+01
    -1.111E+01   -1.126E+01   -1.140E+01   -1.154E+01   -1.168E+01   -1.182E+01   -1.196E+01   -1.210E+01   -1.223E+01   -1.236E+01
    -1.249E+01   -1.262E+01   -1.274E+01   -1.287E+01   -1.299E+01   -1.310E+01   -1.322E+01   -1.333E+01   -1.343E+01   -1.354E+01
    -1.364E+01   -1.373E+01   -1.383E+01   -1.392E+01   -1.400E+01   -1.408E+01   -1.416E+01   -1.423E+01   -1.430E+01   -1.436E+01
    -1.442E+01   -1.448E+01   -1.453E+01   -1.457E+01   -1.461E+01   -1.464E+01   -1.467E+01   -1.469E+01   -1.471E+01   -1.472E+01
    -1.473E+01   -1.473E+01   -1.472E+01   -1.471E+01   -1.469E+01   -1.466E+01   -1.463E+01   -1.459E+01   -1.455E+01   -1.449E+01
    -1.443E+01   -1.437E+01   -1.429E+01   -1.421E+01   -1.412E+01   -1.403E+01   -1.393E+01   -1.381E+01   -1.370E+01   -1.357E+01
    -1.343E+01   -1.329E+01   -1.314E+01   -1.299E+01   -1.282E+01   -1.265E+01   -1.247E+01   -1.229E+01   -1.210E+01   -1.190E+01
    -1.170E+01   -1.149E+01   -1.128E+01   -1.106E+01   -1.084E+01   -1.061E+01   -1.038E+01   -1.014E+01   -9.898E+00   -9.652E+00
    -9.401E+00   -9.148E+00   -8.890E+00   -8.629E+00   -8.365E+00   -8.099E+00   -7.829E+00   -7.557E+00   -7.282E+00   -7.005E+00
    -6.726E+00   -6.445E+00   -6.163E+00   -5.879E+00   -5.594E+00   -5.308E+00   -5.021E+00   -4.733E+00   -4.444E+00   -4.156E+00
    -3.867E+00   -3.578E+00   -3.289E+00   -3.001E+00   -2.713E+00   -2.426E+00   -2.140E+00   -1.855E+00   -1.572E+00   -1.289E+00
    -1.009E+00   -7.300E-01   -4.531E-01   -1.782E-01    9.429E-02    3.644E-01    6.318E-01    8.965E-01    1.158E+00    1.417E+00
     1.672E+00    1.924E+00    2.173E+00    2.418E+00    2.658E+00    2.895E+00    3.128E+00    3.356E+00    3.580E+00    3.800E+00
     4.014E+00    4.224E+00    4.429E+00    4.628E+00    4.822E+00    5.011E+00    5.195E+00    5.372E+00    5.544E+00    5.710E+00
     5.870E+00    6.024E+00    6.171E+00    6.312E+00    6.447E+00    6.576E+00    6.700E+00    6.817E+00    6.928E+00    7.034E+00
     7.134E+00    7.229E+00    7.319E+00    7.403E+00    7.482E+00    7.556E+00    7.625E+00    7.689E+00    7.749E+00    7.804E+00
     7.854E+00    7.900E+00    7.941E+00    7.978E+00    8.011E+00    8.040E+00    8.065E+00    8.086E+00    8.103E+00    8.117E+00
     8.127E+00    8.133E+00    8.136E+00    8.136E+00    8.132E+00    8.125E+00    8.115E+00    8.103E+00    8.087E+00    8.068E+00
     8.047E+00    8.023E+00    7.997E+00    7.968E+00    7.937E+00    7.904E+00    7.868E+00    7.831E+00    7.791E+00    7.749E+00
     7.706E+00    7.661E+00    7.614E+00    7.565E+00    7.515E+00    7.464E+00    7.411E+00    7.356E+00    7.301E+00    7.244E+00
     7.187E+00    7.128E+00    7.068E+00    7.008E+00    6.947E+00    6.885E+00    6.822E+00    6.759E+00    6.695E+00    6.631E+00
     6.566E+00    6.501E+00    6.436E+00    6.371E+00    6.305E+00    6.240E+00    6.174E+00    6.108E+00    6.043E+00    5.977E+00
     5.912E+00    5.847E+00    5.783E+00    5.718E+00    5.655E+00    5.591E+00    5.528E+00    5.466E+00    5.404E+00    5.342E+00
     5.281E+00    5.220E+00    5.160E+00    5.100E+00    5.041E+00    4.982E+00    4.924E+00    4.866E+00    4.808E+00    4.751E+00
     4.695E+00    4.638E+00    4.583E+00    4.527E+00    4.472E+00    4.418E+00    4.364E+00    4.310E+00    4.257E+00    4.204E+00
     4.152E+00    4.100E+00    4.049E+00    3.998E+00    3.947E+00    3.897E+00    3.847E+00    3.798E+00    3.749E+00    3.700E+00
     3.652E+00    3.604E+00    3.557E+00    3.510E+00    3.463E+00    3.417E+00    3.371E+00    3.326E+00    3.281E+00    3.236E+00
     3.192E+00    3.148E+00    3.104E+00    3.061E+00    3.018E+00    2.976E+00    2.934E+00    2.892E+00    2.851E+00    2.810E+00
     2.769E+00    2.729E+00    2.689E+00    2.649E+00    2.610E+00    2.571E+00    2.532E+00    2.494E+00    2.456E+00    2.418E+00
     2.381E+00    2.344E+00    2.307E+00    2.270E+00    2.234E+00    2.198E+00    2.163E+00    2.128E+00    2.093E+00    2.058E+00
     2.024E+00    1.990E+00    1.956E+00    1.922E+00    1.889E+00    1.856E+00    1.823E+00    1.791E+00
 Ala      Conc. = 1.49E+03
