 LCModel (Version 6.3-1L) Copyright: S.W. Provencher.          Ref.: Magn. Reson. Med. 30:672-679 (1993).                
 Slice#1 Row#9 Col#5  PD_05_press_1_raw_act
 36 lines in following concentration table = NCONC+1
    Conc.  %SD /Cr+PCr  Metabolite                                         
   65.358 101% 9.2E-02 Ala                                                 
    0.000 999%   0.000 Asp                                                 
    0.000 999%   0.000 Cr                                                  
  707.668   6%   1.000 PCr                                                 
   19.457 496% 2.7E-02 GABA                                                
   24.939 394% 3.5E-02 Glc                                                 
  402.130  34%   0.568 Gln                                                 
 1.13E+03  15%   1.600 Glu                                                 
  331.478   5%   0.468 GPC                                                 
    0.000 999%   0.000 PCh                                                 
  260.841  18%   0.369 GSH                                                 
  716.287  22%   1.012 Ins                                                 
    0.000 999%   0.000 Lac                                                 
 1.57E+03   6%   2.219 NAA                                                 
  365.537  24%   0.517 NAAG                                                
  103.656  18%   0.146 Scyllo                                              
  437.386  30%   0.618 Tau                                                 
  377.216  17%   0.533 -CrCH2                                              
  331.478   5%   0.468 GPC+PCh                                             
 1.94E+03   3%   2.735 NAA+NAAG                                            
  707.668   6%   1.000 Cr+PCr                                              
 1.53E+03  15%   2.168 Glu+Gln                                             
  883.216  32%   1.248 Lip13a                                              
    0.000 999%   0.000 Lip13b                                              
   19.147 854% 2.7E-02 Lip09                                               
  971.440  18%   1.373 MM09                                                
  180.592  65%   0.255 Lip20                                               
 2.03E+03  13%   2.875 MM20                                                
  301.506  39%   0.426 MM12                                                
  765.662  30%   1.082 MM14                                                
  468.645  33%   0.662 MM17                                                
  883.216  32%   1.248 Lip13a+Lip13b                                       
 1.95E+03  12%   2.756 MM14+Lip13a+Lip13b+MM12                             
  990.588  13%   1.400 MM09+Lip09                                          
 2.22E+03  12%   3.130 MM20+Lip20                                          
   6 lines in following misc. output table
  FWHM = 0.038 ppm    S/N =  14                                            
  Data shift = 0.008 ppm                                                   
  Ph: -64 deg     -20.0 deg/ppm                                            
  alphaB,S = 2.3E+00,   5.9E+01                                            
   14 spline knots.   Ns = 6(1)                                            
  (10) 4 infls.   ( 3) 1 extrs.                                            
  498 points on ppm-axis = NY
      4.000000     3.992357     3.984714     3.977070     3.969427     3.961784     3.954141     3.946497     3.938854     3.931211
      3.923568     3.915925     3.908281     3.900638     3.892995     3.885352     3.877708     3.870065     3.862422     3.854779
      3.847136     3.839492     3.831849     3.824206     3.816563     3.808919     3.801276     3.793633     3.785990     3.778347
      3.770703     3.763060     3.755417     3.747774     3.740130     3.732487     3.724844     3.717201     3.709558     3.701914
      3.694271     3.686628     3.678985     3.671341     3.663698     3.656055     3.648412     3.640769     3.633125     3.625482
      3.617839     3.610196     3.602552     3.594909     3.587266     3.579623     3.571980     3.564336     3.556693     3.549050
      3.541407     3.533763     3.526120     3.518477     3.510834     3.503191     3.495547     3.487904     3.480261     3.472618
      3.464974     3.457331     3.449688     3.442045     3.434402     3.426758     3.419115     3.411472     3.403829     3.396185
      3.388542     3.380899     3.373256     3.365613     3.357969     3.350326     3.342683     3.335040     3.327396     3.319753
      3.312110     3.304467     3.296824     3.289180     3.281537     3.273894     3.266251     3.258607     3.250964     3.243321
      3.235678     3.228034     3.220391     3.212748     3.205105     3.197462     3.189818     3.182175     3.174532     3.166889
      3.159245     3.151602     3.143959     3.136316     3.128673     3.121029     3.113386     3.105743     3.098100     3.090456
      3.082813     3.075170     3.067527     3.059884     3.052240     3.044597     3.036954     3.029311     3.021667     3.014024
      3.006381     2.998738     2.991095     2.983451     2.975808     2.968165     2.960522     2.952878     2.945235     2.937592
      2.929949     2.922306     2.914662     2.907019     2.899376     2.891733     2.884089     2.876446     2.868803     2.861160
      2.853517     2.845873     2.838230     2.830587     2.822944     2.815300     2.807657     2.800014     2.792371     2.784728
      2.777084     2.769441     2.761798     2.754155     2.746511     2.738868     2.731225     2.723582     2.715939     2.708295
      2.700652     2.693009     2.685366     2.677722     2.670079     2.662436     2.654793     2.647150     2.639506     2.631863
      2.624220     2.616577     2.608933     2.601290     2.593647     2.586004     2.578361     2.570717     2.563074     2.555431
      2.547788     2.540144     2.532501     2.524858     2.517215     2.509572     2.501928     2.494285     2.486642     2.478999
      2.471355     2.463712     2.456069     2.448426     2.440783     2.433139     2.425496     2.417853     2.410210     2.402566
      2.394923     2.387280     2.379637     2.371994     2.364350     2.356707     2.349064     2.341421     2.333777     2.326134
      2.318491     2.310848     2.303205     2.295561     2.287918     2.280275     2.272632     2.264988     2.257345     2.249702
      2.242059     2.234416     2.226772     2.219129     2.211486     2.203843     2.196199     2.188556     2.180913     2.173270
      2.165627     2.157983     2.150340     2.142697     2.135054     2.127410     2.119767     2.112124     2.104481     2.096838
      2.089194     2.081551     2.073908     2.066265     2.058621     2.050978     2.043335     2.035692     2.028049     2.020405
      2.012762     2.005119     1.997476     1.989833     1.982190     1.974546     1.966903     1.959260     1.951617     1.943974
      1.936331     1.928688     1.921045     1.913402     1.905759     1.898115     1.890472     1.882829     1.875186     1.867543
      1.859900     1.852257     1.844614     1.836971     1.829327     1.821684     1.814041     1.806398     1.798755     1.791112
      1.783469     1.775826     1.768183     1.760540     1.752896     1.745253     1.737610     1.729967     1.722324     1.714681
      1.707038     1.699395     1.691752     1.684108     1.676465     1.668822     1.661179     1.653536     1.645893     1.638250
      1.630607     1.622964     1.615321     1.607677     1.600034     1.592391     1.584748     1.577105     1.569462     1.561819
      1.554176     1.546533     1.538890     1.531246     1.523603     1.515960     1.508317     1.500674     1.493031     1.485388
      1.477745     1.470102     1.462458     1.454815     1.447172     1.439529     1.431886     1.424243     1.416600     1.408957
      1.401314     1.393671     1.386027     1.378384     1.370741     1.363098     1.355455     1.347812     1.340169     1.332526
      1.324883     1.317240     1.309596     1.301953     1.294310     1.286667     1.279024     1.271381     1.263738     1.256095
      1.248452     1.240808     1.233165     1.225522     1.217879     1.210236     1.202593     1.194950     1.187307     1.179664
      1.172021     1.164377     1.156734     1.149091     1.141448     1.133805     1.126162     1.118519     1.110876     1.103233
      1.095590     1.087946     1.080303     1.072660     1.065017     1.057374     1.049731     1.042088     1.034445     1.026802
      1.019158     1.011515     1.003872     0.996229     0.988586     0.980943     0.973300     0.965657     0.958014     0.950371
      0.942727     0.935084     0.927441     0.919798     0.912155     0.904512     0.896869     0.889226     0.881583     0.873940
      0.866296     0.858653     0.851010     0.843367     0.835724     0.828081     0.820438     0.812795     0.805152     0.797508
      0.789865     0.782222     0.774579     0.766936     0.759293     0.751650     0.744007     0.736364     0.728721     0.721077
      0.713434     0.705791     0.698148     0.690505     0.682862     0.675219     0.667576     0.659933     0.652290     0.644646
      0.637003     0.629360     0.621717     0.614074     0.606431     0.598788     0.591145     0.583502     0.575858     0.568215
      0.560572     0.552929     0.545286     0.537643     0.530000     0.522357     0.514714     0.507071     0.499427     0.491784
      0.484141     0.476498     0.468855     0.461212     0.453569     0.445925     0.438282     0.430639     0.422996     0.415353
      0.407710     0.400067     0.392424     0.384780     0.377137     0.369494     0.361851     0.354208     0.346565     0.338922
      0.331278     0.323635     0.315992     0.308349     0.300706     0.293063     0.285420     0.277777     0.270133     0.262490
      0.254847     0.247204     0.239561     0.231918     0.224275     0.216631     0.208988     0.201345
 NY phased data points follow
  -1.81623E+01 -1.57890E+01 -1.56200E+01 -1.44106E+01 -1.50313E+01 -1.32524E+01 -1.03077E+01 -1.03394E+01 -6.30653E+00 -3.65761E+00
  -1.40608E+00 -4.88642E+00 -3.97841E+00 -7.99731E+00 -9.07662E+00 -1.22019E+01 -1.46322E+01 -1.23513E+01 -1.34478E+01 -9.30826E+00
  -1.45297E+01 -1.38674E+01 -1.45228E+01 -1.25911E+01 -1.08576E+01 -9.10839E+00 -1.11004E+01 -5.76894E+00 -9.81342E+00 -8.82376E+00
  -3.47317E+00 -8.07815E+00 -6.44162E+00 -7.11017E+00 -6.24299E+00 -6.41488E+00 -1.11399E+01 -9.17817E+00 -9.96235E+00 -6.11577E+00
  -6.64767E+00 -9.18922E+00 -1.02389E+01 -9.19418E+00 -8.03927E+00 -3.88801E+00 -1.48706E+00 -2.77940E+00  5.73417E-01 -5.99451E+00
  -6.47615E+00 -6.06799E+00 -9.93190E+00 -6.80206E+00 -8.18402E+00 -1.07316E+01 -8.43001E+00 -8.23806E+00 -8.62105E+00 -7.96542E+00
  -8.15168E+00 -1.24432E+01 -9.54057E+00 -8.88910E+00 -8.03829E+00 -6.63422E+00 -1.23563E+01 -7.50047E+00 -2.93570E+00 -7.70274E+00
  -9.65997E+00 -9.93487E+00 -6.82221E+00 -9.17408E+00 -7.57841E+00 -9.53725E+00 -6.84118E+00 -9.00090E+00 -1.11905E+01 -8.26737E+00
  -7.64238E+00 -6.64156E+00 -7.53218E+00 -8.48586E+00 -7.87148E+00 -5.88299E+00 -4.85905E+00 -2.84452E+00 -1.65998E+00 -5.20025E+00
  -5.48465E+00 -6.52827E-01 -7.18063E+00 -3.49044E+00 -3.26102E+00 -2.71019E+00 -4.21693E+00 -3.32097E-01 -1.13970E+00  2.91620E+00
   1.00991E+01  2.33039E+01  3.12644E+01  2.78170E+01  1.83933E+01  1.54210E+01  8.69942E+00  7.51798E+00  6.43833E+00 -7.19197E-01
  -2.58627E+00 -2.02858E+00 -4.67825E+00 -2.85060E+00 -3.57370E+00 -5.83266E+00 -1.61216E+00 -7.13572E+00 -3.30115E+00 -3.83962E+00
  -5.78532E+00 -6.20182E+00 -5.69628E+00 -4.82520E-01  1.69104E+00  1.31130E+01  2.02648E+01  2.33479E+01  2.09259E+01  1.40768E+01
   1.16202E+01  4.58277E+00  5.55083E+00 -1.56803E+00 -2.13619E+00 -5.02630E-01 -5.30217E+00 -6.44292E+00 -6.58344E+00 -3.11090E+00
  -7.33012E+00 -4.18959E+00 -6.51530E+00 -5.97350E-01 -2.20350E+00 -5.44830E+00 -7.22285E+00 -5.84045E+00 -6.34449E+00 -9.72954E+00
  -5.19247E+00 -6.61212E+00 -5.82316E+00 -4.37684E+00 -3.34186E+00 -4.71249E+00 -4.01863E+00 -3.93577E+00 -5.87213E+00 -1.91995E+00
  -4.69532E+00 -1.02346E+01 -7.97827E+00 -6.89578E+00 -1.27995E+00 -2.38113E+00 -4.66675E+00 -8.55794E+00 -8.81262E+00 -9.30777E+00
  -1.14845E+01 -7.42851E+00 -1.25375E+01 -1.14460E+01 -1.58404E+01 -1.45444E+01 -1.33026E+01 -1.51625E+01 -1.02748E+01 -1.09305E+01
  -1.22571E+01 -1.15181E+01 -1.10057E+01 -8.65225E+00 -1.03434E+01 -5.45665E+00 -1.22049E+01 -2.37185E+00 -1.14010E+01 -1.48550E-01
  -4.97563E+00 -3.64398E+00 -6.51597E+00 -4.94972E+00 -6.45474E+00 -6.97482E+00 -7.06378E+00 -9.38646E+00 -1.06058E+01 -7.53116E+00
  -9.56868E+00 -3.99721E+00 -3.07379E-01 -3.84888E-02  7.59095E-01 -1.84757E-01  1.21343E+00 -7.01515E-01 -8.57053E+00 -4.18979E+00
  -2.22737E+00 -4.51749E+00 -3.45503E+00  1.44091E+00  4.44427E+00  5.45866E+00  5.16706E+00  8.63663E+00  3.73793E+00  2.07446E+00
   9.45553E-02 -5.19072E+00 -5.24832E+00 -9.45588E+00 -5.13584E+00 -2.88445E+00 -6.79231E-01  2.10785E+00  5.86262E+00  3.28074E+00
   2.36150E+00  1.50832E+00 -2.67404E+00  5.32835E+00  2.49836E+00  3.27905E+00  2.33490E+00  3.57711E+00  6.65729E+00  8.83174E+00
   2.91216E+00  2.16104E+00 -2.15099E+00 -1.44891E+00  3.91166E-01  4.76803E+00  5.75600E+00  3.95153E+00  6.78470E+00  7.96423E+00
   4.52317E+00  6.06445E+00  5.20629E+00  1.00807E+01  2.22443E+01  2.94049E+01  3.10052E+01  4.12928E+01  4.87701E+01  6.30822E+01
   7.20516E+01  7.07665E+01  5.46167E+01  4.01475E+01  2.86275E+01  2.43355E+01  1.26218E+01  8.58744E+00  4.63525E+00  4.04400E+00
   2.40106E+00  3.58724E+00  4.23502E+00  1.51683E+00  1.35695E+00  4.95334E-01  2.55308E+00 -1.69467E+00  1.45518E+00  2.53267E+00
   2.07218E+00  2.94640E+00  1.41862E+00  3.10161E+00 -2.43825E+00  7.34083E-01  1.57748E+00 -2.28223E+00  2.44277E-01 -2.64214E+00
   2.61740E+00  3.19417E+00 -1.18588E+00  3.75790E+00  7.46381E-01  2.69186E+00  1.34043E+00 -4.02648E-01 -6.73862E-01  2.54252E+00
   1.46852E+00  5.26891E+00 -3.76762E-01  2.68409E+00  1.82111E+00 -5.49091E-01 -1.92453E-01  2.73766E+00 -2.05448E+00  2.75393E+00
   4.79254E+00  3.79712E+00  5.16883E-01  1.04816E-01  1.62036E+00  5.35632E+00  4.01718E+00  4.82467E+00  5.87264E+00  8.74869E+00
   5.53870E+00  1.68482E+00 -1.20924E-01  6.77743E-01  1.31864E+00  3.67764E+00  4.46579E+00  6.22388E+00  1.08929E+00  4.16829E+00
   7.42533E+00 -1.21932E-01  3.82843E+00  4.57380E-01  3.16890E+00  5.79883E+00  3.68862E+00  5.08568E+00  8.69644E+00  4.63604E+00
   3.81007E+00  3.28108E+00  2.30740E+00  5.32905E+00  6.57471E+00  4.97788E+00  5.12060E+00  9.79146E+00  8.84812E+00  9.82420E+00
   7.73692E+00  6.44393E+00  5.23684E+00  6.42783E+00  4.75717E+00  9.68390E+00  4.86373E+00  7.21108E+00  5.48802E+00  4.57958E+00
   2.56821E+00  5.18879E+00  4.56405E+00  9.35559E+00  4.07504E+00  6.91779E+00  6.74260E+00  5.68033E+00  8.20083E+00  5.80283E+00
   3.97362E+00  5.94482E+00  4.85820E+00  3.31222E+00  2.45079E+00  4.37364E+00  1.13033E+00  2.25363E+00  2.85209E+00  1.53573E+00
   2.90158E+00 -7.99356E-01 -9.96452E-01 -1.90707E+00  2.29618E+00 -3.21020E-01  4.46922E-03  1.96297E+00  9.13299E-01  1.87396E+00
  -9.10837E-01  6.61082E+00  2.67699E+00  3.96698E+00  1.36915E+00  7.73885E+00  5.53776E+00  6.26211E+00  7.69971E+00  4.51335E+00
   3.82494E+00  6.85945E+00  5.76581E+00  7.43535E+00  1.14977E+01  4.78476E+00  7.18061E+00  1.02797E+01  1.08845E+01  1.23939E+01
   1.12628E+01  1.10966E+01  9.85559E+00  8.39249E+00  6.86704E+00  8.05063E+00  1.59864E+00  8.46583E+00  5.67902E+00  3.56266E+00
   7.02021E+00  4.77228E+00  1.72338E+00  5.62799E+00  4.60844E+00  6.09634E+00  8.21297E-01  2.54981E+00  6.50509E-01  3.31569E+00
   6.08474E-01  3.58626E+00  2.41420E+00  2.30189E+00  4.68262E+00  3.13919E+00 -1.19307E-02  2.90426E+00  7.73206E-01  3.05930E+00
   2.93708E+00  1.81786E+00  4.68431E+00  7.19330E-01  8.76218E-01  3.11656E+00  1.86109E+00  1.69468E+00  2.36207E+00  2.77096E+00
   9.11154E-01  2.34503E+00  3.25727E+00  1.49593E+00  4.75363E-01  2.66717E+00  4.99952E+00  1.33204E+00  7.25415E-01  1.41345E+00
   3.52162E+00  1.47089E+00  2.35468E-01  2.17456E-01  3.10734E+00  1.01813E+00  2.22138E+00  2.55350E+00 -9.20871E-01  3.39143E+00
   1.06933E+00  2.91448E+00  1.61166E+00  5.95313E+00  2.52435E+00  3.85622E+00 -3.00131E-01  1.05440E+00  2.11036E-01  2.86572E+00
   1.95890E+00  3.26338E+00  7.31685E-01  2.60791E+00  4.06577E+00  1.94296E+00  2.06535E+00  1.82355E+00  4.16508E+00  6.34120E+00
   1.08319E+00  4.63359E+00  5.72425E-01  1.49432E+00  3.48828E+00  8.10045E-01  2.65938E+00  2.61284E+00
 NY points of the fit to the data follow
  -1.37050E+01 -1.38661E+01 -1.39276E+01 -1.35237E+01 -1.27842E+01 -1.20371E+01 -1.07117E+01 -8.42358E+00 -5.62791E+00 -3.52568E+00
  -3.14845E+00 -4.36700E+00 -6.05648E+00 -7.32007E+00 -8.11544E+00 -8.88405E+00 -9.80363E+00 -1.04869E+01 -1.08151E+01 -1.09590E+01
  -1.10024E+01 -1.10289E+01 -1.11474E+01 -1.12400E+01 -1.10816E+01 -1.10199E+01 -1.08418E+01 -1.00894E+01 -8.61522E+00 -6.76838E+00
  -5.26026E+00 -4.43034E+00 -4.10065E+00 -4.13783E+00 -4.68492E+00 -5.82598E+00 -7.49929E+00 -9.21538E+00 -1.04687E+01 -1.10971E+01
  -1.09573E+01 -1.02425E+01 -9.39877E+00 -8.57221E+00 -7.48113E+00 -5.86425E+00 -4.14257E+00 -3.22372E+00 -3.59524E+00 -4.90298E+00
  -6.42162E+00 -7.69955E+00 -8.68437E+00 -9.39853E+00 -9.85788E+00 -1.00075E+01 -9.83310E+00 -9.37411E+00 -8.71830E+00 -8.09349E+00
  -7.77344E+00 -7.87841E+00 -8.31571E+00 -8.73526E+00 -8.95873E+00 -8.96155E+00 -8.80155E+00 -8.62959E+00 -8.54870E+00 -8.41354E+00
  -8.14764E+00 -7.88970E+00 -7.60738E+00 -7.20755E+00 -6.72527E+00 -6.40178E+00 -6.56413E+00 -7.30476E+00 -8.33585E+00 -9.11922E+00
  -9.30894E+00 -8.84832E+00 -8.23244E+00 -7.64426E+00 -6.65727E+00 -5.13093E+00 -3.51033E+00 -2.66353E+00 -3.09238E+00 -4.30107E+00
  -5.40293E+00 -6.17587E+00 -6.90294E+00 -7.79685E+00 -8.69000E+00 -8.78256E+00 -7.08319E+00 -4.34453E+00 -1.33167E+00  3.88618E+00
   1.24161E+01  2.21232E+01  2.85411E+01  2.83364E+01  2.25931E+01  1.54854E+01  9.97725E+00  6.00249E+00  2.14640E+00 -1.71370E+00
  -4.21320E+00 -5.21763E+00 -5.73521E+00 -6.07390E+00 -6.33390E+00 -6.54668E+00 -6.69600E+00 -6.81531E+00 -6.90749E+00 -6.91575E+00
  -6.50181E+00 -4.97879E+00 -3.30449E+00 -8.82180E-01  4.12176E+00  1.16952E+01  1.90465E+01  2.24503E+01  2.04046E+01  1.51755E+01
   1.02255E+01  6.84150E+00  4.04953E+00  7.59467E-01 -2.55904E+00 -4.60845E+00 -5.59159E+00 -5.93036E+00 -5.75815E+00 -5.29374E+00
  -4.77889E+00 -4.38183E+00 -4.21199E+00 -4.26912E+00 -4.43598E+00 -4.62888E+00 -4.82503E+00 -5.01331E+00 -5.21084E+00 -5.39244E+00
  -5.53877E+00 -5.68948E+00 -5.85558E+00 -5.99939E+00 -6.08572E+00 -6.10454E+00 -5.99194E+00 -5.86613E+00 -5.97096E+00 -6.37515E+00
  -6.96221E+00 -7.32819E+00 -7.15917E+00 -6.63706E+00 -6.25681E+00 -6.35123E+00 -6.84446E+00 -7.40466E+00 -7.80437E+00 -8.07043E+00
  -8.27719E+00 -8.42881E+00 -8.55544E+00 -8.85231E+00 -9.36256E+00 -9.81191E+00 -9.78406E+00 -9.27375E+00 -8.76507E+00 -8.70437E+00
  -8.99940E+00 -9.22477E+00 -9.00539E+00 -8.52078E+00 -8.24175E+00 -8.15917E+00 -7.80223E+00 -6.84224E+00 -5.37025E+00 -3.86027E+00
  -2.81406E+00 -2.41254E+00 -2.59516E+00 -3.08010E+00 -3.66484E+00 -4.26082E+00 -4.71796E+00 -4.84685E+00 -4.50390E+00 -3.73028E+00
  -2.68002E+00 -1.55574E+00 -5.60902E-01  1.56678E-01  2.85851E-01 -2.86082E-01 -1.62091E+00 -3.60257E+00 -5.65954E+00 -7.16072E+00
  -7.72173E+00 -7.24529E+00 -6.03417E+00 -3.95657E+00 -1.01380E+00  2.01133E+00  3.78628E+00  3.46041E+00  1.43028E+00 -1.21744E+00
  -4.01079E+00 -6.72196E+00 -8.58148E+00 -8.70851E+00 -6.88414E+00 -4.03819E+00 -1.49461E+00  2.83575E-01  1.38728E+00  1.94356E+00
   1.98612E+00  1.76261E+00  1.63757E+00  1.83631E+00  2.31037E+00  2.90713E+00  3.48729E+00  3.87441E+00  3.94289E+00  3.60827E+00
   2.88197E+00  1.99346E+00  1.40497E+00  1.52150E+00  2.37099E+00  3.57609E+00  4.61496E+00  5.30798E+00  5.78504E+00  6.27171E+00
   7.13404E+00  8.07812E+00  9.64149E+00  1.30978E+01  1.97527E+01  2.72094E+01  3.26045E+01  3.92702E+01  5.05084E+01  6.39505E+01
   7.19671E+01  6.85167E+01  5.55238E+01  4.09173E+01  3.02277E+01  2.27350E+01  1.56305E+01  8.74293E+00  4.53724E+00  3.11093E+00
   2.42778E+00  1.99817E+00  1.80543E+00  1.79306E+00  1.79894E+00  1.71100E+00  1.51207E+00  1.26394E+00  1.03212E+00  8.28478E-01
   6.44311E-01  4.93170E-01  4.12569E-01  3.97906E-01  3.97054E-01  3.74848E-01  3.47222E-01  3.27717E-01  3.18149E-01  3.25190E-01
   3.72032E-01  4.72903E-01  6.08847E-01  7.44139E-01  8.70006E-01  9.88989E-01  1.10167E+00  1.20688E+00  1.30723E+00  1.41409E+00
   1.54083E+00  1.68144E+00  1.82112E+00  1.95016E+00  2.06592E+00  2.16774E+00  2.25289E+00  2.31819E+00  2.36701E+00  2.40289E+00
   2.42798E+00  2.44473E+00  2.45611E+00  2.46506E+00  2.47539E+00  2.49096E+00  2.51550E+00  2.55225E+00  2.60510E+00  2.67912E+00
   2.78350E+00  2.93127E+00  3.09185E+00  3.26084E+00  3.48653E+00  3.71923E+00  3.82637E+00  3.70844E+00  3.40566E+00  3.11434E+00
   2.99277E+00  3.00146E+00  3.11299E+00  3.38143E+00  3.86044E+00  4.47683E+00  5.01233E+00  5.31643E+00  5.44508E+00  5.51923E+00
   5.59790E+00  5.66239E+00  5.68932E+00  5.71752E+00  5.78902E+00  5.88646E+00  5.99602E+00  6.11103E+00  6.22682E+00  6.33887E+00
   6.44275E+00  6.53395E+00  6.60845E+00  6.66240E+00  6.69243E+00  6.69541E+00  6.66903E+00  6.61183E+00  6.52362E+00  6.40501E+00
   6.25753E+00  6.08325E+00  5.88517E+00  5.66693E+00  5.43284E+00  5.18727E+00  4.93464E+00  4.67907E+00  4.42477E+00  4.17562E+00
   3.93533E+00  3.70686E+00  3.49273E+00  3.29483E+00  3.11495E+00  2.95443E+00  2.81442E+00  2.69548E+00  2.59804E+00  2.52231E+00
   2.46881E+00  2.43794E+00  2.43025E+00  2.44613E+00  2.48624E+00  2.55143E+00  2.64299E+00  2.76223E+00  2.91054E+00  3.08912E+00
   3.29921E+00  3.54185E+00  3.81782E+00  4.12705E+00  4.46862E+00  4.84035E+00  5.23907E+00  5.66016E+00  6.09767E+00  6.54391E+00
   6.98984E+00  7.42515E+00  7.83891E+00  8.21976E+00  8.55650E+00  8.83829E+00  9.05562E+00  9.20063E+00  9.26797E+00  9.25469E+00
   9.16069E+00  8.98837E+00  8.74295E+00  8.43200E+00  8.06521E+00  7.65356E+00  7.20885E+00  6.74291E+00  6.26744E+00  5.79327E+00
   5.33021E+00  4.88636E+00  4.46817E+00  4.08026E+00  3.72580E+00  3.40642E+00  3.12254E+00  2.87328E+00  2.65695E+00  2.47120E+00
   2.31348E+00  2.18101E+00  2.07102E+00  1.98062E+00  1.90712E+00  1.84806E+00  1.80140E+00  1.76528E+00  1.73811E+00  1.71833E+00
   1.70475E+00  1.69632E+00  1.69236E+00  1.69218E+00  1.69521E+00  1.70083E+00  1.70865E+00  1.71837E+00  1.72985E+00  1.74282E+00
   1.75707E+00  1.77232E+00  1.78848E+00  1.80549E+00  1.82334E+00  1.84190E+00  1.86104E+00  1.88060E+00  1.90063E+00  1.92111E+00
   1.94208E+00  1.96339E+00  1.98498E+00  2.00677E+00  2.02885E+00  2.05123E+00  2.07392E+00  2.09677E+00  2.11975E+00  2.14285E+00
   2.16617E+00  2.18971E+00  2.21345E+00  2.23725E+00  2.26114E+00  2.28514E+00  2.30934E+00  2.33371E+00  2.35820E+00  2.38272E+00
   2.40731E+00  2.43202E+00  2.45694E+00  2.48199E+00  2.50713E+00  2.53230E+00  2.55758E+00  2.58303E+00  2.60869E+00  2.63448E+00
   2.66037E+00  2.68633E+00  2.71249E+00  2.73888E+00  2.76554E+00  2.79236E+00  2.81937E+00  2.84659E+00
 NY background values follow
    -1.439E+01   -1.434E+01   -1.429E+01   -1.424E+01   -1.419E+01   -1.414E+01   -1.409E+01   -1.403E+01   -1.398E+01   -1.393E+01
    -1.388E+01   -1.383E+01   -1.378E+01   -1.372E+01   -1.367E+01   -1.362E+01   -1.357E+01   -1.352E+01   -1.347E+01   -1.341E+01
    -1.336E+01   -1.331E+01   -1.326E+01   -1.321E+01   -1.316E+01   -1.310E+01   -1.305E+01   -1.300E+01   -1.295E+01   -1.290E+01
    -1.284E+01   -1.279E+01   -1.274E+01   -1.269E+01   -1.264E+01   -1.259E+01   -1.253E+01   -1.248E+01   -1.243E+01   -1.238E+01
    -1.233E+01   -1.228E+01   -1.222E+01   -1.217E+01   -1.212E+01   -1.207E+01   -1.202E+01   -1.197E+01   -1.192E+01   -1.186E+01
    -1.181E+01   -1.176E+01   -1.171E+01   -1.166E+01   -1.161E+01   -1.156E+01   -1.151E+01   -1.145E+01   -1.140E+01   -1.135E+01
    -1.130E+01   -1.125E+01   -1.120E+01   -1.115E+01   -1.110E+01   -1.105E+01   -1.100E+01   -1.095E+01   -1.090E+01   -1.085E+01
    -1.080E+01   -1.075E+01   -1.070E+01   -1.065E+01   -1.060E+01   -1.055E+01   -1.050E+01   -1.045E+01   -1.040E+01   -1.035E+01
    -1.030E+01   -1.025E+01   -1.020E+01   -1.015E+01   -1.010E+01   -1.006E+01   -1.001E+01   -9.958E+00   -9.909E+00   -9.861E+00
    -9.813E+00   -9.764E+00   -9.716E+00   -9.668E+00   -9.621E+00   -9.573E+00   -9.525E+00   -9.478E+00   -9.430E+00   -9.383E+00
    -9.336E+00   -9.289E+00   -9.242E+00   -9.195E+00   -9.148E+00   -9.102E+00   -9.055E+00   -9.009E+00   -8.963E+00   -8.916E+00
    -8.870E+00   -8.824E+00   -8.779E+00   -8.733E+00   -8.687E+00   -8.642E+00   -8.596E+00   -8.551E+00   -8.506E+00   -8.461E+00
    -8.416E+00   -8.371E+00   -8.326E+00   -8.282E+00   -8.237E+00   -8.193E+00   -8.149E+00   -8.105E+00   -8.061E+00   -8.017E+00
    -7.973E+00   -7.929E+00   -7.885E+00   -7.842E+00   -7.799E+00   -7.755E+00   -7.712E+00   -7.669E+00   -7.626E+00   -7.583E+00
    -7.541E+00   -7.498E+00   -7.455E+00   -7.413E+00   -7.371E+00   -7.328E+00   -7.286E+00   -7.244E+00   -7.202E+00   -7.160E+00
    -7.119E+00   -7.077E+00   -7.035E+00   -6.994E+00   -6.953E+00   -6.911E+00   -6.870E+00   -6.829E+00   -6.788E+00   -6.747E+00
    -6.706E+00   -6.665E+00   -6.624E+00   -6.584E+00   -6.543E+00   -6.503E+00   -6.462E+00   -6.422E+00   -6.381E+00   -6.341E+00
    -6.301E+00   -6.261E+00   -6.221E+00   -6.181E+00   -6.141E+00   -6.101E+00   -6.061E+00   -6.021E+00   -5.982E+00   -5.942E+00
    -5.903E+00   -5.863E+00   -5.823E+00   -5.784E+00   -5.745E+00   -5.705E+00   -5.666E+00   -5.627E+00   -5.588E+00   -5.549E+00
    -5.510E+00   -5.471E+00   -5.432E+00   -5.393E+00   -5.354E+00   -5.315E+00   -5.277E+00   -5.238E+00   -5.200E+00   -5.161E+00
    -5.123E+00   -5.085E+00   -5.047E+00   -5.009E+00   -4.971E+00   -4.933E+00   -4.895E+00   -4.857E+00   -4.819E+00   -4.782E+00
    -4.744E+00   -4.707E+00   -4.669E+00   -4.632E+00   -4.595E+00   -4.558E+00   -4.521E+00   -4.484E+00   -4.448E+00   -4.411E+00
    -4.374E+00   -4.338E+00   -4.302E+00   -4.265E+00   -4.229E+00   -4.193E+00   -4.157E+00   -4.122E+00   -4.086E+00   -4.051E+00
    -4.015E+00   -3.980E+00   -3.945E+00   -3.909E+00   -3.874E+00   -3.840E+00   -3.805E+00   -3.770E+00   -3.735E+00   -3.701E+00
    -3.667E+00   -3.632E+00   -3.598E+00   -3.564E+00   -3.530E+00   -3.496E+00   -3.463E+00   -3.429E+00   -3.395E+00   -3.362E+00
    -3.328E+00   -3.295E+00   -3.262E+00   -3.229E+00   -3.196E+00   -3.163E+00   -3.130E+00   -3.098E+00   -3.065E+00   -3.033E+00
    -3.000E+00   -2.968E+00   -2.936E+00   -2.903E+00   -2.871E+00   -2.839E+00   -2.808E+00   -2.776E+00   -2.744E+00   -2.712E+00
    -2.681E+00   -2.649E+00   -2.618E+00   -2.587E+00   -2.556E+00   -2.525E+00   -2.493E+00   -2.463E+00   -2.432E+00   -2.401E+00
    -2.370E+00   -2.340E+00   -2.309E+00   -2.279E+00   -2.248E+00   -2.218E+00   -2.188E+00   -2.157E+00   -2.127E+00   -2.097E+00
    -2.067E+00   -2.038E+00   -2.008E+00   -1.978E+00   -1.949E+00   -1.919E+00   -1.890E+00   -1.860E+00   -1.831E+00   -1.802E+00
    -1.772E+00   -1.743E+00   -1.714E+00   -1.685E+00   -1.656E+00   -1.628E+00   -1.599E+00   -1.570E+00   -1.541E+00   -1.513E+00
    -1.484E+00   -1.456E+00   -1.428E+00   -1.399E+00   -1.371E+00   -1.343E+00   -1.315E+00   -1.287E+00   -1.259E+00   -1.231E+00
    -1.203E+00   -1.175E+00   -1.148E+00   -1.120E+00   -1.092E+00   -1.065E+00   -1.037E+00   -1.010E+00   -9.825E-01   -9.552E-01
    -9.280E-01   -9.007E-01   -8.736E-01   -8.465E-01   -8.194E-01   -7.924E-01   -7.654E-01   -7.385E-01   -7.116E-01   -6.848E-01
    -6.580E-01   -6.312E-01   -6.045E-01   -5.779E-01   -5.512E-01   -5.247E-01   -4.981E-01   -4.716E-01   -4.452E-01   -4.187E-01
    -3.923E-01   -3.660E-01   -3.397E-01   -3.134E-01   -2.871E-01   -2.609E-01   -2.347E-01   -2.085E-01   -1.824E-01   -1.563E-01
    -1.302E-01   -1.042E-01   -7.812E-02   -5.212E-02   -2.613E-02   -1.773E-04    2.576E-02    5.167E-02    7.756E-02    1.034E-01
     1.293E-01    1.551E-01    1.809E-01    2.067E-01    2.324E-01    2.582E-01    2.839E-01    3.096E-01    3.353E-01    3.610E-01
     3.866E-01    4.123E-01    4.379E-01    4.635E-01    4.891E-01    5.146E-01    5.402E-01    5.658E-01    5.913E-01    6.168E-01
     6.423E-01    6.678E-01    6.933E-01    7.188E-01    7.442E-01    7.697E-01    7.951E-01    8.205E-01    8.460E-01    8.714E-01
     8.968E-01    9.222E-01    9.476E-01    9.729E-01    9.983E-01    1.024E+00    1.049E+00    1.074E+00    1.100E+00    1.125E+00
     1.150E+00    1.176E+00    1.201E+00    1.226E+00    1.252E+00    1.277E+00    1.302E+00    1.328E+00    1.353E+00    1.378E+00
     1.403E+00    1.429E+00    1.454E+00    1.479E+00    1.504E+00    1.530E+00    1.555E+00    1.580E+00    1.605E+00    1.630E+00
     1.656E+00    1.681E+00    1.706E+00    1.731E+00    1.756E+00    1.781E+00    1.806E+00    1.832E+00    1.857E+00    1.882E+00
     1.907E+00    1.932E+00    1.957E+00    1.982E+00    2.007E+00    2.032E+00    2.057E+00    2.082E+00    2.106E+00    2.131E+00
     2.156E+00    2.181E+00    2.206E+00    2.231E+00    2.256E+00    2.280E+00    2.305E+00    2.330E+00    2.355E+00    2.379E+00
     2.404E+00    2.429E+00    2.454E+00    2.478E+00    2.503E+00    2.528E+00    2.552E+00    2.577E+00    2.601E+00    2.626E+00
     2.650E+00    2.675E+00    2.700E+00    2.724E+00    2.749E+00    2.773E+00    2.798E+00    2.822E+00    2.846E+00    2.871E+00
     2.895E+00    2.920E+00    2.944E+00    2.969E+00    2.993E+00    3.017E+00    3.042E+00    3.066E+00    3.090E+00    3.115E+00
     3.139E+00    3.163E+00    3.188E+00    3.212E+00    3.236E+00    3.260E+00    3.285E+00    3.309E+00
 Ala      Conc. = 6.54E+01
