 LCModel (Version 6.3-1L) Copyright: S.W. Provencher.          Ref.: Magn. Reson. Med. 30:672-679 (1993).                
 Slice#2 Row#2 Col#5  PD_05_press_1_raw_act
 36 lines in following concentration table = NCONC+1
    Conc.  %SD /Cr+PCr  Metabolite                                         
  144.526  38%   0.575 Ala                                                 
   19.438 290% 7.7E-02 Asp                                                 
    0.000 999%   0.000 Cr                                                  
  251.240  11%   1.000 PCr                                                 
   14.548 237% 5.8E-02 GABA                                                
   38.318  90%   0.153 Glc                                                 
  126.463  85%   0.503 Gln                                                 
  393.021  31%   1.564 Glu                                                 
   97.839  10%   0.389 GPC                                                 
    0.000 999%   0.000 PCh                                                 
  118.842  30%   0.473 GSH                                                 
  125.956  87%   0.501 Ins                                                 
   89.932  67%   0.358 Lac                                                 
  446.109   7%   1.776 NAA                                                 
    0.000 999%   0.000 NAAG                                                
   21.485  43% 8.6E-02 Scyllo                                              
   57.332  94%   0.228 Tau                                                 
   75.485  54%   0.300 -CrCH2                                              
   97.839  10%   0.389 GPC+PCh                                             
  446.109   7%   1.776 NAA+NAAG                                            
  251.240  11%   1.000 Cr+PCr                                              
  519.484  32%   2.068 Glu+Gln                                             
 3.59E+03  12%  14.276 Lip13a                                              
    0.000 999%   0.000 Lip13b                                              
    0.000 999%   0.000-Lip09                                               
  731.847  14%   2.913 MM09                                                
   28.167 538%   0.112 Lip20                                               
 1.09E+03  14%   4.354 MM20                                                
  219.780  15%   0.875 MM12                                                
  560.726  15%   2.232 MM14                                                
  279.698  15%   1.113 MM17                                                
 3.59E+03  12%  14.276 Lip13a+Lip13b                                       
 4.37E+03   8%  17.383 MM14+Lip13a+Lip13b+MM12                             
  731.847  14%   2.913 MM09+Lip09                                          
 1.12E+03  13%   4.466 MM20+Lip20                                          
   6 lines in following misc. output table
  FWHM = 0.046 ppm    S/N =   5                                            
  Data shift = 0.000 ppm                                                   
  Ph: -59 deg     -21.5 deg/ppm                                            
  alphaB,S = 8.5E+01,   1.0E+02                                            
   14 spline knots.   Ns = 6(1)                                            
   2 inflections.     1 extrema                                            
  498 points on ppm-axis = NY
      4.000000     3.992357     3.984714     3.977070     3.969427     3.961784     3.954141     3.946497     3.938854     3.931211
      3.923568     3.915925     3.908281     3.900638     3.892995     3.885352     3.877708     3.870065     3.862422     3.854779
      3.847136     3.839492     3.831849     3.824206     3.816563     3.808919     3.801276     3.793633     3.785990     3.778347
      3.770703     3.763060     3.755417     3.747774     3.740130     3.732487     3.724844     3.717201     3.709558     3.701914
      3.694271     3.686628     3.678985     3.671341     3.663698     3.656055     3.648412     3.640769     3.633125     3.625482
      3.617839     3.610196     3.602552     3.594909     3.587266     3.579623     3.571980     3.564336     3.556693     3.549050
      3.541407     3.533763     3.526120     3.518477     3.510834     3.503191     3.495547     3.487904     3.480261     3.472618
      3.464974     3.457331     3.449688     3.442045     3.434402     3.426758     3.419115     3.411472     3.403829     3.396185
      3.388542     3.380899     3.373256     3.365613     3.357969     3.350326     3.342683     3.335040     3.327396     3.319753
      3.312110     3.304467     3.296824     3.289180     3.281537     3.273894     3.266251     3.258607     3.250964     3.243321
      3.235678     3.228034     3.220391     3.212748     3.205105     3.197462     3.189818     3.182175     3.174532     3.166889
      3.159245     3.151602     3.143959     3.136316     3.128673     3.121029     3.113386     3.105743     3.098100     3.090456
      3.082813     3.075170     3.067527     3.059884     3.052240     3.044597     3.036954     3.029311     3.021667     3.014024
      3.006381     2.998738     2.991095     2.983451     2.975808     2.968165     2.960522     2.952878     2.945235     2.937592
      2.929949     2.922306     2.914662     2.907019     2.899376     2.891733     2.884089     2.876446     2.868803     2.861160
      2.853517     2.845873     2.838230     2.830587     2.822944     2.815300     2.807657     2.800014     2.792371     2.784728
      2.777084     2.769441     2.761798     2.754155     2.746511     2.738868     2.731225     2.723582     2.715939     2.708295
      2.700652     2.693009     2.685366     2.677722     2.670079     2.662436     2.654793     2.647150     2.639506     2.631863
      2.624220     2.616577     2.608933     2.601290     2.593647     2.586004     2.578361     2.570717     2.563074     2.555431
      2.547788     2.540144     2.532501     2.524858     2.517215     2.509572     2.501928     2.494285     2.486642     2.478999
      2.471355     2.463712     2.456069     2.448426     2.440783     2.433139     2.425496     2.417853     2.410210     2.402566
      2.394923     2.387280     2.379637     2.371994     2.364350     2.356707     2.349064     2.341421     2.333777     2.326134
      2.318491     2.310848     2.303205     2.295561     2.287918     2.280275     2.272632     2.264988     2.257345     2.249702
      2.242059     2.234416     2.226772     2.219129     2.211486     2.203843     2.196199     2.188556     2.180913     2.173270
      2.165627     2.157983     2.150340     2.142697     2.135054     2.127410     2.119767     2.112124     2.104481     2.096838
      2.089194     2.081551     2.073908     2.066265     2.058621     2.050978     2.043335     2.035692     2.028049     2.020405
      2.012762     2.005119     1.997476     1.989833     1.982190     1.974546     1.966903     1.959260     1.951617     1.943974
      1.936331     1.928688     1.921045     1.913402     1.905759     1.898115     1.890472     1.882829     1.875186     1.867543
      1.859900     1.852257     1.844614     1.836971     1.829327     1.821684     1.814041     1.806398     1.798755     1.791112
      1.783469     1.775826     1.768183     1.760540     1.752896     1.745253     1.737610     1.729967     1.722324     1.714681
      1.707038     1.699395     1.691752     1.684108     1.676465     1.668822     1.661179     1.653536     1.645893     1.638250
      1.630607     1.622964     1.615321     1.607677     1.600034     1.592391     1.584748     1.577105     1.569462     1.561819
      1.554176     1.546533     1.538890     1.531246     1.523603     1.515960     1.508317     1.500674     1.493031     1.485388
      1.477745     1.470102     1.462458     1.454815     1.447172     1.439529     1.431886     1.424243     1.416600     1.408957
      1.401314     1.393671     1.386027     1.378384     1.370741     1.363098     1.355455     1.347812     1.340169     1.332526
      1.324883     1.317240     1.309596     1.301953     1.294310     1.286667     1.279024     1.271381     1.263738     1.256095
      1.248452     1.240808     1.233165     1.225522     1.217879     1.210236     1.202593     1.194950     1.187307     1.179664
      1.172021     1.164377     1.156734     1.149091     1.141448     1.133805     1.126162     1.118519     1.110876     1.103233
      1.095590     1.087946     1.080303     1.072660     1.065017     1.057374     1.049731     1.042088     1.034445     1.026802
      1.019158     1.011515     1.003872     0.996229     0.988586     0.980943     0.973300     0.965657     0.958014     0.950371
      0.942727     0.935084     0.927441     0.919798     0.912155     0.904512     0.896869     0.889226     0.881583     0.873940
      0.866296     0.858653     0.851010     0.843367     0.835724     0.828081     0.820438     0.812795     0.805152     0.797508
      0.789865     0.782222     0.774579     0.766936     0.759293     0.751650     0.744007     0.736364     0.728721     0.721077
      0.713434     0.705791     0.698148     0.690505     0.682862     0.675219     0.667576     0.659933     0.652290     0.644646
      0.637003     0.629360     0.621717     0.614074     0.606431     0.598788     0.591145     0.583502     0.575858     0.568215
      0.560572     0.552929     0.545286     0.537643     0.530000     0.522357     0.514714     0.507071     0.499427     0.491784
      0.484141     0.476498     0.468855     0.461212     0.453569     0.445925     0.438282     0.430639     0.422996     0.415353
      0.407710     0.400067     0.392424     0.384780     0.377137     0.369494     0.361851     0.354208     0.346565     0.338922
      0.331278     0.323635     0.315992     0.308349     0.300706     0.293063     0.285420     0.277777     0.270133     0.262490
      0.254847     0.247204     0.239561     0.231918     0.224275     0.216631     0.208988     0.201345
 NY phased data points follow
  -2.41835E-01  2.51953E+00  1.48274E+00  1.51153E+00  1.70472E+00  2.26050E+00 -4.82058E-01  3.67014E+00  4.01538E+00  3.46041E+00
   2.66100E+00  6.08925E+00  1.91870E+00  3.00135E+00 -1.78886E+00  7.54108E-01 -7.44381E-01 -1.07454E+00 -1.12070E-01  1.87153E+00
   1.00907E+00  5.56584E-01 -9.91681E-01  1.11554E+00  3.21108E+00  2.41703E+00  7.03921E-01  5.00053E+00  8.10713E-02  5.69194E-01
   3.75573E+00  3.75905E+00  1.77723E+00  1.83690E-01 -1.01471E+00  1.57499E+00  2.12743E+00  2.42968E-01  8.68446E-01 -1.08160E+00
   2.52681E+00  2.41656E+00  1.59931E-01  3.09999E+00  1.56058E+00  1.35963E+00  2.07241E+00 -4.20270E-01  3.68503E+00  3.48899E-01
  -3.79296E-01 -2.33651E+00 -1.04384E+00  1.33207E+00 -1.47977E+00 -1.46687E+00  2.74298E-01  1.62484E+00  4.81963E-01 -1.22481E+00
  -5.61493E-01 -1.22252E+00 -1.70283E+00 -1.67579E+00 -1.55239E+00  6.02536E-01 -9.31609E-01  6.28973E-02  2.67011E-01 -8.19058E-01
   6.38971E-01  8.25048E-01 -5.17757E-01 -2.57785E-01 -2.84456E-01 -5.73584E-01  7.18473E-01  2.51190E+00  4.57730E-01  2.37186E+00
   6.42800E-01 -7.08745E-01  3.96743E+00  1.27972E+00 -4.68617E-01  2.93253E+00  2.57036E+00  2.50459E+00 -1.71455E+00 -8.46753E-01
   3.44578E+00  1.28500E-01  2.25396E+00  8.51024E-01  1.67400E+00  1.15116E+00  2.73093E+00  1.81940E+00  2.29964E+00  5.32956E+00
   8.20073E+00  7.79238E+00  1.10693E+01  8.91624E+00  1.07948E+01  5.82593E+00  3.04799E+00  4.49563E-01  2.93949E+00  3.66021E-02
   3.87652E+00  1.92316E+00  1.00293E+00  2.87598E+00 -2.25539E+00  1.48205E+00  9.57104E-01  9.29709E-01  5.61591E-01  1.03344E+00
   3.12767E-01  1.38626E+00  5.33049E-01  2.27702E+00  5.72268E+00  8.29602E+00  9.86215E+00  1.12809E+01  9.42735E+00  8.92486E+00
   5.65103E+00  2.21425E+00  1.03911E+00  1.43059E+00  1.35851E+00  3.05039E+00 -6.17880E-01  1.29794E-01 -5.87280E-01  8.76850E-01
   1.34166E+00  1.95980E+00  1.67578E+00  1.50072E+00  2.23163E+00 -8.99628E-01 -1.89820E+00 -1.28672E+00  5.40486E-01 -3.22850E+00
   1.54680E+00 -1.22133E+00 -1.87847E+00 -2.51415E+00 -9.89186E-01 -2.26694E+00 -1.11799E+00  1.09647E+00  3.05952E-01  5.65745E-01
   1.17637E+00  8.04335E-01 -5.09201E-01 -6.27405E-01  2.42489E+00  3.07032E+00  1.26651E+00 -2.54701E-01 -3.27017E-01 -4.49092E+00
  -3.37333E+00 -8.54533E-01  8.06179E-02 -1.77164E+00 -1.64238E+00 -3.94693E+00 -2.36591E+00 -2.79547E+00 -2.86769E+00 -3.05490E+00
  -2.50521E+00 -4.77151E+00 -1.85257E+00 -2.52320E+00 -5.09844E-01 -1.03129E+00 -3.88296E+00  2.14489E-01 -1.49754E+00  8.54156E-01
   2.40771E+00  1.99808E+00  3.26979E+00  6.78117E-01  1.44271E+00  5.80326E-01  4.05353E-01  5.63909E-01 -1.00264E+00 -1.61449E+00
  -9.22799E-01  1.99376E+00  1.44336E+00  1.20124E+00  1.09413E+00  2.05073E+00  1.58645E-01  5.61734E-02 -2.16937E+00  3.56253E+00
  -4.34255E-01  4.51769E-01  2.53585E+00  3.00511E+00  1.78788E+00  2.61202E+00  5.67152E+00  1.50809E+00  5.90198E-01  3.28663E-02
   5.01535E-01  2.51241E+00  6.36827E-01 -3.20115E+00 -9.49933E-01  3.04829E+00  2.12781E+00  2.30376E+00  4.39348E+00  1.08505E+00
  -1.26282E-01  4.51423E+00  1.00857E+00  2.52204E+00  6.04841E-01  3.80677E+00  2.04333E+00  2.77224E+00  4.20005E+00  9.28827E-01
   4.30184E+00  2.79568E+00  2.38992E+00  2.13832E+00  1.57838E+00  3.49265E+00  2.36298E+00  3.55434E+00  1.68759E+00  3.40354E+00
  -6.23463E-03  4.01151E+00  3.12993E+00  3.05927E+00  4.36158E+00  4.68635E+00  9.66972E+00  9.59256E+00  1.42524E+01  1.82194E+01
   1.72539E+01  2.12177E+01  1.70109E+01  1.63785E+01  8.71983E+00  9.37794E+00  8.53752E+00  1.00259E+01  4.97309E+00  8.70786E+00
   4.92672E+00  5.28847E+00  6.30336E+00  3.63523E+00  2.96725E+00  2.11897E+00  2.15215E-02  4.31395E+00 -1.69660E-01  9.60890E-01
   3.57691E+00  2.21544E+00  2.70529E+00  2.19046E+00  1.99951E+00  2.98874E+00  2.59792E+00  2.49401E+00  2.75602E+00  1.40730E-01
   6.07881E+00  2.47476E+00  2.10227E+00  3.02360E+00  3.86749E+00  3.04258E+00  5.71485E-01  2.24753E+00  4.27001E+00  3.17539E+00
   6.03913E+00  5.37732E+00  2.92940E+00  4.35964E+00  5.88553E+00  4.84257E+00  3.17108E+00  4.42466E+00  5.66508E+00  5.17054E+00
   6.19977E+00  5.97396E+00  8.89779E-01  3.84587E+00  5.90877E+00  5.27041E+00  4.96601E+00  7.80868E+00  7.26611E+00  7.97892E+00
   1.13149E+01  6.49040E+00  7.53567E+00  6.16278E+00  6.80470E+00  1.02665E+01  8.94083E+00  8.58654E+00  6.18761E+00  7.38691E+00
   6.41617E+00  8.35137E+00  8.88587E+00  1.05829E+01  1.14284E+01  1.18996E+01  1.03054E+01  1.30631E+01  1.17474E+01  1.16981E+01
   9.78494E+00  1.27965E+01  1.57450E+01  1.28052E+01  1.28347E+01  1.08714E+01  1.10043E+01  1.21834E+01  1.04448E+01  1.07111E+01
   9.47622E+00  1.08248E+01  1.20428E+01  1.33854E+01  1.22037E+01  1.01464E+01  8.95273E+00  1.30184E+01  7.50062E+00  1.19842E+01
   1.33197E+01  1.49932E+01  1.38566E+01  1.31850E+01  1.15859E+01  1.44837E+01  1.40912E+01  1.27484E+01  1.46856E+01  1.00153E+01
   1.10025E+01  8.45383E+00  8.52947E+00  9.83480E+00  8.78057E+00  1.03616E+01  8.06985E+00  6.84762E+00  9.02264E+00  9.05624E+00
   7.98055E+00  9.23171E+00  8.87190E+00  5.98360E+00  8.85027E+00  8.49297E+00  7.84740E+00  7.22302E+00  8.43387E+00  8.64308E+00
   7.31964E+00  8.37778E+00  7.55248E+00  6.84130E+00  1.04836E+01  3.87124E+00  6.06044E+00  5.93705E+00  2.55262E+00  3.87919E+00
   5.20689E+00  7.13576E+00  6.54936E+00  3.57749E+00  4.34503E+00  4.80060E+00  4.17536E+00  4.44079E+00  6.11024E+00  2.57070E+00
   4.00007E+00  5.51288E+00  3.76391E+00  5.78763E+00  9.43334E-01  2.75666E+00  2.78224E+00  2.62537E+00  1.82704E+00  2.97162E+00
   1.28914E+00  3.35910E+00  2.23205E+00  3.61245E+00  3.04070E+00  2.34301E+00  2.98920E+00  2.90184E+00  1.01747E+00  2.26312E+00
   3.70393E+00 -4.63646E-01  1.26508E+00  2.72910E-01 -1.89135E+00  6.78405E+00  2.82728E+00  1.47646E+00  2.56823E-01  1.76894E-01
   5.17000E-01  1.55009E+00  6.80544E-01  1.04487E+00 -1.43581E-01  5.83784E-01  2.97700E+00 -4.45743E-01 -1.04905E+00  4.09885E+00
   2.02441E+00  1.78791E+00  1.09236E+00  4.42441E-01  1.67902E+00  3.08042E+00  2.15977E+00  1.37469E+00  2.69612E+00  5.93558E-01
   2.72538E+00  1.59124E+00 -1.69437E+00 -4.50576E-01  1.53505E+00  1.30916E+00 -1.18869E+00  2.30291E+00  4.33413E-01 -9.90101E-01
   7.11070E-01  3.44293E-01 -6.63678E-01  3.19575E-01  7.93746E-01  1.83293E+00  1.24607E+00  3.37339E+00  1.40064E+00  1.56458E+00
   1.82531E+00  2.72009E+00  6.18742E-01  1.21808E+00 -4.80897E-02  3.80284E+00 -1.24032E-01  2.47957E+00  6.08565E-01  1.53144E+00
   2.52707E+00 -5.32903E-01 -1.75555E-01 -6.24843E-01 -6.55192E-01 -2.05129E+00  1.77808E+00  2.16925E+00
 NY points of the fit to the data follow
  -3.17749E-01 -2.46572E-01 -9.70895E-02  2.42471E-01  8.54294E-01  1.65537E+00  2.52962E+00  3.33116E+00  3.90107E+00  4.11937E+00
   3.93060E+00  3.37843E+00  2.62472E+00  1.89047E+00  1.30504E+00  8.47925E-01  4.80487E-01  2.88495E-01  2.75195E-01  3.41679E-01
   4.46491E-01  5.34510E-01  5.40819E-01  4.98485E-01  5.31113E-01  6.61717E-01  9.08339E-01  1.30721E+00  1.83277E+00  2.39286E+00
   2.83505E+00  3.00747E+00  2.85338E+00  2.46220E+00  1.94670E+00  1.36145E+00  7.53183E-01  2.87939E-01  8.31877E-02  3.15353E-02
   7.94131E-02  2.22033E-01  4.34018E-01  6.69088E-01  8.84119E-01  1.05876E+00  1.16640E+00  1.18683E+00  1.10787E+00  9.32003E-01
   7.09802E-01  4.94710E-01  3.01317E-01  1.48163E-01  5.62577E-02  2.58578E-02  4.49103E-02  9.10230E-02  1.40987E-01  1.73121E-01
   1.75684E-01  1.44560E-01  8.53380E-02  2.20845E-02 -2.52630E-02 -5.11763E-02 -5.55618E-02 -3.94608E-02 -9.87518E-03  3.55420E-02
   1.05061E-01  1.90010E-01  2.75945E-01  3.44433E-01  3.77006E-01  3.64973E-01  3.10044E-01  2.29853E-01  1.41560E-01  8.39768E-02
   1.31235E-01  2.94770E-01  5.21974E-01  7.64027E-01  9.70075E-01  1.08383E+00  1.07795E+00  9.49514E-01  7.23806E-01  4.65996E-01
   2.53194E-01  1.10078E-01  1.23224E-02 -4.22961E-02 -6.77391E-03  1.56936E-01  6.57807E-01  1.79559E+00  3.47029E+00  5.44438E+00
   7.39741E+00  8.93642E+00  9.72104E+00  9.53677E+00  8.39310E+00  6.62700E+00  4.79415E+00  3.30809E+00  2.17121E+00  1.22465E+00
   5.83795E-01  3.80681E-01  3.31693E-01  3.21710E-01  3.25516E-01  3.33471E-01  3.48477E-01  3.70940E-01  4.09809E-01  4.90684E-01
   7.18354E-01  1.41587E+00  2.68314E+00  4.35185E+00  6.17686E+00  7.83036E+00  8.97827E+00  9.37570E+00  8.90853E+00  7.69460E+00
   6.12167E+00  4.62307E+00  3.36550E+00  2.25117E+00  1.26233E+00  6.72841E-01  4.41336E-01  4.01575E-01  4.98335E-01  6.61668E-01
   8.23179E-01  9.47399E-01  1.00712E+00  9.87195E-01  9.12017E-01  8.09324E-01  6.93979E-01  5.81975E-01  4.74419E-01  3.80890E-01
   3.05280E-01  2.42635E-01  1.94617E-01  1.63255E-01  1.46060E-01  1.26080E-01  8.22199E-02  1.21298E-02 -7.84149E-02 -1.65045E-01
  -2.19847E-01 -2.35509E-01 -2.13340E-01 -1.65777E-01 -1.17457E-01 -1.00862E-01 -1.35316E-01 -2.09938E-01 -2.95480E-01 -3.78353E-01
  -4.67694E-01 -5.75530E-01 -6.92969E-01 -7.90164E-01 -8.50421E-01 -8.82823E-01 -8.93689E-01 -8.78228E-01 -8.41008E-01 -8.04769E-01
  -7.91039E-01 -8.10069E-01 -8.45774E-01 -8.48623E-01 -7.92564E-01 -6.73399E-01 -4.66604E-01 -1.72728E-01  1.70027E-01  4.91477E-01
   7.08587E-01  7.77610E-01  6.98768E-01  5.24213E-01  3.30785E-01  1.76219E-01  1.01443E-01  1.45937E-01  3.20132E-01  6.10802E-01
   9.70550E-01  1.31896E+00  1.58710E+00  1.72509E+00  1.66129E+00  1.38224E+00  9.46744E-01  4.44774E-01 -5.72510E-03 -2.62410E-01
  -1.91290E-01  2.12062E-01  8.55860E-01  1.58903E+00  2.21653E+00  2.56317E+00  2.51307E+00  2.03110E+00  1.21195E+00  3.29435E-01
  -3.50118E-01 -6.91064E-01 -6.63735E-01 -2.75025E-01  4.23993E-01  1.20376E+00  1.83321E+00  2.23006E+00  2.43437E+00  2.52074E+00
   2.51777E+00  2.49282E+00  2.55100E+00  2.72079E+00  2.93805E+00  3.13790E+00  3.27150E+00  3.30014E+00  3.23113E+00  3.09320E+00
   2.94939E+00  2.88464E+00  2.95409E+00  3.14745E+00  3.40998E+00  3.70341E+00  3.96865E+00  4.14789E+00  4.24452E+00  4.31633E+00
   4.40557E+00  4.50195E+00  4.62124E+00  4.81228E+00  5.31302E+00  6.67075E+00  8.92570E+00  1.17875E+01  1.48234E+01  1.74378E+01
   1.90361E+01  1.91893E+01  1.77563E+01  1.51058E+01  1.20552E+01  9.37338E+00  7.24706E+00  5.45550E+00  4.05198E+00  3.38590E+00
   3.10671E+00  2.94563E+00  2.85550E+00  2.80386E+00  2.75957E+00  2.70883E+00  2.64038E+00  2.55373E+00  2.45704E+00  2.35957E+00
   2.26656E+00  2.18700E+00  2.12893E+00  2.09227E+00  2.07352E+00  2.06923E+00  2.07687E+00  2.09568E+00  2.12437E+00  2.16198E+00
   2.21037E+00  2.27046E+00  2.34202E+00  2.42507E+00  2.51973E+00  2.62520E+00  2.73970E+00  2.86163E+00  2.98945E+00  3.12095E+00
   3.25374E+00  3.38588E+00  3.51520E+00  3.63992E+00  3.75866E+00  3.87066E+00  3.97589E+00  4.07517E+00  4.16997E+00  4.26242E+00
   4.35523E+00  4.45189E+00  4.55624E+00  4.67243E+00  4.80486E+00  4.95812E+00  5.13711E+00  5.34749E+00  5.59678E+00  5.89809E+00
   6.28197E+00  6.78006E+00  7.31558E+00  7.78744E+00  8.11459E+00  8.23134E+00  8.10998E+00  7.76676E+00  7.27624E+00  6.85235E+00
   6.71254E+00  6.94328E+00  7.49791E+00  8.26285E+00  9.15083E+00  1.00725E+01  1.08274E+01  1.13062E+01  1.15400E+01  1.16455E+01
   1.17388E+01  1.18666E+01  1.19970E+01  1.21431E+01  1.22764E+01  1.23181E+01  1.22245E+01  1.19883E+01  1.16432E+01  1.13137E+01
   1.11383E+01  1.11891E+01  1.14509E+01  1.18431E+01  1.22895E+01  1.27379E+01  1.30806E+01  1.32277E+01  1.31948E+01  1.30494E+01
   1.28508E+01  1.26076E+01  1.23151E+01  1.20231E+01  1.17466E+01  1.14685E+01  1.11835E+01  1.08914E+01  1.05943E+01  1.02953E+01
   9.99782E+00  9.70556E+00  9.42216E+00  9.15119E+00  8.89588E+00  8.65914E+00  8.44340E+00  8.25063E+00  8.08216E+00  7.93881E+00
   7.82063E+00  7.72707E+00  7.65684E+00  7.60803E+00  7.57804E+00  7.56375E+00  7.56147E+00  7.56712E+00  7.57631E+00  7.58458E+00
   7.58741E+00  7.58050E+00  7.55985E+00  7.52198E+00  7.46401E+00  7.38384E+00  7.28012E+00  7.15240E+00  7.00100E+00  6.82710E+00
   6.63254E+00  6.41984E+00  6.19190E+00  5.95203E+00  5.70364E+00  5.45021E+00  5.19509E+00  4.94146E+00  4.69213E+00  4.44956E+00
   4.21577E+00  3.99239E+00  3.78058E+00  3.58115E+00  3.39450E+00  3.22074E+00  3.05968E+00  2.91100E+00  2.77411E+00  2.64842E+00
   2.53315E+00  2.42759E+00  2.33092E+00  2.24244E+00  2.16138E+00  2.08709E+00  2.01889E+00  1.95622E+00  1.89852E+00  1.84534E+00
   1.79621E+00  1.75076E+00  1.70862E+00  1.66949E+00  1.63308E+00  1.59917E+00  1.56751E+00  1.53793E+00  1.51022E+00  1.48426E+00
   1.45989E+00  1.43700E+00  1.41545E+00  1.39517E+00  1.37604E+00  1.35801E+00  1.34096E+00  1.32487E+00  1.30964E+00  1.29523E+00
   1.28158E+00  1.26865E+00  1.25639E+00  1.24478E+00  1.23376E+00  1.22330E+00  1.21336E+00  1.20394E+00  1.19499E+00  1.18649E+00
   1.17841E+00  1.17074E+00  1.16344E+00  1.15652E+00  1.14994E+00  1.14370E+00  1.13775E+00  1.13212E+00  1.12676E+00  1.12170E+00
   1.11688E+00  1.11231E+00  1.10798E+00  1.10389E+00  1.10001E+00  1.09635E+00  1.09288E+00  1.08962E+00  1.08652E+00  1.08362E+00
   1.08089E+00  1.07833E+00  1.07592E+00  1.07367E+00  1.07156E+00  1.06961E+00  1.06778E+00  1.06610E+00  1.06454E+00  1.06312E+00
   1.06180E+00  1.06062E+00  1.05955E+00  1.05859E+00  1.05774E+00  1.05700E+00  1.05637E+00  1.05585E+00
 NY background values follow
    -8.677E-01   -8.644E-01   -8.610E-01   -8.577E-01   -8.544E-01   -8.511E-01   -8.477E-01   -8.444E-01   -8.411E-01   -8.377E-01
    -8.344E-01   -8.311E-01   -8.278E-01   -8.244E-01   -8.211E-01   -8.178E-01   -8.144E-01   -8.111E-01   -8.078E-01   -8.045E-01
    -8.011E-01   -7.978E-01   -7.945E-01   -7.911E-01   -7.878E-01   -7.845E-01   -7.812E-01   -7.778E-01   -7.745E-01   -7.712E-01
    -7.678E-01   -7.645E-01   -7.612E-01   -7.579E-01   -7.545E-01   -7.512E-01   -7.479E-01   -7.445E-01   -7.412E-01   -7.379E-01
    -7.345E-01   -7.312E-01   -7.279E-01   -7.246E-01   -7.212E-01   -7.179E-01   -7.146E-01   -7.112E-01   -7.079E-01   -7.046E-01
    -7.013E-01   -6.979E-01   -6.946E-01   -6.913E-01   -6.879E-01   -6.846E-01   -6.813E-01   -6.780E-01   -6.746E-01   -6.713E-01
    -6.680E-01   -6.646E-01   -6.613E-01   -6.580E-01   -6.547E-01   -6.513E-01   -6.480E-01   -6.447E-01   -6.413E-01   -6.380E-01
    -6.347E-01   -6.313E-01   -6.280E-01   -6.247E-01   -6.214E-01   -6.180E-01   -6.147E-01   -6.114E-01   -6.080E-01   -6.047E-01
    -6.014E-01   -5.981E-01   -5.947E-01   -5.914E-01   -5.881E-01   -5.847E-01   -5.814E-01   -5.781E-01   -5.748E-01   -5.714E-01
    -5.681E-01   -5.648E-01   -5.614E-01   -5.581E-01   -5.548E-01   -5.514E-01   -5.481E-01   -5.448E-01   -5.415E-01   -5.381E-01
    -5.348E-01   -5.315E-01   -5.281E-01   -5.248E-01   -5.215E-01   -5.182E-01   -5.148E-01   -5.115E-01   -5.082E-01   -5.048E-01
    -5.015E-01   -4.982E-01   -4.949E-01   -4.915E-01   -4.882E-01   -4.849E-01   -4.815E-01   -4.782E-01   -4.749E-01   -4.715E-01
    -4.682E-01   -4.649E-01   -4.616E-01   -4.582E-01   -4.549E-01   -4.516E-01   -4.482E-01   -4.449E-01   -4.416E-01   -4.383E-01
    -4.349E-01   -4.316E-01   -4.283E-01   -4.249E-01   -4.216E-01   -4.183E-01   -4.150E-01   -4.116E-01   -4.083E-01   -4.050E-01
    -4.016E-01   -3.983E-01   -3.950E-01   -3.916E-01   -3.883E-01   -3.850E-01   -3.817E-01   -3.783E-01   -3.750E-01   -3.717E-01
    -3.683E-01   -3.650E-01   -3.617E-01   -3.584E-01   -3.550E-01   -3.517E-01   -3.484E-01   -3.450E-01   -3.417E-01   -3.384E-01
    -3.350E-01   -3.317E-01   -3.284E-01   -3.251E-01   -3.217E-01   -3.184E-01   -3.151E-01   -3.117E-01   -3.084E-01   -3.051E-01
    -3.017E-01   -2.984E-01   -2.951E-01   -2.918E-01   -2.884E-01   -2.851E-01   -2.818E-01   -2.784E-01   -2.751E-01   -2.718E-01
    -2.685E-01   -2.651E-01   -2.618E-01   -2.585E-01   -2.551E-01   -2.518E-01   -2.485E-01   -2.451E-01   -2.418E-01   -2.385E-01
    -2.352E-01   -2.318E-01   -2.285E-01   -2.252E-01   -2.218E-01   -2.185E-01   -2.152E-01   -2.118E-01   -2.085E-01   -2.052E-01
    -2.019E-01   -1.985E-01   -1.952E-01   -1.919E-01   -1.885E-01   -1.852E-01   -1.819E-01   -1.785E-01   -1.752E-01   -1.719E-01
    -1.686E-01   -1.652E-01   -1.619E-01   -1.586E-01   -1.552E-01   -1.519E-01   -1.486E-01   -1.452E-01   -1.419E-01   -1.386E-01
    -1.353E-01   -1.319E-01   -1.286E-01   -1.253E-01   -1.219E-01   -1.186E-01   -1.153E-01   -1.119E-01   -1.086E-01   -1.053E-01
    -1.020E-01   -9.862E-02   -9.529E-02   -9.196E-02   -8.863E-02   -8.530E-02   -8.197E-02   -7.864E-02   -7.531E-02   -7.198E-02
    -6.865E-02   -6.532E-02   -6.199E-02   -5.866E-02   -5.533E-02   -5.200E-02   -4.867E-02   -4.534E-02   -4.201E-02   -3.868E-02
    -3.535E-02   -3.202E-02   -2.869E-02   -2.536E-02   -2.203E-02   -1.870E-02   -1.537E-02   -1.204E-02   -8.711E-03   -5.381E-03
    -2.050E-03    1.280E-03    4.610E-03    7.940E-03    1.127E-02    1.460E-02    1.793E-02    2.126E-02    2.459E-02    2.792E-02
     3.125E-02    3.458E-02    3.791E-02    4.124E-02    4.457E-02    4.790E-02    5.123E-02    5.456E-02    5.789E-02    6.122E-02
     6.455E-02    6.788E-02    7.121E-02    7.454E-02    7.787E-02    8.120E-02    8.453E-02    8.786E-02    9.119E-02    9.452E-02
     9.785E-02    1.012E-01    1.045E-01    1.078E-01    1.112E-01    1.145E-01    1.178E-01    1.212E-01    1.245E-01    1.278E-01
     1.311E-01    1.345E-01    1.378E-01    1.411E-01    1.445E-01    1.478E-01    1.511E-01    1.545E-01    1.578E-01    1.611E-01
     1.644E-01    1.678E-01    1.711E-01    1.744E-01    1.778E-01    1.811E-01    1.844E-01    1.878E-01    1.911E-01    1.944E-01
     1.977E-01    2.011E-01    2.044E-01    2.077E-01    2.111E-01    2.144E-01    2.177E-01    2.210E-01    2.244E-01    2.277E-01
     2.310E-01    2.344E-01    2.377E-01    2.410E-01    2.444E-01    2.477E-01    2.510E-01    2.543E-01    2.577E-01    2.610E-01
     2.643E-01    2.677E-01    2.710E-01    2.743E-01    2.776E-01    2.810E-01    2.843E-01    2.876E-01    2.910E-01    2.943E-01
     2.976E-01    3.010E-01    3.043E-01    3.076E-01    3.109E-01    3.143E-01    3.176E-01    3.209E-01    3.243E-01    3.276E-01
     3.309E-01    3.342E-01    3.376E-01    3.409E-01    3.442E-01    3.476E-01    3.509E-01    3.542E-01    3.575E-01    3.609E-01
     3.642E-01    3.675E-01    3.709E-01    3.742E-01    3.775E-01    3.809E-01    3.842E-01    3.875E-01    3.908E-01    3.942E-01
     3.975E-01    4.008E-01    4.042E-01    4.075E-01    4.108E-01    4.141E-01    4.175E-01    4.208E-01    4.241E-01    4.275E-01
     4.308E-01    4.341E-01    4.374E-01    4.408E-01    4.441E-01    4.474E-01    4.508E-01    4.541E-01    4.574E-01    4.607E-01
     4.641E-01    4.674E-01    4.707E-01    4.741E-01    4.774E-01    4.807E-01    4.840E-01    4.874E-01    4.907E-01    4.940E-01
     4.974E-01    5.007E-01    5.040E-01    5.074E-01    5.107E-01    5.140E-01    5.173E-01    5.207E-01    5.240E-01    5.273E-01
     5.307E-01    5.340E-01    5.373E-01    5.406E-01    5.440E-01    5.473E-01    5.506E-01    5.540E-01    5.573E-01    5.606E-01
     5.639E-01    5.673E-01    5.706E-01    5.739E-01    5.773E-01    5.806E-01    5.839E-01    5.872E-01    5.906E-01    5.939E-01
     5.972E-01    6.006E-01    6.039E-01    6.072E-01    6.105E-01    6.139E-01    6.172E-01    6.205E-01    6.239E-01    6.272E-01
     6.305E-01    6.338E-01    6.372E-01    6.405E-01    6.438E-01    6.472E-01    6.505E-01    6.538E-01    6.571E-01    6.605E-01
     6.638E-01    6.671E-01    6.705E-01    6.738E-01    6.771E-01    6.804E-01    6.838E-01    6.871E-01    6.904E-01    6.938E-01
     6.971E-01    7.004E-01    7.037E-01    7.071E-01    7.104E-01    7.137E-01    7.171E-01    7.204E-01    7.237E-01    7.270E-01
     7.304E-01    7.337E-01    7.370E-01    7.404E-01    7.437E-01    7.470E-01    7.503E-01    7.537E-01    7.570E-01    7.603E-01
     7.637E-01    7.670E-01    7.703E-01    7.736E-01    7.770E-01    7.803E-01    7.836E-01    7.870E-01
 Ala      Conc. = 1.45E+02
