 LCModel (Version 6.3-1L) Copyright: S.W. Provencher.          Ref.: Magn. Reson. Med. 30:672-679 (1993).                
 Slice#1 Row#2 Col#3  PD_05_press_1_raw_act
 36 lines in following concentration table = NCONC+1
    Conc.  %SD /Cr+PCr  Metabolite                                         
  199.955  49%   1.588 Ala                                                 
   10.827  45% 8.6E-02 Asp                                                 
    0.000 999%   0.000 Cr                                                  
  125.932  21%   1.000 PCr                                                 
    6.489  45% 5.2E-02 GABA                                                
    6.577  45% 5.2E-02 Glc                                                 
  145.417 152%   1.155 Gln                                                 
  186.831 128%   1.484 Glu                                                 
   30.615  32%   0.243 GPC                                                 
    0.000 999%   0.000 PCh                                                 
   80.027  56%   0.635 GSH                                                 
  339.303  35%   2.694 Ins                                                 
    0.000 999%   0.000 Lac                                                 
    0.000 999%   0.000 NAA                                                 
    0.000 999%   0.000 NAAG                                                
    2.224  44% 1.8E-02 Scyllo                                              
   10.954  45% 8.7E-02 Tau                                                 
    8.056 141% 6.4E-02 -CrCH2                                              
   30.615  32%   0.243 GPC+PCh                                             
    0.000 999%   0.000 NAA+NAAG                                            
  125.932  21%   1.000 Cr+PCr                                              
  332.249 120%   2.638 Glu+Gln                                             
 1.36E+03   9%  10.826 Lip13a                                              
    0.000 999%   0.000 Lip13b                                              
   36.263 161%   0.288 Lip09                                               
    0.000 999%   0.000 MM09                                                
  150.070  40%   1.192 Lip20                                               
    0.000 999%   0.000 MM20                                                
 5.04E-04 999% 4.0E-06 MM12                                                
 1.78E-02 999% 1.4E-04 MM14                                                
    0.000 999%   0.000 MM17                                                
 1.36E+03   9%  10.826 Lip13a+Lip13b                                       
 1.36E+03   9%  10.827 MM14+Lip13a+Lip13b+MM12                             
   36.263 161%   0.288 MM09+Lip09                                          
  150.070  40%   1.192 MM20+Lip20                                          
   6 lines in following misc. output table
  FWHM = 0.092 ppm    S/N =   2                                            
  Data shift = 0.015 ppm                                                   
  Ph: 123 deg     -12.5 deg/ppm                                            
  alphaB,S = 8.5E+01,   2.0E+02                                            
   14 spline knots.   Ns = 9(1)                                            
   2 inflections.     1 extrema                                            
  498 points on ppm-axis = NY
      4.000000     3.992357     3.984714     3.977070     3.969427     3.961784     3.954141     3.946497     3.938854     3.931211
      3.923568     3.915925     3.908281     3.900638     3.892995     3.885352     3.877708     3.870065     3.862422     3.854779
      3.847136     3.839492     3.831849     3.824206     3.816563     3.808919     3.801276     3.793633     3.785990     3.778347
      3.770703     3.763060     3.755417     3.747774     3.740130     3.732487     3.724844     3.717201     3.709558     3.701914
      3.694271     3.686628     3.678985     3.671341     3.663698     3.656055     3.648412     3.640769     3.633125     3.625482
      3.617839     3.610196     3.602552     3.594909     3.587266     3.579623     3.571980     3.564336     3.556693     3.549050
      3.541407     3.533763     3.526120     3.518477     3.510834     3.503191     3.495547     3.487904     3.480261     3.472618
      3.464974     3.457331     3.449688     3.442045     3.434402     3.426758     3.419115     3.411472     3.403829     3.396185
      3.388542     3.380899     3.373256     3.365613     3.357969     3.350326     3.342683     3.335040     3.327396     3.319753
      3.312110     3.304467     3.296824     3.289180     3.281537     3.273894     3.266251     3.258607     3.250964     3.243321
      3.235678     3.228034     3.220391     3.212748     3.205105     3.197462     3.189818     3.182175     3.174532     3.166889
      3.159245     3.151602     3.143959     3.136316     3.128673     3.121029     3.113386     3.105743     3.098100     3.090456
      3.082813     3.075170     3.067527     3.059884     3.052240     3.044597     3.036954     3.029311     3.021667     3.014024
      3.006381     2.998738     2.991095     2.983451     2.975808     2.968165     2.960522     2.952878     2.945235     2.937592
      2.929949     2.922306     2.914662     2.907019     2.899376     2.891733     2.884089     2.876446     2.868803     2.861160
      2.853517     2.845873     2.838230     2.830587     2.822944     2.815300     2.807657     2.800014     2.792371     2.784728
      2.777084     2.769441     2.761798     2.754155     2.746511     2.738868     2.731225     2.723582     2.715939     2.708295
      2.700652     2.693009     2.685366     2.677722     2.670079     2.662436     2.654793     2.647150     2.639506     2.631863
      2.624220     2.616577     2.608933     2.601290     2.593647     2.586004     2.578361     2.570717     2.563074     2.555431
      2.547788     2.540144     2.532501     2.524858     2.517215     2.509572     2.501928     2.494285     2.486642     2.478999
      2.471355     2.463712     2.456069     2.448426     2.440783     2.433139     2.425496     2.417853     2.410210     2.402566
      2.394923     2.387280     2.379637     2.371994     2.364350     2.356707     2.349064     2.341421     2.333777     2.326134
      2.318491     2.310848     2.303205     2.295561     2.287918     2.280275     2.272632     2.264988     2.257345     2.249702
      2.242059     2.234416     2.226772     2.219129     2.211486     2.203843     2.196199     2.188556     2.180913     2.173270
      2.165627     2.157983     2.150340     2.142697     2.135054     2.127410     2.119767     2.112124     2.104481     2.096838
      2.089194     2.081551     2.073908     2.066265     2.058621     2.050978     2.043335     2.035692     2.028049     2.020405
      2.012762     2.005119     1.997476     1.989833     1.982190     1.974546     1.966903     1.959260     1.951617     1.943974
      1.936331     1.928688     1.921045     1.913402     1.905759     1.898115     1.890472     1.882829     1.875186     1.867543
      1.859900     1.852257     1.844614     1.836971     1.829327     1.821684     1.814041     1.806398     1.798755     1.791112
      1.783469     1.775826     1.768183     1.760540     1.752896     1.745253     1.737610     1.729967     1.722324     1.714681
      1.707038     1.699395     1.691752     1.684108     1.676465     1.668822     1.661179     1.653536     1.645893     1.638250
      1.630607     1.622964     1.615321     1.607677     1.600034     1.592391     1.584748     1.577105     1.569462     1.561819
      1.554176     1.546533     1.538890     1.531246     1.523603     1.515960     1.508317     1.500674     1.493031     1.485388
      1.477745     1.470102     1.462458     1.454815     1.447172     1.439529     1.431886     1.424243     1.416600     1.408957
      1.401314     1.393671     1.386027     1.378384     1.370741     1.363098     1.355455     1.347812     1.340169     1.332526
      1.324883     1.317240     1.309596     1.301953     1.294310     1.286667     1.279024     1.271381     1.263738     1.256095
      1.248452     1.240808     1.233165     1.225522     1.217879     1.210236     1.202593     1.194950     1.187307     1.179664
      1.172021     1.164377     1.156734     1.149091     1.141448     1.133805     1.126162     1.118519     1.110876     1.103233
      1.095590     1.087946     1.080303     1.072660     1.065017     1.057374     1.049731     1.042088     1.034445     1.026802
      1.019158     1.011515     1.003872     0.996229     0.988586     0.980943     0.973300     0.965657     0.958014     0.950371
      0.942727     0.935084     0.927441     0.919798     0.912155     0.904512     0.896869     0.889226     0.881583     0.873940
      0.866296     0.858653     0.851010     0.843367     0.835724     0.828081     0.820438     0.812795     0.805152     0.797508
      0.789865     0.782222     0.774579     0.766936     0.759293     0.751650     0.744007     0.736364     0.728721     0.721077
      0.713434     0.705791     0.698148     0.690505     0.682862     0.675219     0.667576     0.659933     0.652290     0.644646
      0.637003     0.629360     0.621717     0.614074     0.606431     0.598788     0.591145     0.583502     0.575858     0.568215
      0.560572     0.552929     0.545286     0.537643     0.530000     0.522357     0.514714     0.507071     0.499427     0.491784
      0.484141     0.476498     0.468855     0.461212     0.453569     0.445925     0.438282     0.430639     0.422996     0.415353
      0.407710     0.400067     0.392424     0.384780     0.377137     0.369494     0.361851     0.354208     0.346565     0.338922
      0.331278     0.323635     0.315992     0.308349     0.300706     0.293063     0.285420     0.277777     0.270133     0.262490
      0.254847     0.247204     0.239561     0.231918     0.224275     0.216631     0.208988     0.201345
 NY phased data points follow
   4.06070E+00  5.41612E+00  2.03108E+00  2.66016E+00  3.58612E+00  6.10332E+00  8.20216E+00  5.76454E+00  5.52909E+00  3.42041E+00
   4.32432E+00  2.28276E+00  7.45409E+00  5.50729E+00  4.89587E+00  4.67415E+00  5.25348E+00  5.45421E+00  3.75116E+00  2.68229E+00
   4.44840E+00  6.17264E+00  3.78823E+00  4.38796E+00  3.28844E+00  4.45407E+00  1.97892E+00  5.52283E+00  3.80147E+00  4.66878E+00
   2.50907E+00  5.51878E+00  3.42923E+00  4.50668E+00  5.41800E+00  3.08214E+00  4.42719E+00  1.81358E+00  3.81950E+00  2.14364E+00
   3.93590E+00  2.39725E+00  5.04024E+00  4.52936E+00  2.84468E+00  3.05986E+00  1.51047E+00  2.65193E+00  5.02967E+00  5.32255E+00
   2.83049E+00  1.34850E+00  5.86384E+00  4.28301E+00  2.66255E+00  4.44337E+00  3.74651E+00  4.11129E+00  4.28820E+00  2.79025E+00
   4.44609E+00  2.97889E+00  5.72905E+00  1.77423E+00  5.23405E+00  1.45378E+00 -6.86551E-01  2.29168E+00  2.45130E+00  4.07534E+00
   3.19146E+00  3.69337E+00  5.29017E+00  3.58840E+00  5.65607E+00  4.41842E+00  1.64352E+00  4.29196E+00 -7.57132E-01  1.68937E+00
   3.40696E+00  2.09817E+00  2.93211E+00  3.15398E+00  4.50096E+00  2.57902E+00 -1.92098E-01  3.71561E+00  4.47849E+00  2.38687E+00
   1.99945E+00  4.06836E+00  1.72526E+00  1.34489E+00 -9.03223E-02  2.84316E+00  2.86421E-01  3.48021E+00  4.72395E+00  2.88022E+00
   3.19748E+00  4.08242E+00  4.28818E+00  1.69689E+00  2.16174E+00  2.65933E+00  5.21648E+00  4.47012E+00  5.52787E+00  1.45289E+00
   2.03159E+00  5.01123E+00  3.18979E+00  8.21034E-01  2.03179E+00  2.08674E+00  3.76839E+00  2.18855E+00  2.02655E+00  3.77079E+00
   2.42439E+00  1.28162E+00  4.02721E-02  4.90792E+00  3.96048E+00  2.54705E+00  2.58243E+00  4.60097E+00  3.57533E+00  3.96302E+00
   6.34895E+00  5.16707E+00  3.29625E+00  4.59967E+00  3.85547E+00  4.55181E+00  5.01265E+00  4.76197E+00  1.77111E+00  2.48118E+00
  -2.50115E-01  1.15425E-01  4.20175E+00  3.53179E+00  2.22022E+00  4.72775E+00  1.48290E+00  1.02515E+00  1.34416E+00  2.66297E+00
   1.70602E+00  1.75566E+00  3.35198E+00 -8.29678E-01  4.16200E+00  9.78851E-01  1.61443E+00  7.16790E-01  2.05148E+00  1.88898E+00
   4.02510E+00  4.60421E+00  2.31928E+00  4.63660E+00  1.36626E+00  3.15639E+00  4.80133E-01  3.01117E+00  1.56259E+00  3.25054E+00
  -3.74151E-01  2.29028E+00  3.16027E+00  2.25863E+00  4.03072E+00  2.66876E+00  3.81140E+00  2.36801E+00  2.31009E+00  2.34276E+00
   1.29282E+00  2.33193E+00  3.10998E+00  2.64682E+00  5.14416E+00  1.74986E+00  1.61627E+00 -2.49751E-01  1.56957E+00  3.20132E+00
   4.29687E+00  1.23656E+00  3.49110E-01  1.09904E+00  3.12774E+00  2.95551E+00  5.32970E+00  2.81186E+00  2.56882E+00  1.94334E+00
   2.86979E+00  2.30596E+00  4.57351E+00  2.78843E+00  2.10978E+00  3.22269E-01 -8.40605E-02  2.75745E+00  4.56922E+00 -1.35962E+00
   4.53572E+00  1.67575E+00  1.81897E+00  1.90864E+00  1.67397E+00  5.41626E-01  2.86141E+00  1.18361E+00  2.32873E+00  4.01200E+00
   3.31203E+00  1.16653E+00 -1.58548E+00  1.34427E+00  3.72923E+00  2.16016E+00  2.13189E+00  2.21868E+00  1.19926E+00  1.12014E+00
   1.41365E+00  8.77298E-01  1.98975E+00  1.81432E+00  2.79683E+00  4.14196E+00  2.08034E+00  3.02293E+00  1.33069E+00  2.98574E+00
   7.84149E-01  1.74992E+00  1.15440E+00  3.55382E+00  2.54911E+00  1.84931E+00  5.31777E-01  1.96261E+00 -8.71144E-01  2.46196E+00
   1.06436E-01  6.08269E-01  1.86497E+00 -1.90086E+00 -2.57618E+00 -6.81147E-01  7.72317E-01 -2.93467E-01  9.19384E-01  1.93669E+00
   1.07131E+00  5.24497E+00  3.20183E+00  8.42521E-01  2.34256E+00  3.80618E+00  3.32501E+00  1.51803E+00  2.88215E+00 -1.32235E+00
  -1.04883E+00  4.34419E+00  1.78222E-01  2.79953E-01  2.89084E+00  1.71373E+00  3.50817E+00  3.62145E+00  2.96017E+00  1.48776E-01
   1.08485E-02 -2.30510E-01  7.54995E-01 -3.20966E-01  1.36839E+00 -3.39199E-01  1.45494E+00  1.37648E-01  1.55966E+00  3.27565E+00
   3.20526E+00  1.60534E+00  2.63344E+00  2.01271E+00  1.71986E+00  3.25619E+00  7.32682E-01  2.22253E+00  2.77544E+00 -7.79680E-01
  -4.57631E-01 -1.84814E-01  2.28569E+00  1.76828E+00  3.90851E+00  2.46864E+00  3.81158E-01  2.23654E+00  3.01378E+00  3.82328E+00
   8.81794E-01  5.96901E-01  1.04032E-01  2.78304E+00  1.91246E+00  4.52293E+00  1.95121E+00  3.62828E+00  3.46053E+00  1.64605E+00
   3.94611E+00  3.42285E+00  3.04000E+00  2.77186E+00  2.40670E+00  3.20364E+00  2.96855E+00  3.81871E+00 -6.41396E-01  3.14566E+00
   2.94429E+00  4.14991E+00  3.37496E-01  5.92894E+00  3.80069E+00  5.35376E+00  4.90722E+00  5.00886E+00  3.44751E+00  3.70944E+00
   7.78611E+00  5.12901E+00  6.64057E+00  6.14116E+00  9.92714E+00  5.22708E+00  6.39365E+00  1.02881E+01  6.09991E+00  7.37063E+00
   5.90094E+00  6.45575E+00  7.05832E+00  9.23553E+00  9.63892E+00  9.48773E+00  8.28270E+00  7.78380E+00  6.87606E+00  4.48032E+00
   6.40633E+00  5.39493E+00  4.72860E+00  4.90766E+00  4.41955E+00  3.40810E+00  4.70452E+00  5.39511E+00  4.74088E+00  4.57842E+00
   4.74583E+00  4.54616E+00  5.57048E+00  4.30024E+00  6.73413E+00  4.13165E+00  3.04946E+00  4.26671E+00  3.52610E+00  3.34132E+00
   9.43667E-01  2.48385E+00  1.72540E+00  1.91309E+00  1.81962E+00 -4.34056E-01  3.17530E+00  1.59967E+00 -5.02013E-01 -3.46279E-01
  -8.85515E-02  1.66580E+00 -1.82051E+00  1.88179E+00 -3.50643E+00  5.56478E-01  7.55198E-01 -9.66635E-01 -1.88185E-01 -2.02331E+00
  -1.42616E+00  2.24501E+00 -1.79282E+00  4.65104E-02  1.23814E-01  1.17522E+00  4.21030E-01  3.62939E-01  2.25724E-01 -1.30773E-01
   9.81782E-01 -2.08193E+00  8.08665E-01  2.89941E+00  2.46594E+00 -4.46484E-01  3.04827E+00  9.54933E-01  6.58069E-02  1.62143E+00
   1.96534E+00  2.24711E+00  2.58886E+00  1.43383E+00 -1.89715E+00 -1.58906E+00  4.32536E-01  2.48785E+00 -1.63882E+00  9.37773E-01
   1.21530E+00  5.30338E+00  1.55103E+00  3.03174E+00  2.80912E+00  3.04096E+00 -1.32396E-01  1.27441E-01  4.42147E+00  1.93002E+00
   1.98124E+00  2.70950E+00  1.35884E+00  2.77809E+00 -3.74194E-01  1.77081E+00  6.41262E-01 -3.53737E-01  1.09442E+00  1.32108E+00
  -4.45125E-01  8.45930E-01  2.06103E+00  2.54991E+00  1.27998E+00  1.70388E+00 -1.58877E-01  2.49102E+00  1.42450E+00  1.84009E+00
   1.39943E-01  1.32591E+00  2.39174E+00  1.66121E+00  1.21198E+00 -4.66798E-01  1.88618E+00  1.47756E+00  8.95015E-01  1.64168E+00
   1.49970E+00 -5.69039E-02  1.19029E+00 -2.27012E+00  2.26377E+00  1.72915E+00 -1.56258E+00  1.78228E+00  7.04139E-01  2.46850E+00
   2.05460E-01 -2.98710E+00  5.28253E-01  3.01723E+00  1.88706E+00 -1.36745E+00 -1.60666E+00 -3.37559E-02  8.94327E-01 -6.29432E-01
   1.05801E+00  1.00191E+00 -3.72588E-01  1.92188E+00  7.01519E-01 -6.61945E-01 -1.77365E+00  8.79272E-01
 NY points of the fit to the data follow
   3.79698E+00  3.74522E+00  3.75907E+00  3.83918E+00  3.97614E+00  4.12617E+00  4.26641E+00  4.39290E+00  4.49158E+00  4.55237E+00
   4.57587E+00  4.56500E+00  4.51896E+00  4.43399E+00  4.30834E+00  4.14636E+00  3.96336E+00  3.76644E+00  3.55997E+00  3.36529E+00
   3.23497E+00  3.20940E+00  3.24140E+00  3.31338E+00  3.42884E+00  3.58241E+00  3.75351E+00  3.91511E+00  4.04548E+00  4.13216E+00
   4.17960E+00  4.19776E+00  4.19268E+00  4.16888E+00  4.12810E+00  4.06926E+00  3.98717E+00  3.86328E+00  3.71267E+00  3.58593E+00
   3.53415E+00  3.57573E+00  3.66167E+00  3.76131E+00  3.86578E+00  3.95725E+00  4.01546E+00  4.03766E+00  4.03456E+00  4.00885E+00
   3.95874E+00  3.88137E+00  3.77286E+00  3.64143E+00  3.49249E+00  3.33013E+00  3.16821E+00  3.04060E+00  2.98861E+00  3.01292E+00
   3.06891E+00  3.11914E+00  3.15362E+00  3.17652E+00  3.18685E+00  3.18173E+00  3.16238E+00  3.13316E+00  3.09768E+00  3.06397E+00
   3.04967E+00  3.06151E+00  3.08998E+00  3.12223E+00  3.14124E+00  3.13849E+00  3.11211E+00  3.06520E+00  2.99908E+00  2.91173E+00
   2.80267E+00  2.67614E+00  2.54417E+00  2.42303E+00  2.31641E+00  2.22749E+00  2.15963E+00  2.11465E+00  2.08940E+00  2.07652E+00
   2.07144E+00  2.07298E+00  2.08537E+00  2.12537E+00  2.23760E+00  2.43571E+00  2.69567E+00  2.98246E+00  3.24989E+00  3.46455E+00
   3.61387E+00  3.70458E+00  3.74929E+00  3.76101E+00  3.74949E+00  3.71740E+00  3.65655E+00  3.55617E+00  3.40538E+00  3.20054E+00
   2.95315E+00  2.68369E+00  2.42742E+00  2.23818E+00  2.16024E+00  2.14832E+00  2.15595E+00  2.18648E+00  2.28423E+00  2.49540E+00
   2.79977E+00  3.16189E+00  3.54195E+00  3.90057E+00  4.21179E+00  4.46557E+00  4.65608E+00  4.78088E+00  4.83884E+00  4.82496E+00
   4.73130E+00  4.55027E+00  4.28344E+00  3.94501E+00  3.55555E+00  3.14230E+00  2.74272E+00  2.41576E+00  2.23362E+00  2.18144E+00
   2.16637E+00  2.16417E+00  2.17439E+00  2.19923E+00  2.23814E+00  2.27863E+00  2.30044E+00  2.29697E+00  2.27107E+00  2.22943E+00
   2.18421E+00  2.14473E+00  2.11538E+00  2.09653E+00  2.08204E+00  2.06951E+00  2.05824E+00  2.04806E+00  2.03910E+00  2.03188E+00
   2.02670E+00  2.02231E+00  2.01778E+00  2.01270E+00  2.00689E+00  2.00010E+00  1.99236E+00  1.98463E+00  1.97687E+00  1.96820E+00
   1.95787E+00  1.94553E+00  1.93139E+00  1.91560E+00  1.89809E+00  1.87908E+00  1.85747E+00  1.83297E+00  1.80691E+00  1.78055E+00
   1.75623E+00  1.73867E+00  1.73295E+00  1.74188E+00  1.76333E+00  1.78983E+00  1.81356E+00  1.82590E+00  1.81864E+00  1.78913E+00
   1.74534E+00  1.69828E+00  1.66001E+00  1.64138E+00  1.64621E+00  1.67017E+00  1.70735E+00  1.75325E+00  1.80082E+00  1.84466E+00
   1.88094E+00  1.89874E+00  1.89829E+00  1.88782E+00  1.87019E+00  1.84983E+00  1.83575E+00  1.83690E+00  1.84825E+00  1.86482E+00
   1.88907E+00  1.91699E+00  1.94429E+00  1.96427E+00  1.97242E+00  1.97744E+00  1.99494E+00  2.02444E+00  2.05563E+00  2.07520E+00
   2.06293E+00  2.00463E+00  1.92218E+00  1.83839E+00  1.76646E+00  1.72622E+00  1.73696E+00  1.80343E+00  1.90349E+00  2.01900E+00
   2.13410E+00  2.23002E+00  2.28909E+00  2.29783E+00  2.25910E+00  2.19895E+00  2.13635E+00  2.07682E+00  2.02692E+00  1.99151E+00
   1.96845E+00  1.94724E+00  1.91597E+00  1.87457E+00  1.83474E+00  1.80305E+00  1.78084E+00  1.77171E+00  1.79040E+00  1.83458E+00
   1.88583E+00  1.93643E+00  1.98512E+00  2.02238E+00  2.03832E+00  2.04723E+00  2.05857E+00  2.07072E+00  2.07993E+00  2.08511E+00
   2.08228E+00  2.07003E+00  2.05255E+00  2.03399E+00  2.01872E+00  2.00810E+00  2.00053E+00  1.99164E+00  1.97704E+00  1.95347E+00
   1.92386E+00  1.89516E+00  1.87074E+00  1.85077E+00  1.83579E+00  1.82608E+00  1.81847E+00  1.81130E+00  1.80580E+00  1.80032E+00
   1.79316E+00  1.78336E+00  1.77077E+00  1.75626E+00  1.74269E+00  1.73227E+00  1.72513E+00  1.72089E+00  1.71913E+00  1.71918E+00
   1.72032E+00  1.72176E+00  1.72314E+00  1.72480E+00  1.72699E+00  1.72985E+00  1.73365E+00  1.73860E+00  1.74472E+00  1.75196E+00
   1.76043E+00  1.77028E+00  1.78152E+00  1.79423E+00  1.80859E+00  1.82474E+00  1.84289E+00  1.86332E+00  1.88638E+00  1.91249E+00
   1.94222E+00  1.97634E+00  2.01587E+00  2.06229E+00  2.11779E+00  2.18585E+00  2.27276E+00  2.39244E+00  2.56719E+00  2.77267E+00
   2.95699E+00  3.08500E+00  3.13254E+00  3.08789E+00  2.95281E+00  2.73893E+00  2.49848E+00  2.30093E+00  2.17628E+00  2.13085E+00
   2.15419E+00  2.22817E+00  2.34110E+00  2.49528E+00  2.70468E+00  2.98980E+00  3.37548E+00  3.88054E+00  4.47944E+00  5.06212E+00
   5.55561E+00  5.95425E+00  6.25462E+00  6.45391E+00  6.55835E+00  6.60572E+00  6.68236E+00  6.82349E+00  6.98597E+00  7.14409E+00
   7.28442E+00  7.39809E+00  7.47866E+00  7.52148E+00  7.52344E+00  7.48286E+00  7.39946E+00  7.27431E+00  7.10965E+00  6.90883E+00
   6.67608E+00  6.41631E+00  6.13492E+00  5.83750E+00  5.52971E+00  5.21698E+00  4.90438E+00  4.59647E+00  4.29720E+00  4.00985E+00
   3.73700E+00  3.48055E+00  3.24175E+00  3.02125E+00  2.81920E+00  2.63533E+00  2.46902E+00  2.31940E+00  2.18543E+00  2.06594E+00
   1.95973E+00  1.86560E+00  1.78237E+00  1.70893E+00  1.64424E+00  1.58737E+00  1.53744E+00  1.49368E+00  1.45543E+00  1.42204E+00
   1.39299E+00  1.36778E+00  1.34595E+00  1.32711E+00  1.31085E+00  1.29682E+00  1.28467E+00  1.27404E+00  1.26461E+00  1.25606E+00
   1.24805E+00  1.24030E+00  1.23251E+00  1.22443E+00  1.21582E+00  1.20648E+00  1.19625E+00  1.18503E+00  1.17274E+00  1.15936E+00
   1.14491E+00  1.12947E+00  1.11313E+00  1.09601E+00  1.07829E+00  1.06012E+00  1.04169E+00  1.02317E+00  1.00473E+00  9.86525E-01
   9.68689E-01  9.51340E-01  9.34573E-01  9.18457E-01  9.03040E-01  8.88350E-01  8.74399E-01  8.61180E-01  8.48674E-01  8.36852E-01
   8.25677E-01  8.15108E-01  8.05104E-01  7.95619E-01  7.86609E-01  7.78030E-01  7.69842E-01  7.62009E-01  7.54496E-01  7.47271E-01
   7.40304E-01  7.33570E-01  7.27046E-01  7.20711E-01  7.14548E-01  7.08541E-01  7.02673E-01  6.96933E-01  6.91310E-01  6.85794E-01
   6.80376E-01  6.75048E-01  6.69802E-01  6.64632E-01  6.59534E-01  6.54501E-01  6.49530E-01  6.44615E-01  6.39753E-01  6.34941E-01
   6.30177E-01  6.25457E-01  6.20779E-01  6.16138E-01  6.11534E-01  6.06964E-01  6.02429E-01  5.97925E-01  5.93451E-01  5.89004E-01
   5.84585E-01  5.80192E-01  5.75826E-01  5.71483E-01  5.67163E-01  5.62865E-01  5.58590E-01  5.54336E-01  5.50104E-01  5.45891E-01
   5.41699E-01  5.37526E-01  5.33373E-01  5.29240E-01  5.25127E-01  5.21032E-01  5.16958E-01  5.12903E-01  5.08870E-01  5.04858E-01
   5.00868E-01  4.96901E-01  4.92958E-01  4.89040E-01  4.85151E-01  4.81292E-01  4.77464E-01  4.73671E-01
 NY background values follow
     2.486E+00    2.482E+00    2.478E+00    2.474E+00    2.470E+00    2.466E+00    2.462E+00    2.458E+00    2.454E+00    2.450E+00
     2.446E+00    2.442E+00    2.438E+00    2.434E+00    2.430E+00    2.426E+00    2.422E+00    2.418E+00    2.413E+00    2.409E+00
     2.405E+00    2.401E+00    2.397E+00    2.393E+00    2.389E+00    2.385E+00    2.381E+00    2.377E+00    2.373E+00    2.369E+00
     2.365E+00    2.361E+00    2.357E+00    2.353E+00    2.349E+00    2.345E+00    2.341E+00    2.337E+00    2.333E+00    2.329E+00
     2.325E+00    2.321E+00    2.317E+00    2.313E+00    2.309E+00    2.305E+00    2.301E+00    2.297E+00    2.293E+00    2.289E+00
     2.285E+00    2.281E+00    2.277E+00    2.273E+00    2.269E+00    2.265E+00    2.261E+00    2.257E+00    2.253E+00    2.249E+00
     2.245E+00    2.241E+00    2.237E+00    2.233E+00    2.229E+00    2.225E+00    2.221E+00    2.217E+00    2.213E+00    2.209E+00
     2.205E+00    2.201E+00    2.197E+00    2.193E+00    2.189E+00    2.185E+00    2.181E+00    2.177E+00    2.173E+00    2.169E+00
     2.165E+00    2.160E+00    2.156E+00    2.152E+00    2.148E+00    2.144E+00    2.140E+00    2.136E+00    2.132E+00    2.128E+00
     2.124E+00    2.120E+00    2.116E+00    2.112E+00    2.108E+00    2.104E+00    2.100E+00    2.096E+00    2.092E+00    2.088E+00
     2.084E+00    2.080E+00    2.076E+00    2.072E+00    2.068E+00    2.064E+00    2.060E+00    2.056E+00    2.052E+00    2.048E+00
     2.044E+00    2.040E+00    2.036E+00    2.032E+00    2.028E+00    2.024E+00    2.020E+00    2.016E+00    2.012E+00    2.008E+00
     2.004E+00    2.000E+00    1.996E+00    1.992E+00    1.988E+00    1.984E+00    1.980E+00    1.976E+00    1.972E+00    1.968E+00
     1.964E+00    1.960E+00    1.956E+00    1.952E+00    1.948E+00    1.944E+00    1.940E+00    1.936E+00    1.932E+00    1.928E+00
     1.924E+00    1.920E+00    1.916E+00    1.912E+00    1.908E+00    1.904E+00    1.900E+00    1.896E+00    1.892E+00    1.888E+00
     1.883E+00    1.879E+00    1.875E+00    1.871E+00    1.867E+00    1.863E+00    1.859E+00    1.855E+00    1.851E+00    1.847E+00
     1.843E+00    1.839E+00    1.835E+00    1.831E+00    1.827E+00    1.823E+00    1.819E+00    1.815E+00    1.811E+00    1.807E+00
     1.803E+00    1.799E+00    1.795E+00    1.791E+00    1.787E+00    1.783E+00    1.779E+00    1.775E+00    1.771E+00    1.767E+00
     1.763E+00    1.759E+00    1.755E+00    1.751E+00    1.747E+00    1.743E+00    1.739E+00    1.735E+00    1.731E+00    1.727E+00
     1.723E+00    1.719E+00    1.715E+00    1.711E+00    1.707E+00    1.703E+00    1.699E+00    1.695E+00    1.691E+00    1.687E+00
     1.683E+00    1.679E+00    1.675E+00    1.671E+00    1.667E+00    1.663E+00    1.659E+00    1.655E+00    1.651E+00    1.647E+00
     1.643E+00    1.639E+00    1.635E+00    1.631E+00    1.627E+00    1.623E+00    1.619E+00    1.615E+00    1.611E+00    1.607E+00
     1.603E+00    1.599E+00    1.595E+00    1.591E+00    1.587E+00    1.583E+00    1.579E+00    1.575E+00    1.571E+00    1.567E+00
     1.563E+00    1.559E+00    1.555E+00    1.551E+00    1.547E+00    1.543E+00    1.539E+00    1.535E+00    1.531E+00    1.526E+00
     1.522E+00    1.518E+00    1.514E+00    1.510E+00    1.506E+00    1.502E+00    1.498E+00    1.494E+00    1.490E+00    1.486E+00
     1.482E+00    1.478E+00    1.474E+00    1.470E+00    1.466E+00    1.462E+00    1.458E+00    1.454E+00    1.450E+00    1.446E+00
     1.442E+00    1.438E+00    1.434E+00    1.430E+00    1.426E+00    1.422E+00    1.418E+00    1.414E+00    1.410E+00    1.406E+00
     1.402E+00    1.398E+00    1.394E+00    1.390E+00    1.386E+00    1.382E+00    1.378E+00    1.374E+00    1.370E+00    1.366E+00
     1.362E+00    1.358E+00    1.354E+00    1.350E+00    1.346E+00    1.342E+00    1.338E+00    1.334E+00    1.330E+00    1.326E+00
     1.322E+00    1.318E+00    1.314E+00    1.310E+00    1.306E+00    1.302E+00    1.298E+00    1.294E+00    1.290E+00    1.286E+00
     1.282E+00    1.278E+00    1.274E+00    1.270E+00    1.266E+00    1.262E+00    1.258E+00    1.254E+00    1.250E+00    1.246E+00
     1.242E+00    1.238E+00    1.234E+00    1.230E+00    1.226E+00    1.222E+00    1.218E+00    1.214E+00    1.210E+00    1.206E+00
     1.202E+00    1.198E+00    1.194E+00    1.190E+00    1.186E+00    1.182E+00    1.178E+00    1.174E+00    1.170E+00    1.166E+00
     1.162E+00    1.158E+00    1.154E+00    1.150E+00    1.146E+00    1.142E+00    1.138E+00    1.134E+00    1.130E+00    1.126E+00
     1.122E+00    1.118E+00    1.114E+00    1.110E+00    1.106E+00    1.102E+00    1.098E+00    1.094E+00    1.090E+00    1.086E+00
     1.082E+00    1.078E+00    1.074E+00    1.070E+00    1.066E+00    1.062E+00    1.058E+00    1.054E+00    1.050E+00    1.046E+00
     1.042E+00    1.038E+00    1.034E+00    1.030E+00    1.026E+00    1.022E+00    1.018E+00    1.014E+00    1.010E+00    1.006E+00
     1.002E+00    9.979E-01    9.939E-01    9.899E-01    9.859E-01    9.819E-01    9.779E-01    9.739E-01    9.699E-01    9.659E-01
     9.619E-01    9.579E-01    9.539E-01    9.499E-01    9.459E-01    9.419E-01    9.379E-01    9.339E-01    9.299E-01    9.259E-01
     9.219E-01    9.179E-01    9.139E-01    9.099E-01    9.059E-01    9.019E-01    8.979E-01    8.939E-01    8.899E-01    8.859E-01
     8.819E-01    8.779E-01    8.739E-01    8.700E-01    8.660E-01    8.620E-01    8.580E-01    8.540E-01    8.500E-01    8.460E-01
     8.420E-01    8.380E-01    8.340E-01    8.300E-01    8.260E-01    8.220E-01    8.180E-01    8.140E-01    8.100E-01    8.060E-01
     8.020E-01    7.980E-01    7.940E-01    7.900E-01    7.860E-01    7.820E-01    7.781E-01    7.741E-01    7.701E-01    7.661E-01
     7.621E-01    7.581E-01    7.541E-01    7.501E-01    7.461E-01    7.421E-01    7.381E-01    7.341E-01    7.301E-01    7.261E-01
     7.221E-01    7.181E-01    7.141E-01    7.102E-01    7.062E-01    7.022E-01    6.982E-01    6.942E-01    6.902E-01    6.862E-01
     6.822E-01    6.782E-01    6.742E-01    6.702E-01    6.662E-01    6.622E-01    6.583E-01    6.543E-01    6.503E-01    6.463E-01
     6.423E-01    6.383E-01    6.343E-01    6.303E-01    6.263E-01    6.223E-01    6.183E-01    6.144E-01    6.104E-01    6.064E-01
     6.024E-01    5.984E-01    5.944E-01    5.904E-01    5.864E-01    5.824E-01    5.784E-01    5.744E-01    5.705E-01    5.665E-01
     5.625E-01    5.585E-01    5.545E-01    5.505E-01    5.465E-01    5.425E-01    5.385E-01    5.346E-01    5.306E-01    5.266E-01
     5.226E-01    5.186E-01    5.146E-01    5.106E-01    5.066E-01    5.027E-01    4.987E-01    4.947E-01
 Ala      Conc. = 2.00E+02
