 LCModel (Version 6.3-1L) Copyright: S.W. Provencher.          Ref.: Magn. Reson. Med. 30:672-679 (1993).                
 Slice#2 Row#4 Col#10  PD_05_press_1_raw_act
 36 lines in following concentration table = NCONC+1
    Conc.  %SD /Cr+PCr  Metabolite                                         
  716.328  29%   0.424 Ala                                                 
    0.000 999%   0.000 Asp                                                 
  359.534  82%   0.213 Cr                                                  
 1.33E+03  22%   0.787 PCr                                                 
  167.782 127% 9.9E-02 GABA                                                
    0.000 999%   0.000 Glc                                                 
 1.77E+03  23%   1.044 Gln                                                 
 1.93E+03  24%   1.140 Glu                                                 
  749.619   3%   0.443 GPC                                                 
    0.000 999%   0.000 PCh                                                 
  763.083  11%   0.451 GSH                                                 
 2.65E+03  11%   1.568 Ins                                                 
  224.840 169%   0.133 Lac                                                 
 2.77E+03   3%   1.638 NAA                                                 
    0.000 999%   0.000 NAAG                                                
  292.021  10%   0.173 Scyllo                                              
    0.000 999%   0.000 Tau                                                 
    0.000 999%   0.000 -CrCH2                                              
  749.619   3%   0.443 GPC+PCh                                             
 2.77E+03   3%   1.638 NAA+NAAG                                            
 1.69E+03   3%   1.000 Cr+PCr                                              
 3.69E+03  21%   2.184 Glu+Gln                                             
    0.000 999%   0.000 Lip13a                                              
  972.297  31%   0.575 Lip13b                                              
   89.062 158% 5.3E-02 Lip09                                               
 1.20E+03  16%   0.710 MM09                                                
  191.310  48%   0.113 Lip20                                               
 3.63E+03  10%   2.144+MM20                                                
  211.146  70%   0.125 MM12                                                
 2.18E+03  18%   1.286 MM14                                                
 1.28E+03  19%   0.755 MM17                                                
  972.297  31%   0.575 Lip13a+Lip13b                                       
 3.36E+03  11%   1.986 MM14+Lip13a+Lip13b+MM12                             
 1.29E+03  13%   0.763 MM09+Lip09                                          
 3.82E+03   9%   2.257 MM20+Lip20                                          
   6 lines in following misc. output table
  FWHM = 0.084 ppm    S/N =  14                                            
  Data shift = 0.015 ppm                                                   
  Ph: -43 deg     -20.8 deg/ppm                                            
  alphaB,S = 1.3E+00,   1.9E+02                                            
   14 spline knots.   Ns =11(1)                                            
  (16) 6 infls.   ( 7) 1 extrs.                                            
  498 points on ppm-axis = NY
      4.000000     3.992357     3.984714     3.977070     3.969427     3.961784     3.954141     3.946497     3.938854     3.931211
      3.923568     3.915925     3.908281     3.900638     3.892995     3.885352     3.877708     3.870065     3.862422     3.854779
      3.847136     3.839492     3.831849     3.824206     3.816563     3.808919     3.801276     3.793633     3.785990     3.778347
      3.770703     3.763060     3.755417     3.747774     3.740130     3.732487     3.724844     3.717201     3.709558     3.701914
      3.694271     3.686628     3.678985     3.671341     3.663698     3.656055     3.648412     3.640769     3.633125     3.625482
      3.617839     3.610196     3.602552     3.594909     3.587266     3.579623     3.571980     3.564336     3.556693     3.549050
      3.541407     3.533763     3.526120     3.518477     3.510834     3.503191     3.495547     3.487904     3.480261     3.472618
      3.464974     3.457331     3.449688     3.442045     3.434402     3.426758     3.419115     3.411472     3.403829     3.396185
      3.388542     3.380899     3.373256     3.365613     3.357969     3.350326     3.342683     3.335040     3.327396     3.319753
      3.312110     3.304467     3.296824     3.289180     3.281537     3.273894     3.266251     3.258607     3.250964     3.243321
      3.235678     3.228034     3.220391     3.212748     3.205105     3.197462     3.189818     3.182175     3.174532     3.166889
      3.159245     3.151602     3.143959     3.136316     3.128673     3.121029     3.113386     3.105743     3.098100     3.090456
      3.082813     3.075170     3.067527     3.059884     3.052240     3.044597     3.036954     3.029311     3.021667     3.014024
      3.006381     2.998738     2.991095     2.983451     2.975808     2.968165     2.960522     2.952878     2.945235     2.937592
      2.929949     2.922306     2.914662     2.907019     2.899376     2.891733     2.884089     2.876446     2.868803     2.861160
      2.853517     2.845873     2.838230     2.830587     2.822944     2.815300     2.807657     2.800014     2.792371     2.784728
      2.777084     2.769441     2.761798     2.754155     2.746511     2.738868     2.731225     2.723582     2.715939     2.708295
      2.700652     2.693009     2.685366     2.677722     2.670079     2.662436     2.654793     2.647150     2.639506     2.631863
      2.624220     2.616577     2.608933     2.601290     2.593647     2.586004     2.578361     2.570717     2.563074     2.555431
      2.547788     2.540144     2.532501     2.524858     2.517215     2.509572     2.501928     2.494285     2.486642     2.478999
      2.471355     2.463712     2.456069     2.448426     2.440783     2.433139     2.425496     2.417853     2.410210     2.402566
      2.394923     2.387280     2.379637     2.371994     2.364350     2.356707     2.349064     2.341421     2.333777     2.326134
      2.318491     2.310848     2.303205     2.295561     2.287918     2.280275     2.272632     2.264988     2.257345     2.249702
      2.242059     2.234416     2.226772     2.219129     2.211486     2.203843     2.196199     2.188556     2.180913     2.173270
      2.165627     2.157983     2.150340     2.142697     2.135054     2.127410     2.119767     2.112124     2.104481     2.096838
      2.089194     2.081551     2.073908     2.066265     2.058621     2.050978     2.043335     2.035692     2.028049     2.020405
      2.012762     2.005119     1.997476     1.989833     1.982190     1.974546     1.966903     1.959260     1.951617     1.943974
      1.936331     1.928688     1.921045     1.913402     1.905759     1.898115     1.890472     1.882829     1.875186     1.867543
      1.859900     1.852257     1.844614     1.836971     1.829327     1.821684     1.814041     1.806398     1.798755     1.791112
      1.783469     1.775826     1.768183     1.760540     1.752896     1.745253     1.737610     1.729967     1.722324     1.714681
      1.707038     1.699395     1.691752     1.684108     1.676465     1.668822     1.661179     1.653536     1.645893     1.638250
      1.630607     1.622964     1.615321     1.607677     1.600034     1.592391     1.584748     1.577105     1.569462     1.561819
      1.554176     1.546533     1.538890     1.531246     1.523603     1.515960     1.508317     1.500674     1.493031     1.485388
      1.477745     1.470102     1.462458     1.454815     1.447172     1.439529     1.431886     1.424243     1.416600     1.408957
      1.401314     1.393671     1.386027     1.378384     1.370741     1.363098     1.355455     1.347812     1.340169     1.332526
      1.324883     1.317240     1.309596     1.301953     1.294310     1.286667     1.279024     1.271381     1.263738     1.256095
      1.248452     1.240808     1.233165     1.225522     1.217879     1.210236     1.202593     1.194950     1.187307     1.179664
      1.172021     1.164377     1.156734     1.149091     1.141448     1.133805     1.126162     1.118519     1.110876     1.103233
      1.095590     1.087946     1.080303     1.072660     1.065017     1.057374     1.049731     1.042088     1.034445     1.026802
      1.019158     1.011515     1.003872     0.996229     0.988586     0.980943     0.973300     0.965657     0.958014     0.950371
      0.942727     0.935084     0.927441     0.919798     0.912155     0.904512     0.896869     0.889226     0.881583     0.873940
      0.866296     0.858653     0.851010     0.843367     0.835724     0.828081     0.820438     0.812795     0.805152     0.797508
      0.789865     0.782222     0.774579     0.766936     0.759293     0.751650     0.744007     0.736364     0.728721     0.721077
      0.713434     0.705791     0.698148     0.690505     0.682862     0.675219     0.667576     0.659933     0.652290     0.644646
      0.637003     0.629360     0.621717     0.614074     0.606431     0.598788     0.591145     0.583502     0.575858     0.568215
      0.560572     0.552929     0.545286     0.537643     0.530000     0.522357     0.514714     0.507071     0.499427     0.491784
      0.484141     0.476498     0.468855     0.461212     0.453569     0.445925     0.438282     0.430639     0.422996     0.415353
      0.407710     0.400067     0.392424     0.384780     0.377137     0.369494     0.361851     0.354208     0.346565     0.338922
      0.331278     0.323635     0.315992     0.308349     0.300706     0.293063     0.285420     0.277777     0.270133     0.262490
      0.254847     0.247204     0.239561     0.231918     0.224275     0.216631     0.208988     0.201345
 NY phased data points follow
   6.62387E+00  3.52289E+00  9.46564E+00  1.02360E+01  1.15575E+01  1.67452E+01  1.62357E+01  2.04930E+01  2.22311E+01  2.14884E+01
   2.17372E+01  2.15624E+01  1.90011E+01  1.71658E+01  1.33409E+01  1.13483E+01  8.60007E+00  7.02882E+00  5.97661E+00  5.97791E+00
   6.11620E+00  8.14707E+00  6.47529E+00  8.81642E+00  7.55290E+00  6.07731E+00  8.68414E+00  1.17398E+01  7.68460E+00  8.99415E+00
   1.04043E+01  7.68847E+00  8.58991E+00  7.58060E+00  7.99162E+00  8.22346E+00  1.02748E+01  6.78229E+00  9.63629E+00  8.69993E+00
   1.07107E+01  1.13272E+01  9.47308E+00  1.31340E+01  1.32293E+01  1.19387E+01  1.62446E+01  1.50795E+01  1.37721E+01  1.05829E+01
   6.41496E+00  1.00724E+01  5.94652E+00  7.33805E+00  5.48876E+00  7.06694E+00  6.31252E+00  5.30751E+00  4.49958E+00  4.18615E+00
   1.57401E+00 -1.61985E+00 -1.33651E+00 -4.31146E+00 -1.00266E+00 -1.46669E+00 -1.43796E-01  5.31856E-01 -2.45850E+00 -1.16548E+00
  -3.26900E+00 -2.74228E+00  8.36094E-02 -7.35919E-01  3.61679E+00  6.03941E-01 -2.21685E-01  2.94387E+00 -9.17574E-01  1.59377E-01
   1.12942E+00  3.21151E+00  3.73847E+00  1.90763E+00  5.03518E+00  2.88780E+00  7.89791E+00  7.61893E+00  7.32288E+00  6.93968E+00
   6.83029E+00  8.29546E+00  1.19578E+01  1.22670E+01  1.50919E+01  1.83608E+01  2.16423E+01  2.34645E+01  2.44987E+01  2.73511E+01
   3.27230E+01  3.90846E+01  4.15700E+01  4.19105E+01  3.99602E+01  3.71100E+01  3.04877E+01  2.32222E+01  1.88828E+01  1.54803E+01
   8.70030E+00  1.02161E+01  6.18249E+00  6.82343E+00  9.25258E+00  4.45164E+00  7.39392E+00  1.23597E+01  1.51920E+01  1.42295E+01
   1.45524E+01  1.87136E+01  2.36839E+01  3.00043E+01  3.10067E+01  3.33391E+01  3.72525E+01  3.88881E+01  3.51542E+01  3.19573E+01
   2.94576E+01  2.27742E+01  2.02306E+01  1.52383E+01  7.94848E+00  6.25863E+00  6.44195E+00  4.42467E+00  9.48281E+00  3.50352E+00
   5.80810E+00  8.22335E+00  3.22074E+00  3.36810E+00  4.14076E+00 -3.52966E-01  9.36193E-01 -9.37028E-01  3.30904E+00  1.87211E+00
   1.85887E+00 -1.84741E-01  2.92057E+00 -8.71486E-01  7.55213E-02  1.03104E+00  3.05108E-01 -1.74156E-01 -2.96381E-01  4.91917E-01
  -9.86454E-01  2.94787E+00 -5.87904E-01 -2.48889E+00 -7.30470E-01  4.35447E-01 -1.49603E-01 -1.85188E+00 -2.92103E+00 -2.04773E-01
  -5.19189E+00 -9.79577E+00 -7.10891E+00 -7.34732E+00 -7.25125E+00 -9.00986E+00 -8.15721E+00 -8.45648E+00 -1.01124E+01 -6.50084E+00
  -1.04773E+01 -6.06248E+00 -7.40159E+00 -7.92315E+00 -5.47129E+00 -4.65731E+00 -4.55647E+00 -2.47200E+00 -2.67617E-01 -4.24771E-01
   4.39213E+00  1.81594E+00  5.30011E+00  3.99927E-01  3.12154E+00  3.49763E+00  4.58970E+00  3.65992E+00  3.15009E+00  1.13390E+00
   4.58195E+00  4.59959E+00  3.06013E+00  1.16983E+00  5.24451E+00  6.97231E+00  2.14286E+00  5.85010E+00  2.39685E+00  3.29402E+00
   5.50354E+00  7.20800E+00  4.16514E+00  8.50386E+00  7.63332E+00  6.01941E+00  1.01374E+01  1.06646E+01  9.09616E+00  1.08760E+01
   7.80667E+00  9.58382E+00  5.13793E+00  6.42391E+00  9.83070E+00  5.14781E+00  8.87576E+00  7.38608E+00  1.22977E+01  1.06135E+01
   1.37971E+01  1.08538E+01  1.13736E+01  1.19982E+01  1.20211E+01  1.13710E+01  1.15384E+01  1.40356E+01  1.28045E+01  1.13762E+01
   1.56118E+01  9.91355E+00  1.46671E+01  1.46335E+01  1.48516E+01  1.84396E+01  2.01076E+01  1.80755E+01  2.14979E+01  2.71317E+01
   2.54689E+01  3.20758E+01  3.68121E+01  4.02627E+01  4.42606E+01  5.02679E+01  5.80450E+01  6.28266E+01  6.87154E+01  7.18462E+01
   7.28577E+01  7.03613E+01  6.64584E+01  6.08202E+01  5.98350E+01  4.95079E+01  4.00703E+01  3.37206E+01  2.49182E+01  2.23662E+01
   1.80888E+01  1.77562E+01  1.74488E+01  1.43731E+01  1.27037E+01  1.48476E+01  1.20712E+01  1.26467E+01  8.87700E+00  1.01956E+01
   7.91605E+00  1.06489E+01  7.89539E+00  8.15318E+00  9.60031E+00  6.76907E+00  6.75885E+00  5.80773E+00  8.90708E+00  1.12222E+01
   7.87895E+00  1.34365E+01  8.63761E+00  9.37428E+00  1.19955E+01  1.00713E+01  1.16372E+01  1.14923E+01  9.44871E+00  1.23431E+01
   1.29391E+01  1.04137E+01  1.33125E+01  1.21080E+01  1.21414E+01  1.45153E+01  1.10822E+01  1.10924E+01  1.38393E+01  1.26461E+01
   1.45686E+01  1.31751E+01  1.39037E+01  1.18021E+01  1.78653E+01  1.49891E+01  1.49309E+01  1.40481E+01  1.18552E+01  1.70066E+01
   1.61051E+01  1.54336E+01  1.58527E+01  1.63508E+01  1.44466E+01  1.41057E+01  1.51552E+01  1.42953E+01  1.55352E+01  1.47699E+01
   1.42669E+01  1.22438E+01  1.49169E+01  1.77813E+01  1.64956E+01  1.73920E+01  1.60171E+01  1.75796E+01  1.77161E+01  2.03535E+01
   1.95593E+01  1.87065E+01  2.00180E+01  2.04105E+01  1.84099E+01  1.91468E+01  1.65763E+01  1.76381E+01  2.04597E+01  1.64784E+01
   1.83355E+01  1.79529E+01  1.93312E+01  1.74262E+01  2.02362E+01  1.86039E+01  1.78472E+01  1.72843E+01  1.83903E+01  1.48571E+01
   1.56354E+01  1.06378E+01  1.17459E+01  1.24501E+01  7.90167E+00  9.72342E+00  1.10673E+01  9.05570E+00  9.64143E+00  6.66350E+00
   6.39400E+00  6.14424E+00  2.53091E+00  2.00850E+00  5.63244E+00  6.59854E+00  4.76586E+00  2.70663E+00  4.71648E+00  1.11182E+00
   6.33791E+00  1.83586E+00  3.87333E+00  3.36275E+00  1.82918E+00  4.78415E+00  1.77083E+00  1.01020E+01  7.68351E+00  5.05620E+00
   4.94929E+00  6.67467E+00  7.61602E+00  1.00118E+01  8.61833E+00  9.00171E+00  1.26247E+01  6.08645E+00  1.28606E+01  1.38516E+01
   1.35053E+01  1.46387E+01  1.15147E+01  1.28304E+01  1.32091E+01  1.33750E+01  1.38857E+01  1.53911E+01  1.44677E+01  1.57707E+01
   1.45131E+01  1.38950E+01  1.19014E+01  1.66471E+01  1.02378E+01  1.07152E+01  8.66794E+00  9.06551E+00  1.03832E+01  1.06980E+01
   9.16294E+00  1.12433E+01  8.32089E+00  6.17852E+00  8.11298E+00  1.00990E+01  9.08317E+00  8.95119E+00  7.26721E+00  7.94300E+00
   9.40525E+00  8.46570E+00  5.42835E+00  8.25745E+00  7.60262E+00  4.95617E+00  9.74742E+00  3.89846E+00  6.23175E+00  4.33231E+00
   7.86803E+00  7.40996E+00  6.04438E+00  6.38192E+00  6.45081E+00  7.80103E+00  5.61511E+00  5.60873E+00  3.82284E+00  5.27787E+00
   4.67393E+00  7.69123E+00  4.96560E+00  7.08905E+00  4.43671E+00  8.37775E+00  4.48458E+00  3.51670E+00  5.32449E+00  7.38011E+00
   5.32318E+00  8.48145E+00  5.54305E+00  7.09776E+00  5.69610E+00  4.26597E+00  5.67718E+00  1.06695E+01  4.86804E+00  5.52169E+00
   8.47964E+00  7.63403E+00  7.04837E+00  7.79525E+00  4.36412E+00  6.94389E+00  6.20755E+00  6.95592E+00  5.96557E+00  6.09893E+00
   5.69448E+00  5.35460E+00  5.91393E+00  6.88337E+00  5.74416E+00  5.17670E+00  6.43729E+00  6.01066E+00  9.58420E+00  6.82163E+00
   5.16950E+00  7.42663E+00  4.65148E+00  6.30644E+00  5.53742E+00  7.89884E+00  6.91950E+00  6.55482E+00
 NY points of the fit to the data follow
   5.51469E+00  6.79761E+00  8.36598E+00  1.01326E+01  1.22168E+01  1.48261E+01  1.75201E+01  1.98031E+01  2.14266E+01  2.21317E+01
   2.18963E+01  2.08588E+01  1.90641E+01  1.66974E+01  1.40854E+01  1.13980E+01  8.96887E+00  7.19214E+00  6.41694E+00  6.27329E+00
   5.86471E+00  5.36329E+00  5.39858E+00  5.65689E+00  6.23086E+00  7.14382E+00  8.22811E+00  9.33469E+00  1.03152E+01  1.10306E+01
   1.14266E+01  1.14944E+01  1.12464E+01  1.05504E+01  9.47519E+00  8.55677E+00  8.05718E+00  7.82066E+00  7.70650E+00  7.73814E+00
   7.92074E+00  8.12850E+00  8.68283E+00  9.67155E+00  1.07373E+01  1.15801E+01  1.17935E+01  1.14175E+01  1.06633E+01  9.63105E+00
   8.41979E+00  7.06168E+00  5.68305E+00  4.45731E+00  3.58735E+00  3.29670E+00  3.54751E+00  3.80594E+00  3.56735E+00  3.05755E+00
   2.77224E+00  2.60938E+00  2.31909E+00  1.95537E+00  1.62769E+00  1.41238E+00  1.34068E+00  1.43707E+00  1.71306E+00  2.05543E+00
   2.23957E+00  2.21330E+00  2.04570E+00  1.79533E+00  1.54035E+00  1.24553E+00  1.31691E+00  1.86102E+00  2.32072E+00  2.57982E+00
   2.77309E+00  3.06597E+00  3.50804E+00  4.05972E+00  4.77175E+00  5.50828E+00  6.05362E+00  6.24304E+00  6.03812E+00  5.60257E+00
   5.24378E+00  5.99187E+00  9.02260E+00  1.24429E+01  1.50346E+01  1.70988E+01  1.94778E+01  2.26946E+01  2.66641E+01  3.08038E+01
   3.49007E+01  3.86525E+01  4.09851E+01  4.11938E+01  3.93396E+01  3.59742E+01  3.14463E+01  2.59960E+01  2.03056E+01  1.50465E+01
   1.08169E+01  8.20166E+00  7.00849E+00  6.19395E+00  4.56580E+00  3.57688E+00  5.84189E+00  9.05702E+00  1.18235E+01  1.42944E+01
   1.70063E+01  2.03343E+01  2.43357E+01  2.85754E+01  3.24196E+01  3.53548E+01  3.68443E+01  3.65841E+01  3.48492E+01  3.20512E+01
   2.84085E+01  2.40661E+01  1.94486E+01  1.50458E+01  1.14740E+01  9.22458E+00  8.05703E+00  7.05189E+00  5.27629E+00  3.51683E+00
   3.02332E+00  3.06100E+00  3.12724E+00  3.04464E+00  2.75305E+00  2.33507E+00  1.97924E+00  1.70277E+00  1.45820E+00  1.27146E+00
   1.03600E+00  6.75653E-01  3.08653E-01 -1.59612E-02 -1.74603E-01 -2.33538E-01 -3.41729E-01 -5.26919E-01 -7.55350E-01 -9.90759E-01
  -1.20681E+00 -1.36904E+00 -1.47887E+00 -1.58575E+00 -1.73880E+00 -1.97732E+00 -2.31747E+00 -2.64708E+00 -2.91533E+00 -3.18705E+00
  -3.56289E+00 -4.04755E+00 -4.47486E+00 -4.74587E+00 -4.90934E+00 -5.06081E+00 -5.24248E+00 -5.42275E+00 -5.37687E+00 -5.04752E+00
  -4.56846E+00 -4.04079E+00 -3.57316E+00 -3.17712E+00 -2.82221E+00 -2.48879E+00 -2.07522E+00 -1.45756E+00 -6.64697E-01  1.40519E-01
   7.85966E-01  1.27009E+00  1.61212E+00  1.98662E+00  2.42707E+00  2.82234E+00  3.25478E+00  3.70566E+00  4.06461E+00  4.42185E+00
   4.93279E+00  5.36001E+00  5.45372E+00  5.12637E+00  4.52259E+00  3.84260E+00  3.28593E+00  2.76663E+00  2.37091E+00  2.24362E+00
   2.50085E+00  3.08455E+00  3.79598E+00  4.71665E+00  5.98274E+00  7.25100E+00  7.97493E+00  8.05619E+00  7.60230E+00  6.81578E+00
   6.00806E+00  5.42479E+00  5.11222E+00  5.08990E+00  5.49405E+00  6.39252E+00  7.66122E+00  8.88078E+00  9.79724E+00  1.05035E+01
   1.12021E+01  1.15574E+01  1.16229E+01  1.17118E+01  1.21732E+01  1.29893E+01  1.37291E+01  1.41181E+01  1.42768E+01  1.43043E+01
   1.41493E+01  1.39176E+01  1.38723E+01  1.41450E+01  1.46296E+01  1.53181E+01  1.63530E+01  1.76968E+01  1.92389E+01  2.21013E+01
   2.78242E+01  3.39745E+01  3.88135E+01  4.27547E+01  4.67785E+01  5.13221E+01  5.64880E+01  6.19626E+01  6.70901E+01  7.10588E+01
   7.29180E+01  7.19260E+01  6.83001E+01  6.29148E+01  5.62346E+01  4.85055E+01  4.04942E+01  3.30403E+01  2.69116E+01  2.28260E+01
   2.05994E+01  1.88746E+01  1.59269E+01  1.22551E+01  1.05263E+01  9.95956E+00  9.61054E+00  9.32855E+00  9.10622E+00  8.87712E+00
   8.64513E+00  8.45155E+00  8.31200E+00  8.23238E+00  8.22509E+00  8.27364E+00  8.35124E+00  8.45998E+00  8.60731E+00  8.79067E+00
   9.00653E+00  9.24752E+00  9.51330E+00  9.80817E+00  1.01204E+01  1.04424E+01  1.07698E+01  1.10921E+01  1.14030E+01  1.16999E+01
   1.19767E+01  1.22260E+01  1.24426E+01  1.26242E+01  1.27688E+01  1.28768E+01  1.29521E+01  1.29980E+01  1.30209E+01  1.30298E+01
   1.30355E+01  1.30513E+01  1.30932E+01  1.31818E+01  1.33471E+01  1.36459E+01  1.41840E+01  1.47937E+01  1.51071E+01  1.52019E+01
   1.52550E+01  1.53451E+01  1.54267E+01  1.53832E+01  1.52718E+01  1.53352E+01  1.53548E+01  1.51031E+01  1.45995E+01  1.40615E+01
   1.36996E+01  1.36292E+01  1.39390E+01  1.46706E+01  1.57690E+01  1.71024E+01  1.84529E+01  1.94815E+01  1.99215E+01  1.98265E+01
   1.95643E+01  1.93092E+01  1.88377E+01  1.82502E+01  1.78444E+01  1.77696E+01  1.78715E+01  1.78219E+01  1.75866E+01  1.75764E+01
   1.77927E+01  1.81327E+01  1.85154E+01  1.88615E+01  1.90776E+01  1.90697E+01  1.87551E+01  1.80859E+01  1.70676E+01  1.57770E+01
   1.44061E+01  1.30683E+01  1.17572E+01  1.05620E+01  9.56485E+00  8.78530E+00  8.15988E+00  7.58726E+00  7.11053E+00  6.77862E+00
   6.54413E+00  6.37608E+00  6.25594E+00  6.17136E+00  6.11412E+00  6.07894E+00  6.06264E+00  6.06350E+00  6.08079E+00  6.11442E+00
   6.16480E+00  6.23273E+00  6.31926E+00  6.42571E+00  6.55350E+00  6.70423E+00  6.87954E+00  7.08114E+00  7.31067E+00  7.56959E+00
   7.85903E+00  8.17965E+00  8.53151E+00  8.91383E+00  9.32484E+00  9.76161E+00  1.02199E+01  1.06941E+01  1.11771E+01  1.16607E+01
   1.21354E+01  1.25908E+01  1.30160E+01  1.33998E+01  1.37316E+01  1.40015E+01  1.42010E+01  1.43235E+01  1.43645E+01  1.43220E+01
   1.41967E+01  1.39917E+01  1.37128E+01  1.33678E+01  1.29663E+01  1.25190E+01  1.20377E+01  1.15339E+01  1.10193E+01  1.05045E+01
   9.99906E+00  9.51123E+00  9.04771E+00  8.61358E+00  8.21240E+00  7.84624E+00  7.51591E+00  7.22114E+00  6.96078E+00  6.73301E+00
   6.53554E+00  6.36582E+00  6.22116E+00  6.09888E+00  5.99641E+00  5.91127E+00  5.84123E+00  5.78425E+00  5.73853E+00  5.70250E+00
   5.67477E+00  5.65415E+00  5.63963E+00  5.63034E+00  5.62554E+00  5.62463E+00  5.62706E+00  5.63238E+00  5.64021E+00  5.65022E+00
   5.66214E+00  5.67574E+00  5.69080E+00  5.70715E+00  5.72465E+00  5.74317E+00  5.76261E+00  5.78287E+00  5.80387E+00  5.82552E+00
   5.84777E+00  5.87057E+00  5.89388E+00  5.91764E+00  5.94181E+00  5.96637E+00  5.99128E+00  6.01652E+00  6.04208E+00  6.06792E+00
   6.09403E+00  6.12039E+00  6.14701E+00  6.17387E+00  6.20095E+00  6.22826E+00  6.25578E+00  6.28352E+00  6.31148E+00  6.33965E+00
   6.36804E+00  6.39664E+00  6.42547E+00  6.45453E+00  6.48384E+00  6.51341E+00  6.54324E+00  6.57336E+00  6.60378E+00  6.63454E+00
   6.66566E+00  6.69717E+00  6.72910E+00  6.76151E+00  6.79445E+00  6.82800E+00  6.86222E+00  6.89721E+00
 NY background values follow
    -7.095E+00   -7.064E+00   -7.033E+00   -7.001E+00   -6.970E+00   -6.939E+00   -6.908E+00   -6.877E+00   -6.846E+00   -6.815E+00
    -6.784E+00   -6.753E+00   -6.721E+00   -6.690E+00   -6.659E+00   -6.628E+00   -6.597E+00   -6.566E+00   -6.535E+00   -6.504E+00
    -6.473E+00   -6.441E+00   -6.410E+00   -6.379E+00   -6.348E+00   -6.317E+00   -6.285E+00   -6.254E+00   -6.223E+00   -6.191E+00
    -6.160E+00   -6.128E+00   -6.097E+00   -6.065E+00   -6.034E+00   -6.002E+00   -5.971E+00   -5.939E+00   -5.907E+00   -5.876E+00
    -5.844E+00   -5.812E+00   -5.780E+00   -5.748E+00   -5.716E+00   -5.684E+00   -5.652E+00   -5.620E+00   -5.587E+00   -5.555E+00
    -5.522E+00   -5.490E+00   -5.457E+00   -5.425E+00   -5.392E+00   -5.359E+00   -5.326E+00   -5.293E+00   -5.260E+00   -5.227E+00
    -5.193E+00   -5.160E+00   -5.126E+00   -5.093E+00   -5.059E+00   -5.025E+00   -4.991E+00   -4.957E+00   -4.923E+00   -4.888E+00
    -4.854E+00   -4.819E+00   -4.784E+00   -4.749E+00   -4.714E+00   -4.679E+00   -4.643E+00   -4.608E+00   -4.572E+00   -4.536E+00
    -4.500E+00   -4.464E+00   -4.427E+00   -4.391E+00   -4.354E+00   -4.317E+00   -4.280E+00   -4.242E+00   -4.205E+00   -4.167E+00
    -4.129E+00   -4.091E+00   -4.052E+00   -4.014E+00   -3.975E+00   -3.936E+00   -3.897E+00   -3.858E+00   -3.818E+00   -3.779E+00
    -3.739E+00   -3.699E+00   -3.659E+00   -3.618E+00   -3.578E+00   -3.537E+00   -3.497E+00   -3.456E+00   -3.415E+00   -3.374E+00
    -3.332E+00   -3.291E+00   -3.249E+00   -3.208E+00   -3.166E+00   -3.124E+00   -3.082E+00   -3.040E+00   -2.997E+00   -2.955E+00
    -2.913E+00   -2.870E+00   -2.828E+00   -2.785E+00   -2.742E+00   -2.699E+00   -2.657E+00   -2.614E+00   -2.571E+00   -2.528E+00
    -2.484E+00   -2.441E+00   -2.398E+00   -2.355E+00   -2.311E+00   -2.268E+00   -2.225E+00   -2.181E+00   -2.138E+00   -2.094E+00
    -2.051E+00   -2.007E+00   -1.964E+00   -1.920E+00   -1.877E+00   -1.833E+00   -1.789E+00   -1.746E+00   -1.702E+00   -1.658E+00
    -1.614E+00   -1.570E+00   -1.526E+00   -1.482E+00   -1.438E+00   -1.394E+00   -1.349E+00   -1.305E+00   -1.261E+00   -1.216E+00
    -1.172E+00   -1.127E+00   -1.083E+00   -1.038E+00   -9.934E-01   -9.486E-01   -9.038E-01   -8.588E-01   -8.138E-01   -7.687E-01
    -7.236E-01   -6.783E-01   -6.330E-01   -5.876E-01   -5.421E-01   -4.965E-01   -4.509E-01   -4.051E-01   -3.593E-01   -3.134E-01
    -2.674E-01   -2.213E-01   -1.751E-01   -1.288E-01   -8.243E-02   -3.603E-02    1.043E-02    5.692E-02    1.034E-01    1.500E-01
     1.965E-01    2.431E-01    2.896E-01    3.361E-01    3.826E-01    4.290E-01    4.753E-01    5.216E-01    5.679E-01    6.140E-01
     6.600E-01    7.059E-01    7.517E-01    7.974E-01    8.429E-01    8.883E-01    9.335E-01    9.786E-01    1.023E+00    1.068E+00
     1.113E+00    1.157E+00    1.201E+00    1.245E+00    1.288E+00    1.331E+00    1.374E+00    1.417E+00    1.460E+00    1.502E+00
     1.544E+00    1.585E+00    1.626E+00    1.667E+00    1.708E+00    1.748E+00    1.787E+00    1.827E+00    1.866E+00    1.904E+00
     1.943E+00    1.980E+00    2.018E+00    2.055E+00    2.092E+00    2.128E+00    2.164E+00    2.200E+00    2.235E+00    2.270E+00
     2.304E+00    2.338E+00    2.372E+00    2.405E+00    2.438E+00    2.471E+00    2.503E+00    2.535E+00    2.566E+00    2.598E+00
     2.628E+00    2.659E+00    2.689E+00    2.718E+00    2.748E+00    2.777E+00    2.805E+00    2.833E+00    2.861E+00    2.889E+00
     2.916E+00    2.943E+00    2.969E+00    2.995E+00    3.021E+00    3.046E+00    3.071E+00    3.096E+00    3.120E+00    3.144E+00
     3.168E+00    3.191E+00    3.214E+00    3.236E+00    3.258E+00    3.280E+00    3.302E+00    3.323E+00    3.344E+00    3.364E+00
     3.384E+00    3.404E+00    3.424E+00    3.443E+00    3.462E+00    3.481E+00    3.499E+00    3.517E+00    3.535E+00    3.552E+00
     3.570E+00    3.587E+00    3.603E+00    3.620E+00    3.636E+00    3.652E+00    3.667E+00    3.682E+00    3.698E+00    3.712E+00
     3.727E+00    3.741E+00    3.755E+00    3.769E+00    3.783E+00    3.796E+00    3.810E+00    3.823E+00    3.835E+00    3.848E+00
     3.860E+00    3.873E+00    3.885E+00    3.896E+00    3.908E+00    3.919E+00    3.930E+00    3.942E+00    3.952E+00    3.963E+00
     3.974E+00    3.984E+00    3.994E+00    4.005E+00    4.015E+00    4.024E+00    4.034E+00    4.044E+00    4.054E+00    4.063E+00
     4.073E+00    4.082E+00    4.092E+00    4.101E+00    4.111E+00    4.120E+00    4.130E+00    4.139E+00    4.148E+00    4.158E+00
     4.167E+00    4.177E+00    4.186E+00    4.196E+00    4.206E+00    4.216E+00    4.225E+00    4.235E+00    4.246E+00    4.256E+00
     4.266E+00    4.277E+00    4.287E+00    4.298E+00    4.309E+00    4.320E+00    4.331E+00    4.343E+00    4.355E+00    4.366E+00
     4.379E+00    4.391E+00    4.404E+00    4.416E+00    4.429E+00    4.443E+00    4.456E+00    4.470E+00    4.484E+00    4.499E+00
     4.513E+00    4.528E+00    4.543E+00    4.558E+00    4.574E+00    4.590E+00    4.606E+00    4.622E+00    4.638E+00    4.655E+00
     4.672E+00    4.689E+00    4.707E+00    4.725E+00    4.743E+00    4.761E+00    4.779E+00    4.798E+00    4.817E+00    4.836E+00
     4.856E+00    4.875E+00    4.895E+00    4.916E+00    4.936E+00    4.957E+00    4.978E+00    4.999E+00    5.020E+00    5.042E+00
     5.064E+00    5.086E+00    5.109E+00    5.131E+00    5.154E+00    5.178E+00    5.201E+00    5.225E+00    5.249E+00    5.273E+00
     5.297E+00    5.322E+00    5.347E+00    5.372E+00    5.397E+00    5.423E+00    5.448E+00    5.474E+00    5.500E+00    5.527E+00
     5.553E+00    5.579E+00    5.606E+00    5.633E+00    5.660E+00    5.687E+00    5.714E+00    5.742E+00    5.769E+00    5.796E+00
     5.824E+00    5.852E+00    5.880E+00    5.907E+00    5.935E+00    5.963E+00    5.991E+00    6.020E+00    6.048E+00    6.076E+00
     6.104E+00    6.132E+00    6.160E+00    6.189E+00    6.217E+00    6.245E+00    6.273E+00    6.301E+00    6.329E+00    6.357E+00
     6.385E+00    6.413E+00    6.441E+00    6.469E+00    6.497E+00    6.525E+00    6.552E+00    6.580E+00    6.607E+00    6.635E+00
     6.662E+00    6.690E+00    6.717E+00    6.744E+00    6.771E+00    6.798E+00    6.826E+00    6.853E+00    6.880E+00    6.907E+00
     6.934E+00    6.960E+00    6.987E+00    7.014E+00    7.041E+00    7.068E+00    7.094E+00    7.121E+00    7.148E+00    7.174E+00
     7.201E+00    7.228E+00    7.254E+00    7.281E+00    7.307E+00    7.334E+00    7.360E+00    7.387E+00    7.413E+00    7.440E+00
     7.466E+00    7.493E+00    7.519E+00    7.545E+00    7.572E+00    7.598E+00    7.625E+00    7.651E+00
 Ala      Conc. = 7.16E+02
