 LCModel (Version 6.3-1L) Copyright: S.W. Provencher.          Ref.: Magn. Reson. Med. 30:672-679 (1993).                
 Slice#1 Row#5 Col#11  PD_05_press_1_raw_act
 36 lines in following concentration table = NCONC+1
    Conc.  %SD /Cr+PCr  Metabolite                                         
  266.295  52%   0.379 Ala                                                 
    0.000 999%   0.000 Asp                                                 
    0.000 999%   0.000 Cr                                                  
  701.841   7%   1.000 PCr                                                 
   37.734 319% 5.4E-02 GABA                                                
   37.538 303% 5.3E-02 Glc                                                 
 1.06E+03  30%   1.506 Gln                                                 
 1.34E+03  27%   1.909 Glu                                                 
  236.478   8%   0.337 GPC                                                 
    0.000 999%   0.000 PCh                                                 
  177.847  41%   0.253 GSH                                                 
  353.094  60%   0.503 Ins                                                 
    0.000 999%   0.000 Lac                                                 
 1.97E+03   7%   2.811 NAA                                                 
  106.379 142%   0.152 NAAG                                                
   74.943  31%   0.107 Scyllo                                              
  256.316  60%   0.365 Tau                                                 
  435.743  20%   0.621 -CrCH2                                              
  236.478   8%   0.337 GPC+PCh                                             
 2.08E+03   4%   2.962 NAA+NAAG                                            
  701.841   7%   1.000 Cr+PCr                                              
 2.40E+03  24%   3.415 Glu+Gln                                             
    0.000 999%   0.000 Lip13a                                              
  108.867  63%   0.155 Lip13b                                              
    0.000 999%   0.000 Lip09                                               
  991.093  11%   1.412 MM09                                                
   52.468 111% 7.5E-02 Lip20                                               
 2.36E+03  10%   3.357 MM20                                                
  304.285  24%   0.434 MM12                                                
  730.193  24%   1.040 MM14                                                
  834.049  17%   1.188 MM17                                                
  108.867  63%   0.155 Lip13a+Lip13b                                       
 1.14E+03  16%   1.629 MM14+Lip13a+Lip13b+MM12                             
  991.093  11%   1.412 MM09+Lip09                                          
 2.41E+03  10%   3.432 MM20+Lip20                                          
   6 lines in following misc. output table
  FWHM = 0.076 ppm    S/N =  11                                            
  Data shift = 0.038 ppm                                                   
  Ph: -27 deg     -10.8 deg/ppm                                            
  alphaB,S = 8.5E+01,   4.1E+02                                            
   14 spline knots.   Ns =10(1)                                            
   2 inflections.     1 extrema                                            
  498 points on ppm-axis = NY
      4.000000     3.992357     3.984714     3.977070     3.969427     3.961784     3.954141     3.946497     3.938854     3.931211
      3.923568     3.915925     3.908281     3.900638     3.892995     3.885352     3.877708     3.870065     3.862422     3.854779
      3.847136     3.839492     3.831849     3.824206     3.816563     3.808919     3.801276     3.793633     3.785990     3.778347
      3.770703     3.763060     3.755417     3.747774     3.740130     3.732487     3.724844     3.717201     3.709558     3.701914
      3.694271     3.686628     3.678985     3.671341     3.663698     3.656055     3.648412     3.640769     3.633125     3.625482
      3.617839     3.610196     3.602552     3.594909     3.587266     3.579623     3.571980     3.564336     3.556693     3.549050
      3.541407     3.533763     3.526120     3.518477     3.510834     3.503191     3.495547     3.487904     3.480261     3.472618
      3.464974     3.457331     3.449688     3.442045     3.434402     3.426758     3.419115     3.411472     3.403829     3.396185
      3.388542     3.380899     3.373256     3.365613     3.357969     3.350326     3.342683     3.335040     3.327396     3.319753
      3.312110     3.304467     3.296824     3.289180     3.281537     3.273894     3.266251     3.258607     3.250964     3.243321
      3.235678     3.228034     3.220391     3.212748     3.205105     3.197462     3.189818     3.182175     3.174532     3.166889
      3.159245     3.151602     3.143959     3.136316     3.128673     3.121029     3.113386     3.105743     3.098100     3.090456
      3.082813     3.075170     3.067527     3.059884     3.052240     3.044597     3.036954     3.029311     3.021667     3.014024
      3.006381     2.998738     2.991095     2.983451     2.975808     2.968165     2.960522     2.952878     2.945235     2.937592
      2.929949     2.922306     2.914662     2.907019     2.899376     2.891733     2.884089     2.876446     2.868803     2.861160
      2.853517     2.845873     2.838230     2.830587     2.822944     2.815300     2.807657     2.800014     2.792371     2.784728
      2.777084     2.769441     2.761798     2.754155     2.746511     2.738868     2.731225     2.723582     2.715939     2.708295
      2.700652     2.693009     2.685366     2.677722     2.670079     2.662436     2.654793     2.647150     2.639506     2.631863
      2.624220     2.616577     2.608933     2.601290     2.593647     2.586004     2.578361     2.570717     2.563074     2.555431
      2.547788     2.540144     2.532501     2.524858     2.517215     2.509572     2.501928     2.494285     2.486642     2.478999
      2.471355     2.463712     2.456069     2.448426     2.440783     2.433139     2.425496     2.417853     2.410210     2.402566
      2.394923     2.387280     2.379637     2.371994     2.364350     2.356707     2.349064     2.341421     2.333777     2.326134
      2.318491     2.310848     2.303205     2.295561     2.287918     2.280275     2.272632     2.264988     2.257345     2.249702
      2.242059     2.234416     2.226772     2.219129     2.211486     2.203843     2.196199     2.188556     2.180913     2.173270
      2.165627     2.157983     2.150340     2.142697     2.135054     2.127410     2.119767     2.112124     2.104481     2.096838
      2.089194     2.081551     2.073908     2.066265     2.058621     2.050978     2.043335     2.035692     2.028049     2.020405
      2.012762     2.005119     1.997476     1.989833     1.982190     1.974546     1.966903     1.959260     1.951617     1.943974
      1.936331     1.928688     1.921045     1.913402     1.905759     1.898115     1.890472     1.882829     1.875186     1.867543
      1.859900     1.852257     1.844614     1.836971     1.829327     1.821684     1.814041     1.806398     1.798755     1.791112
      1.783469     1.775826     1.768183     1.760540     1.752896     1.745253     1.737610     1.729967     1.722324     1.714681
      1.707038     1.699395     1.691752     1.684108     1.676465     1.668822     1.661179     1.653536     1.645893     1.638250
      1.630607     1.622964     1.615321     1.607677     1.600034     1.592391     1.584748     1.577105     1.569462     1.561819
      1.554176     1.546533     1.538890     1.531246     1.523603     1.515960     1.508317     1.500674     1.493031     1.485388
      1.477745     1.470102     1.462458     1.454815     1.447172     1.439529     1.431886     1.424243     1.416600     1.408957
      1.401314     1.393671     1.386027     1.378384     1.370741     1.363098     1.355455     1.347812     1.340169     1.332526
      1.324883     1.317240     1.309596     1.301953     1.294310     1.286667     1.279024     1.271381     1.263738     1.256095
      1.248452     1.240808     1.233165     1.225522     1.217879     1.210236     1.202593     1.194950     1.187307     1.179664
      1.172021     1.164377     1.156734     1.149091     1.141448     1.133805     1.126162     1.118519     1.110876     1.103233
      1.095590     1.087946     1.080303     1.072660     1.065017     1.057374     1.049731     1.042088     1.034445     1.026802
      1.019158     1.011515     1.003872     0.996229     0.988586     0.980943     0.973300     0.965657     0.958014     0.950371
      0.942727     0.935084     0.927441     0.919798     0.912155     0.904512     0.896869     0.889226     0.881583     0.873940
      0.866296     0.858653     0.851010     0.843367     0.835724     0.828081     0.820438     0.812795     0.805152     0.797508
      0.789865     0.782222     0.774579     0.766936     0.759293     0.751650     0.744007     0.736364     0.728721     0.721077
      0.713434     0.705791     0.698148     0.690505     0.682862     0.675219     0.667576     0.659933     0.652290     0.644646
      0.637003     0.629360     0.621717     0.614074     0.606431     0.598788     0.591145     0.583502     0.575858     0.568215
      0.560572     0.552929     0.545286     0.537643     0.530000     0.522357     0.514714     0.507071     0.499427     0.491784
      0.484141     0.476498     0.468855     0.461212     0.453569     0.445925     0.438282     0.430639     0.422996     0.415353
      0.407710     0.400067     0.392424     0.384780     0.377137     0.369494     0.361851     0.354208     0.346565     0.338922
      0.331278     0.323635     0.315992     0.308349     0.300706     0.293063     0.285420     0.277777     0.270133     0.262490
      0.254847     0.247204     0.239561     0.231918     0.224275     0.216631     0.208988     0.201345
 NY phased data points follow
   4.63050E+00  2.66533E+00  9.24951E+00  8.75353E+00  3.20179E+00  8.37796E+00  5.64827E+00  6.17555E+00  7.00984E+00  8.82704E+00
   8.94832E+00  1.04813E+01  6.57543E+00  4.24164E+00  3.30552E+00  6.51656E+00  3.45876E+00  5.86291E+00  6.20894E+00  6.59034E+00
   4.40820E+00  6.56883E+00  4.98012E+00  7.40621E+00  5.05238E+00  4.11999E+00  6.59035E+00  7.19253E+00  6.71871E+00  7.29940E+00
   6.49716E+00  3.18155E+00  2.91867E+00  6.25383E+00  6.87332E+00  6.59241E+00  4.01695E+00  8.34503E+00  5.03418E+00  9.54954E+00
   4.78374E+00  5.24332E+00  4.37620E+00  9.38122E+00  8.52430E+00  8.62277E+00  6.65610E+00  5.30682E+00  6.07216E+00  4.72771E+00
   4.05843E+00  1.57601E+00  2.69927E+00  3.73392E+00  7.39976E+00  5.69269E+00  6.11712E+00  5.75574E+00  6.82066E+00  2.15263E+00
   6.31329E+00  1.22215E+00  1.23832E+00  1.91604E+00  2.65718E+00  3.26399E+00  3.44570E+00  4.59559E+00  4.77805E+00  1.31410E+00
   9.15251E+00  2.67328E+00  2.16796E+00 -5.44334E-01  4.01336E+00  4.11942E+00  6.31435E+00  4.12132E+00  3.69706E+00  3.86312E+00
   2.48618E+00  4.79378E+00  3.34582E+00  5.88649E+00  4.88318E+00  6.63898E+00  4.66542E+00  4.66413E+00  3.26616E+00  8.12957E+00
   5.24357E+00  7.81205E+00  7.47798E+00  6.55008E+00  4.14858E+00  7.94774E+00  1.11416E+01  1.30622E+01  1.41679E+01  1.83684E+01
   1.94355E+01  2.01501E+01  2.08750E+01  1.84988E+01  1.63945E+01  1.07656E+01  1.05762E+01  7.77079E+00  7.66561E+00  4.42696E+00
   4.99018E+00  8.69907E+00  5.78906E+00  7.02541E+00  4.35025E+00  7.77420E+00  5.86487E+00  7.76272E+00  7.24679E+00  5.94257E+00
   1.04864E+01  8.92998E+00  1.27513E+01  1.72295E+01  2.16845E+01  2.06813E+01  2.39669E+01  1.83686E+01  1.76572E+01  1.72771E+01
   1.38388E+01  9.70162E+00  1.22619E+01  1.00775E+01  9.27902E+00  6.53349E+00  5.45812E+00  4.60486E+00  7.69140E+00  4.45286E+00
   5.12451E+00  3.17065E+00  4.85105E+00  4.12477E+00  5.45956E+00  8.88623E+00  3.34134E+00  3.26604E+00  5.01059E+00  3.77404E+00
   5.28137E+00  3.65000E+00  2.69939E+00  5.75518E+00  6.70839E+00 -2.59893E-01  2.80243E+00  3.64714E+00  3.26021E+00  4.61450E+00
   2.34579E+00  7.05999E+00  3.78343E+00  2.09802E+00  1.48839E+00  1.10781E-01 -2.55468E+00 -3.18518E+00 -6.02579E+00 -3.35871E+00
  -2.42040E+00 -1.60264E+00 -4.14355E+00 -5.21050E+00 -5.13135E+00 -9.50928E+00 -6.67285E+00 -7.33009E+00 -6.51521E+00 -3.43220E+00
  -4.72476E+00 -5.86420E+00 -2.22217E+00 -4.03448E+00 -1.19452E+00 -1.99472E+00 -1.86527E+00 -1.51052E+00 -1.08849E+00 -1.96133E+00
  -6.11920E-01  9.01284E-01  4.82567E-01  3.01899E+00  1.21635E+00 -1.23599E+00 -1.66841E+00 -2.68001E-01 -1.12762E+00  1.13811E-01
  -1.59225E+00  3.90226E-01 -2.66416E-02  3.12366E+00  1.37158E+00  5.51231E-01  1.42663E+00  3.02128E+00  3.54729E+00  4.80073E+00
   5.29350E+00  5.52710E+00  7.09028E+00  4.41996E+00  9.05242E+00  7.81714E+00  9.41891E+00  7.44560E+00  1.21075E+01  4.43454E+00
   3.27706E+00  1.38338E+00  2.64338E+00  4.35177E+00  4.42388E+00  6.66490E+00  4.37314E+00  6.65628E+00  6.02264E+00  7.50987E+00
   8.35717E+00  7.99607E+00  7.41367E+00  7.51272E+00  6.61961E+00  9.04390E+00  8.10496E+00  7.78356E+00  7.72371E+00  4.98459E+00
   8.79023E+00  9.02097E+00  8.62204E+00  6.30648E+00  4.64881E+00  9.05196E+00  7.48290E+00  1.22337E+01  1.31722E+01  1.23906E+01
   1.87787E+01  1.86105E+01  1.94576E+01  2.50985E+01  3.04505E+01  3.40925E+01  4.14389E+01  4.39318E+01  4.86921E+01  5.63406E+01
   5.91912E+01  5.54128E+01  5.14385E+01  4.95469E+01  3.75218E+01  3.38073E+01  3.03199E+01  2.32049E+01  1.97348E+01  1.79127E+01
   1.28133E+01  8.88544E+00  9.38223E+00  7.26658E+00  4.20033E+00  6.53922E+00  4.91751E+00  8.38388E+00  8.22674E+00  4.09975E+00
   6.08419E+00  4.39372E+00  5.16521E+00  6.45345E+00  1.16862E+00  2.99824E+00  6.12674E+00  4.99757E+00  5.36926E+00  4.61347E+00
   1.33837E+00  1.78008E+00  3.63117E+00  5.47024E+00  4.99974E+00  6.42737E+00  5.97406E+00  7.31701E+00  3.37043E+00  5.93826E+00
   2.63812E+00  5.26273E+00  6.74777E+00  3.84812E+00  3.32848E+00  6.01847E+00  8.60431E+00  7.86110E+00  9.04804E+00  1.07738E+01
   6.44453E+00  9.17624E+00  9.65528E+00  4.85228E+00  7.52477E+00  9.51690E+00  7.09424E+00  9.65498E+00  8.91951E+00  7.99890E+00
   1.01203E+01  6.74079E+00  6.14231E+00  3.32174E+00  3.09149E+00  4.90894E+00  6.94220E+00  5.36616E+00  7.22821E+00  1.57244E+00
   1.34500E+00  4.34824E+00  3.02296E+00  3.56516E+00  4.18190E+00  6.70224E+00  3.13977E+00  7.10345E+00  4.62847E+00  7.13939E+00
   4.76224E+00  1.94262E+00  3.52052E+00  1.28349E+00  4.01674E+00  1.71761E+00  4.98200E+00  2.81691E+00  3.37905E+00  6.80330E+00
   6.93513E+00  7.12999E+00  6.13392E+00  4.72083E+00  4.99916E+00  4.19395E+00  3.13558E+00  2.95553E+00  3.30098E+00  1.78167E+00
   2.46804E+00  1.20845E+00  2.18078E+00 -4.09104E-01  1.78332E+00  2.16737E+00  3.81757E+00  4.12086E+00  5.12122E+00  9.40480E-01
   6.36255E-01  3.89360E+00  3.15767E+00  3.34693E+00  4.29934E+00  7.29717E+00  6.56714E+00  4.36489E+00 -1.55312E+00  3.79774E+00
   2.86090E+00  5.61095E+00  1.28519E+00  2.32381E+00  2.28746E+00  1.01572E+00  1.68515E+00  2.75680E+00  4.50665E+00  3.51357E+00
   6.66797E-01  5.48835E+00  2.95315E+00  2.59604E+00  2.58789E+00  2.89961E-01  4.02555E+00  1.62248E-01  5.19806E+00  4.22630E+00
   3.97551E+00  6.26203E+00  6.48576E+00  5.95316E+00  6.11017E+00  7.65724E+00  7.24519E+00  6.75101E+00  6.81663E+00  7.28232E+00
   6.40435E+00  5.14554E+00  5.90557E+00  5.52688E+00  5.66009E+00  2.58159E+00  2.32868E+00  3.10641E+00  3.16001E+00  2.58027E+00
   2.95502E+00 -5.84787E-01  2.29560E+00  8.97203E-01  1.74372E+00  1.06342E+00 -2.47192E-01  1.12220E+00  2.90143E+00 -9.69080E-01
  -1.55343E+00  4.59668E-01  6.49065E-01 -1.98754E+00 -2.29010E+00 -1.30739E+00 -8.21012E-02  2.76180E+00 -8.66003E-01 -6.06960E-01
   9.92423E-01 -5.54758E-01 -1.67883E+00 -2.59602E-01 -3.20398E-01  3.97851E-01  2.32533E+00  9.58277E-01 -1.63035E+00 -4.02254E-01
   1.06552E-01  3.06497E-01 -7.82766E-02 -1.80824E+00 -1.10059E+00 -1.60039E+00 -3.28214E+00  3.93901E-01  1.62170E+00  4.97999E+00
   8.41749E-01 -1.66034E+00 -1.30792E+00 -1.26668E+00 -2.23249E+00  5.33638E-01 -2.75954E-01 -5.49646E-01 -9.85381E-01 -8.51720E-01
   8.81119E-01 -4.80794E-01  1.90380E+00  1.87076E+00  1.09611E+00 -1.00578E+00 -2.58024E+00  1.83977E-01  1.78353E+00  1.53167E+00
   1.71002E+00 -1.72179E+00 -6.88650E-01 -1.38782E+00 -4.24733E+00 -4.87186E-01 -1.62903E+00  1.24613E+00  8.39509E-01 -2.77671E-01
  -2.81113E-01 -2.60763E+00  1.17598E+00 -1.63522E+00 -2.66575E+00 -3.26915E+00 -3.44662E-01 -6.35272E-02
 NY points of the fit to the data follow
   4.48184E+00  4.92274E+00  5.43814E+00  6.01334E+00  6.62901E+00  7.24077E+00  7.76177E+00  8.09837E+00  8.19130E+00  8.04474E+00
   7.71529E+00  7.28262E+00  6.83471E+00  6.44207E+00  6.13418E+00  5.89027E+00  5.65722E+00  5.42350E+00  5.16268E+00  4.89746E+00
   4.76636E+00  4.77815E+00  4.83781E+00  4.94079E+00  5.11481E+00  5.39140E+00  5.76026E+00  6.21776E+00  6.77245E+00  7.33629E+00
   7.78407E+00  8.04318E+00  8.06282E+00  7.81297E+00  7.33836E+00  6.76338E+00  6.21369E+00  5.78055E+00  5.51931E+00  5.43776E+00
   5.45286E+00  5.51322E+00  5.63537E+00  5.80105E+00  5.96314E+00  6.09678E+00  6.18693E+00  6.19059E+00  6.05450E+00  5.79436E+00
   5.46699E+00  5.10316E+00  4.75002E+00  4.45772E+00  4.23560E+00  4.06498E+00  3.93507E+00  3.84508E+00  3.77798E+00  3.73546E+00
   3.71108E+00  3.68472E+00  3.64804E+00  3.60657E+00  3.56424E+00  3.54266E+00  3.56399E+00  3.61228E+00  3.66619E+00  3.71171E+00
   3.74072E+00  3.75803E+00  3.77367E+00  3.78401E+00  3.77110E+00  3.72496E+00  3.69895E+00  3.74661E+00  3.84666E+00  3.99415E+00
   4.19898E+00  4.46885E+00  4.78607E+00  5.10848E+00  5.37419E+00  5.51318E+00  5.48619E+00  5.30628E+00  5.02213E+00  4.69222E+00
   4.38068E+00  4.30442E+00  4.82874E+00  5.85024E+00  7.18222E+00  8.75301E+00  1.05328E+01  1.24856E+01  1.45417E+01  1.64955E+01
   1.80153E+01  1.88114E+01  1.87447E+01  1.78719E+01  1.63886E+01  1.45580E+01  1.26533E+01  1.08690E+01  9.28431E+00  7.89263E+00
   6.64829E+00  5.51617E+00  4.52681E+00  3.84026E+00  3.57627E+00  3.57969E+00  4.02562E+00  5.06622E+00  6.48767E+00  8.15086E+00
   1.00175E+01  1.20612E+01  1.42239E+01  1.63808E+01  1.83032E+01  1.96755E+01  2.02381E+01  1.99086E+01  1.87888E+01  1.71111E+01
   1.51687E+01  1.32231E+01  1.14265E+01  9.81727E+00  8.37212E+00  7.05270E+00  5.86452E+00  4.91281E+00  4.37719E+00  4.19752E+00
   4.12460E+00  4.06519E+00  3.98706E+00  3.88133E+00  3.75378E+00  3.61859E+00  3.48529E+00  3.34946E+00  3.21067E+00  3.07152E+00
   2.93174E+00  2.77867E+00  2.59611E+00  2.40259E+00  2.21989E+00  2.06545E+00  1.94007E+00  1.80733E+00  1.65124E+00  1.47930E+00
   1.31158E+00  1.17054E+00  1.06305E+00  9.72951E-01  8.67736E-01  7.10108E-01  4.69376E-01  1.36474E-01 -2.32699E-01 -5.78275E-01
  -8.75492E-01 -1.13610E+00 -1.39141E+00 -1.64168E+00 -1.86546E+00 -2.02844E+00 -2.11163E+00 -2.12581E+00 -2.10726E+00 -2.05654E+00
  -1.95686E+00 -1.79790E+00 -1.57443E+00 -1.29572E+00 -9.64886E-01 -5.90678E-01 -1.87991E-01  2.35258E-01  6.38335E-01  9.76864E-01
   1.26969E+00  1.53959E+00  1.78307E+00  1.99993E+00  2.27258E+00  2.67844E+00  3.21309E+00  3.82008E+00  4.38000E+00  4.73900E+00
   4.83518E+00  4.72538E+00  4.40609E+00  3.83429E+00  3.02062E+00  2.07977E+00  1.22034E+00  6.42772E-01  4.18171E-01  5.96030E-01
   1.14993E+00  1.98260E+00  2.93018E+00  3.77398E+00  4.36282E+00  4.65108E+00  4.63102E+00  4.30807E+00  3.75299E+00  3.08991E+00
   2.45725E+00  1.99535E+00  1.85052E+00  2.10670E+00  2.66353E+00  3.30938E+00  3.92639E+00  4.50771E+00  5.06498E+00  5.59403E+00
   6.08206E+00  6.54650E+00  6.97132E+00  7.34797E+00  7.65646E+00  7.89182E+00  8.08820E+00  8.23886E+00  8.28331E+00  8.20099E+00
   8.03584E+00  7.86117E+00  7.76406E+00  7.82954E+00  8.11366E+00  8.62668E+00  9.33739E+00  1.01526E+01  1.10132E+01  1.19798E+01
   1.35223E+01  1.65493E+01  2.08030E+01  2.56597E+01  3.08147E+01  3.61499E+01  4.15390E+01  4.67707E+01  5.14159E+01  5.47864E+01
   5.61724E+01  5.51933E+01  5.19557E+01  4.69605E+01  4.09636E+01  3.47934E+01  2.90544E+01  2.40144E+01  1.96835E+01  1.58879E+01
   1.24594E+01  9.47216E+00  7.32801E+00  6.31033E+00  5.83617E+00  5.50135E+00  5.21977E+00  4.96189E+00  4.70916E+00  4.47005E+00
   4.25244E+00  4.05890E+00  3.89061E+00  3.74704E+00  3.62509E+00  3.52642E+00  3.45699E+00  3.41933E+00  3.41209E+00  3.43416E+00
   3.48609E+00  3.56856E+00  3.68045E+00  3.81954E+00  3.98622E+00  4.18084E+00  4.40195E+00  4.64737E+00  4.91424E+00  5.19809E+00
   5.49292E+00  5.79170E+00  6.08685E+00  6.37054E+00  6.63527E+00  6.87376E+00  7.07939E+00  7.24705E+00  7.37324E+00  7.45630E+00
   7.49635E+00  7.49563E+00  7.45890E+00  7.39348E+00  7.30961E+00  7.22268E+00  7.15986E+00  7.15576E+00  7.16575E+00  7.13555E+00
   7.05680E+00  6.92805E+00  6.73767E+00  6.45904E+00  6.05934E+00  5.57101E+00  5.04786E+00  4.51315E+00  4.01354E+00  3.61359E+00
   3.37412E+00  3.33622E+00  3.50297E+00  3.83110E+00  4.24032E+00  4.63857E+00  4.95528E+00  5.16199E+00  5.26851E+00  5.29687E+00
   5.23772E+00  5.10709E+00  4.94357E+00  4.76844E+00  4.58705E+00  4.40053E+00  4.22681E+00  4.11830E+00  4.09345E+00  4.12415E+00
   4.18870E+00  4.26776E+00  4.34150E+00  4.39087E+00  4.39990E+00  4.35825E+00  4.26276E+00  4.11786E+00  3.93440E+00  3.72741E+00
   3.51313E+00  3.30630E+00  3.11808E+00  2.95513E+00  2.81961E+00  2.71010E+00  2.62278E+00  2.55285E+00  2.49544E+00  2.44655E+00
   2.40323E+00  2.36377E+00  2.32746E+00  2.29447E+00  2.26553E+00  2.24183E+00  2.22477E+00  2.21597E+00  2.21700E+00  2.22950E+00
   2.25502E+00  2.29515E+00  2.35132E+00  2.42492E+00  2.51715E+00  2.62909E+00  2.76156E+00  2.91515E+00  3.09007E+00  3.28613E+00
   3.50256E+00  3.73805E+00  3.99058E+00  4.25743E+00  4.53507E+00  4.81925E+00  5.10493E+00  5.38648E+00  5.65773E+00  5.91224E+00
   6.14343E+00  6.34489E+00  6.51062E+00  6.63536E+00  6.71475E+00  6.74567E+00  6.72625E+00  6.65611E+00  6.53628E+00  6.36926E+00
   6.15878E+00  5.90972E+00  5.62777E+00  5.31927E+00  4.99083E+00  4.64915E+00  4.30068E+00  3.95144E+00  3.60681E+00  3.27145E+00
   2.94917E+00  2.64299E+00  2.35504E+00  2.08673E+00  1.83870E+00  1.61108E+00  1.40344E+00  1.21503E+00  1.04476E+00  8.91397E-01
   7.53561E-01  6.29879E-01  5.18944E-01  4.19452E-01  3.30116E-01  2.49794E-01  1.77397E-01  1.12006E-01  5.27523E-02 -1.08383E-03
  -5.01925E-02 -9.51255E-02 -1.36411E-01 -1.74449E-01 -2.09639E-01 -2.42284E-01 -2.72700E-01 -3.01110E-01 -3.27753E-01 -3.52780E-01
  -3.76381E-01 -3.98673E-01 -4.19816E-01 -4.39893E-01 -4.59024E-01 -4.77261E-01 -4.94709E-01 -5.11414E-01 -5.27469E-01 -5.42897E-01
  -5.57770E-01 -5.72100E-01 -5.85956E-01 -5.99352E-01 -6.12350E-01 -6.24947E-01 -6.37192E-01 -6.49078E-01 -6.60661E-01 -6.71936E-01
  -6.82947E-01 -6.93675E-01 -7.04159E-01 -7.14386E-01 -7.24400E-01 -7.34187E-01 -7.43780E-01 -7.53155E-01 -7.62344E-01 -7.71329E-01
  -7.80151E-01 -7.88783E-01 -7.97254E-01 -8.05532E-01 -8.13648E-01 -8.21579E-01 -8.29357E-01 -8.36949E-01 -8.44374E-01 -8.51596E-01
  -8.58642E-01 -8.65480E-01 -8.72131E-01 -8.78548E-01 -8.84741E-01 -8.90660E-01 -8.96317E-01 -9.01661E-01
 NY background values follow
     2.623E+00    2.616E+00    2.610E+00    2.603E+00    2.597E+00    2.590E+00    2.584E+00    2.577E+00    2.571E+00    2.564E+00
     2.558E+00    2.551E+00    2.545E+00    2.538E+00    2.532E+00    2.525E+00    2.519E+00    2.512E+00    2.506E+00    2.499E+00
     2.493E+00    2.486E+00    2.480E+00    2.473E+00    2.467E+00    2.460E+00    2.454E+00    2.447E+00    2.441E+00    2.434E+00
     2.428E+00    2.421E+00    2.415E+00    2.408E+00    2.402E+00    2.395E+00    2.388E+00    2.382E+00    2.375E+00    2.369E+00
     2.362E+00    2.356E+00    2.349E+00    2.343E+00    2.336E+00    2.330E+00    2.323E+00    2.316E+00    2.310E+00    2.303E+00
     2.297E+00    2.290E+00    2.284E+00    2.277E+00    2.270E+00    2.264E+00    2.257E+00    2.251E+00    2.244E+00    2.238E+00
     2.231E+00    2.224E+00    2.218E+00    2.211E+00    2.205E+00    2.198E+00    2.191E+00    2.185E+00    2.178E+00    2.172E+00
     2.165E+00    2.158E+00    2.152E+00    2.145E+00    2.139E+00    2.132E+00    2.125E+00    2.119E+00    2.112E+00    2.106E+00
     2.099E+00    2.092E+00    2.086E+00    2.079E+00    2.073E+00    2.066E+00    2.059E+00    2.053E+00    2.046E+00    2.039E+00
     2.033E+00    2.026E+00    2.020E+00    2.013E+00    2.006E+00    2.000E+00    1.993E+00    1.986E+00    1.980E+00    1.973E+00
     1.967E+00    1.960E+00    1.953E+00    1.947E+00    1.940E+00    1.933E+00    1.927E+00    1.920E+00    1.913E+00    1.907E+00
     1.900E+00    1.893E+00    1.887E+00    1.880E+00    1.873E+00    1.867E+00    1.860E+00    1.853E+00    1.847E+00    1.840E+00
     1.833E+00    1.827E+00    1.820E+00    1.813E+00    1.807E+00    1.800E+00    1.793E+00    1.787E+00    1.780E+00    1.773E+00
     1.767E+00    1.760E+00    1.753E+00    1.747E+00    1.740E+00    1.733E+00    1.727E+00    1.720E+00    1.713E+00    1.707E+00
     1.700E+00    1.693E+00    1.687E+00    1.680E+00    1.673E+00    1.666E+00    1.660E+00    1.653E+00    1.646E+00    1.640E+00
     1.633E+00    1.626E+00    1.620E+00    1.613E+00    1.606E+00    1.599E+00    1.593E+00    1.586E+00    1.579E+00    1.573E+00
     1.566E+00    1.559E+00    1.553E+00    1.546E+00    1.539E+00    1.532E+00    1.526E+00    1.519E+00    1.512E+00    1.506E+00
     1.499E+00    1.492E+00    1.485E+00    1.479E+00    1.472E+00    1.465E+00    1.458E+00    1.452E+00    1.445E+00    1.438E+00
     1.432E+00    1.425E+00    1.418E+00    1.411E+00    1.405E+00    1.398E+00    1.391E+00    1.384E+00    1.378E+00    1.371E+00
     1.364E+00    1.358E+00    1.351E+00    1.344E+00    1.337E+00    1.331E+00    1.324E+00    1.317E+00    1.310E+00    1.304E+00
     1.297E+00    1.290E+00    1.283E+00    1.277E+00    1.270E+00    1.263E+00    1.257E+00    1.250E+00    1.243E+00    1.236E+00
     1.230E+00    1.223E+00    1.216E+00    1.209E+00    1.203E+00    1.196E+00    1.189E+00    1.182E+00    1.176E+00    1.169E+00
     1.162E+00    1.155E+00    1.149E+00    1.142E+00    1.135E+00    1.128E+00    1.122E+00    1.115E+00    1.108E+00    1.101E+00
     1.095E+00    1.088E+00    1.081E+00    1.074E+00    1.067E+00    1.061E+00    1.054E+00    1.047E+00    1.040E+00    1.034E+00
     1.027E+00    1.020E+00    1.013E+00    1.007E+00    9.999E-01    9.931E-01    9.864E-01    9.796E-01    9.729E-01    9.661E-01
     9.593E-01    9.526E-01    9.458E-01    9.391E-01    9.323E-01    9.255E-01    9.188E-01    9.120E-01    9.052E-01    8.985E-01
     8.917E-01    8.849E-01    8.782E-01    8.714E-01    8.646E-01    8.579E-01    8.511E-01    8.443E-01    8.376E-01    8.308E-01
     8.240E-01    8.173E-01    8.105E-01    8.037E-01    7.970E-01    7.902E-01    7.834E-01    7.767E-01    7.699E-01    7.631E-01
     7.563E-01    7.496E-01    7.428E-01    7.360E-01    7.293E-01    7.225E-01    7.157E-01    7.090E-01    7.022E-01    6.954E-01
     6.887E-01    6.819E-01    6.751E-01    6.683E-01    6.616E-01    6.548E-01    6.480E-01    6.413E-01    6.345E-01    6.277E-01
     6.210E-01    6.142E-01    6.074E-01    6.006E-01    5.939E-01    5.871E-01    5.803E-01    5.736E-01    5.668E-01    5.600E-01
     5.533E-01    5.465E-01    5.397E-01    5.330E-01    5.262E-01    5.194E-01    5.127E-01    5.059E-01    4.991E-01    4.923E-01
     4.856E-01    4.788E-01    4.720E-01    4.653E-01    4.585E-01    4.517E-01    4.450E-01    4.382E-01    4.314E-01    4.247E-01
     4.179E-01    4.111E-01    4.044E-01    3.976E-01    3.909E-01    3.841E-01    3.773E-01    3.706E-01    3.638E-01    3.570E-01
     3.503E-01    3.435E-01    3.368E-01    3.300E-01    3.232E-01    3.165E-01    3.097E-01    3.029E-01    2.962E-01    2.894E-01
     2.827E-01    2.759E-01    2.691E-01    2.624E-01    2.556E-01    2.489E-01    2.421E-01    2.354E-01    2.286E-01    2.219E-01
     2.151E-01    2.083E-01    2.016E-01    1.948E-01    1.881E-01    1.813E-01    1.746E-01    1.678E-01    1.611E-01    1.543E-01
     1.476E-01    1.408E-01    1.341E-01    1.273E-01    1.206E-01    1.138E-01    1.071E-01    1.003E-01    9.360E-02    8.685E-02
     8.011E-02    7.336E-02    6.662E-02    5.988E-02    5.314E-02    4.639E-02    3.965E-02    3.291E-02    2.617E-02    1.944E-02
     1.270E-02    5.961E-03   -7.754E-04   -7.511E-03   -1.425E-02   -2.098E-02   -2.771E-02   -3.445E-02   -4.118E-02   -4.791E-02
    -5.464E-02   -6.137E-02   -6.810E-02   -7.483E-02   -8.156E-02   -8.828E-02   -9.501E-02   -1.017E-01   -1.085E-01   -1.152E-01
    -1.219E-01   -1.286E-01   -1.354E-01   -1.421E-01   -1.488E-01   -1.555E-01   -1.622E-01   -1.689E-01   -1.757E-01   -1.824E-01
    -1.891E-01   -1.958E-01   -2.025E-01   -2.092E-01   -2.159E-01   -2.226E-01   -2.294E-01   -2.361E-01   -2.428E-01   -2.495E-01
    -2.562E-01   -2.629E-01   -2.696E-01   -2.763E-01   -2.830E-01   -2.897E-01   -2.964E-01   -3.031E-01   -3.098E-01   -3.165E-01
    -3.232E-01   -3.299E-01   -3.366E-01   -3.433E-01   -3.500E-01   -3.566E-01   -3.633E-01   -3.700E-01   -3.767E-01   -3.834E-01
    -3.901E-01   -3.968E-01   -4.034E-01   -4.101E-01   -4.168E-01   -4.235E-01   -4.302E-01   -4.368E-01   -4.435E-01   -4.502E-01
    -4.569E-01   -4.635E-01   -4.702E-01   -4.769E-01   -4.835E-01   -4.902E-01   -4.969E-01   -5.035E-01   -5.102E-01   -5.169E-01
    -5.235E-01   -5.302E-01   -5.369E-01   -5.435E-01   -5.502E-01   -5.568E-01   -5.635E-01   -5.701E-01   -5.768E-01   -5.834E-01
    -5.901E-01   -5.967E-01   -6.034E-01   -6.100E-01   -6.167E-01   -6.233E-01   -6.300E-01   -6.366E-01   -6.432E-01   -6.499E-01
    -6.565E-01   -6.631E-01   -6.698E-01   -6.764E-01   -6.830E-01   -6.897E-01   -6.963E-01   -7.029E-01
 Ala      Conc. = 2.66E+02
