 LCModel (Version 6.3-1L) Copyright: S.W. Provencher.          Ref.: Magn. Reson. Med. 30:672-679 (1993).                
 Slice#2 Row#4 Col#13  PD_05_press_1_raw_act
 36 lines in following concentration table = NCONC+1
    Conc.  %SD /Cr+PCr  Metabolite                                         
  102.833  53%   0.000 Ala                                                 
    0.000 999%   0.000 Asp                                                 
    0.000 999%   0.000 Cr                                                  
    0.000 999%   0.000 PCr                                                 
    0.000 999%   0.000 GABA                                                
 2.45E-03 999%   0.000 Glc                                                 
  117.789  72%   0.000 Gln                                                 
   97.711  95%   0.000 Glu                                                 
    0.000 999%   0.000 GPC                                                 
    0.000 999%   0.000 PCh                                                 
   53.896  53%   0.000 GSH                                                 
  121.953  81%   0.000 Ins                                                 
  261.992  57%   0.000 Lac                                                 
    0.000 999%   0.000 NAA                                                 
    0.000 999%   0.000 NAAG                                                
 1.31E-03 999%   0.000 Scyllo                                              
 2.99E-03 999%   0.000 Tau                                                 
    0.190 999%   0.000 -CrCH2                                              
    0.000 999%   0.000 GPC+PCh                                             
    0.000 999%   0.000 NAA+NAAG                                            
    0.000 999%   0.000 Cr+PCr                                              
  215.500  61%   0.000 Glu+Gln                                             
 6.39E+04  10%   0.000 Lip13a                                              
 1.89E+03  84%   0.000 Lip13b                                              
 1.69E+04  14%   0.000 Lip09                                               
 2.10E+03  28%   0.000 MM09                                                
    0.000 999%   0.000-Lip20                                               
    0.000 999%   0.000 MM20                                                
 3.09E+03  53%   0.000 MM12                                                
 1.28E+04  28%   0.000 MM14                                                
 3.78E+03  29%   0.000 MM17                                                
 6.58E+04  10%   0.000 Lip13a+Lip13b                                       
 8.17E+04   6%   0.000 MM14+Lip13a+Lip13b+MM12                             
 1.90E+04  11%   0.000 MM09+Lip09                                          
    0.000 999%   0.000 MM20+Lip20                                          
   6 lines in following misc. output table
  FWHM = 0.061 ppm    S/N =  72                                            
  Data shift =-0.099 ppm                                                   
  Ph:-164 deg      45.5 deg/ppm                                            
  alphaB,S = 8.4E-01,   4.2E+01                                            
   14 spline knots.   Ns = 5(1)                                            
  ( 9) 2 infls.   ( 9) 1 extrs.                                            
  498 points on ppm-axis = NY
      4.000000     3.992357     3.984714     3.977070     3.969427     3.961784     3.954141     3.946497     3.938854     3.931211
      3.923568     3.915925     3.908281     3.900638     3.892995     3.885352     3.877708     3.870065     3.862422     3.854779
      3.847136     3.839492     3.831849     3.824206     3.816563     3.808919     3.801276     3.793633     3.785990     3.778347
      3.770703     3.763060     3.755417     3.747774     3.740130     3.732487     3.724844     3.717201     3.709558     3.701914
      3.694271     3.686628     3.678985     3.671341     3.663698     3.656055     3.648412     3.640769     3.633125     3.625482
      3.617839     3.610196     3.602552     3.594909     3.587266     3.579623     3.571980     3.564336     3.556693     3.549050
      3.541407     3.533763     3.526120     3.518477     3.510834     3.503191     3.495547     3.487904     3.480261     3.472618
      3.464974     3.457331     3.449688     3.442045     3.434402     3.426758     3.419115     3.411472     3.403829     3.396185
      3.388542     3.380899     3.373256     3.365613     3.357969     3.350326     3.342683     3.335040     3.327396     3.319753
      3.312110     3.304467     3.296824     3.289180     3.281537     3.273894     3.266251     3.258607     3.250964     3.243321
      3.235678     3.228034     3.220391     3.212748     3.205105     3.197462     3.189818     3.182175     3.174532     3.166889
      3.159245     3.151602     3.143959     3.136316     3.128673     3.121029     3.113386     3.105743     3.098100     3.090456
      3.082813     3.075170     3.067527     3.059884     3.052240     3.044597     3.036954     3.029311     3.021667     3.014024
      3.006381     2.998738     2.991095     2.983451     2.975808     2.968165     2.960522     2.952878     2.945235     2.937592
      2.929949     2.922306     2.914662     2.907019     2.899376     2.891733     2.884089     2.876446     2.868803     2.861160
      2.853517     2.845873     2.838230     2.830587     2.822944     2.815300     2.807657     2.800014     2.792371     2.784728
      2.777084     2.769441     2.761798     2.754155     2.746511     2.738868     2.731225     2.723582     2.715939     2.708295
      2.700652     2.693009     2.685366     2.677722     2.670079     2.662436     2.654793     2.647150     2.639506     2.631863
      2.624220     2.616577     2.608933     2.601290     2.593647     2.586004     2.578361     2.570717     2.563074     2.555431
      2.547788     2.540144     2.532501     2.524858     2.517215     2.509572     2.501928     2.494285     2.486642     2.478999
      2.471355     2.463712     2.456069     2.448426     2.440783     2.433139     2.425496     2.417853     2.410210     2.402566
      2.394923     2.387280     2.379637     2.371994     2.364350     2.356707     2.349064     2.341421     2.333777     2.326134
      2.318491     2.310848     2.303205     2.295561     2.287918     2.280275     2.272632     2.264988     2.257345     2.249702
      2.242059     2.234416     2.226772     2.219129     2.211486     2.203843     2.196199     2.188556     2.180913     2.173270
      2.165627     2.157983     2.150340     2.142697     2.135054     2.127410     2.119767     2.112124     2.104481     2.096838
      2.089194     2.081551     2.073908     2.066265     2.058621     2.050978     2.043335     2.035692     2.028049     2.020405
      2.012762     2.005119     1.997476     1.989833     1.982190     1.974546     1.966903     1.959260     1.951617     1.943974
      1.936331     1.928688     1.921045     1.913402     1.905759     1.898115     1.890472     1.882829     1.875186     1.867543
      1.859900     1.852257     1.844614     1.836971     1.829327     1.821684     1.814041     1.806398     1.798755     1.791112
      1.783469     1.775826     1.768183     1.760540     1.752896     1.745253     1.737610     1.729967     1.722324     1.714681
      1.707038     1.699395     1.691752     1.684108     1.676465     1.668822     1.661179     1.653536     1.645893     1.638250
      1.630607     1.622964     1.615321     1.607677     1.600034     1.592391     1.584748     1.577105     1.569462     1.561819
      1.554176     1.546533     1.538890     1.531246     1.523603     1.515960     1.508317     1.500674     1.493031     1.485388
      1.477745     1.470102     1.462458     1.454815     1.447172     1.439529     1.431886     1.424243     1.416600     1.408957
      1.401314     1.393671     1.386027     1.378384     1.370741     1.363098     1.355455     1.347812     1.340169     1.332526
      1.324883     1.317240     1.309596     1.301953     1.294310     1.286667     1.279024     1.271381     1.263738     1.256095
      1.248452     1.240808     1.233165     1.225522     1.217879     1.210236     1.202593     1.194950     1.187307     1.179664
      1.172021     1.164377     1.156734     1.149091     1.141448     1.133805     1.126162     1.118519     1.110876     1.103233
      1.095590     1.087946     1.080303     1.072660     1.065017     1.057374     1.049731     1.042088     1.034445     1.026802
      1.019158     1.011515     1.003872     0.996229     0.988586     0.980943     0.973300     0.965657     0.958014     0.950371
      0.942727     0.935084     0.927441     0.919798     0.912155     0.904512     0.896869     0.889226     0.881583     0.873940
      0.866296     0.858653     0.851010     0.843367     0.835724     0.828081     0.820438     0.812795     0.805152     0.797508
      0.789865     0.782222     0.774579     0.766936     0.759293     0.751650     0.744007     0.736364     0.728721     0.721077
      0.713434     0.705791     0.698148     0.690505     0.682862     0.675219     0.667576     0.659933     0.652290     0.644646
      0.637003     0.629360     0.621717     0.614074     0.606431     0.598788     0.591145     0.583502     0.575858     0.568215
      0.560572     0.552929     0.545286     0.537643     0.530000     0.522357     0.514714     0.507071     0.499427     0.491784
      0.484141     0.476498     0.468855     0.461212     0.453569     0.445925     0.438282     0.430639     0.422996     0.415353
      0.407710     0.400067     0.392424     0.384780     0.377137     0.369494     0.361851     0.354208     0.346565     0.338922
      0.331278     0.323635     0.315992     0.308349     0.300706     0.293063     0.285420     0.277777     0.270133     0.262490
      0.254847     0.247204     0.239561     0.231918     0.224275     0.216631     0.208988     0.201345
 NY phased data points follow
  -1.50901E+01 -1.60428E+01 -1.67402E+01 -1.66392E+01 -1.65771E+01 -1.52623E+01 -1.80416E+01 -1.74020E+01 -1.67681E+01 -1.65835E+01
  -1.90087E+01 -1.70362E+01 -1.75941E+01 -1.53451E+01 -1.64154E+01 -1.67879E+01 -1.64024E+01 -1.65498E+01 -1.81496E+01 -1.92194E+01
  -1.66296E+01 -1.72390E+01 -1.91126E+01 -1.57199E+01 -1.71179E+01 -1.74363E+01 -1.75450E+01 -1.71699E+01 -1.65989E+01 -1.62424E+01
  -1.70325E+01 -1.62811E+01 -1.64544E+01 -1.65045E+01 -1.84822E+01 -1.80542E+01 -2.03394E+01 -1.73216E+01 -1.75023E+01 -1.92221E+01
  -1.81737E+01 -1.90975E+01 -1.75547E+01 -1.68675E+01 -1.88411E+01 -1.75625E+01 -1.85891E+01 -1.71087E+01 -1.80043E+01 -1.90461E+01
  -1.82177E+01 -1.83457E+01 -1.86990E+01 -1.68375E+01 -1.87708E+01 -1.88674E+01 -1.56768E+01 -1.85293E+01 -2.08038E+01 -1.68236E+01
  -1.84697E+01 -1.83214E+01 -1.76968E+01 -1.60242E+01 -1.79124E+01 -1.86774E+01 -2.00295E+01 -1.80517E+01 -1.70422E+01 -1.89436E+01
  -1.81952E+01 -1.72354E+01 -1.95330E+01 -1.81974E+01 -1.76633E+01 -1.75215E+01 -1.90958E+01 -1.83954E+01 -2.08080E+01 -1.80098E+01
  -1.86576E+01 -2.03576E+01 -1.91746E+01 -1.98118E+01 -1.77929E+01 -1.99738E+01 -2.04823E+01 -1.89370E+01 -1.74102E+01 -2.12361E+01
  -1.91138E+01 -2.16072E+01 -1.99093E+01 -1.90631E+01 -1.86881E+01 -2.11574E+01 -2.09667E+01 -2.04843E+01 -2.06099E+01 -2.03621E+01
  -1.85702E+01 -1.98545E+01 -2.01067E+01 -2.14944E+01 -2.08339E+01 -2.12045E+01 -2.00332E+01 -2.06746E+01 -1.94523E+01 -2.12860E+01
  -2.13852E+01 -2.10382E+01 -1.96501E+01 -2.08433E+01 -2.00719E+01 -2.06311E+01 -2.29927E+01 -2.03870E+01 -2.00353E+01 -1.95630E+01
  -2.06685E+01 -1.99183E+01 -1.97347E+01 -1.85964E+01 -2.02753E+01 -2.01724E+01 -2.05215E+01 -1.97858E+01 -2.05464E+01 -2.03425E+01
  -2.04851E+01 -2.01537E+01 -2.18486E+01 -1.94429E+01 -1.88272E+01 -1.89103E+01 -1.82545E+01 -2.03459E+01 -1.92335E+01 -2.30164E+01
  -1.87383E+01 -1.99440E+01 -1.94571E+01 -2.04329E+01 -1.82254E+01 -2.16366E+01 -1.89987E+01 -1.88439E+01 -2.08696E+01 -1.96050E+01
  -2.18396E+01 -2.02899E+01 -1.94923E+01 -2.25012E+01 -1.90244E+01 -2.15714E+01 -1.91742E+01 -2.01179E+01 -1.99676E+01 -1.99277E+01
  -2.14863E+01 -2.18557E+01 -2.06266E+01 -2.24893E+01 -2.06670E+01 -2.13660E+01 -2.11922E+01 -2.10779E+01 -2.10580E+01 -2.14853E+01
  -2.21099E+01 -2.14553E+01 -2.00516E+01 -2.27256E+01 -2.21708E+01 -1.93521E+01 -2.31712E+01 -2.04608E+01 -2.01943E+01 -2.15011E+01
  -2.19263E+01 -2.00840E+01 -2.20714E+01 -2.17501E+01 -2.14588E+01 -2.05139E+01 -2.14491E+01 -2.25164E+01 -2.44130E+01 -2.06738E+01
  -1.96306E+01 -2.03168E+01 -2.29780E+01 -2.19898E+01 -2.05641E+01 -2.17192E+01 -2.14196E+01 -2.15253E+01 -2.32779E+01 -1.98993E+01
  -2.20542E+01 -1.92469E+01 -2.06726E+01 -1.93257E+01 -2.21959E+01 -2.15831E+01 -2.07888E+01 -2.04095E+01 -2.16880E+01 -2.35804E+01
  -2.14490E+01 -2.09253E+01 -2.18054E+01 -1.98694E+01 -2.16997E+01 -2.02539E+01 -2.02287E+01 -2.09553E+01 -2.09939E+01 -2.06752E+01
  -2.16888E+01 -2.12131E+01 -2.07453E+01 -2.11098E+01 -2.03161E+01 -2.02034E+01 -2.06032E+01 -2.04305E+01 -2.03319E+01 -1.60306E+01
  -1.98423E+01 -1.80360E+01 -2.02290E+01 -2.16651E+01 -1.92705E+01 -2.11884E+01 -2.00364E+01 -1.95053E+01 -2.13038E+01 -1.89682E+01
  -2.01235E+01 -2.17708E+01 -2.07942E+01 -1.91109E+01 -2.06828E+01 -1.99933E+01 -1.96129E+01 -1.86952E+01 -1.86342E+01 -1.93727E+01
  -1.94143E+01 -1.75485E+01 -1.98956E+01 -1.75795E+01 -1.79751E+01 -1.85947E+01 -1.92986E+01 -1.57000E+01 -1.78744E+01 -1.66108E+01
  -1.70690E+01 -1.61222E+01 -1.57222E+01 -1.40857E+01 -1.61507E+01 -1.43139E+01 -1.32597E+01 -1.37776E+01 -1.15689E+01 -1.21073E+01
  -8.98104E+00 -9.81588E+00 -7.83370E+00 -9.59295E+00 -9.09029E+00 -6.21708E+00 -9.80317E+00 -6.68860E+00 -7.49769E+00 -6.57201E+00
  -7.17102E+00 -8.19784E+00 -3.51794E+00 -4.88842E+00 -2.25274E+00 -1.43083E+00 -6.41904E-01  9.66070E-02  1.46930E-01  4.68455E-01
  -1.77277E-01  4.91265E+00  5.38291E+00  4.38644E+00  7.85755E+00  7.46593E+00  1.03292E+01  1.03930E+01  1.07543E+01  1.19656E+01
   1.29583E+01  1.62995E+01  1.77580E+01  1.83333E+01  2.07019E+01  1.84623E+01  2.23549E+01  2.26759E+01  2.39832E+01  2.76366E+01
   2.80989E+01  2.87563E+01  3.12769E+01  3.29759E+01  3.54471E+01  3.80803E+01  4.23321E+01  4.31160E+01  4.63112E+01  4.69674E+01
   5.01165E+01  5.60864E+01  5.73051E+01  6.05563E+01  6.74856E+01  7.03058E+01  7.38644E+01  7.93821E+01  8.15154E+01  8.86704E+01
   9.38592E+01  9.88343E+01  1.05977E+02  1.10355E+02  1.17293E+02  1.20553E+02  1.28103E+02  1.34028E+02  1.39181E+02  1.46252E+02
   1.54725E+02  1.57660E+02  1.62712E+02  1.67858E+02  1.71888E+02  1.75247E+02  1.80749E+02  1.83787E+02  1.86165E+02  1.87213E+02
   1.86050E+02  1.85364E+02  1.86823E+02  1.84903E+02  1.81533E+02  1.82047E+02  1.78173E+02  1.77104E+02  1.72326E+02  1.69427E+02
   1.65237E+02  1.60396E+02  1.54768E+02  1.53546E+02  1.48207E+02  1.45240E+02  1.41087E+02  1.35190E+02  1.32706E+02  1.29905E+02
   1.25915E+02  1.20073E+02  1.18754E+02  1.12680E+02  1.10080E+02  1.06508E+02  1.02399E+02  1.00961E+02  9.80295E+01  9.20966E+01
   8.69199E+01  8.60602E+01  8.18786E+01  7.90371E+01  7.66726E+01  7.65192E+01  7.40888E+01  7.00823E+01  6.99775E+01  7.04744E+01
   7.00172E+01  7.17160E+01  6.85184E+01  7.01997E+01  7.08570E+01  6.85761E+01  6.68824E+01  6.76504E+01  6.59690E+01  6.44059E+01
   6.45204E+01  6.45499E+01  6.32923E+01  6.11191E+01  5.95755E+01  5.68656E+01  5.91374E+01  5.65120E+01  5.56549E+01  5.34767E+01
   5.06050E+01  5.23620E+01  4.89994E+01  4.71606E+01  4.46776E+01  4.26215E+01  4.12219E+01  4.12477E+01  4.15951E+01  3.78682E+01
   3.57108E+01  3.61376E+01  3.24472E+01  3.29309E+01  3.02988E+01  2.76163E+01  2.72080E+01  2.39015E+01  2.37989E+01  2.36308E+01
   2.00325E+01  1.79370E+01  1.77661E+01  1.78628E+01  1.51717E+01  1.24078E+01  1.23751E+01  9.71395E+00  8.53362E+00  6.30988E+00
   6.89859E+00  5.09033E+00  5.20338E+00  4.34793E+00  5.81103E-01  1.58690E+00 -2.17031E+00  2.78556E-01 -3.34714E+00 -5.24511E+00
  -5.76111E+00 -6.48544E+00 -6.98877E+00 -9.74817E+00 -1.12024E+01 -1.24425E+01 -1.15635E+01 -1.35458E+01 -1.30145E+01 -1.73859E+01
  -1.55048E+01 -1.71543E+01 -1.77575E+01 -1.96166E+01 -1.91748E+01 -1.86409E+01 -1.91080E+01 -1.94241E+01 -2.41604E+01 -2.45331E+01
  -2.42632E+01 -2.49880E+01 -2.43116E+01 -2.46023E+01 -2.65224E+01 -2.68628E+01 -2.78414E+01 -2.62437E+01 -2.79219E+01 -2.90758E+01
  -2.88850E+01 -3.08833E+01 -3.04812E+01 -2.87069E+01 -3.10741E+01 -3.30683E+01 -3.21803E+01 -3.33526E+01 -3.13394E+01 -3.36238E+01
  -3.42136E+01 -3.46449E+01 -3.41670E+01 -3.30861E+01 -3.48366E+01 -3.32658E+01 -3.50655E+01 -3.52148E+01
 NY points of the fit to the data follow
  -1.65895E+01 -1.66968E+01 -1.67509E+01 -1.67557E+01 -1.67533E+01 -1.67821E+01 -1.68255E+01 -1.68701E+01 -1.69135E+01 -1.69553E+01
  -1.69958E+01 -1.70358E+01 -1.70775E+01 -1.71286E+01 -1.71842E+01 -1.72295E+01 -1.72579E+01 -1.72672E+01 -1.72577E+01 -1.72315E+01
  -1.71728E+01 -1.71149E+01 -1.71186E+01 -1.71938E+01 -1.72733E+01 -1.72482E+01 -1.71630E+01 -1.70640E+01 -1.69495E+01 -1.67915E+01
  -1.66175E+01 -1.64811E+01 -1.64121E+01 -1.64710E+01 -1.66898E+01 -1.70341E+01 -1.74062E+01 -1.76953E+01 -1.79214E+01 -1.80774E+01
  -1.81545E+01 -1.81535E+01 -1.80774E+01 -1.79273E+01 -1.77493E+01 -1.76102E+01 -1.75260E+01 -1.74909E+01 -1.75136E+01 -1.76033E+01
  -1.77683E+01 -1.79978E+01 -1.82611E+01 -1.85080E+01 -1.86580E+01 -1.86716E+01 -1.86011E+01 -1.85121E+01 -1.84421E+01 -1.84031E+01
  -1.83984E+01 -1.84287E+01 -1.84891E+01 -1.85708E+01 -1.86671E+01 -1.87689E+01 -1.88501E+01 -1.88825E+01 -1.88717E+01 -1.88380E+01
  -1.88075E+01 -1.87931E+01 -1.87991E+01 -1.88268E+01 -1.88710E+01 -1.89266E+01 -1.89886E+01 -1.90530E+01 -1.91135E+01 -1.91590E+01
  -1.91951E+01 -1.92328E+01 -1.92889E+01 -1.93687E+01 -1.94666E+01 -1.95686E+01 -1.96632E+01 -1.97447E+01 -1.98069E+01 -1.98404E+01
  -1.98409E+01 -1.98065E+01 -1.97449E+01 -1.96829E+01 -1.96476E+01 -1.96474E+01 -1.96791E+01 -1.97339E+01 -1.98051E+01 -1.98846E+01
  -1.99592E+01 -2.00148E+01 -2.00484E+01 -2.00589E+01 -2.00527E+01 -2.00420E+01 -2.00316E+01 -2.00222E+01 -2.00145E+01 -2.00107E+01
  -2.00124E+01 -2.00194E+01 -2.00286E+01 -2.00371E+01 -2.00477E+01 -2.00631E+01 -2.00830E+01 -2.01050E+01 -2.01272E+01 -2.01472E+01
  -2.01621E+01 -2.01733E+01 -2.01817E+01 -2.01870E+01 -2.01879E+01 -2.01845E+01 -2.01781E+01 -2.01664E+01 -2.01357E+01 -2.00882E+01
  -2.00597E+01 -2.00689E+01 -2.01101E+01 -2.01779E+01 -2.02586E+01 -2.03411E+01 -2.04154E+01 -2.04676E+01 -2.04943E+01 -2.04857E+01
  -2.04289E+01 -2.03411E+01 -2.02682E+01 -2.02344E+01 -2.02450E+01 -2.02976E+01 -2.03713E+01 -2.04468E+01 -2.05089E+01 -2.05534E+01
  -2.05921E+01 -2.06272E+01 -2.06587E+01 -2.06875E+01 -2.07139E+01 -2.07362E+01 -2.07531E+01 -2.07670E+01 -2.07799E+01 -2.07939E+01
  -2.08107E+01 -2.08321E+01 -2.08572E+01 -2.08818E+01 -2.09045E+01 -2.09259E+01 -2.09463E+01 -2.09653E+01 -2.09818E+01 -2.09967E+01
  -2.10125E+01 -2.10307E+01 -2.10515E+01 -2.10748E+01 -2.11004E+01 -2.11281E+01 -2.11577E+01 -2.11882E+01 -2.12180E+01 -2.12453E+01
  -2.12754E+01 -2.13092E+01 -2.13431E+01 -2.13736E+01 -2.13954E+01 -2.13982E+01 -2.13754E+01 -2.13304E+01 -2.12800E+01 -2.12459E+01
  -2.12341E+01 -2.12591E+01 -2.13436E+01 -2.14811E+01 -2.16300E+01 -2.17586E+01 -2.18355E+01 -2.18303E+01 -2.17372E+01 -2.15747E+01
  -2.13600E+01 -2.11306E+01 -2.09411E+01 -2.08451E+01 -2.08896E+01 -2.11055E+01 -2.14016E+01 -2.16706E+01 -2.18663E+01 -2.19736E+01
  -2.19767E+01 -2.18376E+01 -2.15711E+01 -2.12411E+01 -2.09144E+01 -2.06427E+01 -2.05024E+01 -2.05641E+01 -2.07608E+01 -2.09827E+01
  -2.11734E+01 -2.13085E+01 -2.13534E+01 -2.12791E+01 -2.11171E+01 -2.09019E+01 -2.06778E+01 -2.04864E+01 -2.03457E+01 -2.02689E+01
  -2.02504E+01 -2.02698E+01 -2.02677E+01 -2.02035E+01 -2.00871E+01 -1.99411E+01 -1.97635E+01 -1.95793E+01 -1.94546E+01 -1.93894E+01
  -1.93412E+01 -1.92953E+01 -1.92698E+01 -1.92628E+01 -1.92227E+01 -1.91214E+01 -1.89640E+01 -1.87504E+01 -1.84799E+01 -1.81918E+01
  -1.79297E+01 -1.76855E+01 -1.74490E+01 -1.72254E+01 -1.70169E+01 -1.68087E+01 -1.65969E+01 -1.63811E+01 -1.61529E+01 -1.59012E+01
  -1.56213E+01 -1.53145E+01 -1.49818E+01 -1.46343E+01 -1.42853E+01 -1.39452E+01 -1.36123E+01 -1.32726E+01 -1.29136E+01 -1.25292E+01
  -1.21170E+01 -1.16760E+01 -1.12114E+01 -1.07233E+01 -1.02077E+01 -9.66629E+00 -9.10123E+00 -8.51235E+00 -7.89901E+00 -7.25914E+00
  -6.58716E+00 -5.87812E+00 -5.13021E+00 -4.34254E+00 -3.51417E+00 -2.64447E+00 -1.73371E+00 -7.83179E-01  2.06400E-01  1.23496E+00
   2.30153E+00  3.40439E+00  4.54125E+00  5.70937E+00  6.90558E+00  8.12626E+00  9.36777E+00  1.06265E+01  1.18991E+01  1.31823E+01
   1.44737E+01  1.57719E+01  1.70763E+01  1.83875E+01  1.97079E+01  2.10413E+01  2.23934E+01  2.37719E+01  2.51863E+01  2.66478E+01
   2.81701E+01  2.97679E+01  3.14581E+01  3.32585E+01  3.51882E+01  3.72669E+01  3.95151E+01  4.19536E+01  4.46031E+01  4.74852E+01
   5.06238E+01  5.40535E+01  5.78299E+01  6.18932E+01  6.60827E+01  7.03756E+01  7.48117E+01  7.93995E+01  8.41006E+01  8.88712E+01
   9.37811E+01  9.90091E+01  1.04566E+02  1.10399E+02  1.16471E+02  1.22646E+02  1.28755E+02  1.34739E+02  1.40544E+02  1.46134E+02
   1.51511E+02  1.56758E+02  1.62125E+02  1.67514E+02  1.72437E+02  1.76747E+02  1.80444E+02  1.83428E+02  1.85485E+02  1.86463E+02
   1.86668E+02  1.86396E+02  1.85648E+02  1.84497E+02  1.83120E+02  1.81382E+02  1.79076E+02  1.76254E+02  1.72948E+02  1.69183E+02
   1.65007E+02  1.60592E+02  1.56350E+02  1.52393E+02  1.48568E+02  1.44787E+02  1.41002E+02  1.37185E+02  1.33322E+02  1.29409E+02
   1.25454E+02  1.21471E+02  1.17479E+02  1.13502E+02  1.09567E+02  1.05700E+02  1.01930E+02  9.82845E+01  9.47899E+01  9.14705E+01
   8.83484E+01  8.54428E+01  8.27690E+01  8.03387E+01  7.81590E+01  7.62320E+01  7.45551E+01  7.31199E+01  7.19127E+01  7.09143E+01
   7.01004E+01  6.94423E+01  6.89073E+01  6.84606E+01  6.80653E+01  6.76852E+01  6.72854E+01  6.68341E+01  6.63040E+01  6.56732E+01
   6.49261E+01  6.40535E+01  6.30532E+01  6.19288E+01  6.06894E+01  5.93482E+01  5.79215E+01  5.64273E+01  5.48836E+01  5.33081E+01
   5.17164E+01  5.01214E+01  4.85336E+01  4.69598E+01  4.54044E+01  4.38688E+01  4.23522E+01  4.08519E+01  3.93642E+01  3.78847E+01
   3.64088E+01  3.49321E+01  3.34507E+01  3.19616E+01  3.04627E+01  2.89527E+01  2.74314E+01  2.58995E+01  2.43582E+01  2.28096E+01
   2.12564E+01  1.97015E+01  1.81481E+01  1.65995E+01  1.50591E+01  1.35303E+01  1.20161E+01  1.05196E+01  9.04350E+00  7.59024E+00
   6.16199E+00  4.76063E+00  3.38775E+00  2.04461E+00  7.32216E-01 -5.48742E-01 -1.79777E+00 -3.01460E+00 -4.19918E+00 -5.35163E+00
  -6.47227E+00 -7.56152E+00 -8.61994E+00 -9.64812E+00 -1.06467E+01 -1.16165E+01 -1.25583E+01 -1.34728E+01 -1.43609E+01 -1.52234E+01
  -1.60612E+01 -1.68753E+01 -1.76664E+01 -1.84353E+01 -1.91830E+01 -1.99102E+01 -2.06178E+01 -2.13064E+01 -2.19769E+01 -2.26300E+01
  -2.32663E+01 -2.38865E+01 -2.44913E+01 -2.50813E+01 -2.56570E+01 -2.62190E+01 -2.67678E+01 -2.73040E+01 -2.78280E+01 -2.83403E+01
  -2.88413E+01 -2.93315E+01 -2.98111E+01 -3.02806E+01 -3.07404E+01 -3.11908E+01 -3.16320E+01 -3.20644E+01 -3.24883E+01 -3.29039E+01
  -3.33115E+01 -3.37114E+01 -3.41036E+01 -3.44886E+01 -3.48663E+01 -3.52372E+01 -3.56012E+01 -3.59586E+01
 NY background values follow
    -1.777E+01   -1.782E+01   -1.788E+01   -1.793E+01   -1.799E+01   -1.804E+01   -1.809E+01   -1.814E+01   -1.819E+01   -1.824E+01
    -1.829E+01   -1.834E+01   -1.839E+01   -1.844E+01   -1.848E+01   -1.853E+01   -1.858E+01   -1.862E+01   -1.867E+01   -1.871E+01
    -1.876E+01   -1.880E+01   -1.884E+01   -1.889E+01   -1.893E+01   -1.897E+01   -1.902E+01   -1.906E+01   -1.910E+01   -1.914E+01
    -1.918E+01   -1.922E+01   -1.926E+01   -1.930E+01   -1.934E+01   -1.938E+01   -1.942E+01   -1.946E+01   -1.950E+01   -1.954E+01
    -1.958E+01   -1.962E+01   -1.966E+01   -1.970E+01   -1.974E+01   -1.978E+01   -1.982E+01   -1.986E+01   -1.989E+01   -1.993E+01
    -1.997E+01   -2.001E+01   -2.005E+01   -2.009E+01   -2.013E+01   -2.017E+01   -2.021E+01   -2.025E+01   -2.029E+01   -2.033E+01
    -2.037E+01   -2.040E+01   -2.044E+01   -2.048E+01   -2.052E+01   -2.056E+01   -2.060E+01   -2.064E+01   -2.068E+01   -2.071E+01
    -2.075E+01   -2.079E+01   -2.083E+01   -2.086E+01   -2.090E+01   -2.094E+01   -2.098E+01   -2.101E+01   -2.105E+01   -2.109E+01
    -2.112E+01   -2.116E+01   -2.119E+01   -2.123E+01   -2.127E+01   -2.130E+01   -2.134E+01   -2.137E+01   -2.141E+01   -2.144E+01
    -2.147E+01   -2.151E+01   -2.154E+01   -2.157E+01   -2.161E+01   -2.164E+01   -2.167E+01   -2.170E+01   -2.174E+01   -2.177E+01
    -2.180E+01   -2.183E+01   -2.186E+01   -2.189E+01   -2.193E+01   -2.196E+01   -2.199E+01   -2.202E+01   -2.205E+01   -2.208E+01
    -2.211E+01   -2.215E+01   -2.218E+01   -2.221E+01   -2.224E+01   -2.227E+01   -2.230E+01   -2.233E+01   -2.237E+01   -2.240E+01
    -2.243E+01   -2.246E+01   -2.250E+01   -2.253E+01   -2.256E+01   -2.260E+01   -2.263E+01   -2.267E+01   -2.270E+01   -2.273E+01
    -2.277E+01   -2.281E+01   -2.284E+01   -2.288E+01   -2.291E+01   -2.295E+01   -2.299E+01   -2.303E+01   -2.307E+01   -2.310E+01
    -2.314E+01   -2.318E+01   -2.322E+01   -2.327E+01   -2.331E+01   -2.335E+01   -2.339E+01   -2.343E+01   -2.348E+01   -2.352E+01
    -2.356E+01   -2.361E+01   -2.365E+01   -2.370E+01   -2.375E+01   -2.379E+01   -2.384E+01   -2.389E+01   -2.394E+01   -2.398E+01
    -2.403E+01   -2.408E+01   -2.413E+01   -2.418E+01   -2.423E+01   -2.429E+01   -2.434E+01   -2.439E+01   -2.444E+01   -2.450E+01
    -2.455E+01   -2.461E+01   -2.466E+01   -2.472E+01   -2.478E+01   -2.483E+01   -2.489E+01   -2.495E+01   -2.501E+01   -2.507E+01
    -2.513E+01   -2.519E+01   -2.525E+01   -2.531E+01   -2.537E+01   -2.543E+01   -2.550E+01   -2.556E+01   -2.562E+01   -2.569E+01
    -2.575E+01   -2.581E+01   -2.588E+01   -2.594E+01   -2.600E+01   -2.607E+01   -2.613E+01   -2.620E+01   -2.626E+01   -2.632E+01
    -2.639E+01   -2.645E+01   -2.651E+01   -2.657E+01   -2.663E+01   -2.670E+01   -2.676E+01   -2.682E+01   -2.688E+01   -2.693E+01
    -2.699E+01   -2.705E+01   -2.711E+01   -2.716E+01   -2.722E+01   -2.727E+01   -2.732E+01   -2.737E+01   -2.742E+01   -2.747E+01
    -2.752E+01   -2.757E+01   -2.761E+01   -2.766E+01   -2.770E+01   -2.774E+01   -2.778E+01   -2.782E+01   -2.786E+01   -2.789E+01
    -2.793E+01   -2.796E+01   -2.799E+01   -2.802E+01   -2.805E+01   -2.808E+01   -2.811E+01   -2.813E+01   -2.816E+01   -2.818E+01
    -2.820E+01   -2.822E+01   -2.824E+01   -2.826E+01   -2.828E+01   -2.829E+01   -2.831E+01   -2.832E+01   -2.833E+01   -2.834E+01
    -2.836E+01   -2.837E+01   -2.837E+01   -2.838E+01   -2.839E+01   -2.840E+01   -2.840E+01   -2.841E+01   -2.841E+01   -2.841E+01
    -2.842E+01   -2.842E+01   -2.842E+01   -2.842E+01   -2.842E+01   -2.842E+01   -2.842E+01   -2.841E+01   -2.841E+01   -2.841E+01
    -2.841E+01   -2.840E+01   -2.840E+01   -2.839E+01   -2.839E+01   -2.838E+01   -2.837E+01   -2.837E+01   -2.836E+01   -2.836E+01
    -2.835E+01   -2.834E+01   -2.833E+01   -2.833E+01   -2.832E+01   -2.831E+01   -2.830E+01   -2.830E+01   -2.829E+01   -2.828E+01
    -2.828E+01   -2.827E+01   -2.826E+01   -2.826E+01   -2.825E+01   -2.825E+01   -2.824E+01   -2.824E+01   -2.823E+01   -2.823E+01
    -2.823E+01   -2.822E+01   -2.822E+01   -2.822E+01   -2.822E+01   -2.822E+01   -2.822E+01   -2.822E+01   -2.823E+01   -2.823E+01
    -2.823E+01   -2.824E+01   -2.825E+01   -2.825E+01   -2.826E+01   -2.827E+01   -2.828E+01   -2.829E+01   -2.831E+01   -2.832E+01
    -2.834E+01   -2.835E+01   -2.837E+01   -2.839E+01   -2.841E+01   -2.843E+01   -2.845E+01   -2.847E+01   -2.850E+01   -2.852E+01
    -2.855E+01   -2.858E+01   -2.860E+01   -2.863E+01   -2.866E+01   -2.870E+01   -2.873E+01   -2.876E+01   -2.880E+01   -2.883E+01
    -2.887E+01   -2.891E+01   -2.895E+01   -2.899E+01   -2.903E+01   -2.907E+01   -2.911E+01   -2.915E+01   -2.920E+01   -2.925E+01
    -2.929E+01   -2.934E+01   -2.939E+01   -2.944E+01   -2.949E+01   -2.954E+01   -2.959E+01   -2.965E+01   -2.970E+01   -2.976E+01
    -2.981E+01   -2.987E+01   -2.993E+01   -2.999E+01   -3.005E+01   -3.011E+01   -3.017E+01   -3.023E+01   -3.030E+01   -3.036E+01
    -3.043E+01   -3.049E+01   -3.056E+01   -3.063E+01   -3.070E+01   -3.077E+01   -3.084E+01   -3.091E+01   -3.098E+01   -3.106E+01
    -3.113E+01   -3.121E+01   -3.128E+01   -3.136E+01   -3.144E+01   -3.152E+01   -3.160E+01   -3.168E+01   -3.176E+01   -3.184E+01
    -3.192E+01   -3.201E+01   -3.209E+01   -3.218E+01   -3.226E+01   -3.235E+01   -3.244E+01   -3.253E+01   -3.262E+01   -3.271E+01
    -3.280E+01   -3.290E+01   -3.299E+01   -3.308E+01   -3.318E+01   -3.328E+01   -3.337E+01   -3.347E+01   -3.357E+01   -3.367E+01
    -3.377E+01   -3.387E+01   -3.397E+01   -3.408E+01   -3.418E+01   -3.429E+01   -3.439E+01   -3.450E+01   -3.461E+01   -3.472E+01
    -3.483E+01   -3.494E+01   -3.505E+01   -3.516E+01   -3.528E+01   -3.539E+01   -3.551E+01   -3.563E+01   -3.575E+01   -3.587E+01
    -3.599E+01   -3.611E+01   -3.623E+01   -3.636E+01   -3.649E+01   -3.661E+01   -3.674E+01   -3.687E+01   -3.700E+01   -3.713E+01
    -3.727E+01   -3.740E+01   -3.754E+01   -3.768E+01   -3.781E+01   -3.795E+01   -3.810E+01   -3.824E+01   -3.838E+01   -3.853E+01
    -3.868E+01   -3.882E+01   -3.897E+01   -3.913E+01   -3.928E+01   -3.943E+01   -3.959E+01   -3.975E+01   -3.990E+01   -4.006E+01
    -4.022E+01   -4.038E+01   -4.055E+01   -4.071E+01   -4.087E+01   -4.104E+01   -4.120E+01   -4.137E+01   -4.154E+01   -4.171E+01
    -4.187E+01   -4.204E+01   -4.221E+01   -4.238E+01   -4.255E+01   -4.272E+01   -4.289E+01   -4.306E+01   -4.323E+01   -4.340E+01
    -4.357E+01   -4.374E+01   -4.391E+01   -4.408E+01   -4.425E+01   -4.442E+01   -4.459E+01   -4.476E+01   -4.493E+01   -4.510E+01
    -4.526E+01   -4.543E+01   -4.560E+01   -4.576E+01   -4.593E+01   -4.609E+01   -4.625E+01   -4.642E+01
 Ala      Conc. = 1.03E+02
