 LCModel (Version 6.3-1L) Copyright: S.W. Provencher.          Ref.: Magn. Reson. Med. 30:672-679 (1993).                
 Slice#3 Row#6 Col#2  PD_05_press_1_raw_act
 36 lines in following concentration table = NCONC+1
    Conc.  %SD /Cr+PCr  Metabolite                                         
   93.307  32%   2.446 Ala                                                 
    4.694 149%   0.123 Asp                                                 
   38.144  37%   1.000 Cr                                                  
    0.000 999%   0.000 PCr                                                 
    2.884 146% 7.6E-02 GABA                                                
    3.079 137% 8.1E-02 Glc                                                 
   64.013  90%   1.678 Gln                                                 
  154.586  42%   4.053 Glu                                                 
    0.000 999%   0.000 GPC                                                 
    9.693  56%   0.254 PCh                                                 
    8.657 231%   0.227 GSH                                                 
  167.271  42%   4.385 Ins                                                 
    0.000 999%   0.000 Lac                                                 
   28.834  54%   0.756 NAA                                                 
    0.000 999%   0.000 NAAG                                                
    0.965 145% 2.5E-02 Scyllo                                              
    4.688 149%   0.123 Tau                                                 
   16.024  73%   0.420 -CrCH2                                              
    9.693  56%   0.254 GPC+PCh                                             
   28.834  54%   0.756 NAA+NAAG                                            
   38.144  37%   1.000 Cr+PCr                                              
  218.599  40%   5.731 Glu+Gln                                             
  103.184  91%   2.705 Lip13a                                              
    0.000 999%   0.000 Lip13b                                              
    0.000 999%   0.000 Lip09                                               
    0.000 999%   0.000 MM09                                                
    0.000 999%   0.000 Lip20                                               
    0.000 999%   0.000 MM20                                                
    0.000 999%   0.000 MM12                                                
  157.007  48%   4.116 MM14                                                
  191.560  30%   5.022 MM17                                                
  103.184  91%   2.705 Lip13a+Lip13b                                       
  260.191  44%   6.821 MM14+Lip13a+Lip13b+MM12                             
    0.000 999%   0.000 MM09+Lip09                                          
    0.000 999%   0.000 MM20+Lip20                                          
   6 lines in following misc. output table
  FWHM = 0.054 ppm    S/N =   1                                            
  Data shift = 0.000 ppm                                                   
  Ph:-135 deg       0.5 deg/ppm                                            
  alphaB,S = 4.5E-01,   4.3E+01                                            
   14 spline knots.   Ns = 5(1)                                            
  ( 5) 2 infls.   ( 3) 1 extrs.                                            
  498 points on ppm-axis = NY
      4.000000     3.992357     3.984714     3.977070     3.969427     3.961784     3.954141     3.946497     3.938854     3.931211
      3.923568     3.915925     3.908281     3.900638     3.892995     3.885352     3.877708     3.870065     3.862422     3.854779
      3.847136     3.839492     3.831849     3.824206     3.816563     3.808919     3.801276     3.793633     3.785990     3.778347
      3.770703     3.763060     3.755417     3.747774     3.740130     3.732487     3.724844     3.717201     3.709558     3.701914
      3.694271     3.686628     3.678985     3.671341     3.663698     3.656055     3.648412     3.640769     3.633125     3.625482
      3.617839     3.610196     3.602552     3.594909     3.587266     3.579623     3.571980     3.564336     3.556693     3.549050
      3.541407     3.533763     3.526120     3.518477     3.510834     3.503191     3.495547     3.487904     3.480261     3.472618
      3.464974     3.457331     3.449688     3.442045     3.434402     3.426758     3.419115     3.411472     3.403829     3.396185
      3.388542     3.380899     3.373256     3.365613     3.357969     3.350326     3.342683     3.335040     3.327396     3.319753
      3.312110     3.304467     3.296824     3.289180     3.281537     3.273894     3.266251     3.258607     3.250964     3.243321
      3.235678     3.228034     3.220391     3.212748     3.205105     3.197462     3.189818     3.182175     3.174532     3.166889
      3.159245     3.151602     3.143959     3.136316     3.128673     3.121029     3.113386     3.105743     3.098100     3.090456
      3.082813     3.075170     3.067527     3.059884     3.052240     3.044597     3.036954     3.029311     3.021667     3.014024
      3.006381     2.998738     2.991095     2.983451     2.975808     2.968165     2.960522     2.952878     2.945235     2.937592
      2.929949     2.922306     2.914662     2.907019     2.899376     2.891733     2.884089     2.876446     2.868803     2.861160
      2.853517     2.845873     2.838230     2.830587     2.822944     2.815300     2.807657     2.800014     2.792371     2.784728
      2.777084     2.769441     2.761798     2.754155     2.746511     2.738868     2.731225     2.723582     2.715939     2.708295
      2.700652     2.693009     2.685366     2.677722     2.670079     2.662436     2.654793     2.647150     2.639506     2.631863
      2.624220     2.616577     2.608933     2.601290     2.593647     2.586004     2.578361     2.570717     2.563074     2.555431
      2.547788     2.540144     2.532501     2.524858     2.517215     2.509572     2.501928     2.494285     2.486642     2.478999
      2.471355     2.463712     2.456069     2.448426     2.440783     2.433139     2.425496     2.417853     2.410210     2.402566
      2.394923     2.387280     2.379637     2.371994     2.364350     2.356707     2.349064     2.341421     2.333777     2.326134
      2.318491     2.310848     2.303205     2.295561     2.287918     2.280275     2.272632     2.264988     2.257345     2.249702
      2.242059     2.234416     2.226772     2.219129     2.211486     2.203843     2.196199     2.188556     2.180913     2.173270
      2.165627     2.157983     2.150340     2.142697     2.135054     2.127410     2.119767     2.112124     2.104481     2.096838
      2.089194     2.081551     2.073908     2.066265     2.058621     2.050978     2.043335     2.035692     2.028049     2.020405
      2.012762     2.005119     1.997476     1.989833     1.982190     1.974546     1.966903     1.959260     1.951617     1.943974
      1.936331     1.928688     1.921045     1.913402     1.905759     1.898115     1.890472     1.882829     1.875186     1.867543
      1.859900     1.852257     1.844614     1.836971     1.829327     1.821684     1.814041     1.806398     1.798755     1.791112
      1.783469     1.775826     1.768183     1.760540     1.752896     1.745253     1.737610     1.729967     1.722324     1.714681
      1.707038     1.699395     1.691752     1.684108     1.676465     1.668822     1.661179     1.653536     1.645893     1.638250
      1.630607     1.622964     1.615321     1.607677     1.600034     1.592391     1.584748     1.577105     1.569462     1.561819
      1.554176     1.546533     1.538890     1.531246     1.523603     1.515960     1.508317     1.500674     1.493031     1.485388
      1.477745     1.470102     1.462458     1.454815     1.447172     1.439529     1.431886     1.424243     1.416600     1.408957
      1.401314     1.393671     1.386027     1.378384     1.370741     1.363098     1.355455     1.347812     1.340169     1.332526
      1.324883     1.317240     1.309596     1.301953     1.294310     1.286667     1.279024     1.271381     1.263738     1.256095
      1.248452     1.240808     1.233165     1.225522     1.217879     1.210236     1.202593     1.194950     1.187307     1.179664
      1.172021     1.164377     1.156734     1.149091     1.141448     1.133805     1.126162     1.118519     1.110876     1.103233
      1.095590     1.087946     1.080303     1.072660     1.065017     1.057374     1.049731     1.042088     1.034445     1.026802
      1.019158     1.011515     1.003872     0.996229     0.988586     0.980943     0.973300     0.965657     0.958014     0.950371
      0.942727     0.935084     0.927441     0.919798     0.912155     0.904512     0.896869     0.889226     0.881583     0.873940
      0.866296     0.858653     0.851010     0.843367     0.835724     0.828081     0.820438     0.812795     0.805152     0.797508
      0.789865     0.782222     0.774579     0.766936     0.759293     0.751650     0.744007     0.736364     0.728721     0.721077
      0.713434     0.705791     0.698148     0.690505     0.682862     0.675219     0.667576     0.659933     0.652290     0.644646
      0.637003     0.629360     0.621717     0.614074     0.606431     0.598788     0.591145     0.583502     0.575858     0.568215
      0.560572     0.552929     0.545286     0.537643     0.530000     0.522357     0.514714     0.507071     0.499427     0.491784
      0.484141     0.476498     0.468855     0.461212     0.453569     0.445925     0.438282     0.430639     0.422996     0.415353
      0.407710     0.400067     0.392424     0.384780     0.377137     0.369494     0.361851     0.354208     0.346565     0.338922
      0.331278     0.323635     0.315992     0.308349     0.300706     0.293063     0.285420     0.277777     0.270133     0.262490
      0.254847     0.247204     0.239561     0.231918     0.224275     0.216631     0.208988     0.201345
 NY phased data points follow
  -1.09591E+01 -1.12325E+01 -1.11700E+01 -1.18266E+01 -1.16879E+01 -1.24246E+01 -1.22939E+01 -1.06776E+01 -8.52891E+00 -1.01117E+01
  -9.02727E+00 -8.90331E+00 -8.51849E+00 -8.48946E+00 -8.29356E+00 -9.32372E+00 -7.20620E+00 -7.87088E+00 -8.18933E+00 -8.02097E+00
  -7.67209E+00 -6.11464E+00 -6.31451E+00 -5.95517E+00 -5.04338E+00 -5.89971E+00 -6.33045E+00 -5.29615E+00 -7.04225E+00 -5.61890E+00
  -6.33182E+00 -7.12000E+00 -6.09880E+00 -5.30003E+00 -4.79651E+00 -7.12995E+00 -5.35058E+00 -4.47546E+00 -3.50483E+00 -5.02048E+00
  -6.17472E+00 -5.29975E+00 -3.73732E+00 -4.79339E+00 -4.31914E+00 -4.07184E+00 -3.40428E+00 -3.71349E+00 -4.12674E+00 -4.35541E+00
  -3.33818E+00 -4.33904E+00 -2.42133E+00 -5.56213E+00 -4.92807E+00 -4.35753E+00 -4.51858E+00 -4.12014E+00 -4.57486E+00 -4.14043E+00
  -3.42138E+00 -2.20731E+00 -2.60976E+00 -3.75994E+00 -4.02276E+00 -6.01821E+00 -3.41945E+00 -3.37569E+00 -4.93818E+00 -2.07028E+00
  -2.38040E+00 -2.71891E+00 -4.12572E+00 -2.06066E+00 -3.35707E+00 -2.69633E+00 -3.07300E+00 -1.03873E+00 -4.29640E+00 -2.37848E+00
  -4.69028E+00 -2.94197E+00 -4.15851E+00 -4.74609E+00 -3.47057E+00 -2.28228E+00 -4.04536E+00 -4.85702E+00 -3.35311E+00 -1.21445E+00
  -3.57531E+00 -2.40865E+00 -5.24301E-01 -4.91211E+00 -3.27709E+00 -3.60126E+00 -3.00626E+00 -4.37419E+00 -3.14931E+00 -4.41696E+00
  -2.44362E+00 -3.77691E+00 -1.66308E+00 -2.32134E+00 -1.56900E+00 -2.74073E+00 -3.57733E+00 -2.50340E+00 -4.49750E+00 -2.22109E+00
  -3.81316E+00 -4.22197E+00 -3.09229E+00 -4.41109E+00 -8.92187E-01 -4.25651E+00 -4.42633E+00 -3.81122E+00 -3.82764E+00 -2.91348E+00
  -2.42161E+00 -4.36624E+00 -3.38406E+00 -2.39392E+00 -5.03283E+00 -2.04963E+00 -1.16343E+00 -1.68630E+00 -2.40424E+00 -2.75833E+00
  -4.36359E+00 -2.43223E+00 -3.59893E+00 -5.59520E+00 -4.02985E+00 -4.22380E+00 -3.17971E+00 -3.83754E+00 -3.61291E+00 -3.40098E+00
  -6.08225E+00 -5.07695E+00 -4.60433E+00 -5.82087E+00 -3.08666E+00 -4.44489E+00 -4.86482E+00 -5.26213E+00 -4.08783E+00 -5.37377E+00
  -5.37781E+00 -4.22249E+00 -4.67144E+00 -4.97220E+00 -5.69005E+00 -4.24923E+00 -5.13594E+00 -4.83661E+00 -5.44264E+00 -4.90945E+00
  -4.38839E+00 -5.83717E+00 -5.88717E+00 -5.27949E+00 -6.55295E+00 -5.87064E+00 -7.15967E+00 -4.40075E+00 -5.16183E+00 -7.87789E+00
  -6.41312E+00 -6.23589E+00 -5.58082E+00 -7.06184E+00 -6.35864E+00 -6.72163E+00 -5.58435E+00 -4.24117E+00 -6.14998E+00 -7.38259E+00
  -7.40476E+00 -6.30732E+00 -6.26420E+00 -6.14537E+00 -8.93095E+00 -5.96560E+00 -6.46116E+00 -9.03006E+00 -8.66479E+00 -7.41741E+00
  -9.22039E+00 -9.14799E+00 -8.77103E+00 -9.43850E+00 -9.03926E+00 -8.53805E+00 -8.58739E+00 -8.05364E+00 -6.31441E+00 -9.90602E+00
  -9.85784E+00 -7.29796E+00 -7.66765E+00 -8.45828E+00 -1.04358E+01 -8.52940E+00 -9.51939E+00 -1.02182E+01 -1.00079E+01 -1.04797E+01
  -9.95652E+00 -9.35986E+00 -8.63094E+00 -8.84843E+00 -9.78825E+00 -9.30923E+00 -7.45557E+00 -9.29919E+00 -8.03255E+00 -9.85916E+00
  -9.84550E+00 -1.04689E+01 -1.00230E+01 -9.60818E+00 -7.73096E+00 -9.06197E+00 -8.84233E+00 -8.93939E+00 -8.98108E+00 -7.44962E+00
  -7.24058E+00 -9.68400E+00 -7.66556E+00 -8.79706E+00 -7.64967E+00 -6.71996E+00 -6.75535E+00 -7.38770E+00 -9.06805E+00 -4.79352E+00
  -8.00995E+00 -8.96733E+00 -9.24452E+00 -7.25544E+00 -6.84565E+00 -6.92386E+00 -6.00604E+00 -8.23634E+00 -7.23846E+00 -6.52896E+00
  -6.48174E+00 -7.45529E+00 -6.97288E+00 -5.96559E+00 -5.47973E+00 -7.02877E+00 -4.36849E+00 -3.92217E+00 -5.07305E+00 -4.17744E+00
  -2.05733E+00 -2.04374E+00 -5.17070E+00 -5.40511E+00 -4.56105E+00 -5.20790E+00 -5.56663E+00 -6.56030E+00 -5.51877E+00 -2.57575E+00
  -3.55202E+00 -2.26272E+00 -1.52625E+00 -3.81008E+00 -3.85987E+00 -1.97062E+00 -2.00386E+00 -1.48054E+00 -2.03353E+00 -5.92143E-01
  -2.49317E+00 -1.36496E+00  4.81658E-01 -6.60067E-01 -1.80131E+00 -1.06850E+00 -8.86634E-01 -1.79377E+00 -2.31274E-01 -1.22709E+00
  -4.83837E-01  7.13037E-01 -5.20129E-01 -1.31232E+00 -1.26500E-01 -8.32835E-02 -2.72316E-01 -9.20149E-01  6.75544E-01  9.79470E-01
   8.76100E-01  1.07167E-01  1.02282E+00 -1.14126E+00  4.00342E-01  6.37886E-01  1.41258E+00  3.82000E-01  8.30525E-01  1.85870E+00
   2.59604E+00  3.06948E-01  2.22956E+00  2.35376E+00  1.54107E+00  8.02845E-01  2.15635E+00  1.76388E-01  1.55224E+00  3.25285E-01
   2.37878E+00 -5.63269E-01  1.14700E+00  3.36295E+00  2.17066E+00  3.03610E-01  2.89144E+00  3.04077E+00  2.32590E+00 -1.73720E-01
   2.58127E+00  5.95747E-01 -1.02896E+00 -2.17217E-01 -7.22788E-02  2.22096E+00  2.54675E+00  1.40121E+00  3.53717E+00  1.18645E+00
   4.80424E-01  3.18149E+00  1.29466E+00  2.99901E+00  1.44593E+00  1.57666E+00  4.13871E+00  1.82250E+00  2.14366E+00  2.68257E+00
   2.43832E+00  2.93166E+00  1.09866E+00  3.15301E+00  2.24078E+00  1.11079E+00  5.61996E-01 -8.61485E-01  4.28723E-01  3.39061E-01
  -6.14454E-01 -1.00484E+00  2.60591E+00  1.52500E+00  1.35738E+00  1.68842E+00  4.47380E-01  3.80429E+00  2.30502E+00  2.07475E+00
   1.85419E+00  1.35323E+00 -5.86641E-01  9.02243E-01 -9.34796E-01 -2.10159E+00  1.49036E-01  6.53241E-01  1.08552E+00  2.34416E+00
   7.91479E-01  5.91424E-01  5.23060E-01  3.03042E-01  8.39605E-01  1.47198E+00 -6.54485E-01  1.97124E+00  1.12772E-01 -9.20301E-02
  -6.44734E-01 -1.62705E+00  1.02320E-01  5.38224E-01  5.65654E-01  5.47191E-01 -1.62611E+00  2.79105E+00 -5.76210E-01  2.18897E-01
   9.92353E-01  3.62533E-01  1.10424E+00 -1.14897E+00  8.09510E-01  9.84142E-01  9.78112E-01  1.58275E+00 -3.01154E-01 -7.61779E-01
   1.29685E+00  5.53400E-01  1.86619E+00  2.39605E+00  2.08862E+00 -1.93082E-02  2.13639E+00  2.49383E+00  2.04013E+00  7.03938E-01
   1.50694E+00  1.89350E+00  3.04625E+00  1.26159E+00  1.00304E+00  2.69430E+00  2.59558E+00 -4.91340E-01  1.56669E+00  2.34154E+00
   2.58591E+00  8.64606E-01  1.07799E+00  3.83798E-01  1.52141E+00  5.86707E-01  1.22462E+00  1.66320E+00  9.97534E-01  6.28863E-01
   1.45618E+00  3.00697E+00  6.12127E-01  8.88475E-01  2.00736E+00  2.29713E-01  6.95061E-01  2.48285E-01 -1.88319E-01 -1.00709E-01
   1.68545E+00  2.77869E+00  2.07347E+00 -8.85772E-01  2.13063E+00  1.52624E+00  8.52182E-01  2.55984E+00  2.13290E+00  1.47719E+00
   7.90027E-01  3.05614E+00  1.08400E+00 -3.09167E-02  1.48338E+00  1.65104E+00  1.44248E+00  1.31284E+00  1.35866E+00  1.43208E+00
   1.48323E+00  8.15411E-01  1.54726E+00  1.39013E+00  2.53213E+00  1.11708E+00  1.45161E+00  2.42738E+00  1.88344E+00  2.82137E+00
   1.63622E+00  1.95045E+00  2.70472E+00  1.34403E+00  1.45875E+00  1.95660E+00  1.19759E+00  7.71661E-01 -1.89010E-02  1.26341E+00
   2.00293E+00  7.81084E-01  7.91546E-01  8.78273E-01 -2.05661E-01  1.07333E+00  2.49612E+00  2.18547E+00
 NY points of the fit to the data follow
  -1.03862E+01 -1.03366E+01 -1.02648E+01 -1.01738E+01 -1.00957E+01 -1.00279E+01 -9.91182E+00 -9.70306E+00 -9.41658E+00 -9.08212E+00
  -8.74800E+00 -8.47431E+00 -8.29536E+00 -8.20491E+00 -8.17793E+00 -8.19088E+00 -8.22079E+00 -8.21677E+00 -8.12680E+00 -7.95301E+00
  -7.72605E+00 -7.46688E+00 -7.22759E+00 -7.06581E+00 -7.00468E+00 -7.03094E+00 -7.10263E+00 -7.13874E+00 -7.07247E+00 -6.86819E+00
  -6.55062E+00 -6.18378E+00 -5.82872E+00 -5.55186E+00 -5.41457E+00 -5.41103E+00 -5.48729E+00 -5.58687E+00 -5.66962E+00 -5.70450E+00
  -5.67866E+00 -5.57407E+00 -5.36056E+00 -5.01885E+00 -4.58793E+00 -4.15661E+00 -3.81488E+00 -3.62925E+00 -3.63276E+00 -3.79246E+00
  -4.03143E+00 -4.27561E+00 -4.47808E+00 -4.60153E+00 -4.59543E+00 -4.45396E+00 -4.23461E+00 -3.99415E+00 -3.77386E+00 -3.60666E+00
  -3.51678E+00 -3.50819E+00 -3.55678E+00 -3.62692E+00 -3.68695E+00 -3.71580E+00 -3.69375E+00 -3.61193E+00 -3.48948E+00 -3.35434E+00
  -3.23360E+00 -3.14235E+00 -3.08946E+00 -3.07279E+00 -3.07867E+00 -3.09615E+00 -3.11778E+00 -3.13976E+00 -3.15470E+00 -3.15568E+00
  -3.14888E+00 -3.14226E+00 -3.15244E+00 -3.19444E+00 -3.27354E+00 -3.37842E+00 -3.48643E+00 -3.57014E+00 -3.60602E+00 -3.58358E+00
  -3.51119E+00 -3.40234E+00 -3.27771E+00 -3.16843E+00 -3.10324E+00 -3.09254E+00 -3.12787E+00 -3.18210E+00 -3.19347E+00 -3.10507E+00
  -2.93881E+00 -2.73769E+00 -2.55485E+00 -2.44343E+00 -2.43926E+00 -2.53451E+00 -2.69055E+00 -2.87286E+00 -3.05639E+00 -3.21390E+00
  -3.31037E+00 -3.34810E+00 -3.36993E+00 -3.39010E+00 -3.41286E+00 -3.43911E+00 -3.46864E+00 -3.49974E+00 -3.53052E+00 -3.55808E+00
  -3.57701E+00 -3.56716E+00 -3.45796E+00 -3.22894E+00 -2.94161E+00 -2.66536E+00 -2.47253E+00 -2.42612E+00 -2.53929E+00 -2.76792E+00
  -3.05650E+00 -3.36590E+00 -3.66726E+00 -3.92117E+00 -4.08366E+00 -4.18029E+00 -4.25583E+00 -4.31732E+00 -4.36760E+00 -4.41045E+00
  -4.44983E+00 -4.49044E+00 -4.53769E+00 -4.59336E+00 -4.65643E+00 -4.72534E+00 -4.79744E+00 -4.87039E+00 -4.94299E+00 -5.01484E+00
  -5.08696E+00 -5.15907E+00 -5.23048E+00 -5.30086E+00 -5.37074E+00 -5.44140E+00 -5.51487E+00 -5.59176E+00 -5.67072E+00 -5.74939E+00
  -5.82456E+00 -5.89562E+00 -5.96366E+00 -6.03035E+00 -6.09777E+00 -6.16739E+00 -6.23955E+00 -6.31420E+00 -6.39114E+00 -6.46896E+00
  -6.54664E+00 -6.62476E+00 -6.70329E+00 -6.78103E+00 -6.85660E+00 -6.92916E+00 -6.99973E+00 -7.06911E+00 -7.13771E+00 -7.20526E+00
  -7.27125E+00 -7.33606E+00 -7.40144E+00 -7.46746E+00 -7.53072E+00 -7.58677E+00 -7.63355E+00 -7.67211E+00 -7.70849E+00 -7.75085E+00
  -7.80327E+00 -7.87081E+00 -7.95449E+00 -8.04990E+00 -8.14580E+00 -8.22758E+00 -8.27844E+00 -8.28621E+00 -8.25130E+00 -8.18556E+00
  -8.10335E+00 -8.02590E+00 -7.98360E+00 -7.99944E+00 -8.09111E+00 -8.28342E+00 -8.54604E+00 -8.81553E+00 -9.03105E+00 -9.13474E+00
  -9.08371E+00 -8.85168E+00 -8.49861E+00 -8.12597E+00 -7.82726E+00 -7.67653E+00 -7.73326E+00 -8.01701E+00 -8.44800E+00 -8.90231E+00
  -9.27086E+00 -9.47458E+00 -9.45820E+00 -9.22676E+00 -8.87955E+00 -8.51242E+00 -8.18810E+00 -7.94497E+00 -7.80331E+00 -7.76476E+00
  -7.79285E+00 -7.83670E+00 -7.85869E+00 -7.84556E+00 -7.79005E+00 -7.69563E+00 -7.56867E+00 -7.43467E+00 -7.33770E+00 -7.28202E+00
  -7.24900E+00 -7.22477E+00 -7.19849E+00 -7.15053E+00 -7.06719E+00 -6.96038E+00 -6.84502E+00 -6.72593E+00 -6.59738E+00 -6.46199E+00
  -6.32044E+00 -6.16063E+00 -5.98888E+00 -5.82866E+00 -5.67999E+00 -5.48403E+00 -5.20187E+00 -4.86722E+00 -4.51921E+00 -4.20012E+00
  -3.96656E+00 -3.85313E+00 -3.84023E+00 -3.88962E+00 -3.97249E+00 -4.06669E+00 -4.13293E+00 -4.12727E+00 -4.05720E+00 -3.96024E+00
  -3.84246E+00 -3.70490E+00 -3.55630E+00 -3.40383E+00 -3.25161E+00 -3.10653E+00 -2.97226E+00 -2.84842E+00 -2.73306E+00 -2.62247E+00
  -2.50991E+00 -2.39056E+00 -2.26420E+00 -2.13220E+00 -1.99564E+00 -1.85547E+00 -1.71284E+00 -1.56906E+00 -1.42439E+00 -1.27821E+00
  -1.13059E+00 -9.81845E-01 -8.32381E-01 -6.82828E-01 -5.34220E-01 -3.87843E-01 -2.44880E-01 -1.06530E-01  2.59027E-02  1.51204E-01
   2.68322E-01  3.76302E-01  4.74424E-01  5.62213E-01  6.39506E-01  7.06498E-01  7.63730E-01  8.12036E-01  8.52511E-01  8.86488E-01
   9.15497E-01  9.41124E-01  9.65009E-01  9.88841E-01  1.01432E+00  1.04314E+00  1.07711E+00  1.11823E+00  1.16908E+00  1.23333E+00
   1.31722E+00  1.43379E+00  1.61440E+00  1.86405E+00  2.06867E+00  2.13742E+00  2.02771E+00  1.72900E+00  1.28234E+00  7.75319E-01
   3.16098E-01  6.16286E-02  8.54266E-02  3.82176E-01  9.09660E-01  1.53383E+00  2.05482E+00  2.39062E+00  2.54812E+00  2.56097E+00
   2.46034E+00  2.27603E+00  2.07254E+00  1.93506E+00  1.85328E+00  1.79559E+00  1.74987E+00  1.71089E+00  1.67593E+00  1.64338E+00
   1.61222E+00  1.58177E+00  1.55156E+00  1.52123E+00  1.49051E+00  1.45924E+00  1.42730E+00  1.39468E+00  1.36141E+00  1.32759E+00
   1.29338E+00  1.25898E+00  1.22464E+00  1.19061E+00  1.15713E+00  1.12445E+00  1.09280E+00  1.06240E+00  1.03346E+00  1.00614E+00
   9.80573E-01  9.56841E-01  9.35001E-01  9.15073E-01  8.97046E-01  8.80880E-01  8.66513E-01  8.53863E-01  8.42837E-01  8.33336E-01
   8.25256E-01  8.18493E-01  8.12946E-01  8.08512E-01  8.05105E-01  8.02637E-01  8.01034E-01  8.00226E-01  8.00151E-01  8.00752E-01
   8.01985E-01  8.03805E-01  8.06180E-01  8.09076E-01  8.12466E-01  8.16326E-01  8.20639E-01  8.25387E-01  8.30557E-01  8.36135E-01
   8.42112E-01  8.48478E-01  8.55228E-01  8.62354E-01  8.69854E-01  8.77721E-01  8.85953E-01  8.94546E-01  9.03493E-01  9.12774E-01
   9.22369E-01  9.32257E-01  9.42421E-01  9.52841E-01  9.63502E-01  9.74383E-01  9.85467E-01  9.96735E-01  1.00817E+00  1.01976E+00
   1.03148E+00  1.04332E+00  1.05526E+00  1.06728E+00  1.07937E+00  1.09151E+00  1.10368E+00  1.11587E+00  1.12806E+00  1.14023E+00
   1.15238E+00  1.16448E+00  1.17651E+00  1.18846E+00  1.20032E+00  1.21207E+00  1.22369E+00  1.23517E+00  1.24649E+00  1.25763E+00
   1.26859E+00  1.27934E+00  1.28987E+00  1.30016E+00  1.31020E+00  1.31997E+00  1.32946E+00  1.33865E+00  1.34752E+00  1.35606E+00
   1.36426E+00  1.37209E+00  1.37955E+00  1.38663E+00  1.39333E+00  1.39966E+00  1.40562E+00  1.41124E+00  1.41652E+00  1.42147E+00
   1.42609E+00  1.43040E+00  1.43441E+00  1.43813E+00  1.44156E+00  1.44472E+00  1.44761E+00  1.45025E+00  1.45263E+00  1.45479E+00
   1.45671E+00  1.45842E+00  1.45991E+00  1.46121E+00  1.46232E+00  1.46325E+00  1.46401E+00  1.46461E+00  1.46506E+00  1.46536E+00
   1.46554E+00  1.46559E+00  1.46553E+00  1.46537E+00  1.46511E+00  1.46477E+00  1.46435E+00  1.46388E+00  1.46335E+00  1.46277E+00
   1.46217E+00  1.46154E+00  1.46090E+00  1.46026E+00  1.45963E+00  1.45901E+00  1.45843E+00  1.45790E+00
 NY background values follow
    -1.074E+01   -1.060E+01   -1.046E+01   -1.032E+01   -1.018E+01   -1.004E+01   -9.899E+00   -9.760E+00   -9.622E+00   -9.485E+00
    -9.348E+00   -9.211E+00   -9.076E+00   -8.941E+00   -8.806E+00   -8.673E+00   -8.540E+00   -8.409E+00   -8.278E+00   -8.148E+00
    -8.020E+00   -7.892E+00   -7.765E+00   -7.640E+00   -7.516E+00   -7.393E+00   -7.271E+00   -7.151E+00   -7.032E+00   -6.915E+00
    -6.799E+00   -6.685E+00   -6.572E+00   -6.461E+00   -6.351E+00   -6.244E+00   -6.138E+00   -6.034E+00   -5.931E+00   -5.831E+00
    -5.733E+00   -5.636E+00   -5.542E+00   -5.450E+00   -5.360E+00   -5.272E+00   -5.186E+00   -5.103E+00   -5.021E+00   -4.942E+00
    -4.865E+00   -4.791E+00   -4.718E+00   -4.647E+00   -4.579E+00   -4.512E+00   -4.448E+00   -4.385E+00   -4.325E+00   -4.266E+00
    -4.210E+00   -4.155E+00   -4.102E+00   -4.051E+00   -4.002E+00   -3.955E+00   -3.909E+00   -3.865E+00   -3.823E+00   -3.783E+00
    -3.744E+00   -3.707E+00   -3.672E+00   -3.638E+00   -3.606E+00   -3.575E+00   -3.546E+00   -3.519E+00   -3.493E+00   -3.468E+00
    -3.445E+00   -3.423E+00   -3.403E+00   -3.384E+00   -3.367E+00   -3.351E+00   -3.336E+00   -3.322E+00   -3.310E+00   -3.299E+00
    -3.289E+00   -3.281E+00   -3.273E+00   -3.267E+00   -3.262E+00   -3.258E+00   -3.256E+00   -3.254E+00   -3.254E+00   -3.255E+00
    -3.258E+00   -3.261E+00   -3.266E+00   -3.272E+00   -3.280E+00   -3.288E+00   -3.298E+00   -3.309E+00   -3.322E+00   -3.336E+00
    -3.351E+00   -3.367E+00   -3.385E+00   -3.404E+00   -3.424E+00   -3.446E+00   -3.469E+00   -3.493E+00   -3.519E+00   -3.546E+00
    -3.575E+00   -3.605E+00   -3.636E+00   -3.668E+00   -3.702E+00   -3.738E+00   -3.774E+00   -3.813E+00   -3.852E+00   -3.893E+00
    -3.936E+00   -3.979E+00   -4.025E+00   -4.071E+00   -4.120E+00   -4.169E+00   -4.220E+00   -4.273E+00   -4.327E+00   -4.382E+00
    -4.438E+00   -4.496E+00   -4.555E+00   -4.615E+00   -4.676E+00   -4.739E+00   -4.802E+00   -4.866E+00   -4.931E+00   -4.997E+00
    -5.064E+00   -5.131E+00   -5.200E+00   -5.268E+00   -5.338E+00   -5.408E+00   -5.479E+00   -5.550E+00   -5.621E+00   -5.693E+00
    -5.765E+00   -5.837E+00   -5.910E+00   -5.982E+00   -6.055E+00   -6.128E+00   -6.201E+00   -6.274E+00   -6.347E+00   -6.419E+00
    -6.492E+00   -6.564E+00   -6.636E+00   -6.708E+00   -6.779E+00   -6.850E+00   -6.921E+00   -6.991E+00   -7.060E+00   -7.129E+00
    -7.197E+00   -7.264E+00   -7.331E+00   -7.396E+00   -7.461E+00   -7.525E+00   -7.588E+00   -7.649E+00   -7.710E+00   -7.769E+00
    -7.826E+00   -7.882E+00   -7.937E+00   -7.990E+00   -8.042E+00   -8.091E+00   -8.139E+00   -8.185E+00   -8.229E+00   -8.271E+00
    -8.311E+00   -8.348E+00   -8.384E+00   -8.417E+00   -8.447E+00   -8.475E+00   -8.500E+00   -8.523E+00   -8.543E+00   -8.560E+00
    -8.575E+00   -8.586E+00   -8.594E+00   -8.600E+00   -8.602E+00   -8.600E+00   -8.596E+00   -8.588E+00   -8.576E+00   -8.561E+00
    -8.543E+00   -8.520E+00   -8.494E+00   -8.464E+00   -8.430E+00   -8.392E+00   -8.350E+00   -8.304E+00   -8.254E+00   -8.200E+00
    -8.142E+00   -8.080E+00   -8.015E+00   -7.946E+00   -7.874E+00   -7.799E+00   -7.720E+00   -7.639E+00   -7.554E+00   -7.467E+00
    -7.377E+00   -7.285E+00   -7.190E+00   -7.092E+00   -6.993E+00   -6.891E+00   -6.787E+00   -6.681E+00   -6.574E+00   -6.465E+00
    -6.354E+00   -6.242E+00   -6.128E+00   -6.013E+00   -5.897E+00   -5.780E+00   -5.662E+00   -5.543E+00   -5.424E+00   -5.304E+00
    -5.183E+00   -5.063E+00   -4.941E+00   -4.820E+00   -4.699E+00   -4.578E+00   -4.457E+00   -4.336E+00   -4.216E+00   -4.096E+00
    -3.977E+00   -3.859E+00   -3.741E+00   -3.624E+00   -3.509E+00   -3.394E+00   -3.280E+00   -3.168E+00   -3.056E+00   -2.945E+00
    -2.836E+00   -2.728E+00   -2.621E+00   -2.515E+00   -2.410E+00   -2.307E+00   -2.205E+00   -2.104E+00   -2.004E+00   -1.906E+00
    -1.810E+00   -1.715E+00   -1.621E+00   -1.529E+00   -1.438E+00   -1.350E+00   -1.262E+00   -1.177E+00   -1.092E+00   -1.010E+00
    -9.296E-01   -8.508E-01   -7.738E-01   -6.986E-01   -6.253E-01   -5.539E-01   -4.844E-01   -4.168E-01   -3.513E-01   -2.877E-01
    -2.263E-01   -1.668E-01   -1.095E-01   -5.437E-02   -1.378E-03    4.941E-02    9.797E-02    1.443E-01    1.883E-01    2.302E-01
     2.700E-01    3.077E-01    3.434E-01    3.771E-01    4.089E-01    4.388E-01    4.670E-01    4.934E-01    5.181E-01    5.412E-01
     5.627E-01    5.826E-01    6.011E-01    6.182E-01    6.338E-01    6.482E-01    6.613E-01    6.732E-01    6.839E-01    6.936E-01
     7.022E-01    7.098E-01    7.164E-01    7.222E-01    7.271E-01    7.313E-01    7.347E-01    7.375E-01    7.396E-01    7.412E-01
     7.423E-01    7.429E-01    7.431E-01    7.429E-01    7.425E-01    7.418E-01    7.409E-01    7.399E-01    7.388E-01    7.377E-01
     7.366E-01    7.356E-01    7.347E-01    7.340E-01    7.334E-01    7.330E-01    7.328E-01    7.327E-01    7.328E-01    7.331E-01
     7.336E-01    7.342E-01    7.351E-01    7.361E-01    7.373E-01    7.388E-01    7.404E-01    7.422E-01    7.442E-01    7.465E-01
     7.489E-01    7.516E-01    7.545E-01    7.576E-01    7.609E-01    7.645E-01    7.683E-01    7.723E-01    7.766E-01    7.811E-01
     7.859E-01    7.909E-01    7.962E-01    8.017E-01    8.075E-01    8.135E-01    8.198E-01    8.264E-01    8.332E-01    8.403E-01
     8.477E-01    8.554E-01    8.634E-01    8.716E-01    8.801E-01    8.890E-01    8.981E-01    9.075E-01    9.172E-01    9.272E-01
     9.375E-01    9.480E-01    9.588E-01    9.698E-01    9.809E-01    9.923E-01    1.004E+00    1.016E+00    1.027E+00    1.039E+00
     1.051E+00    1.064E+00    1.076E+00    1.088E+00    1.100E+00    1.113E+00    1.125E+00    1.138E+00    1.150E+00    1.162E+00
     1.175E+00    1.187E+00    1.199E+00    1.211E+00    1.223E+00    1.235E+00    1.247E+00    1.259E+00    1.270E+00    1.281E+00
     1.292E+00    1.303E+00    1.314E+00    1.324E+00    1.334E+00    1.344E+00    1.354E+00    1.363E+00    1.372E+00    1.380E+00
     1.388E+00    1.396E+00    1.404E+00    1.411E+00    1.418E+00    1.424E+00    1.430E+00    1.436E+00    1.441E+00    1.446E+00
     1.450E+00    1.455E+00    1.459E+00    1.462E+00    1.466E+00    1.469E+00    1.472E+00    1.474E+00    1.477E+00    1.479E+00
     1.481E+00    1.482E+00    1.484E+00    1.485E+00    1.486E+00    1.487E+00    1.488E+00    1.488E+00    1.488E+00    1.489E+00
     1.489E+00    1.489E+00    1.488E+00    1.488E+00    1.488E+00    1.487E+00    1.487E+00    1.486E+00    1.485E+00    1.485E+00
     1.484E+00    1.483E+00    1.482E+00    1.481E+00    1.480E+00    1.480E+00    1.479E+00    1.478E+00
 Ala      Conc. = 9.33E+01
