 LCModel (Version 6.3-1L) Copyright: S.W. Provencher.          Ref.: Magn. Reson. Med. 30:672-679 (1993).                
 Slice#1 Row#9 Col#8  PD_05_press_1_raw_act
 36 lines in following concentration table = NCONC+1
    Conc.  %SD /Cr+PCr  Metabolite                                         
  156.460  68%   0.174 Ala                                                 
  123.294 137%   0.137 Asp                                                 
  201.401  99%   0.225 Cr                                                  
  695.614  30%   0.775 PCr                                                 
   55.478 192% 6.2E-02 GABA                                                
   65.357 164% 7.3E-02 Glc                                                 
  562.696  37%   0.627 Gln                                                 
 1.07E+03  23%   1.197 Glu                                                 
  304.443   7%   0.339 GPC                                                 
    0.000 999%   0.000 PCh                                                 
  343.986  21%   0.383 GSH                                                 
  917.585  24%   1.023 Ins                                                 
   41.181 278% 4.6E-02 Lac                                                 
 1.65E+03   4%   1.844 NAA                                                 
    0.000 999%   0.000 NAAG                                                
   61.381  38% 6.8E-02 Scyllo                                              
   98.193 157%   0.109 Tau                                                 
  135.723  74%   0.151 -CrCH2                                              
  304.443   7%   0.339 GPC+PCh                                             
 1.65E+03   4%   1.844 NAA+NAAG                                            
  897.015   6%   1.000 Cr+PCr                                              
 1.64E+03  20%   1.824 Glu+Gln                                             
 1.37E+03  33%   1.530 Lip13a                                              
    0.000 999%   0.000 Lip13b                                              
  188.485 118%   0.210 Lip09                                               
 1.26E+03  20%   1.404 MM09                                                
  203.316  77%   0.227 Lip20                                               
 2.45E+03  14%   2.729 MM20                                                
  491.406  34%   0.548 MM12                                                
  721.847  44%   0.805 MM14                                                
  710.159  28%   0.792 MM17                                                
 1.37E+03  33%   1.530 Lip13a+Lip13b                                       
 2.59E+03  13%   2.883 MM14+Lip13a+Lip13b+MM12                             
 1.45E+03  12%   1.615 MM09+Lip09                                          
 2.65E+03  12%   2.956 MM20+Lip20                                          
   6 lines in following misc. output table
  FWHM = 0.046 ppm    S/N =   9                                            
  Data shift = 0.008 ppm                                                   
  Ph: -43 deg      -9.6 deg/ppm                                            
  alphaB,S = 8.5E+01,   1.2E+02                                            
   14 spline knots.   Ns = 6(1)                                            
   4 inflections.     1 extrema                                            
  498 points on ppm-axis = NY
      4.000000     3.992357     3.984714     3.977070     3.969427     3.961784     3.954141     3.946497     3.938854     3.931211
      3.923568     3.915925     3.908281     3.900638     3.892995     3.885352     3.877708     3.870065     3.862422     3.854779
      3.847136     3.839492     3.831849     3.824206     3.816563     3.808919     3.801276     3.793633     3.785990     3.778347
      3.770703     3.763060     3.755417     3.747774     3.740130     3.732487     3.724844     3.717201     3.709558     3.701914
      3.694271     3.686628     3.678985     3.671341     3.663698     3.656055     3.648412     3.640769     3.633125     3.625482
      3.617839     3.610196     3.602552     3.594909     3.587266     3.579623     3.571980     3.564336     3.556693     3.549050
      3.541407     3.533763     3.526120     3.518477     3.510834     3.503191     3.495547     3.487904     3.480261     3.472618
      3.464974     3.457331     3.449688     3.442045     3.434402     3.426758     3.419115     3.411472     3.403829     3.396185
      3.388542     3.380899     3.373256     3.365613     3.357969     3.350326     3.342683     3.335040     3.327396     3.319753
      3.312110     3.304467     3.296824     3.289180     3.281537     3.273894     3.266251     3.258607     3.250964     3.243321
      3.235678     3.228034     3.220391     3.212748     3.205105     3.197462     3.189818     3.182175     3.174532     3.166889
      3.159245     3.151602     3.143959     3.136316     3.128673     3.121029     3.113386     3.105743     3.098100     3.090456
      3.082813     3.075170     3.067527     3.059884     3.052240     3.044597     3.036954     3.029311     3.021667     3.014024
      3.006381     2.998738     2.991095     2.983451     2.975808     2.968165     2.960522     2.952878     2.945235     2.937592
      2.929949     2.922306     2.914662     2.907019     2.899376     2.891733     2.884089     2.876446     2.868803     2.861160
      2.853517     2.845873     2.838230     2.830587     2.822944     2.815300     2.807657     2.800014     2.792371     2.784728
      2.777084     2.769441     2.761798     2.754155     2.746511     2.738868     2.731225     2.723582     2.715939     2.708295
      2.700652     2.693009     2.685366     2.677722     2.670079     2.662436     2.654793     2.647150     2.639506     2.631863
      2.624220     2.616577     2.608933     2.601290     2.593647     2.586004     2.578361     2.570717     2.563074     2.555431
      2.547788     2.540144     2.532501     2.524858     2.517215     2.509572     2.501928     2.494285     2.486642     2.478999
      2.471355     2.463712     2.456069     2.448426     2.440783     2.433139     2.425496     2.417853     2.410210     2.402566
      2.394923     2.387280     2.379637     2.371994     2.364350     2.356707     2.349064     2.341421     2.333777     2.326134
      2.318491     2.310848     2.303205     2.295561     2.287918     2.280275     2.272632     2.264988     2.257345     2.249702
      2.242059     2.234416     2.226772     2.219129     2.211486     2.203843     2.196199     2.188556     2.180913     2.173270
      2.165627     2.157983     2.150340     2.142697     2.135054     2.127410     2.119767     2.112124     2.104481     2.096838
      2.089194     2.081551     2.073908     2.066265     2.058621     2.050978     2.043335     2.035692     2.028049     2.020405
      2.012762     2.005119     1.997476     1.989833     1.982190     1.974546     1.966903     1.959260     1.951617     1.943974
      1.936331     1.928688     1.921045     1.913402     1.905759     1.898115     1.890472     1.882829     1.875186     1.867543
      1.859900     1.852257     1.844614     1.836971     1.829327     1.821684     1.814041     1.806398     1.798755     1.791112
      1.783469     1.775826     1.768183     1.760540     1.752896     1.745253     1.737610     1.729967     1.722324     1.714681
      1.707038     1.699395     1.691752     1.684108     1.676465     1.668822     1.661179     1.653536     1.645893     1.638250
      1.630607     1.622964     1.615321     1.607677     1.600034     1.592391     1.584748     1.577105     1.569462     1.561819
      1.554176     1.546533     1.538890     1.531246     1.523603     1.515960     1.508317     1.500674     1.493031     1.485388
      1.477745     1.470102     1.462458     1.454815     1.447172     1.439529     1.431886     1.424243     1.416600     1.408957
      1.401314     1.393671     1.386027     1.378384     1.370741     1.363098     1.355455     1.347812     1.340169     1.332526
      1.324883     1.317240     1.309596     1.301953     1.294310     1.286667     1.279024     1.271381     1.263738     1.256095
      1.248452     1.240808     1.233165     1.225522     1.217879     1.210236     1.202593     1.194950     1.187307     1.179664
      1.172021     1.164377     1.156734     1.149091     1.141448     1.133805     1.126162     1.118519     1.110876     1.103233
      1.095590     1.087946     1.080303     1.072660     1.065017     1.057374     1.049731     1.042088     1.034445     1.026802
      1.019158     1.011515     1.003872     0.996229     0.988586     0.980943     0.973300     0.965657     0.958014     0.950371
      0.942727     0.935084     0.927441     0.919798     0.912155     0.904512     0.896869     0.889226     0.881583     0.873940
      0.866296     0.858653     0.851010     0.843367     0.835724     0.828081     0.820438     0.812795     0.805152     0.797508
      0.789865     0.782222     0.774579     0.766936     0.759293     0.751650     0.744007     0.736364     0.728721     0.721077
      0.713434     0.705791     0.698148     0.690505     0.682862     0.675219     0.667576     0.659933     0.652290     0.644646
      0.637003     0.629360     0.621717     0.614074     0.606431     0.598788     0.591145     0.583502     0.575858     0.568215
      0.560572     0.552929     0.545286     0.537643     0.530000     0.522357     0.514714     0.507071     0.499427     0.491784
      0.484141     0.476498     0.468855     0.461212     0.453569     0.445925     0.438282     0.430639     0.422996     0.415353
      0.407710     0.400067     0.392424     0.384780     0.377137     0.369494     0.361851     0.354208     0.346565     0.338922
      0.331278     0.323635     0.315992     0.308349     0.300706     0.293063     0.285420     0.277777     0.270133     0.262490
      0.254847     0.247204     0.239561     0.231918     0.224275     0.216631     0.208988     0.201345
 NY phased data points follow
   9.02233E+00  5.64594E+00 -1.03638E+00  6.63792E+00  4.02656E+00  7.13730E+00  1.44730E+01  1.66527E+01  1.44669E+01  2.53387E+01
   1.98747E+01  2.07723E+01  2.15807E+01  1.22742E+01  1.44913E+01  1.76734E+01  1.35618E+01  7.76797E+00  1.13667E+01  5.42379E+00
   1.25738E+01  6.20993E+00  1.01921E+01  1.37946E+01  5.78456E+00  9.58734E+00  5.50132E+00  9.07019E+00  1.32418E+01  1.18759E+01
   1.07676E+01  9.35616E+00  1.28349E+01  8.55901E+00  1.04791E+01  8.30774E+00  7.23241E+00  7.15292E+00  8.10543E+00  3.72762E+00
   8.26153E+00  5.20334E+00  9.99903E+00  1.11256E+01  6.07532E+00  9.50815E+00  1.02099E+01  1.39062E+01  1.18954E+01  1.35790E+01
   9.55800E+00  1.17262E+01  4.93051E+00  1.26957E+01  1.30314E+01  7.57739E+00  1.23439E+01  1.24123E+01  9.12486E+00  1.19557E+01
   2.68037E+00  4.10662E+00  1.00368E+01  5.13892E+00  1.29071E+00 -1.92715E+00  3.26183E+00  4.95818E+00  2.29595E+00  4.38195E+00
   4.15044E+00 -2.24872E+00  8.27437E+00  6.05313E-01  3.17867E+00  7.26997E+00  6.41881E+00  3.65575E+00 -8.69134E-01  3.35780E+00
   4.33916E+00  1.26126E+00  3.46543E+00  4.28502E+00  4.86805E+00  8.40222E+00  7.21651E+00  3.39002E+00  4.53114E+00  6.96928E+00
   5.75883E+00  5.22811E+00  5.28679E+00  8.04750E+00  6.04885E+00  8.40067E+00  3.03720E+00  3.07153E+00  3.90597E+00  9.04302E+00
   1.46976E+01  2.73000E+01  3.39490E+01  3.63542E+01  2.73951E+01  2.46516E+01  2.18816E+01  1.91226E+01  1.20850E+01  1.66381E+01
   1.15621E+01  1.06681E+01  7.14700E+00  9.16245E+00  8.55000E+00  5.04237E+00  9.38466E+00  9.68420E+00  7.06975E+00  1.05325E+00
   3.35338E+00  2.40771E+00  2.57884E+00  5.97838E+00  1.24863E+01  2.21511E+01  3.07722E+01  4.63051E+01  4.37076E+01  3.21962E+01
   2.50742E+01  1.48638E+01  1.53987E+01  1.83224E+01  1.17843E+01  9.03160E+00  1.14666E+01  4.56274E+00  3.09691E+00  5.80514E+00
   2.83408E+00  4.20328E+00  2.17126E+00  6.63163E+00  6.16524E+00  2.00872E+00  9.44338E+00  4.94119E+00  7.70735E+00  7.96961E+00
   5.68021E+00  2.01463E+00  3.32783E+00  4.36239E+00 -2.31989E+00  2.03907E+00  7.23306E+00  5.13101E+00  3.42877E+00  4.09991E+00
   1.28637E+00 -6.93945E+00 -1.19314E+00  4.42586E+00  3.18603E+00  4.43635E+00  5.24183E-01  3.32976E+00  4.21463E+00  1.51570E+00
  -4.66459E+00  2.82075E-01  7.31619E-01 -3.20614E+00 -3.39619E+00 -6.62336E+00 -7.92258E+00 -9.10663E+00 -8.24207E+00 -5.02803E+00
  -8.63469E+00 -7.90879E+00 -5.99166E+00 -4.42163E+00 -5.91852E+00 -5.06584E+00 -1.12698E+00  5.32999E+00  4.44338E+00 -6.20913E-01
   3.10640E+00  2.45205E+00  2.32945E+00  1.91991E+00 -2.40176E+00  5.85126E-01 -7.26072E-01 -3.11753E+00 -1.60521E+00 -2.07345E+00
   4.48973E+00  1.36141E+00  8.84489E+00  2.48393E+00  5.13729E+00  9.00561E+00  3.31022E+00  5.28623E+00  1.64321E+00  1.73586E+00
   9.51072E-01 -4.59806E+00 -4.27906E-01  1.17198E+01  7.05599E+00  1.12914E+01  1.16852E+01  1.09283E+01  1.45211E+01  3.39839E+00
   1.29391E+00  5.28859E+00  2.21845E+00 -1.15169E+00  3.36785E+00  1.08578E+01  9.45094E+00  3.99756E+00  6.03949E+00  1.06733E+01
   7.51564E+00  1.32370E+01  1.39152E+01  1.03167E+01  1.01284E+01  1.19140E+01  1.08754E+01  1.52350E+01  5.28849E+00  7.39840E+00
   1.07244E+01  4.52579E+00  7.49508E+00  6.91840E+00  6.81381E+00  1.49599E+01  1.15682E+01  1.49067E+01  1.13219E+01  1.50466E+01
   1.54107E+01  1.09885E+01  1.92353E+01  1.37079E+01  1.11370E+01  1.47044E+01  1.79685E+01  2.78429E+01  3.59341E+01  5.35677E+01
   7.56992E+01  7.64785E+01  7.02843E+01  4.67821E+01  4.34454E+01  3.81336E+01  2.54423E+01  2.97838E+01  1.64344E+01  1.35425E+01
   1.04273E+01  9.01246E+00  5.57119E+00  9.22334E+00  1.09941E+01  2.83035E+00 -2.63676E+00  2.11875E-01  4.16209E+00  3.54497E-01
   1.74848E-01  4.64540E+00  1.87682E-01  6.48106E+00  4.98448E+00 -3.99103E+00  1.22509E+00 -1.80696E-01  6.75398E+00  3.52655E+00
   7.91608E+00 -2.19844E-01  9.12259E+00  5.97763E+00  3.09651E+00  3.08909E+00  6.87724E+00  2.76194E+00  7.04978E+00  2.73057E-01
   9.62093E+00  6.88213E-01  5.75444E+00  3.85774E+00  6.38798E+00  6.01868E+00  8.79043E+00  1.05628E+01  6.71535E+00  9.16109E+00
   3.29843E+00  7.33573E+00  7.54577E+00  9.73751E+00  1.16914E+01  8.72548E+00  1.49412E+01  1.06311E+01  8.84614E+00  1.63551E+01
   1.01325E+01  1.23436E+01  6.79336E+00  6.45492E+00  9.04180E+00  8.75391E+00  8.63067E+00  7.48352E+00  1.73657E+00  9.15188E+00
   9.06714E-01  7.45766E+00  7.77619E+00  9.23175E+00  7.37321E+00  8.47598E+00  7.66401E+00  8.90749E+00  1.40165E+01  1.12532E+01
   1.13601E+01  9.83018E+00  8.21505E+00  6.47795E+00  1.44189E+01  9.84839E+00  9.08634E+00  7.05455E+00  1.31260E+01  8.13606E+00
   7.79676E+00  1.03166E+01  1.41239E+01  6.63714E+00  9.99826E+00  8.56567E+00  5.77488E+00  9.38017E+00  1.39804E+01  6.01212E+00
   1.06202E+01  1.43662E+01  1.36751E+01  1.48364E+01  1.73403E+01  1.03585E+01  1.07680E+01  7.20284E+00  9.35374E+00  1.06785E+01
   1.66122E+01  1.05340E+01  1.46142E+01  7.16873E+00  1.12378E+01  1.09215E+01  1.56895E+01  5.31577E+00  8.19785E+00  6.09875E+00
   6.00017E+00  8.52408E+00  7.92491E+00  7.15890E+00  8.52584E+00  4.00922E+00  1.03169E+01  6.32389E+00  6.37052E+00  9.77468E+00
   3.08775E+00  6.93923E+00  3.82748E+00  4.25647E+00  8.80332E+00  8.40786E+00  6.63819E+00  1.10578E+01  7.23414E+00  9.33889E+00
   7.07764E+00  1.00358E+01  5.37146E+00  1.24084E+01  2.01859E+01  1.29786E+01  1.17267E+01  1.43972E+01  1.45571E+01  1.82145E+01
   1.06834E+01  1.51518E+01  1.46211E+01  1.61103E+01  1.18243E+01  1.15350E+01  1.31161E+01  1.06061E+01  5.40240E+00  1.04819E+01
   5.71869E+00  9.60936E+00  3.96842E+00  1.18991E+01  6.73311E+00  6.51603E+00  9.74971E+00  6.07438E+00  7.54936E+00  2.13986E+00
   4.72401E+00  2.81241E+00  9.23815E+00  6.60742E+00  7.57854E+00  4.79555E+00  3.63486E+00  3.11529E+00  3.15375E+00  3.22158E-01
   7.67319E+00  3.71862E+00 -1.06443E+00  7.24452E+00  1.52020E+00  3.45669E+00  4.18721E+00  2.79056E+00  9.71812E+00 -4.13258E-01
   1.99559E+00  7.29232E+00  4.41306E+00  8.89470E-01  4.70215E+00  2.85404E+00 -6.98557E-01  9.25360E+00  3.48890E+00  1.28569E+00
   3.07745E+00  4.42052E+00  8.14381E+00  1.53227E+00  2.13272E+00  1.82065E+00  1.10743E+00  6.30906E+00  5.14270E+00  3.37408E-01
   3.72759E+00  3.44182E+00  3.49363E+00  1.50409E+00  1.71856E+00 -3.50672E+00  1.26590E+01  6.00297E+00  9.65981E+00  7.83679E-02
   6.35501E-01  9.55238E+00  8.60637E+00  3.61844E+00  3.60539E-01 -6.90786E-02  7.52682E+00  3.06012E+00  4.91500E+00  6.88852E+00
  -1.31575E-01  4.11242E+00  4.64974E+00  5.60577E-01  2.91165E-01  6.43388E+00  7.24201E+00  8.43611E+00
 NY points of the fit to the data follow
   5.26519E+00  5.04981E+00  5.02610E+00  5.21271E+00  5.90951E+00  7.49126E+00  1.02349E+01  1.40853E+01  1.83913E+01  2.18940E+01
   2.33505E+01  2.24397E+01  1.99318E+01  1.70213E+01  1.44774E+01  1.23156E+01  1.01261E+01  8.02061E+00  6.80870E+00  6.20924E+00
   6.10392E+00  6.18807E+00  6.20935E+00  6.12025E+00  6.10191E+00  6.44283E+00  7.33109E+00  8.83364E+00  1.07346E+01  1.25034E+01
   1.36251E+01  1.39048E+01  1.34783E+01  1.25409E+01  1.11081E+01  9.26462E+00  7.24982E+00  5.77309E+00  5.12901E+00  4.83116E+00
   4.80383E+00  5.11732E+00  5.83281E+00  7.02842E+00  8.63789E+00  1.04627E+01  1.19661E+01  1.25200E+01  1.19221E+01  1.04360E+01
   8.68075E+00  7.23228E+00  6.19192E+00  5.31674E+00  4.58835E+00  4.30776E+00  4.59634E+00  5.23270E+00  5.94832E+00  6.50537E+00
   6.67986E+00  6.39066E+00  5.76438E+00  5.08093E+00  4.59047E+00  4.34645E+00  4.27143E+00  4.35513E+00  4.58535E+00  4.91284E+00
   5.30457E+00  5.66592E+00  5.91277E+00  5.99552E+00  5.92441E+00  5.74854E+00  5.48188E+00  5.17035E+00  4.84508E+00  4.57999E+00
   4.50419E+00  4.65149E+00  5.01090E+00  5.52931E+00  6.05401E+00  6.30867E+00  6.06588E+00  5.35683E+00  4.49833E+00  3.86554E+00
   3.61434E+00  3.61215E+00  3.62280E+00  3.55656E+00  3.59351E+00  3.80440E+00  4.05524E+00  4.66792E+00  6.57481E+00  1.07276E+01
   1.72547E+01  2.50332E+01  3.17121E+01  3.46851E+01  3.30094E+01  2.81566E+01  2.26714E+01  1.81989E+01  1.46645E+01  1.11305E+01
   7.38089E+00  4.96628E+00  4.30844E+00  4.14257E+00  4.09688E+00  4.07860E+00  4.07106E+00  4.06321E+00  4.07128E+00  4.14483E+00
   4.37137E+00  5.00824E+00  6.77394E+00  1.06467E+01  1.70025E+01  2.50868E+01  3.28586E+01  3.75643E+01  3.75224E+01  3.35634E+01
   2.81549E+01  2.32664E+01  1.91445E+01  1.48697E+01  9.94960E+00  5.87607E+00  4.33918E+00  4.12020E+00  4.42542E+00  4.86884E+00
   5.23016E+00  5.47496E+00  5.56738E+00  5.50592E+00  5.37731E+00  5.17715E+00  4.87225E+00  4.51756E+00  4.14051E+00  3.83436E+00
   3.58839E+00  3.37746E+00  3.21189E+00  3.10385E+00  3.06039E+00  3.04743E+00  2.99025E+00  2.80315E+00  2.44000E+00  1.95353E+00
   1.50545E+00  1.30312E+00  1.44647E+00  1.83677E+00  2.22306E+00  2.35106E+00  2.16315E+00  1.82630E+00  1.55110E+00  1.36080E+00
   1.11798E+00  7.71895E-01  2.79999E-01 -2.57914E-01 -6.95366E-01 -9.87754E-01 -1.03866E+00 -8.65583E-01 -6.44059E-01 -5.75370E-01
  -6.96505E-01 -8.47146E-01 -8.67432E-01 -7.62683E-01 -6.58871E-01 -5.99590E-01 -2.67328E-01  6.11281E-01  1.94411E+00  3.27303E+00
   4.07257E+00  4.22033E+00  3.85438E+00  3.26388E+00  2.71201E+00  2.26941E+00  1.96897E+00  2.02517E+00  2.47968E+00  3.28904E+00
   4.38939E+00  5.63351E+00  6.81826E+00  7.68851E+00  7.88137E+00  7.12234E+00  5.50529E+00  3.37739E+00  1.24989E+00 -3.14246E-01
  -8.69323E-01 -2.81331E-01  1.34884E+00  3.71984E+00  6.28853E+00  8.36322E+00  9.30080E+00  8.79221E+00  6.85292E+00  4.24701E+00
   1.85792E+00  1.26976E-01 -6.37917E-01 -1.41445E-01  1.54861E+00  3.69652E+00  5.43788E+00  6.54385E+00  7.17454E+00  7.54293E+00
   7.67234E+00  7.60806E+00  7.64927E+00  7.98317E+00  8.44709E+00  8.94554E+00  9.46787E+00  9.92988E+00  1.01480E+01  9.96171E+00
   9.47621E+00  8.98436E+00  8.75817E+00  8.94220E+00  9.45532E+00  1.01835E+01  1.08538E+01  1.12660E+01  1.14846E+01  1.17048E+01
   1.20378E+01  1.23326E+01  1.26343E+01  1.29899E+01  1.34712E+01  1.49771E+01  1.95837E+01  2.89131E+01  4.26312E+01  5.78099E+01
   6.92477E+01  7.22689E+01  6.65105E+01  5.60511E+01  4.57290E+01  3.76024E+01  3.06040E+01  2.28341E+01  1.51035E+01  1.11577E+01
   9.69404E+00  8.86610E+00  8.38793E+00  8.13184E+00  7.92537E+00  7.71077E+00  7.45542E+00  7.15318E+00  6.81963E+00  6.47510E+00
   6.12113E+00  5.78242E+00  5.49768E+00  5.27522E+00  5.10327E+00  4.97014E+00  4.86431E+00  4.78155E+00  4.72009E+00  4.67164E+00
   4.63933E+00  4.62565E+00  4.63027E+00  4.65766E+00  4.71472E+00  4.80470E+00  4.92674E+00  5.07987E+00  5.26493E+00  5.48082E+00
   5.72539E+00  5.99692E+00  6.28993E+00  6.59785E+00  6.91364E+00  7.23041E+00  7.54111E+00  7.83840E+00  8.11443E+00  8.36186E+00
   8.57460E+00  8.74891E+00  8.88269E+00  8.97496E+00  9.02676E+00  9.04175E+00  9.02611E+00  8.98858E+00  8.94017E+00  8.89582E+00
   8.87939E+00  8.93284E+00  9.09575E+00  9.34159E+00  9.55522E+00  9.56693E+00  9.22163E+00  8.49311E+00  7.54822E+00  6.65302E+00
   6.02745E+00  5.77064E+00  5.89346E+00  6.38555E+00  7.21629E+00  8.23923E+00  9.07846E+00  9.55261E+00  9.77768E+00  9.92145E+00
   1.00615E+01  1.01545E+01  1.01420E+01  1.01520E+01  1.02650E+01  1.03939E+01  1.04647E+01  1.04409E+01  1.03418E+01  1.02335E+01
   1.01875E+01  1.02423E+01  1.03989E+01  1.06393E+01  1.09375E+01  1.12570E+01  1.15203E+01  1.16654E+01  1.17162E+01  1.17133E+01
   1.16727E+01  1.15798E+01  1.14181E+01  1.12227E+01  1.10198E+01  1.08000E+01  1.05600E+01  1.03012E+01  1.00262E+01  9.73839E+00
   9.44174E+00  9.14060E+00  8.83943E+00  8.54269E+00  8.25437E+00  7.97823E+00  7.71771E+00  7.47623E+00  7.25689E+00  7.06250E+00
   6.89536E+00  6.75764E+00  6.65140E+00  6.57887E+00  6.54208E+00  6.54298E+00  6.58321E+00  6.66451E+00  6.78849E+00  6.95672E+00
   7.17016E+00  7.42919E+00  7.73324E+00  8.08104E+00  8.47018E+00  8.89710E+00  9.35650E+00  9.84155E+00  1.03438E+01  1.08537E+01
   1.13604E+01  1.18522E+01  1.23167E+01  1.27414E+01  1.31143E+01  1.34246E+01  1.36632E+01  1.38227E+01  1.38980E+01  1.38866E+01
   1.37888E+01  1.36077E+01  1.33489E+01  1.30199E+01  1.26299E+01  1.21893E+01  1.17094E+01  1.12020E+01  1.06780E+01  1.01479E+01
   9.62096E+00  9.10534E+00  8.60781E+00  8.13379E+00  7.68700E+00  7.26989E+00  6.88359E+00  6.52851E+00  6.20415E+00  5.90944E+00
   5.64262E+00  5.40168E+00  5.18444E+00  4.98886E+00  4.81287E+00  4.65446E+00  4.51154E+00  4.38232E+00  4.26518E+00  4.15886E+00
   4.06208E+00  3.97374E+00  3.89270E+00  3.81811E+00  3.74927E+00  3.68567E+00  3.62672E+00  3.57189E+00  3.52061E+00  3.47259E+00
   3.42754E+00  3.38530E+00  3.34555E+00  3.30800E+00  3.27237E+00  3.23859E+00  3.20656E+00  3.17621E+00  3.14729E+00  3.11965E+00
   3.09313E+00  3.06779E+00  3.04358E+00  3.02044E+00  2.99817E+00  2.97669E+00  2.95593E+00  2.93599E+00  2.91682E+00  2.89835E+00
   2.88040E+00  2.86298E+00  2.84606E+00  2.82976E+00  2.81399E+00  2.79869E+00  2.78370E+00  2.76908E+00  2.75485E+00  2.74109E+00
   2.72768E+00  2.71455E+00  2.70162E+00  2.68896E+00  2.67662E+00  2.66463E+00  2.65284E+00  2.64122E+00  2.62970E+00  2.61842E+00
   2.60738E+00  2.59657E+00  2.58583E+00  2.57516E+00  2.56456E+00  2.55413E+00  2.54385E+00  2.53368E+00
 NY background values follow
     2.237E+00    2.236E+00    2.235E+00    2.234E+00    2.233E+00    2.232E+00    2.231E+00    2.230E+00    2.229E+00    2.228E+00
     2.228E+00    2.227E+00    2.226E+00    2.225E+00    2.224E+00    2.223E+00    2.222E+00    2.221E+00    2.220E+00    2.219E+00
     2.218E+00    2.217E+00    2.216E+00    2.215E+00    2.214E+00    2.213E+00    2.212E+00    2.211E+00    2.210E+00    2.209E+00
     2.208E+00    2.207E+00    2.206E+00    2.205E+00    2.204E+00    2.203E+00    2.202E+00    2.201E+00    2.200E+00    2.199E+00
     2.198E+00    2.197E+00    2.196E+00    2.195E+00    2.194E+00    2.193E+00    2.192E+00    2.191E+00    2.190E+00    2.189E+00
     2.188E+00    2.187E+00    2.186E+00    2.185E+00    2.184E+00    2.183E+00    2.182E+00    2.181E+00    2.180E+00    2.179E+00
     2.178E+00    2.177E+00    2.176E+00    2.175E+00    2.174E+00    2.173E+00    2.172E+00    2.171E+00    2.170E+00    2.169E+00
     2.168E+00    2.167E+00    2.166E+00    2.165E+00    2.164E+00    2.163E+00    2.162E+00    2.161E+00    2.160E+00    2.159E+00
     2.158E+00    2.157E+00    2.156E+00    2.155E+00    2.154E+00    2.153E+00    2.152E+00    2.151E+00    2.150E+00    2.149E+00
     2.148E+00    2.147E+00    2.146E+00    2.145E+00    2.144E+00    2.143E+00    2.142E+00    2.141E+00    2.140E+00    2.139E+00
     2.138E+00    2.137E+00    2.136E+00    2.135E+00    2.134E+00    2.133E+00    2.132E+00    2.131E+00    2.130E+00    2.129E+00
     2.128E+00    2.127E+00    2.126E+00    2.125E+00    2.124E+00    2.123E+00    2.122E+00    2.121E+00    2.120E+00    2.119E+00
     2.118E+00    2.117E+00    2.116E+00    2.115E+00    2.114E+00    2.113E+00    2.112E+00    2.111E+00    2.110E+00    2.109E+00
     2.108E+00    2.107E+00    2.106E+00    2.105E+00    2.104E+00    2.103E+00    2.102E+00    2.101E+00    2.099E+00    2.098E+00
     2.097E+00    2.096E+00    2.095E+00    2.094E+00    2.093E+00    2.092E+00    2.091E+00    2.090E+00    2.089E+00    2.088E+00
     2.087E+00    2.086E+00    2.085E+00    2.084E+00    2.083E+00    2.082E+00    2.081E+00    2.080E+00    2.079E+00    2.078E+00
     2.077E+00    2.076E+00    2.075E+00    2.074E+00    2.073E+00    2.072E+00    2.071E+00    2.070E+00    2.069E+00    2.068E+00
     2.067E+00    2.066E+00    2.065E+00    2.064E+00    2.063E+00    2.062E+00    2.061E+00    2.060E+00    2.059E+00    2.058E+00
     2.057E+00    2.056E+00    2.055E+00    2.054E+00    2.053E+00    2.052E+00    2.051E+00    2.049E+00    2.048E+00    2.047E+00
     2.046E+00    2.045E+00    2.044E+00    2.043E+00    2.042E+00    2.041E+00    2.040E+00    2.039E+00    2.038E+00    2.037E+00
     2.036E+00    2.035E+00    2.034E+00    2.033E+00    2.032E+00    2.031E+00    2.030E+00    2.029E+00    2.028E+00    2.027E+00
     2.026E+00    2.025E+00    2.024E+00    2.023E+00    2.022E+00    2.021E+00    2.020E+00    2.019E+00    2.018E+00    2.017E+00
     2.016E+00    2.015E+00    2.014E+00    2.013E+00    2.011E+00    2.010E+00    2.009E+00    2.008E+00    2.007E+00    2.006E+00
     2.005E+00    2.004E+00    2.003E+00    2.002E+00    2.001E+00    2.000E+00    1.999E+00    1.998E+00    1.997E+00    1.996E+00
     1.995E+00    1.994E+00    1.993E+00    1.992E+00    1.991E+00    1.990E+00    1.989E+00    1.988E+00    1.987E+00    1.986E+00
     1.985E+00    1.984E+00    1.983E+00    1.982E+00    1.981E+00    1.979E+00    1.978E+00    1.977E+00    1.976E+00    1.975E+00
     1.974E+00    1.973E+00    1.972E+00    1.971E+00    1.970E+00    1.969E+00    1.968E+00    1.967E+00    1.966E+00    1.965E+00
     1.964E+00    1.963E+00    1.962E+00    1.961E+00    1.960E+00    1.959E+00    1.958E+00    1.957E+00    1.956E+00    1.955E+00
     1.954E+00    1.953E+00    1.952E+00    1.950E+00    1.949E+00    1.948E+00    1.947E+00    1.946E+00    1.945E+00    1.944E+00
     1.943E+00    1.942E+00    1.941E+00    1.940E+00    1.939E+00    1.938E+00    1.937E+00    1.936E+00    1.935E+00    1.934E+00
     1.933E+00    1.932E+00    1.931E+00    1.930E+00    1.929E+00    1.928E+00    1.927E+00    1.926E+00    1.924E+00    1.923E+00
     1.922E+00    1.921E+00    1.920E+00    1.919E+00    1.918E+00    1.917E+00    1.916E+00    1.915E+00    1.914E+00    1.913E+00
     1.912E+00    1.911E+00    1.910E+00    1.909E+00    1.908E+00    1.907E+00    1.906E+00    1.905E+00    1.904E+00    1.903E+00
     1.902E+00    1.901E+00    1.899E+00    1.898E+00    1.897E+00    1.896E+00    1.895E+00    1.894E+00    1.893E+00    1.892E+00
     1.891E+00    1.890E+00    1.889E+00    1.888E+00    1.887E+00    1.886E+00    1.885E+00    1.884E+00    1.883E+00    1.882E+00
     1.881E+00    1.880E+00    1.879E+00    1.878E+00    1.876E+00    1.875E+00    1.874E+00    1.873E+00    1.872E+00    1.871E+00
     1.870E+00    1.869E+00    1.868E+00    1.867E+00    1.866E+00    1.865E+00    1.864E+00    1.863E+00    1.862E+00    1.861E+00
     1.860E+00    1.859E+00    1.858E+00    1.857E+00    1.856E+00    1.854E+00    1.853E+00    1.852E+00    1.851E+00    1.850E+00
     1.849E+00    1.848E+00    1.847E+00    1.846E+00    1.845E+00    1.844E+00    1.843E+00    1.842E+00    1.841E+00    1.840E+00
     1.839E+00    1.838E+00    1.837E+00    1.836E+00    1.835E+00    1.833E+00    1.832E+00    1.831E+00    1.830E+00    1.829E+00
     1.828E+00    1.827E+00    1.826E+00    1.825E+00    1.824E+00    1.823E+00    1.822E+00    1.821E+00    1.820E+00    1.819E+00
     1.818E+00    1.817E+00    1.816E+00    1.815E+00    1.814E+00    1.812E+00    1.811E+00    1.810E+00    1.809E+00    1.808E+00
     1.807E+00    1.806E+00    1.805E+00    1.804E+00    1.803E+00    1.802E+00    1.801E+00    1.800E+00    1.799E+00    1.798E+00
     1.797E+00    1.796E+00    1.795E+00    1.793E+00    1.792E+00    1.791E+00    1.790E+00    1.789E+00    1.788E+00    1.787E+00
     1.786E+00    1.785E+00    1.784E+00    1.783E+00    1.782E+00    1.781E+00    1.780E+00    1.779E+00    1.778E+00    1.777E+00
     1.776E+00    1.774E+00    1.773E+00    1.772E+00    1.771E+00    1.770E+00    1.769E+00    1.768E+00    1.767E+00    1.766E+00
     1.765E+00    1.764E+00    1.763E+00    1.762E+00    1.761E+00    1.760E+00    1.759E+00    1.758E+00    1.756E+00    1.755E+00
     1.754E+00    1.753E+00    1.752E+00    1.751E+00    1.750E+00    1.749E+00    1.748E+00    1.747E+00    1.746E+00    1.745E+00
     1.744E+00    1.743E+00    1.742E+00    1.741E+00    1.739E+00    1.738E+00    1.737E+00    1.736E+00    1.735E+00    1.734E+00
     1.733E+00    1.732E+00    1.731E+00    1.730E+00    1.729E+00    1.728E+00    1.727E+00    1.726E+00
 Ala      Conc. = 1.56E+02
