 LCModel (Version 6.3-1L) Copyright: S.W. Provencher.          Ref.: Magn. Reson. Med. 30:672-679 (1993).                
 Slice#1 Row#14 Col#7  PD_05_press_1_raw_act
 36 lines in following concentration table = NCONC+1
    Conc.  %SD /Cr+PCr  Metabolite                                         
    0.000 999%   0.000 Ala                                                 
   10.493  29%   0.142 Asp                                                 
    0.000 999%   0.000 Cr                                                  
   73.830  27%   1.000 PCr                                                 
    6.294  29% 8.5E-02 GABA                                                
    6.344  28% 8.6E-02 Glc                                                 
  225.528  58%   3.055 Gln                                                 
  288.015  51%   3.901 Glu                                                 
   33.974  22%   0.460 GPC                                                 
    0.000 999%   0.000 PCh                                                 
  113.194  28%   1.533 GSH                                                 
  390.041  24%   5.283 Ins                                                 
    0.000 999%   0.000 Lac                                                 
   34.794  61%   0.471 NAA                                                 
    0.000 999%   0.000 NAAG                                                
    2.150  28% 2.9E-02 Scyllo                                              
   10.628  28%   0.144 Tau                                                 
    3.891 155% 5.3E-02 -CrCH2                                              
   33.974  22%   0.460 GPC+PCh                                             
   34.794  61%   0.471 NAA+NAAG                                            
   73.830  27%   1.000 Cr+PCr                                              
  513.543  46%   6.956 Glu+Gln                                             
    0.000 999%   0.000 Lip13a                                              
    0.000 999%   0.000 Lip13b                                              
   16.842 252%   0.228 Lip09                                               
   43.564 117%   0.590 MM09                                                
    0.000 999%   0.000 Lip20                                               
    0.000 999%   0.000 MM20                                                
    0.000 999%   0.000 MM12                                                
    0.000 999%   0.000 MM14                                                
    0.000 999%   0.000 MM17                                                
    0.000 999%   0.000 Lip13a+Lip13b                                       
    0.000 999%   0.000 MM14+Lip13a+Lip13b+MM12                             
   60.406  70%   0.818 MM09+Lip09                                          
    0.000 999%   0.000 MM20+Lip20                                          
   6 lines in following misc. output table
  FWHM = 0.084 ppm    S/N =   1                                            
  Data shift =-0.084 ppm                                                   
  Ph:  92 deg      -3.4 deg/ppm                                            
  alphaB,S = 1.8E+00,   5.7E+00                                            
   14 spline knots.   Ns = 6(1)                                            
  ( 4) 2 infls.   ( 3) 1 extrs.                                            
  498 points on ppm-axis = NY
      4.000000     3.992357     3.984714     3.977070     3.969427     3.961784     3.954141     3.946497     3.938854     3.931211
      3.923568     3.915925     3.908281     3.900638     3.892995     3.885352     3.877708     3.870065     3.862422     3.854779
      3.847136     3.839492     3.831849     3.824206     3.816563     3.808919     3.801276     3.793633     3.785990     3.778347
      3.770703     3.763060     3.755417     3.747774     3.740130     3.732487     3.724844     3.717201     3.709558     3.701914
      3.694271     3.686628     3.678985     3.671341     3.663698     3.656055     3.648412     3.640769     3.633125     3.625482
      3.617839     3.610196     3.602552     3.594909     3.587266     3.579623     3.571980     3.564336     3.556693     3.549050
      3.541407     3.533763     3.526120     3.518477     3.510834     3.503191     3.495547     3.487904     3.480261     3.472618
      3.464974     3.457331     3.449688     3.442045     3.434402     3.426758     3.419115     3.411472     3.403829     3.396185
      3.388542     3.380899     3.373256     3.365613     3.357969     3.350326     3.342683     3.335040     3.327396     3.319753
      3.312110     3.304467     3.296824     3.289180     3.281537     3.273894     3.266251     3.258607     3.250964     3.243321
      3.235678     3.228034     3.220391     3.212748     3.205105     3.197462     3.189818     3.182175     3.174532     3.166889
      3.159245     3.151602     3.143959     3.136316     3.128673     3.121029     3.113386     3.105743     3.098100     3.090456
      3.082813     3.075170     3.067527     3.059884     3.052240     3.044597     3.036954     3.029311     3.021667     3.014024
      3.006381     2.998738     2.991095     2.983451     2.975808     2.968165     2.960522     2.952878     2.945235     2.937592
      2.929949     2.922306     2.914662     2.907019     2.899376     2.891733     2.884089     2.876446     2.868803     2.861160
      2.853517     2.845873     2.838230     2.830587     2.822944     2.815300     2.807657     2.800014     2.792371     2.784728
      2.777084     2.769441     2.761798     2.754155     2.746511     2.738868     2.731225     2.723582     2.715939     2.708295
      2.700652     2.693009     2.685366     2.677722     2.670079     2.662436     2.654793     2.647150     2.639506     2.631863
      2.624220     2.616577     2.608933     2.601290     2.593647     2.586004     2.578361     2.570717     2.563074     2.555431
      2.547788     2.540144     2.532501     2.524858     2.517215     2.509572     2.501928     2.494285     2.486642     2.478999
      2.471355     2.463712     2.456069     2.448426     2.440783     2.433139     2.425496     2.417853     2.410210     2.402566
      2.394923     2.387280     2.379637     2.371994     2.364350     2.356707     2.349064     2.341421     2.333777     2.326134
      2.318491     2.310848     2.303205     2.295561     2.287918     2.280275     2.272632     2.264988     2.257345     2.249702
      2.242059     2.234416     2.226772     2.219129     2.211486     2.203843     2.196199     2.188556     2.180913     2.173270
      2.165627     2.157983     2.150340     2.142697     2.135054     2.127410     2.119767     2.112124     2.104481     2.096838
      2.089194     2.081551     2.073908     2.066265     2.058621     2.050978     2.043335     2.035692     2.028049     2.020405
      2.012762     2.005119     1.997476     1.989833     1.982190     1.974546     1.966903     1.959260     1.951617     1.943974
      1.936331     1.928688     1.921045     1.913402     1.905759     1.898115     1.890472     1.882829     1.875186     1.867543
      1.859900     1.852257     1.844614     1.836971     1.829327     1.821684     1.814041     1.806398     1.798755     1.791112
      1.783469     1.775826     1.768183     1.760540     1.752896     1.745253     1.737610     1.729967     1.722324     1.714681
      1.707038     1.699395     1.691752     1.684108     1.676465     1.668822     1.661179     1.653536     1.645893     1.638250
      1.630607     1.622964     1.615321     1.607677     1.600034     1.592391     1.584748     1.577105     1.569462     1.561819
      1.554176     1.546533     1.538890     1.531246     1.523603     1.515960     1.508317     1.500674     1.493031     1.485388
      1.477745     1.470102     1.462458     1.454815     1.447172     1.439529     1.431886     1.424243     1.416600     1.408957
      1.401314     1.393671     1.386027     1.378384     1.370741     1.363098     1.355455     1.347812     1.340169     1.332526
      1.324883     1.317240     1.309596     1.301953     1.294310     1.286667     1.279024     1.271381     1.263738     1.256095
      1.248452     1.240808     1.233165     1.225522     1.217879     1.210236     1.202593     1.194950     1.187307     1.179664
      1.172021     1.164377     1.156734     1.149091     1.141448     1.133805     1.126162     1.118519     1.110876     1.103233
      1.095590     1.087946     1.080303     1.072660     1.065017     1.057374     1.049731     1.042088     1.034445     1.026802
      1.019158     1.011515     1.003872     0.996229     0.988586     0.980943     0.973300     0.965657     0.958014     0.950371
      0.942727     0.935084     0.927441     0.919798     0.912155     0.904512     0.896869     0.889226     0.881583     0.873940
      0.866296     0.858653     0.851010     0.843367     0.835724     0.828081     0.820438     0.812795     0.805152     0.797508
      0.789865     0.782222     0.774579     0.766936     0.759293     0.751650     0.744007     0.736364     0.728721     0.721077
      0.713434     0.705791     0.698148     0.690505     0.682862     0.675219     0.667576     0.659933     0.652290     0.644646
      0.637003     0.629360     0.621717     0.614074     0.606431     0.598788     0.591145     0.583502     0.575858     0.568215
      0.560572     0.552929     0.545286     0.537643     0.530000     0.522357     0.514714     0.507071     0.499427     0.491784
      0.484141     0.476498     0.468855     0.461212     0.453569     0.445925     0.438282     0.430639     0.422996     0.415353
      0.407710     0.400067     0.392424     0.384780     0.377137     0.369494     0.361851     0.354208     0.346565     0.338922
      0.331278     0.323635     0.315992     0.308349     0.300706     0.293063     0.285420     0.277777     0.270133     0.262490
      0.254847     0.247204     0.239561     0.231918     0.224275     0.216631     0.208988     0.201345
 NY phased data points follow
   9.59810E+00  9.18909E+00  8.87092E+00  9.06664E+00  1.13034E+01  9.82739E+00  8.39319E+00  7.62086E+00  8.07845E+00  1.10204E+01
   1.12150E+01  9.62992E+00  9.15422E+00  7.75513E+00  8.12968E+00  7.67204E+00  7.61641E+00  6.77921E+00  9.43727E+00  8.86965E+00
   6.40855E+00  7.01083E+00  7.97431E+00  8.06269E+00  9.10425E+00  9.21381E+00  6.79091E+00  9.18449E+00  5.79325E+00  5.91381E+00
   8.95924E+00  6.10527E+00  6.43214E+00  6.98226E+00  7.90132E+00  3.53520E+00  6.29529E+00  7.17122E+00  7.33802E+00  5.83233E+00
   6.57084E+00  5.93273E+00  7.77488E+00  5.80580E+00  7.97888E+00  5.69518E+00  5.66783E+00  6.13217E+00  6.75142E+00  4.18344E+00
   6.42799E+00  5.61060E+00  5.79067E+00  4.10464E+00  6.02444E+00  6.01782E+00  6.46909E+00  4.27709E+00  5.91272E+00  7.33928E+00
   7.05389E+00  5.12555E+00  5.38165E+00  4.55609E+00  3.99185E+00  4.32515E+00  5.25728E+00  6.47610E+00  5.01583E+00  4.23721E+00
   7.16070E+00  3.66420E+00  2.98113E+00  4.68851E+00  4.73544E+00  5.73657E+00  5.64955E+00  6.79562E+00  3.99838E+00  4.08134E+00
   6.92297E+00  4.58334E+00  4.93608E+00  3.70945E+00  3.42925E+00  2.68709E+00  3.45251E+00  5.93569E+00  4.74527E+00  3.93423E+00
   2.77742E+00  3.41813E+00  3.86188E+00  4.27992E+00  4.62297E+00  2.49338E+00  4.10287E+00  5.79657E+00  3.98813E+00  5.08339E+00
   4.78517E+00  7.23835E+00  5.89900E+00  5.23116E+00  4.82327E+00  4.18557E+00  2.86986E+00  5.06997E+00  3.81574E+00  3.52020E+00
   4.91542E+00  1.72291E+00  3.28861E+00  3.10108E+00  1.15266E+00  4.06168E+00  4.33042E+00  3.67625E+00  5.17257E+00  4.57548E+00
   5.40469E+00  3.70293E+00  3.20475E+00  3.37661E+00  8.98876E-01  4.67025E+00  1.39365E+00  2.50407E+00  4.40429E+00  4.00470E+00
   3.62161E+00  3.97870E+00  2.32325E-01  8.64235E-01  2.40668E+00  1.57157E+00  1.11576E+00  2.13923E+00  4.31145E+00  3.46536E+00
   3.54041E+00  5.01591E+00  4.80115E+00  2.97105E+00  3.29518E+00  4.85556E+00  1.65239E+00  3.87808E+00  3.14201E+00  2.51745E+00
   1.46943E+00  2.38108E+00  2.27421E+00  3.38233E+00  3.93054E-01  3.06760E+00  4.52474E+00  3.82997E+00  2.48782E+00  2.01030E+00
   1.80582E+00  1.92511E+00  2.27471E+00  9.13262E-01  4.23239E+00 -5.22600E-02  2.43691E+00  5.11754E-01  2.13908E+00  2.62670E+00
   5.40995E+00  3.45106E+00  1.76589E+00  3.15607E+00  2.17451E+00  3.79559E+00  2.08934E+00  2.62432E+00  2.85541E+00  3.05258E+00
   3.01162E+00  1.09734E+00  2.98006E+00  2.53045E-01  3.95784E+00  1.54757E+00  2.83812E+00  2.53824E+00  3.11675E+00  3.50166E+00
   3.64232E+00  2.04206E+00  2.70945E+00  8.69995E-01  1.02108E+00  2.19854E+00  1.29657E+00  4.54589E+00  2.24875E+00  2.66626E+00
   2.09599E+00  3.83271E+00  1.35495E+00  3.94585E+00  2.22238E-01  2.14496E-01  2.62349E+00  2.39224E+00  2.22188E+00  3.08647E+00
  -2.49062E-01  3.94387E+00  3.26075E+00  2.39824E+00  1.17015E+00  1.99161E+00  1.92251E+00  1.87576E+00 -3.91354E-01  5.82823E-01
   2.82927E+00  5.98273E-01  2.53021E+00  2.14000E+00 -1.62945E+00  1.72103E+00  2.15196E+00  3.23960E+00  2.10641E+00  2.59718E+00
   2.16097E+00  2.82524E-02  4.68934E-01  2.35355E-01  2.06200E+00  3.10095E-01  1.85603E+00  2.28655E+00  1.73678E+00  1.60201E+00
   1.83702E+00  2.55161E+00  3.06470E+00  1.83653E+00  1.50436E-01  2.47948E+00  1.23768E+00  3.30924E+00  2.16310E+00 -8.76265E-01
   5.81444E-01  1.34811E+00  2.86032E+00  4.32005E+00  4.22925E+00  2.08480E+00  3.98308E+00  2.42624E+00  3.14736E+00  1.40473E+00
   4.05366E+00  2.44580E+00  7.43724E-01  3.34146E+00 -5.00292E-01  1.02409E+00  5.36233E-01 -7.09213E-01  1.43325E+00 -7.22251E-02
   2.17708E+00  9.97883E-02  1.11702E+00  3.98730E+00  1.65131E+00  3.80524E+00  2.51380E+00 -1.01188E+00  9.16062E-01  3.05961E+00
   2.97677E+00  1.72297E+00 -2.45702E-01  1.02778E+00  3.63980E+00 -2.33837E+00  2.75709E-01  8.31035E-01  2.60447E+00  1.86935E+00
  -5.36908E-01 -1.71615E+00  2.95936E+00  3.01973E-01  7.72139E-01  1.09146E+00  1.54914E+00  2.48889E+00  2.06198E+00  1.77121E+00
   9.16915E-01  3.19099E+00  1.52713E+00  1.70089E+00  2.86576E+00  2.05955E+00  2.93002E+00 -6.32674E-01 -1.28005E+00  4.72886E-01
   1.24249E+00  1.46650E+00 -1.15505E-01  2.68261E+00  7.54069E-01  7.21382E-02  1.57918E+00  1.72278E+00  9.37624E-01  8.94725E-01
   3.05797E+00  1.59405E+00  4.23878E-01  1.46445E+00  2.81245E+00  2.75623E+00 -2.37258E-01  2.67815E+00  6.81690E-01  2.43149E+00
   6.64316E-01  6.43087E-02  1.49019E+00  5.23135E-02  1.21990E+00  2.56568E+00  1.47542E+00 -1.16610E+00  1.00255E+00  1.91851E+00
   8.50943E-01  2.92849E+00  2.51262E+00  7.00308E-02  2.08815E+00 -1.07932E+00  3.64144E+00  1.94157E+00  2.60310E+00  5.48898E-01
   1.51323E+00  3.14515E+00  4.47986E-01  5.86065E-01  1.54153E+00  1.71143E-01  1.89686E+00  2.51728E+00  2.69484E+00  3.71171E-01
   1.61821E+00  3.68036E+00 -1.08429E+00 -4.38358E-01  2.08405E+00  1.08533E+00  1.62371E+00 -3.92800E-01  3.63424E+00  1.28674E+00
   1.99100E+00  2.74622E+00 -5.88069E-01  2.39659E-01 -4.98677E-01  2.96349E+00  1.28909E+00  9.48963E-01  3.00662E+00  1.66225E+00
   3.05324E+00  6.62340E-01  3.21832E+00  2.50073E+00  1.26097E+00  1.11718E+00  1.94656E+00  1.45592E-01  3.53283E+00 -1.46621E+00
   4.42230E+00  2.39814E+00  1.53676E+00  5.14582E-01 -9.01263E-02  3.53771E+00  2.43229E+00  1.88783E+00  2.06629E+00  2.45114E+00
   1.92959E+00 -1.05976E+00 -3.64715E-01  2.01958E+00 -1.51615E-01  1.32634E-01  3.06585E+00  3.24498E+00  1.61027E+00 -3.15983E-01
   9.33430E-01  4.33896E-01  3.77679E-01  1.97644E+00  2.66873E+00  1.84410E+00  3.81331E+00 -1.75987E-01  1.34509E+00  1.06574E+00
   4.04032E-01  3.03139E+00  1.87542E+00 -2.99084E-01  1.02712E+00 -8.09836E-01  1.07476E+00  2.21659E+00  2.23326E-01  2.07564E+00
   8.27663E-01  5.24825E-01  1.40977E+00  3.34263E+00  2.62168E+00  1.26679E+00 -6.15986E-01  1.55873E+00  9.54673E-01  1.42350E+00
   1.57910E-01  7.50240E-01 -1.08816E+00  5.00020E-02 -2.02014E-01  2.64753E-01  1.44025E+00  1.24106E+00  2.08207E+00 -1.28513E+00
  -9.48701E-01  9.65211E-01  8.37317E-01 -2.01901E-01 -4.48388E-01  1.69145E+00 -1.83375E+00  1.91068E+00  3.31826E-01  1.42824E+00
  -3.60246E-01  1.58053E+00  6.28176E-01 -8.79338E-01  2.13973E+00  8.64967E-01  1.46931E+00  1.36303E+00 -1.93834E+00 -1.66414E+00
   1.58713E+00  9.83183E-01 -1.58276E-01 -3.42074E-01  4.37311E-01 -3.78263E-01 -2.32019E+00  3.66460E-01  2.10296E+00  9.11983E-01
  -1.35404E+00  1.33243E-01  1.34011E+00  7.70102E-01  9.69940E-01  1.87361E+00  1.82682E-01  2.20878E+00 -2.46653E+00  2.26860E+00
   1.72151E-01 -8.17249E-01 -2.99821E-01  9.46466E-01  1.78596E+00 -1.41727E+00 -1.05724E+00  1.47846E-01
 NY points of the fit to the data follow
   7.39062E+00  7.40710E+00  7.61805E+00  7.97182E+00  8.05159E+00  7.93981E+00  7.84526E+00  7.71074E+00  7.68857E+00  7.88624E+00
   7.74876E+00  7.37752E+00  7.30264E+00  7.28304E+00  7.01656E+00  6.89205E+00  6.87362E+00  6.93435E+00  6.98576E+00  7.06976E+00
   7.10417E+00  7.06765E+00  7.14248E+00  7.64445E+00  8.33136E+00  8.58485E+00  8.74298E+00  8.63095E+00  8.18491E+00  8.11092E+00
   8.22983E+00  7.61329E+00  7.03799E+00  7.13225E+00  6.93256E+00  6.27016E+00  5.94161E+00  5.75008E+00  5.72812E+00  5.74925E+00
   6.21195E+00  6.99058E+00  7.48242E+00  7.49412E+00  7.16047E+00  6.67823E+00  6.36888E+00  6.43471E+00  6.46338E+00  5.99249E+00
   5.50187E+00  5.37419E+00  5.24607E+00  5.07457E+00  5.02153E+00  5.12448E+00  5.30340E+00  5.33308E+00  5.24313E+00  5.27997E+00
   5.35372E+00  5.32252E+00  5.27620E+00  5.24315E+00  5.15001E+00  5.10958E+00  5.10958E+00  5.09170E+00  5.09170E+00  5.11102E+00
   5.11136E+00  5.11044E+00  5.14067E+00  5.06268E+00  4.86558E+00  4.77484E+00  4.70834E+00  4.57534E+00  4.45635E+00  4.36091E+00
   4.24529E+00  4.04361E+00  3.86103E+00  3.77486E+00  3.79400E+00  3.90147E+00  4.01861E+00  4.05753E+00  4.10818E+00  4.24349E+00
   4.42076E+00  4.50752E+00  4.55865E+00  4.67203E+00  4.85400E+00  5.05481E+00  5.44295E+00  6.15089E+00  6.43328E+00  6.10051E+00
   5.75706E+00  5.36779E+00  5.08122E+00  5.36106E+00  5.41378E+00  4.68317E+00  4.23241E+00  4.26080E+00  3.85698E+00  3.40190E+00
   3.19137E+00  3.18421E+00  3.33189E+00  3.44279E+00  3.53410E+00  3.62918E+00  3.73614E+00  3.86525E+00  4.04533E+00  4.30382E+00
   4.78884E+00  5.30855E+00  5.26861E+00  4.99546E+00  4.78336E+00  4.57183E+00  4.65546E+00  4.92190E+00  4.43087E+00  3.62619E+00
   3.35381E+00  3.07709E+00  2.60876E+00  2.57335E+00  2.58491E+00  2.62125E+00  2.71777E+00  2.80226E+00  2.76231E+00  2.79182E+00
   2.88298E+00  2.98191E+00  3.07606E+00  3.07017E+00  2.99460E+00  2.94990E+00  2.82844E+00  2.72411E+00  2.65829E+00  2.64194E+00
   2.64821E+00  2.65065E+00  2.65909E+00  2.65797E+00  2.64068E+00  2.63153E+00  2.65079E+00  2.67005E+00  2.67189E+00  2.67777E+00
   2.67756E+00  2.66860E+00  2.66783E+00  2.66527E+00  2.66219E+00  2.66151E+00  2.65897E+00  2.65831E+00  2.65067E+00  2.62345E+00
   2.59238E+00  2.57956E+00  2.57456E+00  2.56981E+00  2.54996E+00  2.52060E+00  2.50264E+00  2.50604E+00  2.50176E+00  2.47244E+00
   2.46768E+00  2.49794E+00  2.56414E+00  2.68039E+00  2.79543E+00  2.84380E+00  2.84515E+00  2.76785E+00  2.61514E+00  2.49464E+00
   2.38338E+00  2.26149E+00  2.28487E+00  2.40958E+00  2.52472E+00  2.72325E+00  2.87719E+00  2.85242E+00  2.91347E+00  3.14200E+00
   3.13555E+00  2.94647E+00  2.83227E+00  2.51382E+00  1.97801E+00  1.95761E+00  2.22106E+00  2.28930E+00  2.48719E+00  2.78798E+00
   2.79436E+00  2.79817E+00  2.98829E+00  2.81941E+00  2.50742E+00  2.51237E+00  2.48241E+00  2.18815E+00  1.99918E+00  2.12165E+00
   2.20520E+00  2.02255E+00  1.86373E+00  1.90881E+00  2.30580E+00  2.48727E+00  2.45664E+00  2.67182E+00  2.91605E+00  2.88083E+00
   2.65619E+00  2.49918E+00  2.41363E+00  2.37829E+00  2.31100E+00  2.18155E+00  1.94362E+00  1.84390E+00  1.94868E+00  1.87102E+00
   1.75408E+00  1.93693E+00  1.93418E+00  1.65019E+00  1.63951E+00  1.94878E+00  2.03117E+00  2.07806E+00  2.34655E+00  2.50155E+00
   2.47956E+00  2.45640E+00  2.48476E+00  2.61880E+00  2.93207E+00  3.06170E+00  2.94263E+00  2.78597E+00  2.57911E+00  2.40974E+00
   2.49605E+00  2.44722E+00  2.09167E+00  1.94839E+00  1.98213E+00  1.75075E+00  1.52735E+00  1.48525E+00  1.51841E+00  1.53575E+00
   1.57922E+00  1.61007E+00  1.62251E+00  1.64771E+00  1.66865E+00  1.66229E+00  1.65386E+00  1.65873E+00  1.65125E+00  1.62947E+00
   1.60122E+00  1.57670E+00  1.56773E+00  1.56324E+00  1.55543E+00  1.55306E+00  1.55369E+00  1.55085E+00  1.54362E+00  1.53573E+00
   1.52932E+00  1.52021E+00  1.51037E+00  1.50363E+00  1.49686E+00  1.48902E+00  1.48236E+00  1.47621E+00  1.46979E+00  1.46317E+00
   1.45650E+00  1.44976E+00  1.44302E+00  1.43666E+00  1.42999E+00  1.42275E+00  1.41586E+00  1.40915E+00  1.40200E+00  1.39491E+00
   1.38792E+00  1.38101E+00  1.37422E+00  1.36742E+00  1.36067E+00  1.35396E+00  1.34731E+00  1.34067E+00  1.33407E+00  1.32750E+00
   1.32099E+00  1.31449E+00  1.30805E+00  1.30162E+00  1.29523E+00  1.28888E+00  1.28258E+00  1.27632E+00  1.27010E+00  1.26391E+00
   1.25778E+00  1.25167E+00  1.24564E+00  1.23964E+00  1.23370E+00  1.22778E+00  1.22194E+00  1.21614E+00  1.21040E+00  1.20471E+00
   1.19908E+00  1.19350E+00  1.18799E+00  1.18254E+00  1.17717E+00  1.17185E+00  1.16661E+00  1.16143E+00  1.15634E+00  1.15133E+00
   1.14641E+00  1.14157E+00  1.13682E+00  1.13216E+00  1.12762E+00  1.12318E+00  1.11885E+00  1.11463E+00  1.11054E+00  1.10658E+00
   1.10277E+00  1.09911E+00  1.09560E+00  1.09225E+00  1.08910E+00  1.08613E+00  1.08338E+00  1.08085E+00  1.07855E+00  1.07650E+00
   1.07474E+00  1.07328E+00  1.07215E+00  1.07135E+00  1.07092E+00  1.07088E+00  1.07128E+00  1.07211E+00  1.07341E+00  1.07516E+00
   1.07740E+00  1.08011E+00  1.08328E+00  1.08685E+00  1.09075E+00  1.09489E+00  1.09914E+00  1.10334E+00  1.10728E+00  1.11071E+00
   1.11335E+00  1.11486E+00  1.11493E+00  1.11319E+00  1.10927E+00  1.10282E+00  1.09354E+00  1.08113E+00  1.06545E+00  1.04636E+00
   1.02388E+00  9.98076E-01  9.69196E-01  9.37550E-01  9.03586E-01  8.67794E-01  8.30759E-01  7.93071E-01  7.55374E-01  7.18262E-01
   6.82319E-01  6.48026E-01  6.15820E-01  5.86014E-01  5.58865E-01  5.34493E-01  5.12955E-01  4.94187E-01  4.78093E-01  4.64483E-01
   4.53166E-01  4.43888E-01  4.36408E-01  4.30449E-01  4.25782E-01  4.22157E-01  4.19386E-01  4.17264E-01  4.15643E-01  4.14359E-01
   4.13318E-01  4.12414E-01  4.11595E-01  4.10783E-01  4.09948E-01  4.09039E-01  4.08052E-01  4.06964E-01  4.05783E-01  4.04481E-01
   4.03074E-01  4.01543E-01  3.99913E-01  3.98178E-01  3.96354E-01  3.94427E-01  3.92419E-01  3.90319E-01  3.88154E-01  3.85915E-01
   3.83623E-01  3.81263E-01  3.78852E-01  3.76382E-01  3.73879E-01  3.71331E-01  3.68758E-01  3.66141E-01  3.63501E-01  3.60830E-01
   3.58149E-01  3.55445E-01  3.52733E-01  3.49995E-01  3.47256E-01  3.44508E-01  3.41768E-01  3.39022E-01  3.36286E-01  3.33544E-01
   3.30817E-01  3.28099E-01  3.25405E-01  3.22720E-01  3.20062E-01  3.17417E-01  3.14805E-01  3.12220E-01  3.09678E-01  3.07163E-01
   3.04693E-01  3.02258E-01  2.99880E-01  2.97551E-01  2.95290E-01  2.93084E-01  2.90951E-01  2.88884E-01  2.86911E-01  2.85025E-01
   2.83249E-01  2.81572E-01  2.80019E-01  2.78591E-01  2.77323E-01  2.76218E-01  2.75307E-01  2.74590E-01
 NY background values follow
     6.343E+00    6.321E+00    6.299E+00    6.278E+00    6.256E+00    6.234E+00    6.213E+00    6.191E+00    6.170E+00    6.148E+00
     6.127E+00    6.105E+00    6.084E+00    6.062E+00    6.041E+00    6.019E+00    5.998E+00    5.977E+00    5.955E+00    5.934E+00
     5.913E+00    5.892E+00    5.871E+00    5.849E+00    5.828E+00    5.807E+00    5.786E+00    5.765E+00    5.744E+00    5.723E+00
     5.702E+00    5.681E+00    5.660E+00    5.639E+00    5.619E+00    5.598E+00    5.577E+00    5.556E+00    5.536E+00    5.515E+00
     5.494E+00    5.474E+00    5.453E+00    5.433E+00    5.412E+00    5.392E+00    5.371E+00    5.351E+00    5.331E+00    5.310E+00
     5.290E+00    5.270E+00    5.250E+00    5.229E+00    5.209E+00    5.189E+00    5.169E+00    5.149E+00    5.129E+00    5.109E+00
     5.089E+00    5.069E+00    5.049E+00    5.030E+00    5.010E+00    4.990E+00    4.971E+00    4.951E+00    4.931E+00    4.912E+00
     4.892E+00    4.873E+00    4.853E+00    4.834E+00    4.815E+00    4.795E+00    4.776E+00    4.757E+00    4.738E+00    4.718E+00
     4.699E+00    4.680E+00    4.661E+00    4.642E+00    4.623E+00    4.605E+00    4.586E+00    4.567E+00    4.548E+00    4.529E+00
     4.511E+00    4.492E+00    4.474E+00    4.455E+00    4.437E+00    4.418E+00    4.400E+00    4.381E+00    4.363E+00    4.345E+00
     4.327E+00    4.309E+00    4.291E+00    4.272E+00    4.254E+00    4.237E+00    4.219E+00    4.201E+00    4.183E+00    4.165E+00
     4.147E+00    4.130E+00    4.112E+00    4.095E+00    4.077E+00    4.060E+00    4.042E+00    4.025E+00    4.007E+00    3.990E+00
     3.973E+00    3.956E+00    3.939E+00    3.921E+00    3.904E+00    3.887E+00    3.870E+00    3.854E+00    3.837E+00    3.820E+00
     3.803E+00    3.787E+00    3.770E+00    3.753E+00    3.737E+00    3.720E+00    3.704E+00    3.687E+00    3.671E+00    3.655E+00
     3.639E+00    3.622E+00    3.606E+00    3.590E+00    3.574E+00    3.558E+00    3.542E+00    3.526E+00    3.510E+00    3.495E+00
     3.479E+00    3.463E+00    3.448E+00    3.432E+00    3.416E+00    3.401E+00    3.386E+00    3.370E+00    3.355E+00    3.340E+00
     3.324E+00    3.309E+00    3.294E+00    3.279E+00    3.264E+00    3.249E+00    3.234E+00    3.219E+00    3.204E+00    3.190E+00
     3.175E+00    3.160E+00    3.146E+00    3.131E+00    3.116E+00    3.102E+00    3.087E+00    3.073E+00    3.059E+00    3.045E+00
     3.030E+00    3.016E+00    3.002E+00    2.988E+00    2.974E+00    2.960E+00    2.946E+00    2.932E+00    2.918E+00    2.904E+00
     2.891E+00    2.877E+00    2.863E+00    2.850E+00    2.836E+00    2.823E+00    2.809E+00    2.796E+00    2.783E+00    2.769E+00
     2.756E+00    2.743E+00    2.730E+00    2.717E+00    2.704E+00    2.691E+00    2.678E+00    2.665E+00    2.652E+00    2.639E+00
     2.626E+00    2.614E+00    2.601E+00    2.588E+00    2.576E+00    2.563E+00    2.551E+00    2.539E+00    2.526E+00    2.514E+00
     2.502E+00    2.489E+00    2.477E+00    2.465E+00    2.453E+00    2.441E+00    2.429E+00    2.417E+00    2.405E+00    2.393E+00
     2.381E+00    2.370E+00    2.358E+00    2.346E+00    2.335E+00    2.323E+00    2.312E+00    2.300E+00    2.289E+00    2.277E+00
     2.266E+00    2.255E+00    2.243E+00    2.232E+00    2.221E+00    2.210E+00    2.199E+00    2.188E+00    2.177E+00    2.166E+00
     2.155E+00    2.144E+00    2.133E+00    2.122E+00    2.112E+00    2.101E+00    2.090E+00    2.080E+00    2.069E+00    2.058E+00
     2.048E+00    2.038E+00    2.027E+00    2.017E+00    2.006E+00    1.996E+00    1.986E+00    1.976E+00    1.965E+00    1.955E+00
     1.945E+00    1.935E+00    1.925E+00    1.915E+00    1.905E+00    1.895E+00    1.886E+00    1.876E+00    1.866E+00    1.856E+00
     1.846E+00    1.837E+00    1.827E+00    1.818E+00    1.808E+00    1.798E+00    1.789E+00    1.780E+00    1.770E+00    1.761E+00
     1.751E+00    1.742E+00    1.733E+00    1.724E+00    1.714E+00    1.705E+00    1.696E+00    1.687E+00    1.678E+00    1.669E+00
     1.660E+00    1.651E+00    1.642E+00    1.633E+00    1.624E+00    1.615E+00    1.607E+00    1.598E+00    1.589E+00    1.580E+00
     1.572E+00    1.563E+00    1.554E+00    1.546E+00    1.537E+00    1.529E+00    1.520E+00    1.512E+00    1.503E+00    1.495E+00
     1.487E+00    1.478E+00    1.470E+00    1.462E+00    1.454E+00    1.445E+00    1.437E+00    1.429E+00    1.421E+00    1.413E+00
     1.405E+00    1.397E+00    1.389E+00    1.381E+00    1.373E+00    1.365E+00    1.357E+00    1.349E+00    1.341E+00    1.333E+00
     1.326E+00    1.318E+00    1.310E+00    1.302E+00    1.295E+00    1.287E+00    1.280E+00    1.272E+00    1.264E+00    1.257E+00
     1.249E+00    1.242E+00    1.234E+00    1.227E+00    1.219E+00    1.212E+00    1.205E+00    1.197E+00    1.190E+00    1.183E+00
     1.175E+00    1.168E+00    1.161E+00    1.154E+00    1.147E+00    1.140E+00    1.132E+00    1.125E+00    1.118E+00    1.111E+00
     1.104E+00    1.097E+00    1.090E+00    1.083E+00    1.076E+00    1.069E+00    1.062E+00    1.056E+00    1.049E+00    1.042E+00
     1.035E+00    1.028E+00    1.022E+00    1.015E+00    1.008E+00    1.002E+00    9.949E-01    9.882E-01    9.816E-01    9.750E-01
     9.685E-01    9.619E-01    9.554E-01    9.489E-01    9.424E-01    9.360E-01    9.295E-01    9.231E-01    9.167E-01    9.104E-01
     9.040E-01    8.977E-01    8.914E-01    8.851E-01    8.789E-01    8.726E-01    8.664E-01    8.602E-01    8.540E-01    8.479E-01
     8.418E-01    8.356E-01    8.296E-01    8.235E-01    8.175E-01    8.114E-01    8.054E-01    7.994E-01    7.935E-01    7.875E-01
     7.816E-01    7.757E-01    7.699E-01    7.640E-01    7.582E-01    7.524E-01    7.466E-01    7.408E-01    7.351E-01    7.294E-01
     7.236E-01    7.180E-01    7.123E-01    7.067E-01    7.011E-01    6.955E-01    6.899E-01    6.843E-01    6.788E-01    6.733E-01
     6.678E-01    6.624E-01    6.569E-01    6.515E-01    6.461E-01    6.407E-01    6.353E-01    6.300E-01    6.247E-01    6.194E-01
     6.141E-01    6.089E-01    6.037E-01    5.985E-01    5.933E-01    5.881E-01    5.830E-01    5.778E-01    5.727E-01    5.677E-01
     5.626E-01    5.576E-01    5.526E-01    5.476E-01    5.426E-01    5.377E-01    5.327E-01    5.278E-01    5.230E-01    5.181E-01
     5.133E-01    5.084E-01    5.037E-01    4.989E-01    4.941E-01    4.894E-01    4.847E-01    4.800E-01    4.754E-01    4.707E-01
     4.661E-01    4.615E-01    4.569E-01    4.524E-01    4.479E-01    4.434E-01    4.389E-01    4.344E-01    4.300E-01    4.255E-01
     4.212E-01    4.168E-01    4.124E-01    4.081E-01    4.038E-01    3.995E-01    3.952E-01    3.910E-01
 Asp      Conc. = 1.05E+01
