 LCModel (Version 6.3-1L) Copyright: S.W. Provencher.          Ref.: Magn. Reson. Med. 30:672-679 (1993).                
 Slice#2 Row#3 Col#12  PD_05_press_1_raw_act
 36 lines in following concentration table = NCONC+1
    Conc.  %SD /Cr+PCr  Metabolite                                         
    0.000 999%   0.000 Ala                                                 
   52.261  41%   0.259 Asp                                                 
    0.000 999%   0.000 Cr                                                  
  201.737  43%   1.000 PCr                                                 
   30.856  42%   0.153 GABA                                                
   31.062  41%   0.154 Glc                                                 
  406.581 109%   2.015 Gln                                                 
  697.400  78%   3.457 Glu                                                 
  100.786  25%   0.500 GPC                                                 
    0.000 999%   0.000 PCh                                                 
    0.000 999%   0.000 GSH                                                 
  785.927  33%   3.896 Ins                                                 
    0.000 999%   0.000 Lac                                                 
  523.704  22%   2.596 NAA                                                 
    0.000 999%   0.000 NAAG                                                
   10.767  40% 5.3E-02 Scyllo                                              
   52.132  41%   0.258 Tau                                                 
    2.982 999% 1.5E-02 -CrCH2                                              
  100.786  25%   0.500 GPC+PCh                                             
  523.704  22%   2.596 NAA+NAAG                                            
  201.737  43%   1.000 Cr+PCr                                              
 1.10E+03  67%   5.472 Glu+Gln                                             
 6.65E+04   7% 329.649 Lip13a                                              
  349.678  51%   1.733 Lip13b                                              
 1.44E+03  33%   7.130 Lip09                                               
    0.000 999%   0.000 MM09                                                
 1.45E+03  44%   7.192 Lip20                                               
    0.000 999%   0.000 MM20                                                
 7.14E+03   7%  35.380+MM12                                                
 1.03E+04  30%  50.814 MM14                                                
 9.60E+03  19%  47.576 MM17                                                
 6.69E+04   7% 331.382 Lip13a+Lip13b                                       
 8.42E+04   4% 417.576 MM14+Lip13a+Lip13b+MM12                             
 1.44E+03  33%   7.130 MM09+Lip09                                          
 1.45E+03  32%   7.192 MM20+Lip20                                          
   6 lines in following misc. output table
  FWHM = 0.183 ppm    S/N =  64                                            
  Data shift =-0.092 ppm                                                   
  Ph:  26 deg       0.1 deg/ppm                                            
  alphaB,S = 2.8E+00,   5.4E+01                                            
    9 spline knots.   Ns = 9(2)                                            
  (13) 8 infls.   (12) 3 extrs.                                            
  498 points on ppm-axis = NY
      4.000000     3.992357     3.984714     3.977070     3.969427     3.961784     3.954141     3.946497     3.938854     3.931211
      3.923568     3.915925     3.908281     3.900638     3.892995     3.885352     3.877708     3.870065     3.862422     3.854779
      3.847136     3.839492     3.831849     3.824206     3.816563     3.808919     3.801276     3.793633     3.785990     3.778347
      3.770703     3.763060     3.755417     3.747774     3.740130     3.732487     3.724844     3.717201     3.709558     3.701914
      3.694271     3.686628     3.678985     3.671341     3.663698     3.656055     3.648412     3.640769     3.633125     3.625482
      3.617839     3.610196     3.602552     3.594909     3.587266     3.579623     3.571980     3.564336     3.556693     3.549050
      3.541407     3.533763     3.526120     3.518477     3.510834     3.503191     3.495547     3.487904     3.480261     3.472618
      3.464974     3.457331     3.449688     3.442045     3.434402     3.426758     3.419115     3.411472     3.403829     3.396185
      3.388542     3.380899     3.373256     3.365613     3.357969     3.350326     3.342683     3.335040     3.327396     3.319753
      3.312110     3.304467     3.296824     3.289180     3.281537     3.273894     3.266251     3.258607     3.250964     3.243321
      3.235678     3.228034     3.220391     3.212748     3.205105     3.197462     3.189818     3.182175     3.174532     3.166889
      3.159245     3.151602     3.143959     3.136316     3.128673     3.121029     3.113386     3.105743     3.098100     3.090456
      3.082813     3.075170     3.067527     3.059884     3.052240     3.044597     3.036954     3.029311     3.021667     3.014024
      3.006381     2.998738     2.991095     2.983451     2.975808     2.968165     2.960522     2.952878     2.945235     2.937592
      2.929949     2.922306     2.914662     2.907019     2.899376     2.891733     2.884089     2.876446     2.868803     2.861160
      2.853517     2.845873     2.838230     2.830587     2.822944     2.815300     2.807657     2.800014     2.792371     2.784728
      2.777084     2.769441     2.761798     2.754155     2.746511     2.738868     2.731225     2.723582     2.715939     2.708295
      2.700652     2.693009     2.685366     2.677722     2.670079     2.662436     2.654793     2.647150     2.639506     2.631863
      2.624220     2.616577     2.608933     2.601290     2.593647     2.586004     2.578361     2.570717     2.563074     2.555431
      2.547788     2.540144     2.532501     2.524858     2.517215     2.509572     2.501928     2.494285     2.486642     2.478999
      2.471355     2.463712     2.456069     2.448426     2.440783     2.433139     2.425496     2.417853     2.410210     2.402566
      2.394923     2.387280     2.379637     2.371994     2.364350     2.356707     2.349064     2.341421     2.333777     2.326134
      2.318491     2.310848     2.303205     2.295561     2.287918     2.280275     2.272632     2.264988     2.257345     2.249702
      2.242059     2.234416     2.226772     2.219129     2.211486     2.203843     2.196199     2.188556     2.180913     2.173270
      2.165627     2.157983     2.150340     2.142697     2.135054     2.127410     2.119767     2.112124     2.104481     2.096838
      2.089194     2.081551     2.073908     2.066265     2.058621     2.050978     2.043335     2.035692     2.028049     2.020405
      2.012762     2.005119     1.997476     1.989833     1.982190     1.974546     1.966903     1.959260     1.951617     1.943974
      1.936331     1.928688     1.921045     1.913402     1.905759     1.898115     1.890472     1.882829     1.875186     1.867543
      1.859900     1.852257     1.844614     1.836971     1.829327     1.821684     1.814041     1.806398     1.798755     1.791112
      1.783469     1.775826     1.768183     1.760540     1.752896     1.745253     1.737610     1.729967     1.722324     1.714681
      1.707038     1.699395     1.691752     1.684108     1.676465     1.668822     1.661179     1.653536     1.645893     1.638250
      1.630607     1.622964     1.615321     1.607677     1.600034     1.592391     1.584748     1.577105     1.569462     1.561819
      1.554176     1.546533     1.538890     1.531246     1.523603     1.515960     1.508317     1.500674     1.493031     1.485388
      1.477745     1.470102     1.462458     1.454815     1.447172     1.439529     1.431886     1.424243     1.416600     1.408957
      1.401314     1.393671     1.386027     1.378384     1.370741     1.363098     1.355455     1.347812     1.340169     1.332526
      1.324883     1.317240     1.309596     1.301953     1.294310     1.286667     1.279024     1.271381     1.263738     1.256095
      1.248452     1.240808     1.233165     1.225522     1.217879     1.210236     1.202593     1.194950     1.187307     1.179664
      1.172021     1.164377     1.156734     1.149091     1.141448     1.133805     1.126162     1.118519     1.110876     1.103233
      1.095590     1.087946     1.080303     1.072660     1.065017     1.057374     1.049731     1.042088     1.034445     1.026802
      1.019158     1.011515     1.003872     0.996229     0.988586     0.980943     0.973300     0.965657     0.958014     0.950371
      0.942727     0.935084     0.927441     0.919798     0.912155     0.904512     0.896869     0.889226     0.881583     0.873940
      0.866296     0.858653     0.851010     0.843367     0.835724     0.828081     0.820438     0.812795     0.805152     0.797508
      0.789865     0.782222     0.774579     0.766936     0.759293     0.751650     0.744007     0.736364     0.728721     0.721077
      0.713434     0.705791     0.698148     0.690505     0.682862     0.675219     0.667576     0.659933     0.652290     0.644646
      0.637003     0.629360     0.621717     0.614074     0.606431     0.598788     0.591145     0.583502     0.575858     0.568215
      0.560572     0.552929     0.545286     0.537643     0.530000     0.522357     0.514714     0.507071     0.499427     0.491784
      0.484141     0.476498     0.468855     0.461212     0.453569     0.445925     0.438282     0.430639     0.422996     0.415353
      0.407710     0.400067     0.392424     0.384780     0.377137     0.369494     0.361851     0.354208     0.346565     0.338922
      0.331278     0.323635     0.315992     0.308349     0.300706     0.293063     0.285420     0.277777     0.270133     0.262490
      0.254847     0.247204     0.239561     0.231918     0.224275     0.216631     0.208988     0.201345
 NY phased data points follow
   1.17106E+01  9.82777E+00  1.07763E+01  1.35830E+01  1.10776E+01  1.07984E+01  1.31398E+01  1.00157E+01  1.24574E+01  1.48725E+01
   1.31061E+01  1.36780E+01  1.34497E+01  1.09462E+01  1.10274E+01  1.30946E+01  9.88479E+00  1.01384E+01  1.15469E+01  1.17765E+01
   1.15265E+01  1.39305E+01  1.35972E+01  1.18157E+01  1.30454E+01  1.31649E+01  1.28374E+01  9.69049E+00  1.03445E+01  9.71057E+00
   9.09480E+00  1.02984E+01  1.07806E+01  1.06339E+01  1.09986E+01  1.18655E+01  1.23344E+01  1.14380E+01  1.28374E+01  1.22100E+01
   1.12758E+01  1.22768E+01  1.10187E+01  1.26964E+01  1.21895E+01  1.16021E+01  1.30796E+01  1.16896E+01  1.22152E+01  1.33992E+01
   1.24485E+01  1.07202E+01  1.35782E+01  1.38996E+01  1.42609E+01  1.21289E+01  1.06888E+01  1.34241E+01  1.38772E+01  1.42572E+01
   1.16166E+01  1.35824E+01  1.38301E+01  1.17824E+01  1.27562E+01  1.15475E+01  1.23558E+01  1.31820E+01  1.13718E+01  1.42665E+01
   1.30732E+01  1.27364E+01  1.46957E+01  1.24887E+01  1.22443E+01  1.01170E+01  1.21422E+01  1.33182E+01  1.33594E+01  1.17135E+01
   1.17120E+01  1.12828E+01  1.14464E+01  1.09499E+01  1.15750E+01  1.22661E+01  1.32632E+01  1.01627E+01  1.31222E+01  1.46995E+01
   1.11123E+01  1.50388E+01  1.16687E+01  1.46722E+01  1.33931E+01  1.27731E+01  1.34061E+01  1.51729E+01  1.48157E+01  1.52184E+01
   1.23696E+01  1.25505E+01  1.18096E+01  1.40869E+01  1.21942E+01  1.48569E+01  1.36459E+01  1.28254E+01  1.28055E+01  1.34746E+01
   1.57649E+01  1.41386E+01  1.69140E+01  1.65734E+01  1.63436E+01  1.68539E+01  1.52690E+01  1.72270E+01  1.43816E+01  1.43339E+01
   1.31715E+01  1.43463E+01  1.31685E+01  1.37051E+01  1.57185E+01  1.48189E+01  1.36367E+01  1.40858E+01  1.30169E+01  1.63055E+01
   1.72449E+01  1.23039E+01  1.62185E+01  1.55919E+01  1.59247E+01  1.68197E+01  1.66031E+01  1.66177E+01  1.51597E+01  1.77165E+01
   1.68135E+01  1.62778E+01  1.45020E+01  1.69202E+01  1.51182E+01  1.97269E+01  1.34099E+01  1.72360E+01  1.63297E+01  1.62182E+01
   1.63917E+01  1.71456E+01  1.51826E+01  1.82697E+01  1.75872E+01  1.79774E+01  1.53714E+01  1.78349E+01  1.76589E+01  1.77789E+01
   1.64647E+01  1.48201E+01  1.67129E+01  1.60041E+01  1.89225E+01  1.63411E+01  1.68157E+01  1.68189E+01  1.98223E+01  1.57092E+01
   1.80776E+01  1.96672E+01  1.70907E+01  1.94775E+01  2.04083E+01  1.64310E+01  1.95678E+01  1.70437E+01  2.05148E+01  1.92401E+01
   1.93361E+01  1.88817E+01  1.99909E+01  2.23287E+01  2.06485E+01  1.90777E+01  1.84699E+01  2.07946E+01  1.97940E+01  2.04147E+01
   1.78509E+01  1.81426E+01  2.19950E+01  2.16830E+01  2.06618E+01  2.24748E+01  2.19085E+01  2.19869E+01  2.25719E+01  2.04100E+01
   2.20026E+01  2.31799E+01  2.33288E+01  2.27379E+01  2.53264E+01  2.22837E+01  2.30918E+01  2.21771E+01  2.11270E+01  2.49967E+01
   2.46007E+01  2.35056E+01  2.27875E+01  2.65853E+01  2.85827E+01  2.60114E+01  2.49766E+01  2.56177E+01  2.69059E+01  2.46414E+01
   2.81383E+01  2.71850E+01  2.95494E+01  2.96393E+01  2.91234E+01  2.90427E+01  3.05823E+01  2.87468E+01  3.15751E+01  3.21011E+01
   3.26229E+01  3.12608E+01  2.95934E+01  3.14578E+01  3.37242E+01  3.19403E+01  3.34986E+01  3.44339E+01  3.51955E+01  3.36255E+01
   3.67509E+01  3.44076E+01  3.71919E+01  3.77770E+01  3.64012E+01  3.63060E+01  3.91566E+01  4.17009E+01  4.14147E+01  3.99974E+01
   4.24387E+01  4.20261E+01  4.16904E+01  4.20484E+01  4.49836E+01  4.49115E+01  4.37368E+01  4.87821E+01  4.67246E+01  4.65217E+01
   4.74172E+01  5.02899E+01  5.04399E+01  5.04277E+01  5.29467E+01  5.27558E+01  5.21067E+01  5.59958E+01  5.38330E+01  5.66793E+01
   5.54952E+01  5.78835E+01  5.92651E+01  6.00239E+01  6.11741E+01  5.86418E+01  6.14291E+01  6.18073E+01  6.34815E+01  6.31751E+01
   6.25940E+01  6.48197E+01  6.55413E+01  6.69928E+01  6.88605E+01  7.09930E+01  7.03001E+01  6.98354E+01  7.17048E+01  7.12570E+01
   7.39756E+01  7.35291E+01  7.66432E+01  7.79914E+01  7.72148E+01  8.02375E+01  8.02538E+01  8.34324E+01  8.39582E+01  8.23508E+01
   8.31260E+01  8.73433E+01  8.74189E+01  8.74691E+01  8.94602E+01  8.84376E+01  9.43754E+01  9.22805E+01  9.57559E+01  9.68180E+01
   9.62968E+01  9.96901E+01  1.01875E+02  1.02211E+02  1.05916E+02  1.08108E+02  1.09032E+02  1.12579E+02  1.11311E+02  1.15706E+02
   1.19599E+02  1.21646E+02  1.23238E+02  1.29614E+02  1.30582E+02  1.33883E+02  1.37873E+02  1.38827E+02  1.45123E+02  1.48931E+02
   1.52253E+02  1.56723E+02  1.60408E+02  1.61451E+02  1.67151E+02  1.70989E+02  1.78087E+02  1.81925E+02  1.87833E+02  1.91676E+02
   1.95862E+02  2.02168E+02  2.06407E+02  2.13078E+02  2.14699E+02  2.20532E+02  2.24613E+02  2.27156E+02  2.32367E+02  2.33491E+02
   2.38159E+02  2.40674E+02  2.42804E+02  2.42785E+02  2.47613E+02  2.46487E+02  2.46105E+02  2.48668E+02  2.50345E+02  2.49525E+02
   2.47017E+02  2.43876E+02  2.44036E+02  2.44842E+02  2.40732E+02  2.37009E+02  2.35224E+02  2.28598E+02  2.24806E+02  2.21602E+02
   2.15653E+02  2.10756E+02  2.03466E+02  1.97206E+02  1.91125E+02  1.81941E+02  1.75320E+02  1.66389E+02  1.58313E+02  1.47454E+02
   1.37365E+02  1.27182E+02  1.18188E+02  1.11006E+02  1.04264E+02  9.72897E+01  9.05611E+01  8.38968E+01  8.20960E+01  7.79398E+01
   7.59385E+01  7.07518E+01  6.96580E+01  6.56774E+01  6.17818E+01  6.10579E+01  5.83854E+01  5.75199E+01  5.64508E+01  5.39434E+01
   5.26883E+01  5.06527E+01  4.86397E+01  5.01869E+01  4.56011E+01  4.68952E+01  4.55204E+01  4.32017E+01  4.29384E+01  4.52165E+01
   4.07767E+01  4.05672E+01  4.03024E+01  3.99570E+01  3.74714E+01  3.81054E+01  3.70931E+01  3.82076E+01  3.46384E+01  3.43311E+01
   3.58769E+01  3.38112E+01  3.50807E+01  3.38642E+01  3.44121E+01  3.11660E+01  3.30623E+01  3.04323E+01  3.14585E+01  3.09644E+01
   2.96941E+01  3.06031E+01  2.83022E+01  2.89720E+01  2.77378E+01  2.68691E+01  2.60214E+01  2.48543E+01  2.42325E+01  2.21996E+01
   2.11825E+01  2.34081E+01  2.39903E+01  2.12047E+01  1.99595E+01  2.00702E+01  1.71389E+01  2.01254E+01  1.70307E+01  1.50207E+01
   1.56855E+01  1.35359E+01  1.57568E+01  1.61700E+01  1.38739E+01  1.18638E+01  1.18520E+01  1.05992E+01  1.03644E+01  1.16576E+01
   1.06552E+01  9.84575E+00  9.83630E+00  7.42370E+00  7.56985E+00  9.59785E+00  7.97141E+00  7.78042E+00  5.56469E+00  5.68619E+00
   4.34811E+00  2.00997E+00  5.12436E+00  2.98556E+00  3.14658E+00  5.65383E-01  2.59068E+00  7.94442E-01  6.63952E-01  3.12669E+00
  -4.80005E-01 -3.10804E+00  8.00854E-01 -1.06309E+00 -9.40153E-01 -1.09786E+00 -9.60685E-01 -2.56321E+00 -3.32439E+00 -3.95408E+00
  -2.72778E+00 -4.08089E+00 -4.44634E+00 -7.76723E+00 -5.39752E+00 -6.81881E+00 -7.73120E+00 -4.84759E+00
 NY points of the fit to the data follow
   1.16188E+01  1.18337E+01  1.18604E+01  1.21587E+01  1.20948E+01  1.23429E+01  1.21753E+01  1.22941E+01  1.20729E+01  1.21719E+01
   1.18981E+01  1.19832E+01  1.16883E+01  1.16636E+01  1.13599E+01  1.15428E+01  1.13064E+01  1.16554E+01  1.16233E+01  1.20943E+01
   1.19815E+01  1.22450E+01  1.19179E+01  1.19348E+01  1.15498E+01  1.15113E+01  1.12772E+01  1.12069E+01  1.10894E+01  1.09468E+01
   1.09810E+01  1.10437E+01  1.12054E+01  1.13968E+01  1.16810E+01  1.17965E+01  1.19354E+01  1.18598E+01  1.18892E+01  1.17730E+01
   1.18193E+01  1.18426E+01  1.20637E+01  1.21883E+01  1.23902E+01  1.24834E+01  1.26283E+01  1.26789E+01  1.28207E+01  1.27260E+01
   1.27450E+01  1.25598E+01  1.25132E+01  1.24037E+01  1.26085E+01  1.26754E+01  1.30007E+01  1.30136E+01  1.33190E+01  1.31916E+01
   1.33285E+01  1.30855E+01  1.30833E+01  1.27542E+01  1.27073E+01  1.23797E+01  1.23257E+01  1.20410E+01  1.20510E+01  1.19719E+01
   1.22278E+01  1.22146E+01  1.24424E+01  1.22810E+01  1.23878E+01  1.21405E+01  1.22051E+01  1.19802E+01  1.20836E+01  1.19224E+01
   1.20388E+01  1.19396E+01  1.20814E+01  1.20165E+01  1.21341E+01  1.20918E+01  1.22397E+01  1.23537E+01  1.25708E+01  1.29712E+01
   1.28696E+01  1.32416E+01  1.28948E+01  1.31326E+01  1.27597E+01  1.29495E+01  1.27754E+01  1.31798E+01  1.29492E+01  1.34181E+01
   1.30592E+01  1.35484E+01  1.32227E+01  1.38387E+01  1.34948E+01  1.42062E+01  1.37756E+01  1.45421E+01  1.41581E+01  1.50122E+01
   1.45809E+01  1.55633E+01  1.51433E+01  1.63506E+01  1.55995E+01  1.65929E+01  1.55382E+01  1.61202E+01  1.51097E+01  1.54285E+01
   1.46386E+01  1.48714E+01  1.42145E+01  1.43330E+01  1.41355E+01  1.45252E+01  1.43607E+01  1.48259E+01  1.46494E+01  1.51601E+01
   1.49519E+01  1.54693E+01  1.52915E+01  1.58872E+01  1.56905E+01  1.63286E+01  1.61011E+01  1.67640E+01  1.64339E+01  1.69941E+01
   1.65502E+01  1.68917E+01  1.64669E+01  1.66477E+01  1.62865E+01  1.62949E+01  1.60488E+01  1.59355E+01  1.60407E+01  1.61711E+01
   1.63237E+01  1.64884E+01  1.66312E+01  1.67871E+01  1.69061E+01  1.70262E+01  1.71266E+01  1.72249E+01  1.73187E+01  1.74094E+01
   1.74742E+01  1.75438E+01  1.75877E+01  1.76392E+01  1.76969E+01  1.77366E+01  1.77933E+01  1.78103E+01  1.78636E+01  1.78807E+01
   1.79203E+01  1.79439E+01  1.79962E+01  1.80324E+01  1.81169E+01  1.81846E+01  1.82761E+01  1.83612E+01  1.84577E+01  1.85473E+01
   1.86476E+01  1.87232E+01  1.88326E+01  1.88886E+01  1.90339E+01  1.91184E+01  1.93310E+01  1.94818E+01  1.97697E+01  1.99703E+01
   2.02997E+01  2.04875E+01  2.07834E+01  2.08646E+01  2.10756E+01  2.11003E+01  2.12529E+01  2.13411E+01  2.16346E+01  2.18707E+01
   2.23822E+01  2.26756E+01  2.32970E+01  2.33517E+01  2.38079E+01  2.36833E+01  2.40332E+01  2.38460E+01  2.42113E+01  2.41528E+01
   2.47720E+01  2.48391E+01  2.55821E+01  2.56590E+01  2.63926E+01  2.63623E+01  2.69402E+01  2.67864E+01  2.73695E+01  2.71863E+01
   2.77733E+01  2.76593E+01  2.82847E+01  2.82845E+01  2.90939E+01  2.92246E+01  3.00952E+01  3.02412E+01  3.10084E+01  3.09811E+01
   3.15652E+01  3.14641E+01  3.17712E+01  3.17688E+01  3.20998E+01  3.23360E+01  3.27334E+01  3.32451E+01  3.38254E+01  3.43760E+01
   3.49918E+01  3.55114E+01  3.61044E+01  3.65191E+01  3.71873E+01  3.78163E+01  3.89453E+01  3.99453E+01  4.06875E+01  4.16080E+01
   4.19834E+01  4.27041E+01  4.29264E+01  4.35836E+01  4.42178E+01  4.50949E+01  4.56601E+01  4.65980E+01  4.68731E+01  4.78241E+01
   4.81846E+01  4.93202E+01  4.96840E+01  5.10053E+01  5.12523E+01  5.25782E+01  5.29540E+01  5.44203E+01  5.47734E+01  5.63403E+01
   5.67214E+01  5.83138E+01  5.84217E+01  5.98442E+01  5.96141E+01  6.07745E+01  6.05997E+01  6.15946E+01  6.15318E+01  6.23548E+01
   6.24986E+01  6.33537E+01  6.45504E+01  6.58307E+01  6.71327E+01  6.84803E+01  6.98051E+01  7.11215E+01  7.24145E+01  7.36808E+01
   7.49066E+01  7.60903E+01  7.72278E+01  7.83154E+01  7.93617E+01  8.03768E+01  8.13590E+01  8.23171E+01  8.32567E+01  8.41877E+01
   8.51171E+01  8.60585E+01  8.70179E+01  8.80162E+01  8.90593E+01  9.01671E+01  9.13452E+01  9.26123E+01  9.39726E+01  9.54392E+01
   9.70147E+01  9.87091E+01  1.00522E+02  1.02457E+02  1.04514E+02  1.06691E+02  1.08984E+02  1.11393E+02  1.13910E+02  1.16533E+02
   1.19258E+02  1.22080E+02  1.24997E+02  1.28009E+02  1.31114E+02  1.34316E+02  1.37616E+02  1.41021E+02  1.44536E+02  1.48167E+02
   1.51923E+02  1.55808E+02  1.59829E+02  1.63988E+02  1.68286E+02  1.72719E+02  1.77277E+02  1.81947E+02  1.86708E+02  1.91535E+02
   1.96395E+02  2.01250E+02  2.06059E+02  2.10777E+02  2.15358E+02  2.19759E+02  2.23939E+02  2.27865E+02  2.31509E+02  2.34850E+02
   2.37872E+02  2.40560E+02  2.42900E+02  2.44875E+02  2.46464E+02  2.47643E+02  2.48391E+02  2.48696E+02  2.48556E+02  2.47985E+02
   2.47010E+02  2.45665E+02  2.43986E+02  2.41996E+02  2.39700E+02  2.37079E+02  2.34089E+02  2.30669E+02  2.26745E+02  2.22245E+02
   2.17108E+02  2.11296E+02  2.04801E+02  1.97645E+02  1.89886E+02  1.81612E+02  1.72937E+02  1.63995E+02  1.54927E+02  1.45878E+02
   1.36987E+02  1.28380E+02  1.20163E+02  1.12421E+02  1.05215E+02  9.85829E+01  9.25382E+01  8.70763E+01  8.21756E+01  7.78027E+01
   7.39152E+01  7.04663E+01  6.74069E+01  6.46893E+01  6.22679E+01  6.01015E+01  5.81531E+01  5.63909E+01  5.47875E+01  5.33202E+01
   5.19700E+01  5.07216E+01  4.95618E+01  4.84804E+01  4.74683E+01  4.65181E+01  4.56231E+01  4.47776E+01  4.39759E+01  4.32133E+01
   4.24845E+01  4.17852E+01  4.11105E+01  4.04560E+01  3.98172E+01  3.91899E+01  3.85700E+01  3.79539E+01  3.73378E+01  3.67189E+01
   3.60941E+01  3.54613E+01  3.48186E+01  3.41649E+01  3.34990E+01  3.28210E+01  3.21308E+01  3.14292E+01  3.07171E+01  2.99959E+01
   2.92671E+01  2.85328E+01  2.77946E+01  2.70548E+01  2.63152E+01  2.55778E+01  2.48444E+01  2.41167E+01  2.33960E+01  2.26839E+01
   2.19811E+01  2.12888E+01  2.06073E+01  1.99374E+01  1.92790E+01  1.86324E+01  1.79976E+01  1.73743E+01  1.67623E+01  1.61613E+01
   1.55707E+01  1.49903E+01  1.44195E+01  1.38578E+01  1.33047E+01  1.27598E+01  1.22224E+01  1.16922E+01  1.11686E+01  1.06513E+01
   1.01398E+01  9.63380E+00  9.13277E+00  8.63653E+00  8.14459E+00  7.65682E+00  7.17277E+00  6.69234E+00  6.21514E+00  5.74108E+00
   5.26981E+00  4.80130E+00  4.33520E+00  3.87151E+00  3.40992E+00  2.95043E+00  2.49277E+00  2.03697E+00  1.58276E+00  1.13019E+00
   6.79015E-01  2.29293E-01 -2.19210E-01 -6.66411E-01 -1.11254E+00 -1.55751E+00 -2.00154E+00 -2.44451E+00 -2.88665E+00 -3.32783E+00
  -3.76826E+00 -4.20782E+00 -4.64671E+00 -5.08479E+00 -5.52226E+00 -5.95896E+00 -6.39510E+00 -6.83052E+00
 NY background values follow
     7.668E+00    7.692E+00    7.715E+00    7.738E+00    7.760E+00    7.782E+00    7.804E+00    7.826E+00    7.848E+00    7.869E+00
     7.890E+00    7.910E+00    7.931E+00    7.951E+00    7.971E+00    7.991E+00    8.010E+00    8.030E+00    8.049E+00    8.068E+00
     8.087E+00    8.106E+00    8.124E+00    8.143E+00    8.161E+00    8.179E+00    8.197E+00    8.215E+00    8.233E+00    8.251E+00
     8.268E+00    8.286E+00    8.303E+00    8.321E+00    8.338E+00    8.355E+00    8.372E+00    8.389E+00    8.407E+00    8.424E+00
     8.441E+00    8.458E+00    8.475E+00    8.492E+00    8.509E+00    8.526E+00    8.543E+00    8.560E+00    8.577E+00    8.595E+00
     8.612E+00    8.629E+00    8.647E+00    8.664E+00    8.682E+00    8.699E+00    8.717E+00    8.735E+00    8.753E+00    8.771E+00
     8.790E+00    8.808E+00    8.826E+00    8.845E+00    8.864E+00    8.883E+00    8.902E+00    8.922E+00    8.941E+00    8.961E+00
     8.981E+00    9.001E+00    9.022E+00    9.042E+00    9.063E+00    9.084E+00    9.105E+00    9.127E+00    9.149E+00    9.171E+00
     9.194E+00    9.216E+00    9.239E+00    9.263E+00    9.286E+00    9.310E+00    9.335E+00    9.359E+00    9.384E+00    9.410E+00
     9.436E+00    9.462E+00    9.488E+00    9.515E+00    9.543E+00    9.571E+00    9.599E+00    9.628E+00    9.658E+00    9.688E+00
     9.718E+00    9.749E+00    9.781E+00    9.813E+00    9.846E+00    9.879E+00    9.913E+00    9.948E+00    9.983E+00    1.002E+01
     1.006E+01    1.009E+01    1.013E+01    1.017E+01    1.021E+01    1.025E+01    1.029E+01    1.033E+01    1.037E+01    1.042E+01
     1.046E+01    1.051E+01    1.055E+01    1.060E+01    1.065E+01    1.069E+01    1.074E+01    1.079E+01    1.084E+01    1.090E+01
     1.095E+01    1.100E+01    1.106E+01    1.111E+01    1.117E+01    1.123E+01    1.129E+01    1.135E+01    1.141E+01    1.147E+01
     1.153E+01    1.160E+01    1.166E+01    1.173E+01    1.179E+01    1.186E+01    1.193E+01    1.200E+01    1.208E+01    1.215E+01
     1.222E+01    1.230E+01    1.238E+01    1.246E+01    1.253E+01    1.262E+01    1.270E+01    1.278E+01    1.287E+01    1.295E+01
     1.304E+01    1.313E+01    1.322E+01    1.331E+01    1.340E+01    1.350E+01    1.359E+01    1.369E+01    1.379E+01    1.389E+01
     1.399E+01    1.409E+01    1.420E+01    1.430E+01    1.441E+01    1.452E+01    1.463E+01    1.474E+01    1.485E+01    1.496E+01
     1.507E+01    1.519E+01    1.530E+01    1.542E+01    1.553E+01    1.565E+01    1.577E+01    1.589E+01    1.601E+01    1.613E+01
     1.625E+01    1.637E+01    1.650E+01    1.662E+01    1.674E+01    1.687E+01    1.699E+01    1.712E+01    1.724E+01    1.737E+01
     1.750E+01    1.762E+01    1.775E+01    1.788E+01    1.801E+01    1.813E+01    1.826E+01    1.839E+01    1.852E+01    1.865E+01
     1.878E+01    1.890E+01    1.903E+01    1.916E+01    1.929E+01    1.942E+01    1.955E+01    1.967E+01    1.980E+01    1.993E+01
     2.006E+01    2.018E+01    2.031E+01    2.044E+01    2.056E+01    2.069E+01    2.081E+01    2.094E+01    2.106E+01    2.118E+01
     2.131E+01    2.143E+01    2.155E+01    2.167E+01    2.179E+01    2.191E+01    2.203E+01    2.214E+01    2.226E+01    2.238E+01
     2.249E+01    2.261E+01    2.272E+01    2.283E+01    2.294E+01    2.305E+01    2.316E+01    2.327E+01    2.337E+01    2.348E+01
     2.358E+01    2.368E+01    2.379E+01    2.389E+01    2.398E+01    2.408E+01    2.418E+01    2.427E+01    2.437E+01    2.446E+01
     2.455E+01    2.464E+01    2.473E+01    2.481E+01    2.490E+01    2.498E+01    2.506E+01    2.515E+01    2.523E+01    2.530E+01
     2.538E+01    2.546E+01    2.553E+01    2.560E+01    2.567E+01    2.574E+01    2.581E+01    2.588E+01    2.594E+01    2.600E+01
     2.607E+01    2.612E+01    2.618E+01    2.624E+01    2.630E+01    2.635E+01    2.640E+01    2.645E+01    2.650E+01    2.655E+01
     2.659E+01    2.664E+01    2.668E+01    2.672E+01    2.676E+01    2.679E+01    2.683E+01    2.686E+01    2.689E+01    2.692E+01
     2.695E+01    2.697E+01    2.700E+01    2.702E+01    2.704E+01    2.706E+01    2.708E+01    2.709E+01    2.711E+01    2.712E+01
     2.713E+01    2.713E+01    2.714E+01    2.714E+01    2.714E+01    2.714E+01    2.714E+01    2.714E+01    2.713E+01    2.712E+01
     2.711E+01    2.710E+01    2.709E+01    2.707E+01    2.705E+01    2.703E+01    2.701E+01    2.698E+01    2.696E+01    2.693E+01
     2.690E+01    2.686E+01    2.683E+01    2.679E+01    2.675E+01    2.671E+01    2.666E+01    2.662E+01    2.657E+01    2.652E+01
     2.647E+01    2.641E+01    2.635E+01    2.629E+01    2.623E+01    2.617E+01    2.610E+01    2.603E+01    2.596E+01    2.589E+01
     2.582E+01    2.574E+01    2.566E+01    2.558E+01    2.549E+01    2.541E+01    2.532E+01    2.523E+01    2.513E+01    2.504E+01
     2.494E+01    2.484E+01    2.473E+01    2.463E+01    2.452E+01    2.441E+01    2.430E+01    2.418E+01    2.407E+01    2.395E+01
     2.382E+01    2.370E+01    2.357E+01    2.344E+01    2.331E+01    2.318E+01    2.304E+01    2.290E+01    2.276E+01    2.262E+01
     2.247E+01    2.232E+01    2.217E+01    2.202E+01    2.186E+01    2.170E+01    2.154E+01    2.138E+01    2.121E+01    2.104E+01
     2.087E+01    2.069E+01    2.052E+01    2.034E+01    2.016E+01    1.997E+01    1.979E+01    1.960E+01    1.940E+01    1.921E+01
     1.901E+01    1.881E+01    1.861E+01    1.840E+01    1.820E+01    1.798E+01    1.777E+01    1.756E+01    1.734E+01    1.712E+01
     1.689E+01    1.667E+01    1.644E+01    1.620E+01    1.597E+01    1.573E+01    1.549E+01    1.525E+01    1.500E+01    1.476E+01
     1.450E+01    1.425E+01    1.400E+01    1.374E+01    1.348E+01    1.321E+01    1.295E+01    1.268E+01    1.241E+01    1.214E+01
     1.186E+01    1.158E+01    1.130E+01    1.102E+01    1.074E+01    1.045E+01    1.016E+01    9.868E+00    9.575E+00    9.279E+00
     8.982E+00    8.682E+00    8.380E+00    8.076E+00    7.770E+00    7.462E+00    7.153E+00    6.841E+00    6.527E+00    6.211E+00
     5.894E+00    5.574E+00    5.253E+00    4.930E+00    4.605E+00    4.278E+00    3.950E+00    3.620E+00    3.288E+00    2.955E+00
     2.620E+00    2.283E+00    1.945E+00    1.605E+00    1.263E+00    9.203E-01    5.758E-01    2.299E-01   -1.175E-01   -4.664E-01
    -8.166E-01   -1.168E+00   -1.521E+00   -1.875E+00   -2.231E+00   -2.588E+00   -2.946E+00   -3.305E+00   -3.666E+00   -4.028E+00
    -4.391E+00   -4.755E+00   -5.120E+00   -5.487E+00   -5.854E+00   -6.222E+00   -6.592E+00   -6.962E+00   -7.334E+00   -7.706E+00
    -8.079E+00   -8.454E+00   -8.829E+00   -9.205E+00   -9.581E+00   -9.959E+00   -1.034E+01   -1.072E+01
 Asp      Conc. = 5.23E+01
