 LCModel (Version 6.3-1L) Copyright: S.W. Provencher.          Ref.: Magn. Reson. Med. 30:672-679 (1993).                
 Slice#3 Row#2 Col#8  PD_05_press_1_raw_act
 36 lines in following concentration table = NCONC+1
    Conc.  %SD /Cr+PCr  Metabolite                                         
    0.000 999%   0.000 Ala                                                 
   15.970 579% 3.9E-02 Asp                                                 
  179.893 156%   0.438 Cr                                                  
  230.554 122%   0.562 PCr                                                 
   44.069 133%   0.107 GABA                                                
   32.532 177% 7.9E-02 Glc                                                 
  338.459 103%   0.825 Gln                                                 
    0.000 999%   0.000 Glu                                                 
  157.862  10%   0.385 GPC                                                 
    0.000 999%   0.000 PCh                                                 
  169.987  38%   0.414 GSH                                                 
  432.015  38%   1.053 Ins                                                 
    0.000 999%   0.000 Lac                                                 
  837.363   7%   2.040 NAA                                                 
    0.000 999%   0.000 NAAG                                                
   45.863  34%   0.112 Scyllo                                              
   79.751 109%   0.194 Tau                                                 
  145.186  52%   0.354 -CrCH2                                              
  157.862  10%   0.385 GPC+PCh                                             
  837.363   7%   2.040 NAA+NAAG                                            
  410.447  10%   1.000 Cr+PCr                                              
  338.459 103%   0.825 Glu+Gln                                             
    0.000 999%   0.000 Lip13a                                              
    0.000 999%   0.000 Lip13b                                              
    0.000 999%   0.000 Lip09                                               
  350.571  17%   0.854 MM09                                                
 1.37E-03 999% 3.3E-06 Lip20                                               
  737.157  21%   1.796 MM20                                                
    0.000 999%   0.000 MM12                                                
    0.000 999%   0.000 MM14                                                
  289.536  27%   0.705 MM17                                                
    0.000 999%   0.000 Lip13a+Lip13b                                       
    0.000 999%   0.000 MM14+Lip13a+Lip13b+MM12                             
  350.571  17%   0.854 MM09+Lip09                                          
  737.158  21%   1.796 MM20+Lip20                                          
   6 lines in following misc. output table
  FWHM = 0.107 ppm    S/N =   4                                            
  Data shift = 0.031 ppm                                                   
  Ph:  11 deg     -12.3 deg/ppm                                            
  alphaB,S = 4.3E+01,   1.0E+02                                            
   14 spline knots.   Ns = 7(2)                                            
  ( 7) 5 infls.   ( 1) 1 extrs.                                            
  498 points on ppm-axis = NY
      4.000000     3.992357     3.984714     3.977070     3.969427     3.961784     3.954141     3.946497     3.938854     3.931211
      3.923568     3.915925     3.908281     3.900638     3.892995     3.885352     3.877708     3.870065     3.862422     3.854779
      3.847136     3.839492     3.831849     3.824206     3.816563     3.808919     3.801276     3.793633     3.785990     3.778347
      3.770703     3.763060     3.755417     3.747774     3.740130     3.732487     3.724844     3.717201     3.709558     3.701914
      3.694271     3.686628     3.678985     3.671341     3.663698     3.656055     3.648412     3.640769     3.633125     3.625482
      3.617839     3.610196     3.602552     3.594909     3.587266     3.579623     3.571980     3.564336     3.556693     3.549050
      3.541407     3.533763     3.526120     3.518477     3.510834     3.503191     3.495547     3.487904     3.480261     3.472618
      3.464974     3.457331     3.449688     3.442045     3.434402     3.426758     3.419115     3.411472     3.403829     3.396185
      3.388542     3.380899     3.373256     3.365613     3.357969     3.350326     3.342683     3.335040     3.327396     3.319753
      3.312110     3.304467     3.296824     3.289180     3.281537     3.273894     3.266251     3.258607     3.250964     3.243321
      3.235678     3.228034     3.220391     3.212748     3.205105     3.197462     3.189818     3.182175     3.174532     3.166889
      3.159245     3.151602     3.143959     3.136316     3.128673     3.121029     3.113386     3.105743     3.098100     3.090456
      3.082813     3.075170     3.067527     3.059884     3.052240     3.044597     3.036954     3.029311     3.021667     3.014024
      3.006381     2.998738     2.991095     2.983451     2.975808     2.968165     2.960522     2.952878     2.945235     2.937592
      2.929949     2.922306     2.914662     2.907019     2.899376     2.891733     2.884089     2.876446     2.868803     2.861160
      2.853517     2.845873     2.838230     2.830587     2.822944     2.815300     2.807657     2.800014     2.792371     2.784728
      2.777084     2.769441     2.761798     2.754155     2.746511     2.738868     2.731225     2.723582     2.715939     2.708295
      2.700652     2.693009     2.685366     2.677722     2.670079     2.662436     2.654793     2.647150     2.639506     2.631863
      2.624220     2.616577     2.608933     2.601290     2.593647     2.586004     2.578361     2.570717     2.563074     2.555431
      2.547788     2.540144     2.532501     2.524858     2.517215     2.509572     2.501928     2.494285     2.486642     2.478999
      2.471355     2.463712     2.456069     2.448426     2.440783     2.433139     2.425496     2.417853     2.410210     2.402566
      2.394923     2.387280     2.379637     2.371994     2.364350     2.356707     2.349064     2.341421     2.333777     2.326134
      2.318491     2.310848     2.303205     2.295561     2.287918     2.280275     2.272632     2.264988     2.257345     2.249702
      2.242059     2.234416     2.226772     2.219129     2.211486     2.203843     2.196199     2.188556     2.180913     2.173270
      2.165627     2.157983     2.150340     2.142697     2.135054     2.127410     2.119767     2.112124     2.104481     2.096838
      2.089194     2.081551     2.073908     2.066265     2.058621     2.050978     2.043335     2.035692     2.028049     2.020405
      2.012762     2.005119     1.997476     1.989833     1.982190     1.974546     1.966903     1.959260     1.951617     1.943974
      1.936331     1.928688     1.921045     1.913402     1.905759     1.898115     1.890472     1.882829     1.875186     1.867543
      1.859900     1.852257     1.844614     1.836971     1.829327     1.821684     1.814041     1.806398     1.798755     1.791112
      1.783469     1.775826     1.768183     1.760540     1.752896     1.745253     1.737610     1.729967     1.722324     1.714681
      1.707038     1.699395     1.691752     1.684108     1.676465     1.668822     1.661179     1.653536     1.645893     1.638250
      1.630607     1.622964     1.615321     1.607677     1.600034     1.592391     1.584748     1.577105     1.569462     1.561819
      1.554176     1.546533     1.538890     1.531246     1.523603     1.515960     1.508317     1.500674     1.493031     1.485388
      1.477745     1.470102     1.462458     1.454815     1.447172     1.439529     1.431886     1.424243     1.416600     1.408957
      1.401314     1.393671     1.386027     1.378384     1.370741     1.363098     1.355455     1.347812     1.340169     1.332526
      1.324883     1.317240     1.309596     1.301953     1.294310     1.286667     1.279024     1.271381     1.263738     1.256095
      1.248452     1.240808     1.233165     1.225522     1.217879     1.210236     1.202593     1.194950     1.187307     1.179664
      1.172021     1.164377     1.156734     1.149091     1.141448     1.133805     1.126162     1.118519     1.110876     1.103233
      1.095590     1.087946     1.080303     1.072660     1.065017     1.057374     1.049731     1.042088     1.034445     1.026802
      1.019158     1.011515     1.003872     0.996229     0.988586     0.980943     0.973300     0.965657     0.958014     0.950371
      0.942727     0.935084     0.927441     0.919798     0.912155     0.904512     0.896869     0.889226     0.881583     0.873940
      0.866296     0.858653     0.851010     0.843367     0.835724     0.828081     0.820438     0.812795     0.805152     0.797508
      0.789865     0.782222     0.774579     0.766936     0.759293     0.751650     0.744007     0.736364     0.728721     0.721077
      0.713434     0.705791     0.698148     0.690505     0.682862     0.675219     0.667576     0.659933     0.652290     0.644646
      0.637003     0.629360     0.621717     0.614074     0.606431     0.598788     0.591145     0.583502     0.575858     0.568215
      0.560572     0.552929     0.545286     0.537643     0.530000     0.522357     0.514714     0.507071     0.499427     0.491784
      0.484141     0.476498     0.468855     0.461212     0.453569     0.445925     0.438282     0.430639     0.422996     0.415353
      0.407710     0.400067     0.392424     0.384780     0.377137     0.369494     0.361851     0.354208     0.346565     0.338922
      0.331278     0.323635     0.315992     0.308349     0.300706     0.293063     0.285420     0.277777     0.270133     0.262490
      0.254847     0.247204     0.239561     0.231918     0.224275     0.216631     0.208988     0.201345
 NY phased data points follow
  -3.34750E+00 -1.72181E+00  3.76807E-01  1.38306E+00 -3.55568E-01 -9.21701E-01  4.46957E+00  4.21932E+00  2.20863E+00  9.53592E-02
   2.77148E+00  9.32126E-02  3.08926E+00  2.02639E+00  1.31072E+00  3.13719E-01  4.39166E-01  9.93705E-01  6.43204E-01 -1.40370E-01
   5.03418E-01  7.69537E-01  2.92470E+00  3.24015E-01 -1.25064E+00 -5.59993E-01  2.63139E-01  1.29926E+00 -7.59048E-01  1.48838E+00
   1.11234E+00  1.20535E-01 -1.40619E+00 -2.43798E-01 -2.11441E+00  4.16904E+00 -1.19428E+00  2.81387E+00  1.14028E+00  7.57652E-01
   7.12999E-01  1.96463E+00  2.28647E+00  5.10343E-01  1.30085E+00  2.32810E+00 -1.44299E+00  2.11275E+00  1.68135E+00  5.75569E-01
  -1.61442E+00  3.25125E-01  7.64461E-01 -4.02740E+00  1.82577E+00  1.53727E+00  2.91447E+00 -1.80304E+00 -3.42619E-01  2.66435E-01
   1.48791E+00  6.39594E-01  1.67375E+00 -3.01386E+00 -9.84233E-01 -5.93270E-02 -3.92438E-01 -3.36338E+00  6.37653E-01 -2.48963E+00
   3.85853E-01 -2.23609E+00 -2.24429E+00 -5.11600E-01 -1.07059E+00 -3.60774E+00 -1.63203E+00 -1.58706E+00  5.37602E-02  1.05815E+00
   1.16521E-01  8.95730E-01 -2.62585E-02  2.76133E+00 -7.71555E-01  3.46093E-02 -2.05395E+00  4.28530E-01  1.92501E+00  1.32273E+00
  -1.03168E+00  4.30582E+00  4.05584E+00  2.87219E+00  2.66194E+00  2.82112E+00  8.38466E-01 -2.68033E-01  3.87397E+00  4.88678E+00
   4.28065E+00  4.82255E+00  8.47775E+00  6.16086E+00  5.37327E+00  6.68098E+00  4.28249E+00  1.31809E+00  4.15283E+00 -3.31868E-02
   1.62697E+00  2.90503E+00  2.27219E+00  1.64111E+00  1.45884E+00  3.83449E+00  1.65063E+00  1.07664E+00  2.18471E+00  3.40659E+00
  -2.60552E-01  2.53154E+00  1.38176E+00  2.44453E+00  7.22449E+00  7.09314E+00  7.49593E+00  9.25989E+00  3.30974E+00  3.05475E+00
   6.89426E+00  4.53935E+00  8.18109E-01  2.92062E+00  9.29006E-01  1.98876E+00  3.42399E-01  2.04343E+00 -1.46363E+00  5.35652E-01
  -3.77745E+00 -1.33428E-01  1.83260E-01  1.67017E-01 -1.99761E+00  2.03352E+00 -1.20065E+00 -1.02588E+00 -7.47871E-01 -2.41368E+00
  -1.00890E+00 -2.01541E+00  4.47009E-01 -4.08202E+00 -1.42917E+00 -2.36201E+00  8.97725E-01 -4.50478E-01 -2.65861E+00  9.15399E-01
  -1.35269E+00  5.64764E-01 -3.19317E+00 -8.85647E-01 -1.14741E+00 -3.08144E+00 -3.40484E+00 -1.29954E+00 -7.64383E-01 -1.31494E+00
  -3.08556E+00 -3.19223E+00 -6.69874E+00 -4.09399E+00 -5.62294E+00 -2.99221E+00 -4.64488E+00 -8.86406E+00 -4.95595E+00 -4.80616E+00
  -3.51827E+00 -1.84492E+00 -3.51325E+00 -1.05890E+00 -3.11701E+00 -1.94107E+00 -2.61950E+00 -2.65860E+00 -3.66689E-01 -1.15662E+00
  -1.09468E+00 -1.10793E-01 -2.29419E+00 -4.03616E+00 -2.22569E+00 -3.27159E+00  7.15055E-01 -3.45478E+00  5.41122E-01 -1.82020E+00
  -6.29252E-01 -3.14524E+00  5.91714E-02 -1.28206E+00 -3.10074E-01 -7.06079E-01 -3.26716E-01 -2.74156E+00  1.12527E-01 -1.15500E+00
   5.53515E-01  6.66288E-01 -1.72869E+00 -1.66737E-01  3.17689E-01 -6.01263E-01 -1.73341E+00  8.99818E-02 -1.87354E-01  6.33601E-04
   4.23651E-01 -1.17691E+00 -5.94576E-01  1.28743E+00  1.94960E-01  1.48041E+00 -2.51077E+00 -7.87472E-01  7.38172E-01  2.23389E-01
   2.23203E+00 -2.07245E-01  6.74894E-01  1.94604E+00 -1.85352E+00 -8.35227E-01  2.24349E-01  1.28754E+00  2.83594E+00  8.67693E-01
   9.46443E-01 -4.50000E-01 -3.43649E-01 -5.41649E-01  2.42168E+00  1.18978E+00  9.81786E-01  4.08558E-01  1.92826E+00  5.67893E+00
   6.09909E+00  6.67494E+00  7.81044E+00  8.85690E+00  7.87491E+00  9.20617E+00  1.10491E+01  1.30942E+01  1.19676E+01  1.44732E+01
   1.37749E+01  1.46276E+01  1.39056E+01  1.48125E+01  1.03581E+01  9.64173E+00  5.49233E+00  7.01721E+00  6.12798E+00  6.68493E+00
   1.65497E+00  3.76289E+00  4.53641E+00  4.94709E+00  8.20251E-01  1.94674E+00  4.68217E-02 -8.41456E-02  1.05335E+00  3.54269E+00
  -2.16729E+00 -9.84873E-01  2.47662E+00  1.93394E-01 -1.10817E+00 -2.54104E+00 -5.23383E-01 -6.58051E-01 -2.93370E+00  2.34631E+00
   9.39647E-01  7.78620E-01  7.42451E-01 -1.23978E+00 -1.49802E+00 -2.00006E+00 -2.75906E-01 -1.64879E+00 -2.75162E-01  1.82433E+00
  -1.34551E+00  5.61131E-01  1.87421E-01 -5.98983E-01 -5.24751E-01  1.06749E+00  3.27470E-01  5.08585E-01 -7.33818E-01  2.38954E+00
   2.55404E+00 -6.17919E-01  3.88750E+00  1.66069E+00 -1.20717E+00 -3.80326E-01  8.21223E-01 -1.40305E+00 -7.22411E-01 -5.00612E-02
  -6.24763E-01 -2.08309E+00 -9.77989E-01 -2.11351E+00  1.40965E+00 -7.75874E-02 -3.31934E+00  7.16715E-01 -5.49107E-01 -3.53027E+00
  -4.16086E+00 -2.08702E+00 -1.76524E+00 -5.04364E+00 -4.34359E+00 -4.87889E+00 -4.99312E+00 -4.82636E+00 -3.45431E+00 -4.22445E+00
  -3.31461E+00 -4.53340E+00 -2.46530E+00 -5.08199E+00 -4.92255E+00 -5.46834E+00 -3.62595E+00 -5.01583E+00 -4.39315E+00 -4.56340E+00
  -3.00901E+00 -4.06516E+00 -3.61943E+00 -3.77854E+00 -2.16492E+00 -2.58854E+00 -2.72726E+00 -4.49461E+00 -5.20702E+00 -1.98918E+00
  -1.88487E+00 -2.83164E+00 -4.77029E+00 -1.54061E+00 -3.43796E+00 -2.23409E+00 -4.57375E+00 -2.78422E+00 -3.70189E+00 -3.82111E+00
  -4.53121E+00 -4.38640E+00 -6.13932E+00 -4.08275E+00 -4.61634E+00 -3.75301E+00 -8.82304E-02 -1.19909E+00  3.54745E-01 -3.80334E+00
  -1.46582E+00 -2.19252E+00 -2.31910E+00  1.03265E+00  3.19229E+00 -8.59865E-01 -2.37966E+00 -5.19076E-01 -6.95885E-01 -3.31543E+00
  -1.08887E+00  7.40551E-01 -2.31960E+00 -1.20195E+00 -2.22518E+00  1.64189E+00 -8.53975E-01 -1.72213E+00 -1.74036E+00 -3.59962E-01
   4.72437E-01 -1.76498E+00  5.89824E-01  2.34249E+00 -1.40491E+00  4.02749E+00  1.43016E+00  2.17442E+00  6.30274E-01  2.71684E+00
   1.20742E+00  8.73769E-01  2.45726E+00  2.28870E+00  3.39300E-01  1.16582E+00  7.42663E-01  4.02245E-01  6.84926E-02  4.62526E-01
   2.21543E+00  4.41148E+00  4.21557E-01  2.62514E+00 -1.83028E+00  3.67207E-01  1.38108E+00 -1.86266E+00 -3.00372E+00 -6.32933E-01
  -5.28391E-01 -1.62364E+00  5.74811E-01 -1.08626E+00  8.55086E-01  1.13919E+00 -3.31708E+00 -2.33281E+00 -1.70290E+00  2.49872E+00
  -7.16697E-01 -2.69720E+00 -6.26759E-01 -8.97188E-01  7.34344E-02  1.42854E+00 -3.26477E+00  1.64790E+00 -2.44909E-01  1.75859E-01
   7.28523E-01 -2.13311E-01  1.94800E+00 -1.06437E+00 -2.80190E+00 -1.07949E-01 -2.02597E+00 -1.00909E+00 -2.24633E+00  3.25887E+00
  -2.41660E+00  5.02659E-01 -2.03600E-02 -4.37676E-01 -2.57633E+00 -1.27032E+00 -5.52848E-01 -3.36853E-01 -1.57339E+00 -1.82372E+00
   2.18009E+00 -1.12810E+00 -3.10398E+00 -5.87621E-01 -1.15478E+00 -8.72519E-01 -1.63825E+00  7.82483E-01  6.11755E-01 -5.52441E-01
  -1.74958E+00 -2.10364E+00 -3.79819E+00 -2.80851E-01 -1.64420E-01 -1.28978E+00 -6.84571E-01 -4.01167E+00 -1.02911E+00  4.05441E-01
   7.00087E-01  2.75567E+00  1.42451E+00  2.16402E+00 -2.39686E+00  8.49470E-01 -3.36691E-01 -7.20926E-01
 NY points of the fit to the data follow
   2.00979E-01  4.17580E-01  5.19571E-01  7.57808E-01  8.90184E-01  1.17879E+00  1.34067E+00  1.61573E+00  1.78403E+00  1.89855E+00
   2.00151E+00  1.91098E+00  1.88931E+00  1.58806E+00  1.48075E+00  1.08366E+00  1.02583E+00  7.54135E-01  7.78038E-01  6.77211E-01
   6.74497E-01  6.39939E-01  5.56162E-01  5.42380E-01  4.30663E-01  5.05892E-01  4.22872E-01  7.07975E-01  5.96580E-01  1.05118E+00
   7.88589E-01  1.19398E+00  7.69978E-01  1.09182E+00  6.51230E-01  8.69242E-01  5.34903E-01  6.59078E-01  4.71732E-01  5.61972E-01
   4.74296E-01  5.59346E-01  5.27137E-01  5.99518E-01  5.58983E-01  5.47270E-01  5.02106E-01  4.07364E-01  4.13899E-01  2.87671E-01
   2.50787E-01  7.80948E-02 -8.06865E-03 -1.68688E-01 -2.37388E-01 -3.15913E-01 -3.33905E-01 -3.73898E-01 -3.67208E-01 -4.40165E-01
  -4.49942E-01 -5.62712E-01 -5.95322E-01 -7.17442E-01 -7.26640E-01 -7.72902E-01 -7.34052E-01 -7.46956E-01 -6.82643E-01 -6.93228E-01
  -6.17645E-01 -6.39876E-01 -5.20325E-01 -5.42883E-01 -4.41602E-01 -4.66967E-01 -4.39493E-01 -4.39234E-01 -4.36993E-01 -3.98266E-01
  -3.89985E-01 -3.15816E-01 -3.07766E-01 -2.08221E-01 -2.68867E-01 -1.69788E-01 -3.41670E-01 -2.42013E-01 -4.01244E-01  4.64840E-02
   6.05180E-02  7.51066E-01  9.14717E-01  1.58345E+00  1.82442E+00  2.43138E+00  2.71400E+00  3.38914E+00  3.76270E+00  4.55618E+00
   4.95501E+00  5.46623E+00  5.75038E+00  5.68022E+00  5.77826E+00  5.12434E+00  4.95445E+00  3.92645E+00  3.63150E+00  2.67744E+00
   2.42930E+00  1.77619E+00  1.72691E+00  1.56789E+00  1.62675E+00  1.83620E+00  1.79781E+00  2.04023E+00  1.86823E+00  2.31820E+00
   2.21407E+00  3.29723E+00  3.26357E+00  4.62389E+00  4.37598E+00  5.63663E+00  5.05780E+00  5.88271E+00  5.03201E+00  5.30035E+00
   4.32960E+00  4.12818E+00  3.23105E+00  2.88775E+00  2.18355E+00  1.91006E+00  1.37928E+00  1.10920E+00  7.14941E-01  4.06399E-01
   8.77106E-02 -3.68437E-01 -5.85963E-01 -1.02871E+00 -1.07009E+00 -1.20261E+00 -1.22370E+00 -1.35681E+00 -1.39610E+00 -1.52079E+00
  -1.54118E+00 -1.61742E+00 -1.61884E+00 -1.67551E+00 -1.71430E+00 -1.78575E+00 -1.86422E+00 -1.94999E+00 -2.02916E+00 -2.09797E+00
  -2.16055E+00 -2.20413E+00 -2.28825E+00 -2.32964E+00 -2.41640E+00 -2.46748E+00 -2.53912E+00 -2.63319E+00 -2.69078E+00 -2.82578E+00
  -2.86144E+00 -3.00447E+00 -3.02166E+00 -3.17190E+00 -3.14186E+00 -3.26901E+00 -3.17388E+00 -3.25689E+00 -3.11740E+00 -3.16396E+00
  -3.01938E+00 -3.01130E+00 -2.88994E+00 -2.82344E+00 -2.74593E+00 -2.62559E+00 -2.54708E+00 -2.36622E+00 -2.25978E+00 -2.03794E+00
  -1.91302E+00 -1.70173E+00 -1.61414E+00 -1.48710E+00 -1.46406E+00 -1.42729E+00 -1.41471E+00 -1.42400E+00 -1.34031E+00 -1.39169E+00
  -1.20002E+00 -1.29038E+00 -1.06828E+00 -1.25834E+00 -1.11685E+00 -1.43129E+00 -1.36638E+00 -1.71934E+00 -1.61189E+00 -1.90564E+00
  -1.67858E+00 -1.85351E+00 -1.52864E+00 -1.59600E+00 -1.25805E+00 -1.27014E+00 -1.03241E+00 -1.03705E+00 -8.96707E-01 -8.88462E-01
  -7.77871E-01 -7.39807E-01 -6.50120E-01 -5.83970E-01 -4.89571E-01 -4.22356E-01 -3.59803E-01 -3.02550E-01 -3.03839E-01 -2.85198E-01
  -2.68976E-01 -2.96438E-01 -2.36937E-01 -2.68076E-01 -1.26105E-01 -1.56812E-01  4.89914E-02  2.57216E-03  2.33388E-01  1.38641E-01
   3.72422E-01  2.46811E-01  4.85143E-01  3.82787E-01  6.63041E-01  7.37935E-01  1.60139E+00  2.26604E+00  3.36794E+00  4.53573E+00
   5.30275E+00  6.69203E+00  7.06031E+00  8.64289E+00  8.83873E+00  1.07855E+01  1.09060E+01  1.32640E+01  1.26466E+01  1.49657E+01
   1.32111E+01  1.49716E+01  1.22412E+01  1.32414E+01  1.01088E+01  1.04642E+01  7.72181E+00  7.82678E+00  5.77337E+00  5.86498E+00
   4.21051E+00  4.20680E+00  2.79837E+00  2.62749E+00  1.28365E+00  8.62668E-01 -9.53178E-02 -5.09024E-01 -6.60249E-01 -7.56205E-01
  -8.32712E-01 -8.90709E-01 -9.38588E-01 -9.69580E-01 -9.92484E-01 -9.99219E-01 -9.98886E-01 -9.84241E-01 -9.63590E-01 -9.26550E-01
  -8.85150E-01 -8.25116E-01 -7.60946E-01 -6.77594E-01 -5.90590E-01 -4.86574E-01 -3.83328E-01 -2.67895E-01 -1.57424E-01 -4.28799E-02
   6.09988E-02  1.61218E-01  2.44512E-01  3.17829E-01  3.69279E-01  4.05279E-01  4.16234E-01  4.09389E-01  3.77503E-01  3.28057E-01
   2.56678E-01  1.71428E-01  6.92759E-02 -4.07531E-02 -1.61214E-01 -2.82913E-01 -4.08578E-01 -5.29472E-01 -6.49052E-01 -7.59423E-01
  -8.65017E-01 -9.58847E-01 -1.04631E+00 -1.12127E+00 -1.18984E+00 -1.24652E+00 -1.29786E+00 -1.33866E+00 -1.37567E+00 -1.40377E+00
  -1.42974E+00 -1.44836E+00 -1.46629E+00 -1.47815E+00 -1.49046E+00 -1.49767E+00 -1.50619E+00 -1.51028E+00 -1.51624E+00 -1.51822E+00
  -1.52244E+00 -1.52298E+00 -1.52601E+00 -1.52552E+00 -1.52767E+00 -1.52640E+00 -1.52787E+00 -1.52599E+00 -1.52692E+00 -1.52453E+00
  -1.52497E+00 -1.52211E+00 -1.52211E+00 -1.51882E+00 -1.51841E+00 -1.51469E+00 -1.51385E+00 -1.50970E+00 -1.50842E+00 -1.50381E+00
  -1.50207E+00 -1.49695E+00 -1.49468E+00 -1.48900E+00 -1.48613E+00 -1.47980E+00 -1.47624E+00 -1.46914E+00 -1.46474E+00 -1.45672E+00
  -1.45131E+00 -1.44215E+00 -1.43545E+00 -1.42485E+00 -1.41651E+00 -1.40404E+00 -1.39356E+00 -1.37861E+00 -1.36527E+00 -1.34697E+00
  -1.32974E+00 -1.30689E+00 -1.28432E+00 -1.25521E+00 -1.22533E+00 -1.18769E+00 -1.14792E+00 -1.09887E+00 -1.04604E+00 -9.82181E-01
  -9.12768E-01 -8.30581E-01 -7.41251E-01 -6.37800E-01 -5.26267E-01 -4.00221E-01 -2.66432E-01 -1.19332E-01  3.33044E-02  1.95969E-01
   3.59746E-01  5.28024E-01  6.90861E-01  8.50828E-01  9.97409E-01  1.13295E+00  1.24705E+00  1.34261E+00  1.41016E+00  1.45392E+00
   1.46603E+00  1.45256E+00  1.40759E+00  1.33911E+00  1.24300E+00  1.12885E+00  9.93803E-01  8.48332E-01  6.90043E-01  5.29503E-01
   3.64012E-01  2.03540E-01  4.45214E-02 -1.04098E-01 -2.47010E-01 -3.76397E-01 -4.98038E-01 -6.05084E-01 -7.04165E-01 -7.89122E-01
  -8.67132E-01 -9.32404E-01 -9.92363E-01 -1.04133E+00 -1.08676E+00 -1.12293E+00 -1.15721E+00 -1.18371E+00 -1.20968E+00 -1.22906E+00
  -1.24895E+00 -1.26314E+00 -1.27861E+00 -1.28904E+00 -1.30128E+00 -1.30893E+00 -1.31879E+00 -1.32438E+00 -1.33246E+00 -1.33650E+00
  -1.34321E+00 -1.34604E+00 -1.35169E+00 -1.35357E+00 -1.35839E+00 -1.35951E+00 -1.36365E+00 -1.36416E+00 -1.36775E+00 -1.36776E+00
  -1.37090E+00 -1.37049E+00 -1.37324E+00 -1.37249E+00 -1.37492E+00 -1.37387E+00 -1.37604E+00 -1.37473E+00 -1.37666E+00 -1.37513E+00
  -1.37687E+00 -1.37516E+00 -1.37672E+00 -1.37484E+00 -1.37625E+00 -1.37423E+00 -1.37551E+00 -1.37336E+00 -1.37452E+00 -1.37225E+00
  -1.37330E+00 -1.37093E+00 -1.37189E+00 -1.36943E+00 -1.37030E+00 -1.36775E+00 -1.36854E+00 -1.36591E+00 -1.36662E+00 -1.36391E+00
  -1.36455E+00 -1.36176E+00 -1.36233E+00 -1.35947E+00 -1.35996E+00 -1.35700E+00 -1.35741E+00 -1.35436E+00
 NY background values follow
    -2.337E+00   -2.335E+00   -2.333E+00   -2.331E+00   -2.329E+00   -2.327E+00   -2.325E+00   -2.323E+00   -2.322E+00   -2.320E+00
    -2.318E+00   -2.316E+00   -2.314E+00   -2.312E+00   -2.310E+00   -2.308E+00   -2.307E+00   -2.305E+00   -2.303E+00   -2.301E+00
    -2.299E+00   -2.297E+00   -2.295E+00   -2.293E+00   -2.292E+00   -2.290E+00   -2.288E+00   -2.286E+00   -2.284E+00   -2.282E+00
    -2.280E+00   -2.279E+00   -2.277E+00   -2.275E+00   -2.273E+00   -2.271E+00   -2.269E+00   -2.267E+00   -2.265E+00   -2.264E+00
    -2.262E+00   -2.260E+00   -2.258E+00   -2.256E+00   -2.254E+00   -2.252E+00   -2.250E+00   -2.249E+00   -2.247E+00   -2.245E+00
    -2.243E+00   -2.241E+00   -2.239E+00   -2.237E+00   -2.235E+00   -2.234E+00   -2.232E+00   -2.230E+00   -2.228E+00   -2.226E+00
    -2.224E+00   -2.222E+00   -2.221E+00   -2.219E+00   -2.217E+00   -2.215E+00   -2.213E+00   -2.211E+00   -2.209E+00   -2.207E+00
    -2.206E+00   -2.204E+00   -2.202E+00   -2.200E+00   -2.198E+00   -2.196E+00   -2.194E+00   -2.192E+00   -2.191E+00   -2.189E+00
    -2.187E+00   -2.185E+00   -2.183E+00   -2.181E+00   -2.179E+00   -2.177E+00   -2.176E+00   -2.174E+00   -2.172E+00   -2.170E+00
    -2.168E+00   -2.166E+00   -2.164E+00   -2.162E+00   -2.161E+00   -2.159E+00   -2.157E+00   -2.155E+00   -2.153E+00   -2.151E+00
    -2.149E+00   -2.148E+00   -2.146E+00   -2.144E+00   -2.142E+00   -2.140E+00   -2.138E+00   -2.136E+00   -2.134E+00   -2.133E+00
    -2.131E+00   -2.129E+00   -2.127E+00   -2.125E+00   -2.123E+00   -2.121E+00   -2.119E+00   -2.118E+00   -2.116E+00   -2.114E+00
    -2.112E+00   -2.110E+00   -2.108E+00   -2.106E+00   -2.104E+00   -2.103E+00   -2.101E+00   -2.099E+00   -2.097E+00   -2.095E+00
    -2.093E+00   -2.091E+00   -2.090E+00   -2.088E+00   -2.086E+00   -2.084E+00   -2.082E+00   -2.080E+00   -2.078E+00   -2.076E+00
    -2.075E+00   -2.073E+00   -2.071E+00   -2.069E+00   -2.067E+00   -2.065E+00   -2.063E+00   -2.061E+00   -2.060E+00   -2.058E+00
    -2.056E+00   -2.054E+00   -2.052E+00   -2.050E+00   -2.048E+00   -2.046E+00   -2.045E+00   -2.043E+00   -2.041E+00   -2.039E+00
    -2.037E+00   -2.035E+00   -2.033E+00   -2.032E+00   -2.030E+00   -2.028E+00   -2.026E+00   -2.024E+00   -2.022E+00   -2.020E+00
    -2.018E+00   -2.017E+00   -2.015E+00   -2.013E+00   -2.011E+00   -2.009E+00   -2.007E+00   -2.005E+00   -2.003E+00   -2.002E+00
    -2.000E+00   -1.998E+00   -1.996E+00   -1.994E+00   -1.992E+00   -1.990E+00   -1.988E+00   -1.987E+00   -1.985E+00   -1.983E+00
    -1.981E+00   -1.979E+00   -1.977E+00   -1.975E+00   -1.973E+00   -1.972E+00   -1.970E+00   -1.968E+00   -1.966E+00   -1.964E+00
    -1.962E+00   -1.960E+00   -1.959E+00   -1.957E+00   -1.955E+00   -1.953E+00   -1.951E+00   -1.949E+00   -1.947E+00   -1.945E+00
    -1.944E+00   -1.942E+00   -1.940E+00   -1.938E+00   -1.936E+00   -1.934E+00   -1.932E+00   -1.930E+00   -1.929E+00   -1.927E+00
    -1.925E+00   -1.923E+00   -1.921E+00   -1.919E+00   -1.917E+00   -1.915E+00   -1.914E+00   -1.912E+00   -1.910E+00   -1.908E+00
    -1.906E+00   -1.904E+00   -1.902E+00   -1.900E+00   -1.899E+00   -1.897E+00   -1.895E+00   -1.893E+00   -1.891E+00   -1.889E+00
    -1.887E+00   -1.886E+00   -1.884E+00   -1.882E+00   -1.880E+00   -1.878E+00   -1.876E+00   -1.874E+00   -1.872E+00   -1.871E+00
    -1.869E+00   -1.867E+00   -1.865E+00   -1.863E+00   -1.861E+00   -1.859E+00   -1.857E+00   -1.856E+00   -1.854E+00   -1.852E+00
    -1.850E+00   -1.848E+00   -1.846E+00   -1.844E+00   -1.842E+00   -1.841E+00   -1.839E+00   -1.837E+00   -1.835E+00   -1.833E+00
    -1.831E+00   -1.829E+00   -1.827E+00   -1.826E+00   -1.824E+00   -1.822E+00   -1.820E+00   -1.818E+00   -1.816E+00   -1.814E+00
    -1.812E+00   -1.811E+00   -1.809E+00   -1.807E+00   -1.805E+00   -1.803E+00   -1.801E+00   -1.799E+00   -1.797E+00   -1.796E+00
    -1.794E+00   -1.792E+00   -1.790E+00   -1.788E+00   -1.786E+00   -1.784E+00   -1.783E+00   -1.781E+00   -1.779E+00   -1.777E+00
    -1.775E+00   -1.773E+00   -1.771E+00   -1.769E+00   -1.768E+00   -1.766E+00   -1.764E+00   -1.762E+00   -1.760E+00   -1.758E+00
    -1.756E+00   -1.754E+00   -1.753E+00   -1.751E+00   -1.749E+00   -1.747E+00   -1.745E+00   -1.743E+00   -1.741E+00   -1.739E+00
    -1.738E+00   -1.736E+00   -1.734E+00   -1.732E+00   -1.730E+00   -1.728E+00   -1.726E+00   -1.724E+00   -1.723E+00   -1.721E+00
    -1.719E+00   -1.717E+00   -1.715E+00   -1.713E+00   -1.711E+00   -1.709E+00   -1.708E+00   -1.706E+00   -1.704E+00   -1.702E+00
    -1.700E+00   -1.698E+00   -1.696E+00   -1.694E+00   -1.692E+00   -1.691E+00   -1.689E+00   -1.687E+00   -1.685E+00   -1.683E+00
    -1.681E+00   -1.679E+00   -1.677E+00   -1.676E+00   -1.674E+00   -1.672E+00   -1.670E+00   -1.668E+00   -1.666E+00   -1.664E+00
    -1.662E+00   -1.661E+00   -1.659E+00   -1.657E+00   -1.655E+00   -1.653E+00   -1.651E+00   -1.649E+00   -1.647E+00   -1.646E+00
    -1.644E+00   -1.642E+00   -1.640E+00   -1.638E+00   -1.636E+00   -1.634E+00   -1.632E+00   -1.631E+00   -1.629E+00   -1.627E+00
    -1.625E+00   -1.623E+00   -1.621E+00   -1.619E+00   -1.617E+00   -1.615E+00   -1.614E+00   -1.612E+00   -1.610E+00   -1.608E+00
    -1.606E+00   -1.604E+00   -1.602E+00   -1.600E+00   -1.599E+00   -1.597E+00   -1.595E+00   -1.593E+00   -1.591E+00   -1.589E+00
    -1.587E+00   -1.585E+00   -1.584E+00   -1.582E+00   -1.580E+00   -1.578E+00   -1.576E+00   -1.574E+00   -1.572E+00   -1.570E+00
    -1.568E+00   -1.567E+00   -1.565E+00   -1.563E+00   -1.561E+00   -1.559E+00   -1.557E+00   -1.555E+00   -1.553E+00   -1.552E+00
    -1.550E+00   -1.548E+00   -1.546E+00   -1.544E+00   -1.542E+00   -1.540E+00   -1.538E+00   -1.536E+00   -1.535E+00   -1.533E+00
    -1.531E+00   -1.529E+00   -1.527E+00   -1.525E+00   -1.523E+00   -1.521E+00   -1.520E+00   -1.518E+00   -1.516E+00   -1.514E+00
    -1.512E+00   -1.510E+00   -1.508E+00   -1.506E+00   -1.504E+00   -1.503E+00   -1.501E+00   -1.499E+00   -1.497E+00   -1.495E+00
    -1.493E+00   -1.491E+00   -1.489E+00   -1.488E+00   -1.486E+00   -1.484E+00   -1.482E+00   -1.480E+00   -1.478E+00   -1.476E+00
    -1.474E+00   -1.472E+00   -1.471E+00   -1.469E+00   -1.467E+00   -1.465E+00   -1.463E+00   -1.461E+00   -1.459E+00   -1.457E+00
    -1.456E+00   -1.454E+00   -1.452E+00   -1.450E+00   -1.448E+00   -1.446E+00   -1.444E+00   -1.442E+00   -1.440E+00   -1.439E+00
    -1.437E+00   -1.435E+00   -1.433E+00   -1.431E+00   -1.429E+00   -1.427E+00   -1.425E+00   -1.424E+00   -1.422E+00   -1.420E+00
    -1.418E+00   -1.416E+00   -1.414E+00   -1.412E+00   -1.410E+00   -1.408E+00   -1.407E+00   -1.405E+00
 Asp      Conc. = 1.60E+01
