 LCModel (Version 6.3-1L) Copyright: S.W. Provencher.          Ref.: Magn. Reson. Med. 30:672-679 (1993).                
 Slice#3 Row#6 Col#11  PD_05_press_1_raw_act
 36 lines in following concentration table = NCONC+1
    Conc.  %SD /Cr+PCr  Metabolite                                         
  161.923  44%   0.207 Ala                                                 
    0.000 999%   0.000 Asp                                                 
  250.202  68%   0.320 Cr                                                  
  531.791  33%   0.680 PCr                                                 
    1.058 999% 1.4E-03 GABA                                                
    0.000 999%   0.000 Glc                                                 
  344.326  43%   0.440 Gln                                                 
  962.007  18%   1.230 Glu                                                 
  202.511   7%   0.259 GPC                                                 
    0.000 999%   0.000 PCh                                                 
  209.612  23%   0.268 GSH                                                 
  541.384  33%   0.692 Ins                                                 
   61.111 140% 7.8E-02 Lac                                                 
 1.34E+03   7%   1.708 NAA                                                 
  221.919  45%   0.284 NAAG                                                
   29.038  59% 3.7E-02 Scyllo                                              
    0.000 999%   0.000 Tau                                                 
  409.220  19%   0.523 -CrCH2                                              
  202.511   7%   0.259 GPC+PCh                                             
 1.56E+03   4%   1.992 NAA+NAAG                                            
  781.993   5%   1.000 Cr+PCr                                              
 1.31E+03  19%   1.671 Glu+Gln                                             
    0.000 999%   0.000 Lip13a                                              
  377.766  36%   0.483 Lip13b                                              
    0.000 999%   0.000 Lip09                                               
 1.00E+03  13%   1.280 MM09                                                
  105.117  57%   0.134 Lip20                                               
 2.29E+03  10%   2.935 MM20                                                
  311.493  23%   0.398 MM12                                                
    0.000 999%   0.000 MM14                                                
  568.643  24%   0.727 MM17                                                
  377.766  36%   0.483 Lip13a+Lip13b                                       
  689.259  22%   0.881 MM14+Lip13a+Lip13b+MM12                             
 1.00E+03  13%   1.280 MM09+Lip09                                          
 2.40E+03  10%   3.069 MM20+Lip20                                          
   6 lines in following misc. output table
  FWHM = 0.061 ppm    S/N =  12                                            
  Data shift = 0.008 ppm                                                   
  Ph:  30 deg      -0.3 deg/ppm                                            
  alphaB,S = 3.1E-01,   1.8E+02                                            
   14 spline knots.   Ns = 7(1)                                            
  (11) 4 infls.   ( 5) 1 extrs.                                            
  498 points on ppm-axis = NY
      4.000000     3.992357     3.984714     3.977070     3.969427     3.961784     3.954141     3.946497     3.938854     3.931211
      3.923568     3.915925     3.908281     3.900638     3.892995     3.885352     3.877708     3.870065     3.862422     3.854779
      3.847136     3.839492     3.831849     3.824206     3.816563     3.808919     3.801276     3.793633     3.785990     3.778347
      3.770703     3.763060     3.755417     3.747774     3.740130     3.732487     3.724844     3.717201     3.709558     3.701914
      3.694271     3.686628     3.678985     3.671341     3.663698     3.656055     3.648412     3.640769     3.633125     3.625482
      3.617839     3.610196     3.602552     3.594909     3.587266     3.579623     3.571980     3.564336     3.556693     3.549050
      3.541407     3.533763     3.526120     3.518477     3.510834     3.503191     3.495547     3.487904     3.480261     3.472618
      3.464974     3.457331     3.449688     3.442045     3.434402     3.426758     3.419115     3.411472     3.403829     3.396185
      3.388542     3.380899     3.373256     3.365613     3.357969     3.350326     3.342683     3.335040     3.327396     3.319753
      3.312110     3.304467     3.296824     3.289180     3.281537     3.273894     3.266251     3.258607     3.250964     3.243321
      3.235678     3.228034     3.220391     3.212748     3.205105     3.197462     3.189818     3.182175     3.174532     3.166889
      3.159245     3.151602     3.143959     3.136316     3.128673     3.121029     3.113386     3.105743     3.098100     3.090456
      3.082813     3.075170     3.067527     3.059884     3.052240     3.044597     3.036954     3.029311     3.021667     3.014024
      3.006381     2.998738     2.991095     2.983451     2.975808     2.968165     2.960522     2.952878     2.945235     2.937592
      2.929949     2.922306     2.914662     2.907019     2.899376     2.891733     2.884089     2.876446     2.868803     2.861160
      2.853517     2.845873     2.838230     2.830587     2.822944     2.815300     2.807657     2.800014     2.792371     2.784728
      2.777084     2.769441     2.761798     2.754155     2.746511     2.738868     2.731225     2.723582     2.715939     2.708295
      2.700652     2.693009     2.685366     2.677722     2.670079     2.662436     2.654793     2.647150     2.639506     2.631863
      2.624220     2.616577     2.608933     2.601290     2.593647     2.586004     2.578361     2.570717     2.563074     2.555431
      2.547788     2.540144     2.532501     2.524858     2.517215     2.509572     2.501928     2.494285     2.486642     2.478999
      2.471355     2.463712     2.456069     2.448426     2.440783     2.433139     2.425496     2.417853     2.410210     2.402566
      2.394923     2.387280     2.379637     2.371994     2.364350     2.356707     2.349064     2.341421     2.333777     2.326134
      2.318491     2.310848     2.303205     2.295561     2.287918     2.280275     2.272632     2.264988     2.257345     2.249702
      2.242059     2.234416     2.226772     2.219129     2.211486     2.203843     2.196199     2.188556     2.180913     2.173270
      2.165627     2.157983     2.150340     2.142697     2.135054     2.127410     2.119767     2.112124     2.104481     2.096838
      2.089194     2.081551     2.073908     2.066265     2.058621     2.050978     2.043335     2.035692     2.028049     2.020405
      2.012762     2.005119     1.997476     1.989833     1.982190     1.974546     1.966903     1.959260     1.951617     1.943974
      1.936331     1.928688     1.921045     1.913402     1.905759     1.898115     1.890472     1.882829     1.875186     1.867543
      1.859900     1.852257     1.844614     1.836971     1.829327     1.821684     1.814041     1.806398     1.798755     1.791112
      1.783469     1.775826     1.768183     1.760540     1.752896     1.745253     1.737610     1.729967     1.722324     1.714681
      1.707038     1.699395     1.691752     1.684108     1.676465     1.668822     1.661179     1.653536     1.645893     1.638250
      1.630607     1.622964     1.615321     1.607677     1.600034     1.592391     1.584748     1.577105     1.569462     1.561819
      1.554176     1.546533     1.538890     1.531246     1.523603     1.515960     1.508317     1.500674     1.493031     1.485388
      1.477745     1.470102     1.462458     1.454815     1.447172     1.439529     1.431886     1.424243     1.416600     1.408957
      1.401314     1.393671     1.386027     1.378384     1.370741     1.363098     1.355455     1.347812     1.340169     1.332526
      1.324883     1.317240     1.309596     1.301953     1.294310     1.286667     1.279024     1.271381     1.263738     1.256095
      1.248452     1.240808     1.233165     1.225522     1.217879     1.210236     1.202593     1.194950     1.187307     1.179664
      1.172021     1.164377     1.156734     1.149091     1.141448     1.133805     1.126162     1.118519     1.110876     1.103233
      1.095590     1.087946     1.080303     1.072660     1.065017     1.057374     1.049731     1.042088     1.034445     1.026802
      1.019158     1.011515     1.003872     0.996229     0.988586     0.980943     0.973300     0.965657     0.958014     0.950371
      0.942727     0.935084     0.927441     0.919798     0.912155     0.904512     0.896869     0.889226     0.881583     0.873940
      0.866296     0.858653     0.851010     0.843367     0.835724     0.828081     0.820438     0.812795     0.805152     0.797508
      0.789865     0.782222     0.774579     0.766936     0.759293     0.751650     0.744007     0.736364     0.728721     0.721077
      0.713434     0.705791     0.698148     0.690505     0.682862     0.675219     0.667576     0.659933     0.652290     0.644646
      0.637003     0.629360     0.621717     0.614074     0.606431     0.598788     0.591145     0.583502     0.575858     0.568215
      0.560572     0.552929     0.545286     0.537643     0.530000     0.522357     0.514714     0.507071     0.499427     0.491784
      0.484141     0.476498     0.468855     0.461212     0.453569     0.445925     0.438282     0.430639     0.422996     0.415353
      0.407710     0.400067     0.392424     0.384780     0.377137     0.369494     0.361851     0.354208     0.346565     0.338922
      0.331278     0.323635     0.315992     0.308349     0.300706     0.293063     0.285420     0.277777     0.270133     0.262490
      0.254847     0.247204     0.239561     0.231918     0.224275     0.216631     0.208988     0.201345
 NY phased data points follow
   1.53073E+00  3.56542E+00  2.95156E+00  3.22512E+00  3.49546E+00  5.31563E+00  5.79709E+00  7.37871E+00  6.91192E+00  9.86602E+00
   1.09811E+01  1.08033E+01  1.04848E+01  9.11194E+00  9.13908E+00  6.48402E+00  5.23243E+00  3.85671E+00  4.79031E+00  5.90254E+00
   4.36010E+00  4.84814E+00  2.27186E+00  4.13168E+00  5.65938E+00  5.71475E+00  7.25770E+00  8.28990E+00  8.99404E+00  4.56173E+00
   5.42011E+00  7.21996E+00  5.20748E+00  7.41770E+00  3.94064E+00  6.18552E+00  6.33631E+00  6.52335E+00  6.72706E+00  7.06159E+00
   6.23387E+00  1.01270E+01  5.83600E+00  9.24138E+00  1.15765E+01  1.03200E+01  9.75937E+00  9.13411E+00  1.12321E+01  1.09860E+01
   7.34678E+00  9.62589E+00  6.01547E+00  6.92998E+00  8.17759E+00  5.57957E+00  4.70189E+00  6.39804E+00  7.81313E+00  7.23213E+00
   2.96295E+00  4.29359E+00  3.55874E+00  1.80536E+00  2.27504E+00  9.18454E-01  2.30591E+00  2.40469E+00  1.17837E+00  2.67174E+00
   4.30175E+00  2.42353E+00  2.70845E+00  4.60718E+00  4.31314E+00  1.90711E+00  2.63734E+00  4.66133E+00  3.33341E+00  3.31053E-01
   2.48470E+00  3.88599E+00  1.89359E+00  3.51486E+00  2.61840E+00  4.31111E+00  7.73141E+00  6.38642E+00  4.47671E+00  7.60566E+00
   4.08892E+00  7.12444E+00  4.58525E+00  8.10040E+00  9.64128E+00  7.60191E+00  9.07757E+00  1.24267E+01  1.28234E+01  1.27505E+01
   1.68862E+01  1.90069E+01  2.35017E+01  2.38250E+01  2.51169E+01  2.15154E+01  1.61543E+01  1.40061E+01  1.00705E+01  9.22834E+00
   4.58853E+00  5.43641E+00  6.57852E+00  6.95750E+00  8.04601E+00  7.66754E+00  7.69693E+00  1.01956E+01  1.00711E+01  1.09254E+01
   1.15974E+01  1.76200E+01  2.08215E+01  1.92044E+01  2.51353E+01  2.85704E+01  3.33159E+01  3.33188E+01  3.24861E+01  3.32577E+01
   2.76715E+01  2.22333E+01  1.80395E+01  1.35030E+01  1.20834E+01  1.14694E+01  1.20330E+01  1.29033E+01  1.31691E+01  1.26332E+01
   1.24630E+01  1.07167E+01  1.09940E+01  1.21817E+01  1.36942E+01  9.72247E+00  1.43082E+01  1.05820E+01  1.17507E+01  1.07322E+01
   1.03389E+01  1.05349E+01  1.01189E+01  1.24708E+01  1.00573E+01  1.12410E+01  1.09890E+01  1.13131E+01  1.15797E+01  9.87824E+00
   1.02462E+01  1.11541E+01  1.10439E+01  9.33565E+00  9.35575E+00  9.13810E+00  1.01317E+01  1.09921E+01  8.74901E+00  7.89882E+00
   8.01433E+00  5.63553E+00  6.20807E+00  6.59926E+00  3.09578E+00  6.15214E+00  4.93530E+00  1.27594E+00  4.37486E+00  7.02976E+00
   6.88715E+00  6.94304E+00  6.08875E+00  1.09135E+01  8.34503E+00  7.02832E+00  7.38223E+00  9.46628E+00  8.45057E+00  9.61387E+00
   1.01901E+01  1.18654E+01  1.13592E+01  1.23380E+01  1.05620E+01  1.25506E+01  9.81598E+00  8.70193E+00  1.09297E+01  1.16405E+01
   1.22528E+01  1.24557E+01  1.33482E+01  1.67678E+01  1.59421E+01  1.52927E+01  1.53416E+01  1.75800E+01  1.47360E+01  1.20435E+01
   1.43794E+01  1.70172E+01  1.84812E+01  2.10750E+01  2.28925E+01  2.16093E+01  2.19366E+01  2.24092E+01  2.02714E+01  1.94698E+01
   1.64425E+01  1.37596E+01  1.23600E+01  1.53623E+01  1.52595E+01  1.70930E+01  2.00987E+01  2.03271E+01  1.96473E+01  2.04230E+01
   1.79062E+01  1.99518E+01  2.17302E+01  1.87160E+01  2.09211E+01  2.10595E+01  1.92784E+01  2.10660E+01  2.17916E+01  1.85205E+01
   1.73522E+01  2.13188E+01  1.72580E+01  1.82642E+01  1.93625E+01  1.96042E+01  2.43929E+01  2.45027E+01  2.54323E+01  2.68417E+01
   2.95629E+01  3.17275E+01  3.15266E+01  3.47239E+01  4.07027E+01  4.46803E+01  5.00691E+01  5.45535E+01  6.39122E+01  6.81890E+01
   7.24929E+01  6.60627E+01  6.08478E+01  4.76971E+01  3.68501E+01  3.06846E+01  2.45059E+01  2.26926E+01  2.11104E+01  2.06529E+01
   1.97906E+01  1.99835E+01  2.09117E+01  1.99532E+01  2.24765E+01  2.17781E+01  2.02343E+01  1.86241E+01  1.90011E+01  1.99609E+01
   1.57462E+01  1.65409E+01  1.55624E+01  1.66197E+01  1.52423E+01  1.40196E+01  1.42585E+01  1.49569E+01  1.40198E+01  1.40317E+01
   1.57520E+01  1.35778E+01  1.40935E+01  1.66280E+01  1.26166E+01  1.24144E+01  1.29422E+01  1.36459E+01  1.40239E+01  1.33172E+01
   1.35277E+01  1.36033E+01  1.45836E+01  1.17781E+01  1.16356E+01  1.44100E+01  1.11414E+01  1.11105E+01  1.38241E+01  1.02808E+01
   1.35936E+01  9.47501E+00  8.50831E+00  1.04055E+01  8.51747E+00  8.94851E+00  7.21230E+00  8.61147E+00  8.29911E+00  8.50366E+00
   6.83853E+00  6.84175E+00  7.49367E+00  6.20218E+00  5.59465E+00  4.82930E+00  2.55022E+00  3.30164E+00  6.90953E+00  7.00721E-01
   4.84748E+00  2.65425E+00  3.01780E+00  1.64308E+00 -6.95481E-01  5.77645E-01  7.19766E-02  2.58077E+00  3.71347E+00  5.61186E+00
   5.54860E+00  4.22213E+00  7.11934E+00  8.21369E+00  5.82102E+00  8.95695E+00  5.48738E+00  3.88974E+00  3.05914E+00  5.04660E+00
   3.61751E+00  7.91329E+00  6.80405E+00  5.73302E+00  9.91183E+00  8.30377E+00  7.08702E+00  7.53163E+00  6.94986E+00  7.02264E+00
   5.50431E+00  6.30898E+00  3.23225E+00  3.47185E+00  5.18383E+00  3.28614E+00  4.16448E+00  4.19437E+00  6.38731E+00  4.46419E+00
   3.78587E+00  3.69698E+00  4.00021E+00  1.13454E+00  1.89366E+00  3.61377E+00 -4.07603E-02  1.99967E+00  2.50522E+00  7.57473E-01
   7.05179E-01  4.42546E-01  5.61727E-01  1.43911E+00 -8.74632E-01 -1.50101E+00  1.24447E+00 -4.68838E-01  4.62141E-01 -2.56861E-01
  -1.26244E-01  5.80497E-01  3.31776E+00  4.13008E+00  1.74646E+00  2.99965E+00  4.20895E+00  4.16382E+00  5.49995E+00  6.76681E+00
   3.53955E+00  6.47061E+00  7.86292E+00  5.42944E+00  3.56547E+00  6.11886E+00  6.02566E+00  5.39323E+00  3.82665E+00  5.10032E+00
   3.28415E+00  3.35966E+00  2.72337E+00  5.87898E-01  9.20796E-01  3.19514E+00  1.10010E-01  2.54401E+00 -1.46471E+00  1.94875E+00
  -7.08319E-01 -1.29798E+00 -2.01994E+00 -1.50070E+00  2.08742E-01 -2.22402E+00  2.21315E+00  3.59889E+00  7.41350E-02  4.91990E-02
  -2.41475E-01  1.24095E-01 -1.25849E+00  4.19134E-01  1.15058E-01 -1.43975E+00  8.36607E-01 -7.36714E-01 -9.56859E-01  1.16746E+00
   5.83286E-01  5.56609E-01 -2.43004E-01 -2.62374E+00 -1.52005E+00 -6.94505E-01 -6.25966E-01 -1.90321E+00  3.35183E-01  9.20922E-01
  -3.43473E+00 -1.81209E+00 -3.42538E-01 -1.09826E+00 -6.89838E-01 -1.43926E+00 -2.18135E+00 -2.45429E+00  1.52164E-01  9.37760E-01
  -1.73263E+00 -5.47054E-01 -1.20531E+00  3.14991E-02 -2.08935E+00 -1.14755E+00 -2.31717E+00 -7.03806E-01 -2.40744E+00 -1.72065E+00
  -9.84042E-01  2.13445E-02  3.46267E-01 -5.09317E-01  8.19910E-01 -1.12831E+00 -2.48822E+00 -1.18502E+00 -1.12781E+00 -9.25058E-01
  -2.65381E+00 -3.63124E+00 -1.59019E+00 -3.36038E-01 -2.86405E-01 -2.91529E+00 -2.51029E+00 -1.79926E+00  1.11030E+00 -8.65516E-01
  -2.54738E+00 -5.19996E-01 -1.22117E+00 -2.35690E+00 -1.32492E+00  5.34102E-01 -3.51324E+00 -8.84458E-01
 NY points of the fit to the data follow
   2.38086E+00  2.35133E+00  2.56499E+00  3.01891E+00  3.80459E+00  4.92377E+00  6.17153E+00  7.42600E+00  8.64593E+00  9.74513E+00
   1.05416E+01  1.08225E+01  1.04824E+01  9.59917E+00  8.38605E+00  7.11814E+00  6.02731E+00  5.23357E+00  4.75474E+00  4.52686E+00
   4.44693E+00  4.35698E+00  4.31687E+00  4.49932E+00  4.79797E+00  5.13798E+00  5.56144E+00  6.17389E+00  6.98379E+00  7.81546E+00
   8.50615E+00  8.93298E+00  8.96452E+00  8.57712E+00  7.85189E+00  6.91925E+00  5.95222E+00  5.08531E+00  4.44218E+00  4.17451E+00
   4.38907E+00  5.00054E+00  5.78237E+00  6.56459E+00  7.27952E+00  7.89379E+00  8.32745E+00  8.47355E+00  8.25954E+00  7.68687E+00
   6.84575E+00  5.91888E+00  5.14107E+00  4.66171E+00  4.50464E+00  4.59509E+00  4.81643E+00  5.07654E+00  5.31060E+00  5.46676E+00
   5.51049E+00  5.41653E+00  5.19780E+00  4.90150E+00  4.62397E+00  4.46364E+00  4.45256E+00  4.57269E+00  4.77745E+00  5.01251E+00
   5.22412E+00  5.37012E+00  5.43129E+00  5.41088E+00  5.32973E+00  5.21874E+00  5.11046E+00  5.02944E+00  4.99091E+00  5.01829E+00
   5.12461E+00  5.22960E+00  5.29533E+00  5.34452E+00  5.39523E+00  5.42761E+00  5.40780E+00  5.32157E+00  5.18172E+00  5.04206E+00
   4.94760E+00  4.92727E+00  4.98838E+00  5.11892E+00  5.33732E+00  6.01562E+00  7.75397E+00  1.00398E+01  1.24181E+01  1.49779E+01
   1.78821E+01  2.08661E+01  2.32315E+01  2.42319E+01  2.34569E+01  2.10189E+01  1.75438E+01  1.39409E+01  1.09649E+01  8.97035E+00
   7.92598E+00  7.53966E+00  7.45493E+00  7.47105E+00  7.52741E+00  7.60933E+00  7.71617E+00  7.86594E+00  8.13005E+00  8.91716E+00
   1.11067E+01  1.43019E+01  1.77452E+01  2.13571E+01  2.53168E+01  2.93906E+01  3.27930E+01  3.45411E+01  3.39726E+01  3.11164E+01
   2.66906E+01  2.18256E+01  1.75564E+01  1.44165E+01  1.24649E+01  1.14154E+01  1.08708E+01  1.06152E+01  1.05975E+01  1.07716E+01
   1.10429E+01  1.12978E+01  1.14440E+01  1.14416E+01  1.13124E+01  1.11141E+01  1.09056E+01  1.07166E+01  1.05561E+01  1.04322E+01
   1.03386E+01  1.02680E+01  1.02217E+01  1.01689E+01  1.00632E+01  9.94658E+00  9.86085E+00  9.81729E+00  9.79624E+00  9.71813E+00
   9.59002E+00  9.48938E+00  9.47371E+00  9.52843E+00  9.59286E+00  9.59235E+00  9.47422E+00  9.23490E+00  8.90669E+00  8.53646E+00
   8.24555E+00  8.10666E+00  8.06493E+00  8.02126E+00  7.91660E+00  7.83476E+00  7.86710E+00  8.02588E+00  8.23762E+00  8.41004E+00
   8.48614E+00  8.55657E+00  8.71358E+00  8.99183E+00  9.40123E+00  9.94922E+00  1.06103E+01  1.13496E+01  1.21285E+01  1.28754E+01
   1.34689E+01  1.37666E+01  1.37670E+01  1.35600E+01  1.32724E+01  1.30288E+01  1.29715E+01  1.32020E+01  1.37013E+01  1.43899E+01
   1.51506E+01  1.58224E+01  1.62433E+01  1.62752E+01  1.59412E+01  1.52551E+01  1.42392E+01  1.31214E+01  1.22154E+01  1.18677E+01
   1.22137E+01  1.30976E+01  1.43895E+01  1.59462E+01  1.74972E+01  1.86089E+01  1.88924E+01  1.83032E+01  1.70738E+01  1.54500E+01
   1.37608E+01  1.24427E+01  1.18828E+01  1.22515E+01  1.34153E+01  1.50538E+01  1.68048E+01  1.83118E+01  1.93034E+01  1.97447E+01
   1.98353E+01  1.97860E+01  1.97632E+01  1.98873E+01  2.01749E+01  2.05328E+01  2.08275E+01  2.10002E+01  2.10518E+01  2.09739E+01
   2.07688E+01  2.05504E+01  2.04930E+01  2.07172E+01  2.12286E+01  2.19464E+01  2.27624E+01  2.35586E+01  2.43257E+01  2.52733E+01
   2.63556E+01  2.75194E+01  2.94073E+01  3.38065E+01  4.00966E+01  4.64981E+01  5.24755E+01  5.82501E+01  6.35745E+01  6.73223E+01
   6.81836E+01  6.53662E+01  5.89952E+01  5.02016E+01  4.08483E+01  3.26753E+01  2.66598E+01  2.29319E+01  2.09619E+01  1.99205E+01
   1.92354E+01  1.87110E+01  1.82970E+01  1.79568E+01  1.76474E+01  1.73393E+01  1.70165E+01  1.66740E+01  1.63185E+01  1.59709E+01
   1.56544E+01  1.53839E+01  1.51618E+01  1.49797E+01  1.48259E+01  1.46931E+01  1.45757E+01  1.44701E+01  1.43772E+01  1.43006E+01
   1.42437E+01  1.42041E+01  1.41723E+01  1.41389E+01  1.40946E+01  1.40304E+01  1.39405E+01  1.38231E+01  1.36792E+01  1.35113E+01
   1.33216E+01  1.31108E+01  1.28782E+01  1.26228E+01  1.23442E+01  1.20438E+01  1.17248E+01  1.13915E+01  1.10494E+01  1.07039E+01
   1.03597E+01  1.00213E+01  9.69219E+00  9.37556E+00  9.07422E+00  8.79091E+00  8.52875E+00  8.29155E+00  8.08530E+00  7.92186E+00
   7.83186E+00  7.84069E+00  7.83394E+00  7.73765E+00  7.57058E+00  7.33925E+00  6.98967E+00  6.44091E+00  5.66850E+00  4.83287E+00
   4.10099E+00  3.55116E+00  3.25972E+00  3.28972E+00  3.63845E+00  4.21164E+00  4.84994E+00  5.38949E+00  5.72274E+00  5.82225E+00
   5.74736E+00  5.56775E+00  5.34581E+00  5.16185E+00  5.06423E+00  5.03976E+00  5.04261E+00  5.04694E+00  5.09677E+00  5.23327E+00
   5.46518E+00  5.79959E+00  6.23410E+00  6.73267E+00  7.22072E+00  7.60367E+00  7.79694E+00  7.75323E+00  7.47337E+00  7.00177E+00
   6.40982E+00  5.77209E+00  5.14945E+00  4.58025E+00  4.07927E+00  3.64767E+00  3.28196E+00  2.97544E+00  2.71919E+00  2.50344E+00
   2.31923E+00  2.15910E+00  2.01773E+00  1.89155E+00  1.77874E+00  1.67861E+00  1.59156E+00  1.51855E+00  1.46107E+00  1.42070E+00
   1.39919E+00  1.39815E+00  1.41930E+00  1.46416E+00  1.53416E+00  1.63031E+00  1.75337E+00  1.90354E+00  2.08065E+00  2.28378E+00
   2.51134E+00  2.76078E+00  3.02869E+00  3.31067E+00  3.60156E+00  3.89523E+00  4.18490E+00  4.46311E+00  4.72224E+00  4.95460E+00
   5.15294E+00  5.31056E+00  5.42178E+00  5.48205E+00  5.48842E+00  5.43953E+00  5.33584E+00  5.17935E+00  4.97372E+00  4.72383E+00
   4.43583E+00  4.11663E+00  3.77371E+00  3.41457E+00  3.04660E+00  2.67669E+00  2.31121E+00  1.95560E+00  1.61446E+00  1.29126E+00
   9.88608E-01  7.08136E-01  4.50794E-01  2.16718E-01  5.53287E-03 -1.83721E-01 -3.52220E-01 -5.01428E-01 -6.32817E-01 -7.48031E-01
  -8.48633E-01 -9.36241E-01 -1.01225E+00 -1.07802E+00 -1.13468E+00 -1.18339E+00 -1.22509E+00 -1.26072E+00 -1.29098E+00 -1.31655E+00
  -1.33795E+00 -1.35575E+00 -1.37038E+00 -1.38230E+00 -1.39177E+00 -1.39912E+00 -1.40457E+00 -1.40845E+00 -1.41094E+00 -1.41228E+00
  -1.41257E+00 -1.41200E+00 -1.41068E+00 -1.40882E+00 -1.40644E+00 -1.40364E+00 -1.40041E+00 -1.39682E+00 -1.39290E+00 -1.38877E+00
  -1.38440E+00 -1.37985E+00 -1.37507E+00 -1.37013E+00 -1.36504E+00 -1.35989E+00 -1.35461E+00 -1.34924E+00 -1.34375E+00 -1.33819E+00
  -1.33257E+00 -1.32693E+00 -1.32121E+00 -1.31544E+00 -1.30956E+00 -1.30367E+00 -1.29773E+00 -1.29178E+00 -1.28575E+00 -1.27966E+00
  -1.27349E+00 -1.26731E+00 -1.26106E+00 -1.25479E+00 -1.24840E+00 -1.24194E+00 -1.23537E+00 -1.22878E+00 -1.22208E+00 -1.21530E+00
  -1.20835E+00 -1.20130E+00 -1.19411E+00 -1.18684E+00 -1.17938E+00 -1.17177E+00 -1.16392E+00 -1.15589E+00
 NY background values follow
     1.542E+00    1.575E+00    1.609E+00    1.642E+00    1.675E+00    1.708E+00    1.741E+00    1.774E+00    1.807E+00    1.840E+00
     1.873E+00    1.906E+00    1.939E+00    1.972E+00    2.005E+00    2.037E+00    2.070E+00    2.103E+00    2.136E+00    2.168E+00
     2.201E+00    2.234E+00    2.266E+00    2.299E+00    2.331E+00    2.364E+00    2.396E+00    2.429E+00    2.461E+00    2.494E+00
     2.526E+00    2.559E+00    2.591E+00    2.624E+00    2.656E+00    2.688E+00    2.721E+00    2.753E+00    2.785E+00    2.818E+00
     2.850E+00    2.882E+00    2.915E+00    2.947E+00    2.979E+00    3.012E+00    3.044E+00    3.076E+00    3.109E+00    3.141E+00
     3.174E+00    3.206E+00    3.239E+00    3.272E+00    3.306E+00    3.339E+00    3.373E+00    3.407E+00    3.441E+00    3.476E+00
     3.510E+00    3.546E+00    3.582E+00    3.618E+00    3.654E+00    3.692E+00    3.729E+00    3.767E+00    3.806E+00    3.846E+00
     3.886E+00    3.926E+00    3.967E+00    4.009E+00    4.052E+00    4.096E+00    4.140E+00    4.185E+00    4.231E+00    4.277E+00
     4.325E+00    4.374E+00    4.423E+00    4.473E+00    4.525E+00    4.577E+00    4.630E+00    4.685E+00    4.741E+00    4.797E+00
     4.855E+00    4.914E+00    4.974E+00    5.035E+00    5.098E+00    5.161E+00    5.225E+00    5.290E+00    5.356E+00    5.423E+00
     5.491E+00    5.560E+00    5.629E+00    5.699E+00    5.769E+00    5.840E+00    5.912E+00    5.984E+00    6.057E+00    6.130E+00
     6.203E+00    6.277E+00    6.351E+00    6.425E+00    6.500E+00    6.574E+00    6.649E+00    6.724E+00    6.798E+00    6.873E+00
     6.948E+00    7.023E+00    7.097E+00    7.171E+00    7.245E+00    7.319E+00    7.393E+00    7.466E+00    7.538E+00    7.611E+00
     7.682E+00    7.753E+00    7.824E+00    7.894E+00    7.963E+00    8.032E+00    8.100E+00    8.167E+00    8.233E+00    8.299E+00
     8.364E+00    8.429E+00    8.493E+00    8.556E+00    8.619E+00    8.682E+00    8.744E+00    8.806E+00    8.868E+00    8.929E+00
     8.990E+00    9.052E+00    9.113E+00    9.173E+00    9.234E+00    9.295E+00    9.356E+00    9.418E+00    9.479E+00    9.540E+00
     9.602E+00    9.664E+00    9.727E+00    9.789E+00    9.853E+00    9.916E+00    9.980E+00    1.005E+01    1.011E+01    1.018E+01
     1.024E+01    1.031E+01    1.038E+01    1.045E+01    1.052E+01    1.059E+01    1.066E+01    1.073E+01    1.081E+01    1.088E+01
     1.096E+01    1.103E+01    1.111E+01    1.119E+01    1.127E+01    1.135E+01    1.144E+01    1.152E+01    1.160E+01    1.169E+01
     1.177E+01    1.185E+01    1.194E+01    1.202E+01    1.211E+01    1.220E+01    1.228E+01    1.236E+01    1.245E+01    1.253E+01
     1.262E+01    1.270E+01    1.278E+01    1.286E+01    1.294E+01    1.302E+01    1.310E+01    1.318E+01    1.325E+01    1.333E+01
     1.340E+01    1.347E+01    1.354E+01    1.361E+01    1.368E+01    1.374E+01    1.381E+01    1.387E+01    1.392E+01    1.398E+01
     1.403E+01    1.409E+01    1.413E+01    1.418E+01    1.422E+01    1.426E+01    1.430E+01    1.434E+01    1.437E+01    1.439E+01
     1.442E+01    1.444E+01    1.446E+01    1.448E+01    1.449E+01    1.450E+01    1.451E+01    1.451E+01    1.451E+01    1.451E+01
     1.451E+01    1.450E+01    1.449E+01    1.447E+01    1.446E+01    1.443E+01    1.441E+01    1.439E+01    1.436E+01    1.432E+01
     1.429E+01    1.425E+01    1.421E+01    1.417E+01    1.412E+01    1.407E+01    1.401E+01    1.396E+01    1.390E+01    1.384E+01
     1.377E+01    1.370E+01    1.363E+01    1.356E+01    1.348E+01    1.340E+01    1.332E+01    1.323E+01    1.314E+01    1.305E+01
     1.295E+01    1.285E+01    1.275E+01    1.265E+01    1.254E+01    1.243E+01    1.232E+01    1.220E+01    1.209E+01    1.197E+01
     1.184E+01    1.172E+01    1.159E+01    1.146E+01    1.133E+01    1.120E+01    1.106E+01    1.093E+01    1.079E+01    1.065E+01
     1.051E+01    1.036E+01    1.022E+01    1.007E+01    9.927E+00    9.779E+00    9.629E+00    9.479E+00    9.327E+00    9.175E+00
     9.022E+00    8.868E+00    8.714E+00    8.559E+00    8.404E+00    8.248E+00    8.092E+00    7.936E+00    7.780E+00    7.624E+00
     7.467E+00    7.311E+00    7.155E+00    6.999E+00    6.844E+00    6.689E+00    6.534E+00    6.380E+00    6.227E+00    6.075E+00
     5.923E+00    5.771E+00    5.621E+00    5.471E+00    5.322E+00    5.174E+00    5.027E+00    4.880E+00    4.735E+00    4.590E+00
     4.447E+00    4.304E+00    4.163E+00    4.022E+00    3.883E+00    3.744E+00    3.607E+00    3.471E+00    3.336E+00    3.202E+00
     3.070E+00    2.939E+00    2.809E+00    2.680E+00    2.553E+00    2.427E+00    2.303E+00    2.180E+00    2.059E+00    1.939E+00
     1.820E+00    1.703E+00    1.588E+00    1.475E+00    1.362E+00    1.252E+00    1.143E+00    1.036E+00    9.312E-01    8.278E-01
     7.262E-01    6.264E-01    5.284E-01    4.324E-01    3.382E-01    2.459E-01    1.554E-01    6.683E-02   -1.990E-02   -1.048E-01
    -1.878E-01   -2.690E-01   -3.483E-01   -4.258E-01   -5.014E-01   -5.752E-01   -6.472E-01   -7.173E-01   -7.856E-01   -8.521E-01
    -9.168E-01   -9.796E-01   -1.041E+00   -1.100E+00   -1.157E+00   -1.213E+00   -1.267E+00   -1.318E+00   -1.369E+00   -1.417E+00
    -1.464E+00   -1.508E+00   -1.551E+00   -1.593E+00   -1.632E+00   -1.670E+00   -1.705E+00   -1.740E+00   -1.772E+00   -1.802E+00
    -1.831E+00   -1.858E+00   -1.883E+00   -1.907E+00   -1.929E+00   -1.949E+00   -1.967E+00   -1.983E+00   -1.998E+00   -2.011E+00
    -2.023E+00   -2.033E+00   -2.041E+00   -2.048E+00   -2.053E+00   -2.057E+00   -2.060E+00   -2.061E+00   -2.061E+00   -2.060E+00
    -2.058E+00   -2.054E+00   -2.050E+00   -2.044E+00   -2.037E+00   -2.030E+00   -2.022E+00   -2.012E+00   -2.002E+00   -1.991E+00
    -1.980E+00   -1.968E+00   -1.955E+00   -1.941E+00   -1.927E+00   -1.913E+00   -1.898E+00   -1.883E+00   -1.867E+00   -1.851E+00
    -1.835E+00   -1.819E+00   -1.802E+00   -1.786E+00   -1.769E+00   -1.752E+00   -1.735E+00   -1.719E+00   -1.702E+00   -1.686E+00
    -1.670E+00   -1.654E+00   -1.638E+00   -1.623E+00   -1.608E+00   -1.593E+00   -1.579E+00   -1.565E+00   -1.551E+00   -1.537E+00
    -1.524E+00   -1.511E+00   -1.499E+00   -1.486E+00   -1.474E+00   -1.462E+00   -1.450E+00   -1.439E+00   -1.427E+00   -1.416E+00
    -1.405E+00   -1.395E+00   -1.384E+00   -1.374E+00   -1.363E+00   -1.353E+00   -1.343E+00   -1.333E+00   -1.324E+00   -1.314E+00
    -1.305E+00   -1.295E+00   -1.286E+00   -1.277E+00   -1.267E+00   -1.258E+00   -1.249E+00   -1.240E+00   -1.231E+00   -1.222E+00
    -1.213E+00   -1.204E+00   -1.195E+00   -1.186E+00   -1.177E+00   -1.168E+00   -1.159E+00   -1.150E+00
 Ala      Conc. = 1.62E+02
