 LCModel (Version 6.3-1L) Copyright: S.W. Provencher.          Ref.: Magn. Reson. Med. 30:672-679 (1993).                
 Slice#2 Row#10 Col#12  PD_05_press_1_raw_act
 36 lines in following concentration table = NCONC+1
    Conc.  %SD /Cr+PCr  Metabolite                                         
   78.060  63%   0.367 Ala                                                 
   60.029  98%   0.282 Asp                                                 
    0.000 999%   0.000 Cr                                                  
  212.529  10%   1.000 PCr                                                 
   26.058 145%   0.123 GABA                                                
   64.612  57%   0.304 Glc                                                 
  246.310  42%   1.159 Gln                                                 
  651.145  19%   3.064 Glu                                                 
    0.000 999%   0.000 GPC                                                 
   53.033  15%   0.250 PCh                                                 
   20.370 144% 9.6E-02 GSH                                                 
  344.366  30%   1.620 Ins                                                 
    0.000 999%   0.000 Lac                                                 
  870.018   8%   4.094 NAA                                                 
   54.608 132%   0.257 NAAG                                                
   30.455  28%   0.143 Scyllo                                              
  138.552  41%   0.652 Tau                                                 
   93.652  34%   0.441 -CrCH2                                              
   53.033  15%   0.250 GPC+PCh                                             
  924.626   4%   4.351 NAA+NAAG                                            
  212.529  10%   1.000 Cr+PCr                                              
  897.456  20%   4.223 Glu+Gln                                             
 1.20E+03  24%   5.666 Lip13a                                              
    0.000 999%   0.000 Lip13b                                              
  147.646  74%   0.695 Lip09                                               
  341.719  32%   1.608 MM09                                                
  156.212  46%   0.735 Lip20                                               
  607.860  26%   2.860 MM20                                                
  110.700  53%   0.521 MM12                                                
  999.037  18%   4.701+MM14                                                
  666.128  17%   3.134+MM17                                                
 1.20E+03  24%   5.666 Lip13a+Lip13b                                       
 2.31E+03  10%  10.888 MM14+Lip13a+Lip13b+MM12                             
  489.365  17%   2.303 MM09+Lip09                                          
  764.071  20%   3.595 MM20+Lip20                                          
   6 lines in following misc. output table
  FWHM = 0.069 ppm    S/N =  11                                            
  Data shift = 0.000 ppm                                                   
  Ph: -68 deg     -35.1 deg/ppm                                            
  alphaB,S = 6.3E-01,   2.2E+02                                            
   14 spline knots.   Ns = 8(1)                                            
  (11) 3 infls.   ( 5) 1 extrs.                                            
  498 points on ppm-axis = NY
      4.000000     3.992357     3.984714     3.977070     3.969427     3.961784     3.954141     3.946497     3.938854     3.931211
      3.923568     3.915925     3.908281     3.900638     3.892995     3.885352     3.877708     3.870065     3.862422     3.854779
      3.847136     3.839492     3.831849     3.824206     3.816563     3.808919     3.801276     3.793633     3.785990     3.778347
      3.770703     3.763060     3.755417     3.747774     3.740130     3.732487     3.724844     3.717201     3.709558     3.701914
      3.694271     3.686628     3.678985     3.671341     3.663698     3.656055     3.648412     3.640769     3.633125     3.625482
      3.617839     3.610196     3.602552     3.594909     3.587266     3.579623     3.571980     3.564336     3.556693     3.549050
      3.541407     3.533763     3.526120     3.518477     3.510834     3.503191     3.495547     3.487904     3.480261     3.472618
      3.464974     3.457331     3.449688     3.442045     3.434402     3.426758     3.419115     3.411472     3.403829     3.396185
      3.388542     3.380899     3.373256     3.365613     3.357969     3.350326     3.342683     3.335040     3.327396     3.319753
      3.312110     3.304467     3.296824     3.289180     3.281537     3.273894     3.266251     3.258607     3.250964     3.243321
      3.235678     3.228034     3.220391     3.212748     3.205105     3.197462     3.189818     3.182175     3.174532     3.166889
      3.159245     3.151602     3.143959     3.136316     3.128673     3.121029     3.113386     3.105743     3.098100     3.090456
      3.082813     3.075170     3.067527     3.059884     3.052240     3.044597     3.036954     3.029311     3.021667     3.014024
      3.006381     2.998738     2.991095     2.983451     2.975808     2.968165     2.960522     2.952878     2.945235     2.937592
      2.929949     2.922306     2.914662     2.907019     2.899376     2.891733     2.884089     2.876446     2.868803     2.861160
      2.853517     2.845873     2.838230     2.830587     2.822944     2.815300     2.807657     2.800014     2.792371     2.784728
      2.777084     2.769441     2.761798     2.754155     2.746511     2.738868     2.731225     2.723582     2.715939     2.708295
      2.700652     2.693009     2.685366     2.677722     2.670079     2.662436     2.654793     2.647150     2.639506     2.631863
      2.624220     2.616577     2.608933     2.601290     2.593647     2.586004     2.578361     2.570717     2.563074     2.555431
      2.547788     2.540144     2.532501     2.524858     2.517215     2.509572     2.501928     2.494285     2.486642     2.478999
      2.471355     2.463712     2.456069     2.448426     2.440783     2.433139     2.425496     2.417853     2.410210     2.402566
      2.394923     2.387280     2.379637     2.371994     2.364350     2.356707     2.349064     2.341421     2.333777     2.326134
      2.318491     2.310848     2.303205     2.295561     2.287918     2.280275     2.272632     2.264988     2.257345     2.249702
      2.242059     2.234416     2.226772     2.219129     2.211486     2.203843     2.196199     2.188556     2.180913     2.173270
      2.165627     2.157983     2.150340     2.142697     2.135054     2.127410     2.119767     2.112124     2.104481     2.096838
      2.089194     2.081551     2.073908     2.066265     2.058621     2.050978     2.043335     2.035692     2.028049     2.020405
      2.012762     2.005119     1.997476     1.989833     1.982190     1.974546     1.966903     1.959260     1.951617     1.943974
      1.936331     1.928688     1.921045     1.913402     1.905759     1.898115     1.890472     1.882829     1.875186     1.867543
      1.859900     1.852257     1.844614     1.836971     1.829327     1.821684     1.814041     1.806398     1.798755     1.791112
      1.783469     1.775826     1.768183     1.760540     1.752896     1.745253     1.737610     1.729967     1.722324     1.714681
      1.707038     1.699395     1.691752     1.684108     1.676465     1.668822     1.661179     1.653536     1.645893     1.638250
      1.630607     1.622964     1.615321     1.607677     1.600034     1.592391     1.584748     1.577105     1.569462     1.561819
      1.554176     1.546533     1.538890     1.531246     1.523603     1.515960     1.508317     1.500674     1.493031     1.485388
      1.477745     1.470102     1.462458     1.454815     1.447172     1.439529     1.431886     1.424243     1.416600     1.408957
      1.401314     1.393671     1.386027     1.378384     1.370741     1.363098     1.355455     1.347812     1.340169     1.332526
      1.324883     1.317240     1.309596     1.301953     1.294310     1.286667     1.279024     1.271381     1.263738     1.256095
      1.248452     1.240808     1.233165     1.225522     1.217879     1.210236     1.202593     1.194950     1.187307     1.179664
      1.172021     1.164377     1.156734     1.149091     1.141448     1.133805     1.126162     1.118519     1.110876     1.103233
      1.095590     1.087946     1.080303     1.072660     1.065017     1.057374     1.049731     1.042088     1.034445     1.026802
      1.019158     1.011515     1.003872     0.996229     0.988586     0.980943     0.973300     0.965657     0.958014     0.950371
      0.942727     0.935084     0.927441     0.919798     0.912155     0.904512     0.896869     0.889226     0.881583     0.873940
      0.866296     0.858653     0.851010     0.843367     0.835724     0.828081     0.820438     0.812795     0.805152     0.797508
      0.789865     0.782222     0.774579     0.766936     0.759293     0.751650     0.744007     0.736364     0.728721     0.721077
      0.713434     0.705791     0.698148     0.690505     0.682862     0.675219     0.667576     0.659933     0.652290     0.644646
      0.637003     0.629360     0.621717     0.614074     0.606431     0.598788     0.591145     0.583502     0.575858     0.568215
      0.560572     0.552929     0.545286     0.537643     0.530000     0.522357     0.514714     0.507071     0.499427     0.491784
      0.484141     0.476498     0.468855     0.461212     0.453569     0.445925     0.438282     0.430639     0.422996     0.415353
      0.407710     0.400067     0.392424     0.384780     0.377137     0.369494     0.361851     0.354208     0.346565     0.338922
      0.331278     0.323635     0.315992     0.308349     0.300706     0.293063     0.285420     0.277777     0.270133     0.262490
      0.254847     0.247204     0.239561     0.231918     0.224275     0.216631     0.208988     0.201345
 NY phased data points follow
   4.40195E+00  3.88506E+00  4.29780E+00  4.41531E+00  5.30573E+00  5.17010E+00  3.70618E+00  3.13400E+00  4.79080E+00  5.21737E+00
   4.25792E+00  4.91505E+00  5.42435E+00  4.30245E+00  3.80839E+00  4.33399E+00  2.10939E+00  3.04534E+00  3.17784E+00  3.64299E+00
   4.44186E+00  3.93914E+00  4.83390E+00  4.52948E+00  5.50281E+00  4.05929E+00  5.22024E+00  4.57563E+00  2.79552E+00  4.31886E+00
   3.29595E+00  4.92851E+00  4.79864E+00  2.93818E+00  1.81141E+00  4.74874E+00  4.29527E+00  3.40966E+00  4.57555E+00  2.17874E+00
   3.96795E+00  4.15124E+00  5.78728E+00  4.97405E+00  4.29853E+00  4.24206E+00  4.69310E+00  4.21835E+00  4.58409E+00  4.73256E+00
   6.97918E+00  4.50536E+00  2.78411E+00  4.48145E+00  4.55595E+00  3.09365E+00  3.53043E+00  3.41361E+00  4.16059E+00  3.54640E+00
   4.64656E+00  4.69259E+00  3.15346E+00  4.29993E+00  3.19195E+00  3.42205E+00  3.35559E+00  3.67786E+00  3.97574E+00  2.85591E+00
   4.75751E+00  5.10826E+00  5.01895E+00  3.85277E+00  3.94910E+00  5.44077E+00  4.40523E+00  6.28489E+00  4.95866E+00  4.96185E+00
   4.99034E+00  3.06243E+00  3.86881E+00  5.71964E+00  3.61683E+00  3.65328E+00  5.57754E+00  4.50912E+00  4.57071E+00  4.31032E+00
   3.07455E+00  5.95837E+00  3.45481E+00  4.61159E+00  4.69162E+00  3.84282E+00  5.36523E+00  5.14637E+00  6.76551E+00  5.80757E+00
   5.63092E+00  6.76488E+00  6.35501E+00  6.44736E+00  7.21296E+00  7.06421E+00  4.87474E+00  5.79226E+00  5.50311E+00  2.63338E+00
   1.55614E+00  3.00580E+00  2.16689E+00  2.77697E+00  3.29684E+00  4.49912E+00  1.86589E+00  5.36135E+00  3.86825E+00  4.50448E+00
   5.28432E+00  5.62998E+00  5.32396E+00  5.45437E+00  6.10842E+00  6.44136E+00  8.32536E+00  7.91188E+00  1.02380E+01  1.09780E+01
   9.15328E+00  7.13932E+00  4.88986E+00  1.42579E+00  3.82828E+00  2.70769E+00  2.79174E+00  3.37364E+00  1.61636E+00  1.98184E+00
   4.40315E+00  8.82211E-01  2.13817E+00  8.67632E-01  5.33484E+00  3.66877E+00  3.36859E+00  1.53497E+00  2.72200E+00  2.84140E+00
   2.08395E+00  5.87823E+00  3.36648E+00  1.41535E+00  1.86115E+00  2.74985E+00  2.97001E+00  2.61878E+00  3.11972E+00  1.80541E+00
   1.95810E+00  3.59287E+00  6.78232E-01 -1.02950E-01  1.98929E+00  8.58440E-01  8.52831E-01  4.46569E-01  1.81761E+00  6.10212E-01
   2.40275E-01  1.91437E-01 -1.54719E+00 -1.59387E+00  2.08410E+00 -3.50132E-01 -1.59069E+00  8.40322E-01 -1.48262E-01  6.92769E-01
   9.18224E-02  2.45979E+00  2.65764E+00  9.48392E-01  2.18963E+00  2.28768E+00  2.00169E+00  2.25922E+00  2.54217E+00  1.63137E+00
   2.64054E+00  2.53745E+00  2.55367E+00  5.58151E+00  3.03209E+00  1.49025E+00  2.16058E+00  7.81022E-01  1.74129E+00  7.73504E-01
   2.12518E+00  2.09355E-01  3.77008E+00  4.33328E+00  4.42926E+00  5.06778E+00  3.45382E+00  2.33461E+00  2.77576E+00  2.68042E+00
   2.63666E+00  3.93624E+00  3.50896E+00  5.59955E+00  6.79383E+00  6.42952E+00  6.88601E+00  7.30756E+00  6.22334E+00  4.60062E+00
   3.00978E+00  3.32594E+00  2.36083E+00  1.44218E+00  3.15927E+00  4.31412E+00  3.84508E+00  5.87425E+00  6.14640E+00  5.47454E+00
   6.43925E+00  6.77359E+00  5.22598E+00  5.96078E+00  6.53514E+00  5.99151E+00  5.34041E+00  6.31020E+00  5.19642E+00  4.24104E+00
   5.57466E+00  4.53393E+00  6.24607E+00  4.40626E+00  5.35085E+00  6.37384E+00  6.85221E+00  6.62011E+00  6.49604E+00  9.05260E+00
   9.61933E+00  9.35863E+00  1.04812E+01  1.35270E+01  1.62395E+01  1.77335E+01  2.00558E+01  2.47877E+01  2.65624E+01  2.95434E+01
   3.28098E+01  3.56410E+01  3.33577E+01  2.76243E+01  2.44657E+01  1.68949E+01  1.15897E+01  9.01568E+00  7.72643E+00  7.10006E+00
   7.11185E+00  8.78599E+00  7.19417E+00  8.28124E+00  6.91340E+00  8.46478E+00  7.15558E+00  7.37763E+00  7.99398E+00  6.75875E+00
   7.51755E+00  7.37937E+00  7.71669E+00  6.99441E+00  7.42790E+00  6.26903E+00  6.92031E+00  7.00329E+00  5.64922E+00  7.61668E+00
   5.69717E+00  6.78344E+00  7.65754E+00  8.29883E+00  8.93830E+00  9.25273E+00  8.63296E+00  8.22459E+00  9.60815E+00  9.47024E+00
   8.10885E+00  8.72246E+00  1.03624E+01  9.60584E+00  9.90123E+00  1.05128E+01  7.61119E+00  1.15741E+01  1.17064E+01  1.06789E+01
   1.06025E+01  1.42450E+01  1.15743E+01  1.17439E+01  1.35258E+01  1.17978E+01  1.10354E+01  1.11091E+01  1.14184E+01  1.05193E+01
   1.00301E+01  1.09618E+01  1.07370E+01  1.02155E+01  1.19413E+01  1.23361E+01  1.26008E+01  1.24568E+01  1.07658E+01  1.21746E+01
   1.16104E+01  1.17798E+01  1.17585E+01  1.05485E+01  1.16157E+01  1.29523E+01  1.37273E+01  1.34830E+01  1.24450E+01  1.33066E+01
   1.45509E+01  1.01820E+01  1.18707E+01  1.26802E+01  1.27061E+01  1.60001E+01  1.34306E+01  1.54521E+01  1.37339E+01  1.30256E+01
   1.44787E+01  1.34856E+01  1.19394E+01  1.07209E+01  1.20181E+01  1.23978E+01  1.26159E+01  1.00371E+01  1.02961E+01  1.03264E+01
   1.14760E+01  9.78312E+00  9.28506E+00  9.47768E+00  9.44158E+00  8.59543E+00  8.13463E+00  8.63041E+00  1.03951E+01  8.26058E+00
   1.02777E+01  9.74518E+00  8.24411E+00  8.90241E+00  8.04553E+00  7.35228E+00  7.39640E+00  6.24615E+00  8.31457E+00  6.93237E+00
   8.15128E+00  9.22088E+00  7.40008E+00  5.01838E+00  6.75952E+00  6.96865E+00  7.15930E+00  5.78395E+00  4.16112E+00  6.44804E+00
   8.12906E+00  5.38675E+00  7.30794E+00  7.29900E+00  7.23662E+00  6.18940E+00  7.27622E+00  5.97195E+00  7.06534E+00  8.45711E+00
   6.95310E+00  7.87388E+00  4.85813E+00  4.93900E+00  6.00260E+00  7.11905E+00  6.94147E+00  6.02332E+00  8.37383E+00  7.70802E+00
   7.62687E+00  8.16788E+00  8.29471E+00  8.10395E+00  8.98301E+00  6.51378E+00  6.76973E+00  6.19101E+00  5.08397E+00  4.39781E+00
   5.36131E+00  6.77180E+00  7.65472E+00  6.06710E+00  5.32242E+00  6.22714E+00  5.96171E+00  3.20238E+00  3.02486E+00  3.66244E+00
   5.29617E+00  4.41523E+00  4.96275E+00  4.46720E+00  2.95365E+00  4.19934E+00  4.53312E+00  5.85320E+00  3.60268E+00  4.32978E+00
   2.51740E+00  4.73993E+00  3.99762E+00  2.22623E+00  4.33771E+00  3.70405E+00  3.04067E+00  3.91914E+00  1.31285E+00  2.29023E+00
   5.05417E+00  3.72030E+00  1.58584E+00  2.90038E+00  2.60926E+00  5.06432E+00  2.98233E+00  4.67847E+00  3.45052E+00  3.48681E+00
   3.38419E+00  4.41333E+00  2.52886E+00  3.74094E+00  4.02529E+00  4.19234E+00  2.97723E+00  1.43408E+00  3.96926E+00  3.60303E+00
   1.30492E+00  3.69420E+00  2.29213E+00  2.31507E+00  2.33735E+00  2.80773E+00  2.56439E+00  5.49786E+00  3.42071E+00  4.62825E+00
   3.37498E+00  2.09211E+00  1.21426E+00  2.76253E+00  1.41352E+00  1.81306E+00  1.91075E+00  2.25951E+00  1.69157E+00  3.33665E+00
   3.82644E+00  2.91529E+00  3.44755E+00  1.65324E+00  2.71811E+00  3.33930E+00  2.17347E+00  8.50635E-01
 NY points of the fit to the data follow
   3.93091E+00  3.84071E+00  3.89081E+00  4.01743E+00  4.18844E+00  4.39834E+00  4.64155E+00  4.90453E+00  5.16183E+00  5.36182E+00
   5.42927E+00  5.30982E+00  5.00783E+00  4.58893E+00  4.14702E+00  3.77478E+00  3.54072E+00  3.46483E+00  3.50393E+00  3.59548E+00
   3.67144E+00  3.72488E+00  3.77794E+00  3.83598E+00  3.90209E+00  3.95744E+00  3.98443E+00  3.97627E+00  3.95276E+00  3.98049E+00
   4.12875E+00  4.40687E+00  4.76147E+00  5.07146E+00  5.18796E+00  5.02098E+00  4.59422E+00  4.03225E+00  3.51332E+00  3.20864E+00
   3.21356E+00  3.48043E+00  3.86345E+00  4.24108E+00  4.56689E+00  4.83925E+00  5.06632E+00  5.23730E+00  5.30990E+00  5.22286E+00
   4.93831E+00  4.50088E+00  4.02338E+00  3.61961E+00  3.37383E+00  3.31052E+00  3.39584E+00  3.56241E+00  3.75023E+00  3.92782E+00
   4.07099E+00  4.16220E+00  4.17859E+00  4.11277E+00  3.99983E+00  3.88326E+00  3.79639E+00  3.78022E+00  3.85517E+00  3.98524E+00
   4.12336E+00  4.24398E+00  4.33690E+00  4.40162E+00  4.44337E+00  4.45547E+00  4.41718E+00  4.31835E+00  4.20403E+00  4.11702E+00
   4.04918E+00  4.01186E+00  4.03711E+00  4.13835E+00  4.29012E+00  4.43060E+00  4.49006E+00  4.42054E+00  4.21422E+00  3.91145E+00
   3.58615E+00  3.31730E+00  3.13848E+00  3.06743E+00  3.15481E+00  3.48248E+00  3.94466E+00  4.42722E+00  4.91564E+00  5.42763E+00
   5.96624E+00  6.49720E+00  6.95431E+00  7.23083E+00  7.20947E+00  6.83525E+00  6.16158E+00  5.32356E+00  4.48848E+00  3.81014E+00
   3.36955E+00  3.14382E+00  3.04357E+00  2.98675E+00  2.94773E+00  2.92280E+00  2.91257E+00  2.92767E+00  3.03290E+00  3.40214E+00
   3.98526E+00  4.62607E+00  5.28270E+00  5.99340E+00  6.78448E+00  7.62942E+00  8.43362E+00  9.01762E+00  9.17107E+00  8.76699E+00
   7.85155E+00  6.62320E+00  5.34610E+00  4.26994E+00  3.53898E+00  3.14390E+00  2.96982E+00  2.89042E+00  2.85321E+00  2.84611E+00
   2.85727E+00  2.87536E+00  2.89061E+00  2.89703E+00  2.89332E+00  2.88146E+00  2.86236E+00  2.83658E+00  2.80634E+00  2.77412E+00
   2.74342E+00  2.71769E+00  2.68764E+00  2.62962E+00  2.55310E+00  2.47863E+00  2.41952E+00  2.38173E+00  2.33241E+00  2.25226E+00
   2.15260E+00  2.06261E+00  2.01305E+00  2.02119E+00  2.07525E+00  2.13341E+00  2.14393E+00  2.06765E+00  1.89009E+00  1.65843E+00
   1.45431E+00  1.31555E+00  1.22750E+00  1.14566E+00  1.06309E+00  1.00073E+00  9.85741E-01  1.03121E+00  1.11975E+00  1.20976E+00
   1.29858E+00  1.39695E+00  1.50493E+00  1.62713E+00  1.77621E+00  1.95787E+00  2.17007E+00  2.41059E+00  2.67439E+00  2.95875E+00
   3.22177E+00  3.42616E+00  3.55269E+00  3.60677E+00  3.61304E+00  3.62095E+00  3.68486E+00  3.81643E+00  3.99542E+00  4.19029E+00
   4.38172E+00  4.54339E+00  4.61672E+00  4.60630E+00  4.49274E+00  4.21066E+00  3.76769E+00  3.24608E+00  2.80579E+00  2.52775E+00
   2.45105E+00  2.64183E+00  3.12716E+00  3.83004E+00  4.56486E+00  5.14086E+00  5.43791E+00  5.37712E+00  4.90554E+00  4.09575E+00
   3.13919E+00  2.27721E+00  1.75132E+00  1.72206E+00  2.20807E+00  3.08764E+00  4.13518E+00  5.10811E+00  5.81953E+00  6.20159E+00
   6.28779E+00  6.19060E+00  6.04247E+00  5.93827E+00  5.89925E+00  5.90338E+00  5.96730E+00  6.09593E+00  6.25254E+00  6.37879E+00
   6.44403E+00  6.43622E+00  6.35997E+00  6.25638E+00  6.19931E+00  6.25946E+00  6.45236E+00  6.75425E+00  7.14785E+00  7.57650E+00
   7.99760E+00  8.60130E+00  1.01556E+01  1.27552E+01  1.56823E+01  1.85928E+01  2.15435E+01  2.46197E+01  2.77436E+01  3.06662E+01
   3.28420E+01  3.34907E+01  3.20189E+01  2.84622E+01  2.34900E+01  1.81084E+01  1.33677E+01  1.00023E+01  8.12715E+00  7.31381E+00
   6.97628E+00  6.79297E+00  6.69256E+00  6.64721E+00  6.63726E+00  6.64378E+00  6.64602E+00  6.62600E+00  6.57820E+00  6.50894E+00
   6.43259E+00  6.36641E+00  6.32426E+00  6.31144E+00  6.32678E+00  6.36644E+00  6.42552E+00  6.49978E+00  6.58720E+00  6.68869E+00
   6.80723E+00  6.94584E+00  7.10668E+00  7.29069E+00  7.49725E+00  7.72469E+00  7.97069E+00  8.23251E+00  8.50705E+00  8.79076E+00
   9.07926E+00  9.36730E+00  9.64872E+00  9.91695E+00  1.01655E+01  1.03884E+01  1.05807E+01  1.07391E+01  1.08620E+01  1.09497E+01
   1.10041E+01  1.10285E+01  1.10277E+01  1.10075E+01  1.09751E+01  1.09381E+01  1.09052E+01  1.08863E+01  1.08950E+01  1.09504E+01
   1.10378E+01  1.11225E+01  1.12020E+01  1.12853E+01  1.13712E+01  1.14433E+01  1.14754E+01  1.14640E+01  1.14289E+01  1.13723E+01
   1.13140E+01  1.12991E+01  1.13752E+01  1.15716E+01  1.18870E+01  1.22836E+01  1.26944E+01  1.30460E+01  1.32882E+01  1.34045E+01
   1.34046E+01  1.33212E+01  1.32008E+01  1.30841E+01  1.29898E+01  1.29137E+01  1.28434E+01  1.27725E+01  1.26975E+01  1.26162E+01
   1.25266E+01  1.24269E+01  1.23156E+01  1.21913E+01  1.20530E+01  1.18998E+01  1.17315E+01  1.15481E+01  1.13501E+01  1.11385E+01
   1.09146E+01  1.06802E+01  1.04373E+01  1.01881E+01  9.93490E+00  9.68020E+00  9.42630E+00  9.17546E+00  8.92976E+00  8.69112E+00
   8.46119E+00  8.24142E+00  8.03296E+00  7.83677E+00  7.65354E+00  7.48382E+00  7.32795E+00  7.18617E+00  7.05856E+00  6.94515E+00
   6.84593E+00  6.76083E+00  6.68981E+00  6.63279E+00  6.58972E+00  6.56053E+00  6.54516E+00  6.54353E+00  6.55550E+00  6.58083E+00
   6.61915E+00  6.66996E+00  6.73250E+00  6.80581E+00  6.88860E+00  6.97927E+00  7.07589E+00  7.17624E+00  7.27778E+00  7.37774E+00
   7.47313E+00  7.56093E+00  7.63807E+00  7.70167E+00  7.74906E+00  7.77795E+00  7.78650E+00  7.77344E+00  7.73809E+00  7.68045E+00
   7.60110E+00  7.50128E+00  7.38271E+00  7.24761E+00  7.09850E+00  6.93817E+00  6.76948E+00  6.59529E+00  6.41832E+00  6.24112E+00
   6.06595E+00  5.89475E+00  5.72911E+00  5.57026E+00  5.41910E+00  5.27620E+00  5.14188E+00  5.01619E+00  4.89898E+00  4.78995E+00
   4.68869E+00  4.59471E+00  4.50748E+00  4.42646E+00  4.35107E+00  4.28080E+00  4.21511E+00  4.15355E+00  4.09568E+00  4.04111E+00
   3.98947E+00  3.94044E+00  3.89375E+00  3.84915E+00  3.80641E+00  3.76535E+00  3.72578E+00  3.68756E+00  3.65056E+00  3.61466E+00
   3.57975E+00  3.54576E+00  3.51259E+00  3.48017E+00  3.44845E+00  3.41737E+00  3.38686E+00  3.35690E+00  3.32742E+00  3.29841E+00
   3.26982E+00  3.24163E+00  3.21380E+00  3.18630E+00  3.15912E+00  3.13224E+00  3.10564E+00  3.07930E+00  3.05319E+00  3.02732E+00
   3.00165E+00  2.97619E+00  2.95092E+00  2.92583E+00  2.90090E+00  2.87613E+00  2.85151E+00  2.82705E+00  2.80271E+00  2.77850E+00
   2.75441E+00  2.73043E+00  2.70657E+00  2.68281E+00  2.65915E+00  2.63558E+00  2.61210E+00  2.58871E+00  2.56541E+00  2.54219E+00
   2.51904E+00  2.49596E+00  2.47296E+00  2.45003E+00  2.42717E+00  2.40438E+00  2.38166E+00  2.35900E+00
 NY background values follow
     2.831E+00    2.828E+00    2.825E+00    2.822E+00    2.818E+00    2.815E+00    2.812E+00    2.809E+00    2.806E+00    2.802E+00
     2.799E+00    2.796E+00    2.793E+00    2.790E+00    2.787E+00    2.784E+00    2.780E+00    2.777E+00    2.774E+00    2.771E+00
     2.768E+00    2.765E+00    2.761E+00    2.758E+00    2.755E+00    2.752E+00    2.749E+00    2.746E+00    2.742E+00    2.739E+00
     2.736E+00    2.733E+00    2.730E+00    2.726E+00    2.723E+00    2.720E+00    2.717E+00    2.713E+00    2.710E+00    2.707E+00
     2.703E+00    2.700E+00    2.697E+00    2.693E+00    2.690E+00    2.687E+00    2.683E+00    2.680E+00    2.676E+00    2.673E+00
     2.669E+00    2.666E+00    2.662E+00    2.659E+00    2.655E+00    2.652E+00    2.648E+00    2.644E+00    2.641E+00    2.637E+00
     2.633E+00    2.630E+00    2.626E+00    2.622E+00    2.618E+00    2.614E+00    2.610E+00    2.606E+00    2.602E+00    2.598E+00
     2.594E+00    2.590E+00    2.586E+00    2.582E+00    2.578E+00    2.574E+00    2.569E+00    2.565E+00    2.561E+00    2.556E+00
     2.552E+00    2.547E+00    2.543E+00    2.538E+00    2.533E+00    2.529E+00    2.524E+00    2.519E+00    2.514E+00    2.509E+00
     2.504E+00    2.499E+00    2.494E+00    2.489E+00    2.484E+00    2.478E+00    2.473E+00    2.468E+00    2.463E+00    2.457E+00
     2.452E+00    2.447E+00    2.441E+00    2.436E+00    2.431E+00    2.426E+00    2.420E+00    2.415E+00    2.410E+00    2.405E+00
     2.400E+00    2.395E+00    2.390E+00    2.385E+00    2.381E+00    2.376E+00    2.371E+00    2.367E+00    2.363E+00    2.358E+00
     2.354E+00    2.350E+00    2.346E+00    2.342E+00    2.339E+00    2.335E+00    2.332E+00    2.329E+00    2.326E+00    2.323E+00
     2.320E+00    2.318E+00    2.315E+00    2.313E+00    2.311E+00    2.310E+00    2.308E+00    2.307E+00    2.306E+00    2.305E+00
     2.304E+00    2.304E+00    2.304E+00    2.304E+00    2.304E+00    2.305E+00    2.306E+00    2.307E+00    2.308E+00    2.310E+00
     2.312E+00    2.314E+00    2.317E+00    2.320E+00    2.323E+00    2.326E+00    2.330E+00    2.334E+00    2.339E+00    2.343E+00
     2.348E+00    2.354E+00    2.360E+00    2.366E+00    2.372E+00    2.379E+00    2.386E+00    2.394E+00    2.402E+00    2.410E+00
     2.419E+00    2.428E+00    2.437E+00    2.447E+00    2.457E+00    2.468E+00    2.479E+00    2.491E+00    2.502E+00    2.515E+00
     2.528E+00    2.541E+00    2.555E+00    2.569E+00    2.583E+00    2.598E+00    2.614E+00    2.629E+00    2.646E+00    2.662E+00
     2.679E+00    2.696E+00    2.714E+00    2.732E+00    2.750E+00    2.769E+00    2.788E+00    2.808E+00    2.827E+00    2.847E+00
     2.867E+00    2.888E+00    2.909E+00    2.930E+00    2.951E+00    2.973E+00    2.995E+00    3.017E+00    3.039E+00    3.062E+00
     3.084E+00    3.107E+00    3.131E+00    3.154E+00    3.177E+00    3.201E+00    3.225E+00    3.249E+00    3.273E+00    3.297E+00
     3.322E+00    3.346E+00    3.371E+00    3.396E+00    3.421E+00    3.446E+00    3.471E+00    3.496E+00    3.521E+00    3.546E+00
     3.572E+00    3.597E+00    3.622E+00    3.648E+00    3.673E+00    3.699E+00    3.724E+00    3.750E+00    3.775E+00    3.800E+00
     3.826E+00    3.851E+00    3.876E+00    3.901E+00    3.926E+00    3.951E+00    3.976E+00    4.001E+00    4.026E+00    4.051E+00
     4.075E+00    4.100E+00    4.124E+00    4.148E+00    4.172E+00    4.196E+00    4.219E+00    4.243E+00    4.266E+00    4.289E+00
     4.312E+00    4.335E+00    4.357E+00    4.379E+00    4.401E+00    4.423E+00    4.445E+00    4.466E+00    4.487E+00    4.507E+00
     4.528E+00    4.548E+00    4.568E+00    4.587E+00    4.606E+00    4.625E+00    4.644E+00    4.662E+00    4.680E+00    4.697E+00
     4.715E+00    4.732E+00    4.748E+00    4.765E+00    4.780E+00    4.796E+00    4.811E+00    4.826E+00    4.841E+00    4.855E+00
     4.869E+00    4.882E+00    4.895E+00    4.908E+00    4.920E+00    4.932E+00    4.944E+00    4.955E+00    4.966E+00    4.977E+00
     4.987E+00    4.996E+00    5.006E+00    5.015E+00    5.023E+00    5.031E+00    5.039E+00    5.046E+00    5.053E+00    5.060E+00
     5.066E+00    5.072E+00    5.077E+00    5.082E+00    5.086E+00    5.090E+00    5.094E+00    5.097E+00    5.099E+00    5.102E+00
     5.103E+00    5.105E+00    5.106E+00    5.106E+00    5.107E+00    5.106E+00    5.106E+00    5.105E+00    5.103E+00    5.101E+00
     5.099E+00    5.096E+00    5.093E+00    5.090E+00    5.086E+00    5.082E+00    5.078E+00    5.073E+00    5.067E+00    5.062E+00
     5.056E+00    5.050E+00    5.043E+00    5.036E+00    5.029E+00    5.021E+00    5.013E+00    5.005E+00    4.996E+00    4.987E+00
     4.978E+00    4.968E+00    4.958E+00    4.948E+00    4.938E+00    4.927E+00    4.916E+00    4.904E+00    4.893E+00    4.881E+00
     4.869E+00    4.856E+00    4.843E+00    4.830E+00    4.817E+00    4.803E+00    4.790E+00    4.775E+00    4.761E+00    4.747E+00
     4.732E+00    4.717E+00    4.702E+00    4.686E+00    4.670E+00    4.655E+00    4.638E+00    4.622E+00    4.606E+00    4.589E+00
     4.572E+00    4.555E+00    4.538E+00    4.521E+00    4.503E+00    4.485E+00    4.468E+00    4.450E+00    4.432E+00    4.413E+00
     4.395E+00    4.376E+00    4.358E+00    4.339E+00    4.320E+00    4.301E+00    4.282E+00    4.263E+00    4.244E+00    4.224E+00
     4.205E+00    4.185E+00    4.166E+00    4.146E+00    4.127E+00    4.107E+00    4.087E+00    4.067E+00    4.047E+00    4.027E+00
     4.007E+00    3.987E+00    3.967E+00    3.947E+00    3.927E+00    3.907E+00    3.887E+00    3.867E+00    3.846E+00    3.826E+00
     3.806E+00    3.785E+00    3.765E+00    3.745E+00    3.724E+00    3.704E+00    3.683E+00    3.663E+00    3.642E+00    3.622E+00
     3.601E+00    3.581E+00    3.560E+00    3.539E+00    3.519E+00    3.498E+00    3.478E+00    3.457E+00    3.436E+00    3.416E+00
     3.395E+00    3.374E+00    3.354E+00    3.333E+00    3.312E+00    3.292E+00    3.271E+00    3.250E+00    3.230E+00    3.209E+00
     3.188E+00    3.168E+00    3.147E+00    3.126E+00    3.106E+00    3.085E+00    3.064E+00    3.044E+00    3.023E+00    3.003E+00
     2.982E+00    2.961E+00    2.941E+00    2.920E+00    2.900E+00    2.879E+00    2.858E+00    2.838E+00    2.817E+00    2.797E+00
     2.776E+00    2.755E+00    2.735E+00    2.714E+00    2.694E+00    2.673E+00    2.653E+00    2.632E+00    2.611E+00    2.591E+00
     2.570E+00    2.550E+00    2.529E+00    2.509E+00    2.488E+00    2.467E+00    2.447E+00    2.426E+00    2.406E+00    2.385E+00
     2.364E+00    2.344E+00    2.323E+00    2.302E+00    2.282E+00    2.261E+00    2.240E+00    2.220E+00
 Ala      Conc. = 7.81E+01
