 LCModel (Version 6.3-1L) Copyright: S.W. Provencher.          Ref.: Magn. Reson. Med. 30:672-679 (1993).                
 Slice#1 Row#1 Col#11  PD_05_press_1_raw_act
 36 lines in following concentration table = NCONC+1
    Conc.  %SD /Cr+PCr  Metabolite                                         
    0.000 999%   0.000 Ala                                                 
 8.16E-04 999%   0.000 Asp                                                 
    0.000 999%   0.000 Cr                                                  
    0.000 999%   0.000 PCr                                                 
 8.84E-04 999%   0.000 GABA                                                
    0.000 999%   0.000 Glc                                                 
    0.000 999%   0.000 Gln                                                 
   35.486 255%   0.000 Glu                                                 
    0.000 999%   0.000 GPC                                                 
 2.69E-02 999%   0.000 PCh                                                 
   39.965  69%   0.000 GSH                                                 
    0.000 999%   0.000 Ins                                                 
   89.124  52%   0.000 Lac                                                 
    0.000 999%   0.000 NAA                                                 
    0.000 999%   0.000 NAAG                                                
    0.000 999%   0.000 Scyllo                                              
    0.000 999%   0.000 Tau                                                 
 1.15E-02 999%   0.000 -CrCH2                                              
 2.69E-02 999%   0.000 GPC+PCh                                             
    0.000 999%   0.000 NAA+NAAG                                            
    0.000 999%   0.000 Cr+PCr                                              
   35.486 255%   0.000 Glu+Gln                                             
 1.02E+03  16%   0.000 Lip13a                                              
    0.000 999%   0.000 Lip13b                                              
  209.532  33%   0.000 Lip09                                               
   19.439 253%   0.000 MM09                                                
  135.113  43%   0.000 Lip20                                               
    0.000 999%   0.000 MM20                                                
   10.814 245%   0.000 MM12                                                
   51.304 173%   0.000 MM14                                                
   82.102  66%   0.000 MM17                                                
 1.02E+03  16%   0.000 Lip13a+Lip13b                                       
 1.08E+03  13%   0.000 MM14+Lip13a+Lip13b+MM12                             
  228.970  26%   0.000 MM09+Lip09                                          
  135.113  43%   0.000 MM20+Lip20                                          
   6 lines in following misc. output table
  FWHM = 0.054 ppm    S/N =   2                                            
  Data shift =-0.023 ppm                                                   
  Ph: -52 deg     -79.5 deg/ppm                                            
  alphaB,S = 8.5E+01,   5.1E+01                                            
   14 spline knots.   Ns = 5(1)                                            
   2 inflections.     1 extrema                                            
  498 points on ppm-axis = NY
      4.000000     3.992357     3.984714     3.977070     3.969427     3.961784     3.954141     3.946497     3.938854     3.931211
      3.923568     3.915925     3.908281     3.900638     3.892995     3.885352     3.877708     3.870065     3.862422     3.854779
      3.847136     3.839492     3.831849     3.824206     3.816563     3.808919     3.801276     3.793633     3.785990     3.778347
      3.770703     3.763060     3.755417     3.747774     3.740130     3.732487     3.724844     3.717201     3.709558     3.701914
      3.694271     3.686628     3.678985     3.671341     3.663698     3.656055     3.648412     3.640769     3.633125     3.625482
      3.617839     3.610196     3.602552     3.594909     3.587266     3.579623     3.571980     3.564336     3.556693     3.549050
      3.541407     3.533763     3.526120     3.518477     3.510834     3.503191     3.495547     3.487904     3.480261     3.472618
      3.464974     3.457331     3.449688     3.442045     3.434402     3.426758     3.419115     3.411472     3.403829     3.396185
      3.388542     3.380899     3.373256     3.365613     3.357969     3.350326     3.342683     3.335040     3.327396     3.319753
      3.312110     3.304467     3.296824     3.289180     3.281537     3.273894     3.266251     3.258607     3.250964     3.243321
      3.235678     3.228034     3.220391     3.212748     3.205105     3.197462     3.189818     3.182175     3.174532     3.166889
      3.159245     3.151602     3.143959     3.136316     3.128673     3.121029     3.113386     3.105743     3.098100     3.090456
      3.082813     3.075170     3.067527     3.059884     3.052240     3.044597     3.036954     3.029311     3.021667     3.014024
      3.006381     2.998738     2.991095     2.983451     2.975808     2.968165     2.960522     2.952878     2.945235     2.937592
      2.929949     2.922306     2.914662     2.907019     2.899376     2.891733     2.884089     2.876446     2.868803     2.861160
      2.853517     2.845873     2.838230     2.830587     2.822944     2.815300     2.807657     2.800014     2.792371     2.784728
      2.777084     2.769441     2.761798     2.754155     2.746511     2.738868     2.731225     2.723582     2.715939     2.708295
      2.700652     2.693009     2.685366     2.677722     2.670079     2.662436     2.654793     2.647150     2.639506     2.631863
      2.624220     2.616577     2.608933     2.601290     2.593647     2.586004     2.578361     2.570717     2.563074     2.555431
      2.547788     2.540144     2.532501     2.524858     2.517215     2.509572     2.501928     2.494285     2.486642     2.478999
      2.471355     2.463712     2.456069     2.448426     2.440783     2.433139     2.425496     2.417853     2.410210     2.402566
      2.394923     2.387280     2.379637     2.371994     2.364350     2.356707     2.349064     2.341421     2.333777     2.326134
      2.318491     2.310848     2.303205     2.295561     2.287918     2.280275     2.272632     2.264988     2.257345     2.249702
      2.242059     2.234416     2.226772     2.219129     2.211486     2.203843     2.196199     2.188556     2.180913     2.173270
      2.165627     2.157983     2.150340     2.142697     2.135054     2.127410     2.119767     2.112124     2.104481     2.096838
      2.089194     2.081551     2.073908     2.066265     2.058621     2.050978     2.043335     2.035692     2.028049     2.020405
      2.012762     2.005119     1.997476     1.989833     1.982190     1.974546     1.966903     1.959260     1.951617     1.943974
      1.936331     1.928688     1.921045     1.913402     1.905759     1.898115     1.890472     1.882829     1.875186     1.867543
      1.859900     1.852257     1.844614     1.836971     1.829327     1.821684     1.814041     1.806398     1.798755     1.791112
      1.783469     1.775826     1.768183     1.760540     1.752896     1.745253     1.737610     1.729967     1.722324     1.714681
      1.707038     1.699395     1.691752     1.684108     1.676465     1.668822     1.661179     1.653536     1.645893     1.638250
      1.630607     1.622964     1.615321     1.607677     1.600034     1.592391     1.584748     1.577105     1.569462     1.561819
      1.554176     1.546533     1.538890     1.531246     1.523603     1.515960     1.508317     1.500674     1.493031     1.485388
      1.477745     1.470102     1.462458     1.454815     1.447172     1.439529     1.431886     1.424243     1.416600     1.408957
      1.401314     1.393671     1.386027     1.378384     1.370741     1.363098     1.355455     1.347812     1.340169     1.332526
      1.324883     1.317240     1.309596     1.301953     1.294310     1.286667     1.279024     1.271381     1.263738     1.256095
      1.248452     1.240808     1.233165     1.225522     1.217879     1.210236     1.202593     1.194950     1.187307     1.179664
      1.172021     1.164377     1.156734     1.149091     1.141448     1.133805     1.126162     1.118519     1.110876     1.103233
      1.095590     1.087946     1.080303     1.072660     1.065017     1.057374     1.049731     1.042088     1.034445     1.026802
      1.019158     1.011515     1.003872     0.996229     0.988586     0.980943     0.973300     0.965657     0.958014     0.950371
      0.942727     0.935084     0.927441     0.919798     0.912155     0.904512     0.896869     0.889226     0.881583     0.873940
      0.866296     0.858653     0.851010     0.843367     0.835724     0.828081     0.820438     0.812795     0.805152     0.797508
      0.789865     0.782222     0.774579     0.766936     0.759293     0.751650     0.744007     0.736364     0.728721     0.721077
      0.713434     0.705791     0.698148     0.690505     0.682862     0.675219     0.667576     0.659933     0.652290     0.644646
      0.637003     0.629360     0.621717     0.614074     0.606431     0.598788     0.591145     0.583502     0.575858     0.568215
      0.560572     0.552929     0.545286     0.537643     0.530000     0.522357     0.514714     0.507071     0.499427     0.491784
      0.484141     0.476498     0.468855     0.461212     0.453569     0.445925     0.438282     0.430639     0.422996     0.415353
      0.407710     0.400067     0.392424     0.384780     0.377137     0.369494     0.361851     0.354208     0.346565     0.338922
      0.331278     0.323635     0.315992     0.308349     0.300706     0.293063     0.285420     0.277777     0.270133     0.262490
      0.254847     0.247204     0.239561     0.231918     0.224275     0.216631     0.208988     0.201345
 NY phased data points follow
  -1.76580E+00 -2.26041E+00  1.84968E-01 -2.54770E+00  2.60292E-01  3.90300E+00 -1.44151E+00  3.97175E-01 -3.71111E-01  1.28626E+00
  -8.33440E-01 -1.30380E+00  1.02888E+00 -1.77378E+00 -1.08400E+00  2.15832E-01  2.93411E-01  1.55674E+00 -5.61390E-03 -1.43263E+00
  -1.09808E-01  1.65973E+00  6.72300E-01 -1.81766E+00  7.63730E-01 -2.14779E-01 -4.82793E-02  8.24777E-01 -2.24081E+00  8.48115E-01
   2.61041E+00  2.41091E+00  1.87171E+00  8.71071E-01 -1.53596E-01  1.05419E+00  4.94214E-01 -9.51838E-01 -1.86602E+00 -7.98688E-01
  -7.81948E-01  1.71544E+00 -3.07723E+00  1.04738E+00 -9.60874E-01  3.69303E-01  2.19093E+00 -6.41640E-01  7.74917E-01 -9.15560E-01
  -2.72522E-01  4.01154E-01 -9.74923E-01  5.33446E-01  5.55480E-01  4.87814E+00 -2.02524E-01  2.01077E+00  2.22287E+00 -1.25603E+00
   3.13046E+00 -1.44219E+00 -3.37116E+00  1.90558E+00 -2.65826E+00 -1.35385E+00  9.58252E-01 -9.12668E-01  5.32095E-01 -2.22771E+00
  -4.50131E-01 -3.78573E+00  1.21045E+00 -4.61464E-01 -6.77586E-01 -1.43868E+00  1.54859E-01  5.92599E-01 -2.38858E+00  6.89759E-01
  -3.59492E-01 -5.67080E-01  9.46829E-03 -1.35712E+00 -1.28468E-01 -3.05906E+00  2.08743E-01  8.96700E-01  2.36458E-01 -1.88827E+00
   1.21558E+00 -1.33430E+00  1.83249E+00  1.14807E+00 -1.39769E+00 -1.75728E-02  5.95574E-01 -2.68003E-01  6.62069E-01  7.31930E-01
   1.56345E-01  8.47171E-01  7.02373E-01 -1.47325E+00 -2.22050E+00  3.22653E+00 -1.03414E+00 -2.52586E-01 -5.62958E-01  4.63470E-01
   1.89034E+00  7.19961E-01 -1.58504E+00  2.31470E+00 -7.61028E-01  2.25164E+00 -8.95803E-01 -4.12226E-01 -3.66226E-01  2.47532E-01
   6.71173E-01 -1.48213E+00  1.70322E+00 -8.56193E-01  1.63459E+00 -1.78423E+00  4.01872E-01  6.63001E-01  1.06509E+00 -3.19542E+00
   1.48813E+00  8.60354E-01  5.43981E-01 -1.09696E-02 -1.25614E+00  1.04301E-01 -9.36175E-01 -1.50976E+00  3.97445E-01 -9.53868E-02
  -6.42711E-01 -1.35925E+00 -1.99583E-01 -3.40542E-01  6.69466E-01  6.77246E-01  9.10489E-01 -4.08872E-01 -1.44386E+00 -1.47606E+00
   5.61520E-01  2.23892E+00  1.34942E+00  6.64343E-01 -2.11073E+00  3.45610E-02  8.59606E-02  1.43017E+00  1.05359E-01  1.47622E+00
  -1.60837E-02 -3.11213E-01  4.96305E-01  4.60667E-01 -3.97216E-02  6.38888E-01  1.47610E+00  1.69465E+00  1.67023E+00 -2.51049E-01
   2.90451E+00  3.10152E-01  1.26319E+00  1.83054E-01  9.60913E-01  2.35087E+00 -1.08089E+00  1.39504E-01 -2.04650E-01 -1.97168E+00
  -8.87499E-03 -3.43887E-01  6.19404E-01 -2.63619E+00  1.08321E+00  9.21126E-01 -8.60747E-01 -6.81728E-01 -2.24123E+00  1.61768E+00
   8.88524E-02 -5.28102E-02 -1.30429E+00  1.45016E+00  5.30334E-01 -9.80235E-01 -5.90906E-01  1.82626E+00  3.29424E+00 -1.83133E+00
  -2.23202E+00 -6.57679E-01 -1.96163E+00 -1.55256E+00  1.76465E-02  1.19388E+00 -8.80861E-01 -9.31645E-01 -1.59164E+00 -2.96977E-01
   4.87361E-01  2.01320E+00 -1.63402E+00 -1.73020E+00  4.03754E-01 -5.98747E-01 -8.90098E-01 -1.64016E+00 -1.00758E+00  9.55069E-01
  -5.24743E-02 -1.50538E-01  9.00849E-01 -2.39289E+00 -9.58375E-01  9.11083E-01 -2.20284E+00 -1.18620E+00  4.90945E-01  1.29387E+00
  -6.18993E-01  2.20153E+00 -1.64800E+00  4.29543E-01  1.28210E-01  7.37919E-01  5.54683E-01 -1.57876E+00  8.48097E-02  2.64549E+00
  -2.25819E+00 -9.29157E-01  9.49819E-01 -2.68163E-01 -2.52956E+00 -7.15818E-01 -1.68280E+00 -8.09773E-01 -2.02351E+00  2.48080E-01
   1.26760E-01 -2.39229E+00  2.19087E-01 -1.72275E+00 -2.03679E+00 -2.72061E+00 -8.83793E-01 -2.31505E+00 -6.76919E-01 -3.08340E+00
  -3.50380E-01 -1.63915E+00  2.84863E-01  2.94167E+00  2.04083E+00 -4.20476E-01  2.23681E-04 -2.28792E+00 -1.86330E+00  1.12289E+00
   3.79230E+00  2.34421E+00  1.86303E+00  1.01193E+00  1.92411E+00  5.47651E-01  1.46483E+00  2.20722E-01  9.50854E-01 -1.49894E+00
  -1.52774E+00  1.42642E+00 -1.33320E+00 -1.13290E+00  2.50076E+00  2.80224E+00 -3.64392E+00  2.83866E-01  1.33849E-02  2.80693E-01
   2.44115E+00  3.88079E+00  3.86649E-01  2.66177E+00 -2.08961E+00  1.39990E+00 -8.14482E-01 -3.78286E+00  1.32516E+00 -2.63330E-01
   9.67724E-01 -3.75196E-01 -5.64659E-01  1.90246E-02  1.91045E+00  7.63492E-01 -1.03150E+00 -2.10247E+00 -2.31772E+00  3.07261E+00
  -3.15743E-01  1.44868E+00  5.50343E-01 -5.48813E-01  1.56739E+00  3.57560E+00  2.58153E+00  6.85502E-01 -4.21537E-01 -3.04057E-01
  -2.11090E+00 -7.56686E-01  2.57773E-01  2.33376E+00  4.22975E-02 -1.67818E+00 -8.86476E-01  1.11773E+00  2.58430E-01 -9.47712E-01
  -1.19320E+00  1.97363E+00  2.12705E+00  3.75360E+00  7.87477E-01  3.39047E+00  2.55929E+00  5.58010E-01  2.00056E+00  4.92343E-01
   2.29597E+00  7.68273E-01  3.21442E+00  1.96561E+00  2.79304E+00 -2.74030E+00  2.85925E+00  2.17556E+00  4.22159E+00  1.93552E+00
  -7.58573E-02  1.47193E+00  2.03878E+00  2.07611E+00 -1.28174E-01  4.10373E+00  8.13916E-04  4.76504E+00  5.32655E+00  5.19509E-01
   4.98409E+00  5.82487E+00  3.88873E+00  2.47742E+00  5.41616E+00  3.74765E+00  2.42921E+00  4.56050E+00  5.56631E+00  1.53347E+00
   4.13972E+00  2.94471E+00  1.91726E+00  2.57365E+00  2.81263E+00  7.60614E-03  2.00773E-01  4.28886E-01 -9.26858E-01 -3.58255E-01
   1.15825E+00  6.26041E-01  6.96609E-01  2.95810E+00  9.59887E-02  1.56788E+00  1.21041E+00 -3.15324E-01 -6.76059E-01  1.85138E+00
  -1.25047E-01 -6.21914E-02  9.53873E-01 -4.02746E-01 -1.42569E+00  2.19711E-01  3.05362E+00  1.53198E+00 -1.05353E-01 -5.77388E-03
  -4.94883E-01  2.21232E+00  1.87073E+00  3.21184E-01  1.64013E+00 -1.28448E+00 -1.19403E-01  9.48766E-01  3.47576E+00 -1.69566E+00
   2.99791E+00  2.54181E+00 -7.36520E-01  4.56771E-01  4.20666E-01  2.36292E+00 -1.63324E+00  5.33748E-01 -1.95101E+00 -2.05041E+00
   5.78570E-01 -2.03479E+00 -7.72836E-01 -2.68213E+00 -1.78015E+00 -9.83060E-01 -1.13877E+00 -8.05689E-01 -1.20612E+00 -2.19919E+00
   2.17379E-01 -4.09778E+00  7.11385E-01  1.72093E+00 -2.98078E+00  2.85571E-01 -3.02653E+00 -1.49993E+00  2.19875E+00 -5.13948E+00
  -1.46262E+00 -5.27791E-02  2.27725E-01 -9.02824E-01  8.99818E-01 -3.31014E-01 -9.70751E-01 -4.45892E+00 -1.12536E+00 -1.66759E-01
  -6.88214E-01 -2.09903E+00 -1.55622E+00 -1.74137E+00 -1.70933E+00  2.30260E-01 -3.23841E+00 -2.80964E+00 -2.52662E+00 -9.21129E-01
  -1.72006E+00 -1.27848E+00 -1.26078E+00  2.28765E-01 -2.53294E+00 -2.02446E-01 -2.06822E+00 -1.02475E+00 -5.23231E+00 -2.01227E+00
  -7.93139E-01 -8.18526E-01 -2.16638E+00 -1.67267E+00 -3.20401E+00 -1.44177E+00 -1.93193E+00 -1.26292E+00 -2.77571E+00 -1.63059E+00
  -1.04693E+00 -3.22168E-01  3.89505E-01 -7.38908E-01  4.59825E-01 -1.20874E+00 -8.22833E-01 -2.90831E+00 -2.41924E+00  1.54529E+00
  -4.09646E+00 -1.03699E+00  4.53090E-01 -2.70634E+00 -1.52277E-01 -1.67024E+00 -1.35725E+00 -3.65361E+00
 NY points of the fit to the data follow
   2.06897E-01  2.10846E-01  2.29592E-01  2.55420E-01  2.77359E-01  2.85751E-01  2.86182E-01  2.84697E-01  2.82701E-01  2.80586E-01
   2.78560E-01  2.76788E-01  2.75451E-01  2.74710E-01  2.74752E-01  2.75849E-01  2.78462E-01  2.83486E-01  2.91261E-01  2.96660E-01
   2.95887E-01  2.90291E-01  2.80704E-01  2.65544E-01  2.57822E-01  3.09819E-01  4.43088E-01  6.25655E-01  8.30194E-01  1.03354E+00
   1.19861E+00  1.27534E+00  1.23683E+00  1.08610E+00  8.46013E-01  5.63824E-01  3.16885E-01  1.84923E-01  1.48081E-01  1.46453E-01
   1.64663E-01  1.91925E-01  2.14075E-01  2.21224E-01  2.16903E-01  2.05311E-01  1.89208E-01  1.75107E-01  1.64170E-01  1.55224E-01
   1.47540E-01  1.40725E-01  1.34553E-01  1.28904E-01  1.23717E-01  1.18937E-01  1.14494E-01  1.10302E-01  1.06272E-01  1.02359E-01
   9.85147E-02  9.47269E-02  9.09986E-02  8.73123E-02  8.36504E-02  8.00111E-02  7.63979E-02  7.27972E-02  6.91897E-02  6.55803E-02
   6.19990E-02  5.84815E-02  5.50381E-02  5.16698E-02  4.83878E-02  4.51785E-02  4.20200E-02  3.88970E-02  3.57816E-02  3.26312E-02
   2.94319E-02  2.62032E-02  2.29742E-02  1.97679E-02  1.65892E-02  1.34625E-02  1.04002E-02  7.36958E-03  4.34052E-03  1.30498E-03
  -1.73547E-03 -4.76689E-03 -7.76504E-03 -1.07157E-02 -1.36197E-02 -1.64786E-02 -1.92914E-02 -2.20398E-02 -2.46247E-02 -2.69546E-02
  -2.91039E-02 -3.11626E-02 -3.31954E-02 -3.52688E-02 -3.74571E-02 -3.98155E-02 -4.23462E-02 -4.49811E-02 -4.75877E-02 -4.99725E-02
  -5.18972E-02 -5.32775E-02 -5.41838E-02 -5.44651E-02 -5.41373E-02 -5.44339E-02 -5.61311E-02 -5.91724E-02 -6.32975E-02 -6.77828E-02
  -7.06852E-02 -7.09643E-02 -6.84192E-02 -6.27586E-02 -5.39009E-02 -4.23007E-02 -2.90665E-02 -1.47161E-02  6.47184E-03  4.16683E-02
   8.22554E-02  1.13360E-01  1.26775E-01  1.14669E-01  7.39772E-02  1.30407E-02 -5.59311E-02 -1.11497E-01 -1.37113E-01 -1.21444E-01
  -5.92716E-02  3.63382E-02  1.27293E-01  1.85461E-01  2.04672E-01  1.88036E-01  1.49847E-01  1.09365E-01  7.60996E-02  5.75249E-02
   4.50953E-02  3.36573E-02  2.28724E-02  1.31199E-02  5.18966E-03  4.29058E-04 -8.47037E-05  2.00370E-03  4.17744E-03  4.70119E-03
   2.18907E-03 -4.41673E-03 -1.50731E-02 -2.73138E-02 -3.90755E-02 -5.03749E-02 -6.12017E-02 -7.13188E-02 -8.02767E-02 -8.79519E-02
  -9.52803E-02 -1.03532E-01 -1.13528E-01 -1.25821E-01 -1.40432E-01 -1.56956E-01 -1.74988E-01 -1.93596E-01 -2.11811E-01 -2.28075E-01
  -2.43667E-01 -2.60973E-01 -2.80349E-01 -3.00860E-01 -3.19597E-01 -3.29961E-01 -3.24298E-01 -2.98533E-01 -2.54979E-01 -2.02187E-01
  -1.50743E-01 -1.12852E-01 -1.06176E-01 -1.43445E-01 -2.14806E-01 -3.00624E-01 -3.81328E-01 -4.36846E-01 -4.52816E-01 -4.26743E-01
  -3.68796E-01 -2.96396E-01 -2.26916E-01 -1.75503E-01 -1.53162E-01 -1.62238E-01 -1.83517E-01 -2.03756E-01 -2.21089E-01 -2.32908E-01
  -2.34814E-01 -2.17352E-01 -1.81454E-01 -1.36225E-01 -9.19977E-02 -5.71089E-02 -4.23483E-02 -6.32111E-02 -1.22617E-01 -2.06871E-01
  -2.94288E-01 -3.65349E-01 -4.02004E-01 -3.89963E-01 -3.38850E-01 -2.64321E-01 -1.85107E-01 -1.23780E-01 -9.34772E-02 -9.76483E-02
  -1.24997E-01 -1.52209E-01 -1.58791E-01 -1.34537E-01 -8.55117E-02 -3.00393E-02  1.39415E-02  3.02862E-02  6.44107E-04 -7.83320E-02
  -1.82023E-01 -2.77150E-01 -3.39667E-01 -3.52767E-01 -3.08834E-01 -2.20013E-01 -1.22094E-01 -4.49766E-02  1.07959E-04  1.13104E-02
  -8.52148E-03 -4.67145E-02 -8.44646E-02 -1.08565E-01 -1.19450E-01 -1.19234E-01 -1.12023E-01 -1.04028E-01 -9.90583E-02 -9.70940E-02
  -9.63009E-02 -9.70447E-02 -9.90106E-02 -1.03943E-01 -1.14598E-01 -1.33716E-01 -1.58977E-01 -1.86493E-01 -2.13138E-01 -2.37079E-01
  -2.57010E-01 -2.72280E-01 -2.84497E-01 -2.94536E-01 -3.01605E-01 -3.07006E-01 -3.12276E-01 -3.18271E-01 -3.25318E-01 -3.33044E-01
  -3.39755E-01 -3.43893E-01 -3.45080E-01 -3.43407E-01 -3.38951E-01 -3.31810E-01 -3.22247E-01 -3.10705E-01 -2.97383E-01 -2.82029E-01
  -2.64552E-01 -2.45028E-01 -2.23634E-01 -2.00622E-01 -1.76347E-01 -1.51284E-01 -1.25936E-01 -1.00802E-01 -7.64112E-02 -5.32869E-02
  -3.18916E-02 -1.26394E-02  4.07330E-03  1.79191E-02  2.86958E-02  3.63320E-02  4.08873E-02  4.25508E-02  4.16385E-02  3.85920E-02
   3.39687E-02  2.83813E-02  2.24655E-02  1.68732E-02  1.22580E-02  9.27091E-03  8.53299E-03  1.06083E-02  1.59883E-02  2.50896E-02
   3.82660E-02  5.58228E-02  7.80190E-02  1.05066E-01  1.37131E-01  1.74362E-01  2.16915E-01  2.64972E-01  3.18748E-01  3.78481E-01
   4.44449E-01  5.16995E-01  5.96551E-01  6.83660E-01  7.78969E-01  8.83256E-01  9.97495E-01  1.12301E+00  1.26176E+00  1.41693E+00
   1.59447E+00  1.80839E+00  2.09102E+00  2.42739E+00  2.72664E+00  2.93647E+00  3.03348E+00  2.99604E+00  2.80702E+00  2.47746E+00
   2.11575E+00  1.86811E+00  1.81475E+00  2.00102E+00  2.43215E+00  2.98667E+00  3.48964E+00  3.87315E+00  4.09131E+00  4.11828E+00
   3.96015E+00  3.67498E+00  3.39606E+00  3.18597E+00  3.00367E+00  2.82907E+00  2.65583E+00  2.48220E+00  2.30836E+00  2.13533E+00
   1.96452E+00  1.79741E+00  1.63547E+00  1.48003E+00  1.33231E+00  1.19333E+00  1.06387E+00  9.44526E-01  8.35737E-01  7.37797E-01
   6.50893E-01  5.75107E-01  5.10429E-01  4.56785E-01  4.14061E-01  3.82111E-01  3.60743E-01  3.49701E-01  3.48644E-01  3.57138E-01
   3.74642E-01  4.00483E-01  4.33822E-01  4.73628E-01  5.18676E-01  5.67554E-01  6.18685E-01  6.70347E-01  7.20702E-01  7.67851E-01
   8.09906E-01  8.45064E-01  8.71690E-01  8.88373E-01  8.93991E-01  8.87758E-01  8.69275E-01  8.38541E-01  7.95953E-01  7.42269E-01
   6.78560E-01  6.06159E-01  5.26596E-01  4.41521E-01  3.52629E-01  2.61577E-01  1.69922E-01  7.90801E-02 -9.71217E-03 -9.54207E-02
  -1.77231E-01 -2.54550E-01 -3.26990E-01 -3.94342E-01 -4.56552E-01 -5.13695E-01 -5.65954E-01 -6.13590E-01 -6.56918E-01 -6.96274E-01
  -7.32007E-01 -7.64462E-01 -7.93979E-01 -8.20879E-01 -8.45458E-01 -8.67981E-01 -8.88685E-01 -9.07782E-01 -9.25464E-01 -9.41901E-01
  -9.57238E-01 -9.71597E-01 -9.85085E-01 -9.97798E-01 -1.00982E+00 -1.02123E+00 -1.03209E+00 -1.04245E+00 -1.05235E+00 -1.06184E+00
  -1.07095E+00 -1.07974E+00 -1.08821E+00 -1.09639E+00 -1.10431E+00 -1.11199E+00 -1.11945E+00 -1.12670E+00 -1.13376E+00 -1.14064E+00
  -1.14736E+00 -1.15392E+00 -1.16034E+00 -1.16663E+00 -1.17278E+00 -1.17882E+00 -1.18475E+00 -1.19057E+00 -1.19630E+00 -1.20194E+00
  -1.20748E+00 -1.21294E+00 -1.21833E+00 -1.22364E+00 -1.22888E+00 -1.23406E+00 -1.23917E+00 -1.24421E+00 -1.24921E+00 -1.25415E+00
  -1.25904E+00 -1.26387E+00 -1.26866E+00 -1.27340E+00 -1.27810E+00 -1.28277E+00 -1.28739E+00 -1.29197E+00 -1.29651E+00 -1.30102E+00
  -1.30550E+00 -1.30995E+00 -1.31436E+00 -1.31874E+00 -1.32309E+00 -1.32742E+00 -1.33172E+00 -1.33600E+00
 NY background values follow
     2.767E-01    2.734E-01    2.700E-01    2.667E-01    2.633E-01    2.600E-01    2.566E-01    2.533E-01    2.499E-01    2.465E-01
     2.432E-01    2.398E-01    2.365E-01    2.331E-01    2.298E-01    2.264E-01    2.230E-01    2.197E-01    2.163E-01    2.130E-01
     2.096E-01    2.063E-01    2.029E-01    1.996E-01    1.962E-01    1.928E-01    1.895E-01    1.861E-01    1.828E-01    1.794E-01
     1.761E-01    1.727E-01    1.693E-01    1.660E-01    1.626E-01    1.593E-01    1.559E-01    1.526E-01    1.492E-01    1.459E-01
     1.425E-01    1.391E-01    1.358E-01    1.324E-01    1.291E-01    1.257E-01    1.224E-01    1.190E-01    1.156E-01    1.123E-01
     1.089E-01    1.056E-01    1.022E-01    9.887E-02    9.551E-02    9.215E-02    8.880E-02    8.544E-02    8.208E-02    7.873E-02
     7.537E-02    7.202E-02    6.866E-02    6.530E-02    6.195E-02    5.859E-02    5.523E-02    5.188E-02    4.852E-02    4.517E-02
     4.181E-02    3.845E-02    3.510E-02    3.174E-02    2.838E-02    2.503E-02    2.167E-02    1.832E-02    1.496E-02    1.160E-02
     8.246E-03    4.890E-03    1.534E-03   -1.822E-03   -5.179E-03   -8.535E-03   -1.189E-02   -1.525E-02   -1.860E-02   -2.196E-02
    -2.532E-02   -2.867E-02   -3.203E-02   -3.539E-02   -3.874E-02   -4.210E-02   -4.545E-02   -4.881E-02   -5.217E-02   -5.552E-02
    -5.888E-02   -6.224E-02   -6.559E-02   -6.895E-02   -7.230E-02   -7.566E-02   -7.902E-02   -8.237E-02   -8.573E-02   -8.909E-02
    -9.244E-02   -9.580E-02   -9.915E-02   -1.025E-01   -1.059E-01   -1.092E-01   -1.126E-01   -1.159E-01   -1.193E-01   -1.226E-01
    -1.260E-01   -1.294E-01   -1.327E-01   -1.361E-01   -1.394E-01   -1.428E-01   -1.461E-01   -1.495E-01   -1.529E-01   -1.562E-01
    -1.596E-01   -1.629E-01   -1.663E-01   -1.696E-01   -1.730E-01   -1.764E-01   -1.797E-01   -1.831E-01   -1.864E-01   -1.898E-01
    -1.931E-01   -1.965E-01   -1.998E-01   -2.032E-01   -2.066E-01   -2.099E-01   -2.133E-01   -2.166E-01   -2.200E-01   -2.233E-01
    -2.267E-01   -2.301E-01   -2.334E-01   -2.368E-01   -2.401E-01   -2.435E-01   -2.468E-01   -2.502E-01   -2.535E-01   -2.569E-01
    -2.603E-01   -2.636E-01   -2.670E-01   -2.703E-01   -2.737E-01   -2.770E-01   -2.804E-01   -2.838E-01   -2.871E-01   -2.905E-01
    -2.938E-01   -2.972E-01   -3.005E-01   -3.039E-01   -3.073E-01   -3.106E-01   -3.140E-01   -3.173E-01   -3.207E-01   -3.240E-01
    -3.274E-01   -3.307E-01   -3.341E-01   -3.375E-01   -3.408E-01   -3.442E-01   -3.475E-01   -3.509E-01   -3.542E-01   -3.576E-01
    -3.610E-01   -3.643E-01   -3.677E-01   -3.710E-01   -3.744E-01   -3.777E-01   -3.811E-01   -3.845E-01   -3.878E-01   -3.912E-01
    -3.945E-01   -3.979E-01   -4.012E-01   -4.046E-01   -4.079E-01   -4.113E-01   -4.147E-01   -4.180E-01   -4.214E-01   -4.247E-01
    -4.281E-01   -4.314E-01   -4.348E-01   -4.382E-01   -4.415E-01   -4.449E-01   -4.482E-01   -4.516E-01   -4.549E-01   -4.583E-01
    -4.617E-01   -4.650E-01   -4.684E-01   -4.717E-01   -4.751E-01   -4.784E-01   -4.818E-01   -4.851E-01   -4.885E-01   -4.919E-01
    -4.952E-01   -4.986E-01   -5.019E-01   -5.053E-01   -5.086E-01   -5.120E-01   -5.154E-01   -5.187E-01   -5.221E-01   -5.254E-01
    -5.288E-01   -5.321E-01   -5.355E-01   -5.389E-01   -5.422E-01   -5.456E-01   -5.489E-01   -5.523E-01   -5.556E-01   -5.590E-01
    -5.624E-01   -5.657E-01   -5.691E-01   -5.724E-01   -5.758E-01   -5.791E-01   -5.825E-01   -5.858E-01   -5.892E-01   -5.926E-01
    -5.959E-01   -5.993E-01   -6.026E-01   -6.060E-01   -6.093E-01   -6.127E-01   -6.161E-01   -6.194E-01   -6.228E-01   -6.261E-01
    -6.295E-01   -6.328E-01   -6.362E-01   -6.396E-01   -6.429E-01   -6.463E-01   -6.496E-01   -6.530E-01   -6.563E-01   -6.597E-01
    -6.631E-01   -6.664E-01   -6.698E-01   -6.731E-01   -6.765E-01   -6.798E-01   -6.832E-01   -6.866E-01   -6.899E-01   -6.933E-01
    -6.966E-01   -7.000E-01   -7.033E-01   -7.067E-01   -7.101E-01   -7.134E-01   -7.168E-01   -7.201E-01   -7.235E-01   -7.268E-01
    -7.302E-01   -7.335E-01   -7.369E-01   -7.403E-01   -7.436E-01   -7.470E-01   -7.503E-01   -7.537E-01   -7.570E-01   -7.604E-01
    -7.638E-01   -7.671E-01   -7.705E-01   -7.738E-01   -7.772E-01   -7.805E-01   -7.839E-01   -7.873E-01   -7.906E-01   -7.940E-01
    -7.973E-01   -8.007E-01   -8.040E-01   -8.074E-01   -8.108E-01   -8.141E-01   -8.175E-01   -8.208E-01   -8.242E-01   -8.275E-01
    -8.309E-01   -8.343E-01   -8.376E-01   -8.410E-01   -8.443E-01   -8.477E-01   -8.510E-01   -8.544E-01   -8.578E-01   -8.611E-01
    -8.645E-01   -8.678E-01   -8.712E-01   -8.745E-01   -8.779E-01   -8.813E-01   -8.846E-01   -8.880E-01   -8.913E-01   -8.947E-01
    -8.980E-01   -9.014E-01   -9.048E-01   -9.081E-01   -9.115E-01   -9.148E-01   -9.182E-01   -9.215E-01   -9.249E-01   -9.282E-01
    -9.316E-01   -9.350E-01   -9.383E-01   -9.417E-01   -9.450E-01   -9.484E-01   -9.517E-01   -9.551E-01   -9.585E-01   -9.618E-01
    -9.652E-01   -9.685E-01   -9.719E-01   -9.752E-01   -9.786E-01   -9.820E-01   -9.853E-01   -9.887E-01   -9.920E-01   -9.954E-01
    -9.987E-01   -1.002E+00   -1.005E+00   -1.009E+00   -1.012E+00   -1.016E+00   -1.019E+00   -1.022E+00   -1.026E+00   -1.029E+00
    -1.032E+00   -1.036E+00   -1.039E+00   -1.042E+00   -1.046E+00   -1.049E+00   -1.052E+00   -1.056E+00   -1.059E+00   -1.063E+00
    -1.066E+00   -1.069E+00   -1.073E+00   -1.076E+00   -1.079E+00   -1.083E+00   -1.086E+00   -1.089E+00   -1.093E+00   -1.096E+00
    -1.099E+00   -1.103E+00   -1.106E+00   -1.110E+00   -1.113E+00   -1.116E+00   -1.120E+00   -1.123E+00   -1.126E+00   -1.130E+00
    -1.133E+00   -1.136E+00   -1.140E+00   -1.143E+00   -1.146E+00   -1.150E+00   -1.153E+00   -1.157E+00   -1.160E+00   -1.163E+00
    -1.167E+00   -1.170E+00   -1.173E+00   -1.177E+00   -1.180E+00   -1.183E+00   -1.187E+00   -1.190E+00   -1.193E+00   -1.197E+00
    -1.200E+00   -1.204E+00   -1.207E+00   -1.210E+00   -1.214E+00   -1.217E+00   -1.220E+00   -1.224E+00   -1.227E+00   -1.230E+00
    -1.234E+00   -1.237E+00   -1.240E+00   -1.244E+00   -1.247E+00   -1.251E+00   -1.254E+00   -1.257E+00   -1.261E+00   -1.264E+00
    -1.267E+00   -1.271E+00   -1.274E+00   -1.277E+00   -1.281E+00   -1.284E+00   -1.287E+00   -1.291E+00   -1.294E+00   -1.298E+00
    -1.301E+00   -1.304E+00   -1.308E+00   -1.311E+00   -1.314E+00   -1.318E+00   -1.321E+00   -1.324E+00   -1.328E+00   -1.331E+00
    -1.334E+00   -1.338E+00   -1.341E+00   -1.345E+00   -1.348E+00   -1.351E+00   -1.355E+00   -1.358E+00   -1.361E+00   -1.365E+00
    -1.368E+00   -1.371E+00   -1.375E+00   -1.378E+00   -1.381E+00   -1.385E+00   -1.388E+00   -1.392E+00
 Asp      Conc. = 8.16E-04
