 LCModel (Version 6.3-1L) Copyright: S.W. Provencher.          Ref.: Magn. Reson. Med. 30:672-679 (1993).                
 Slice#3 Row#2 Col#4  PD_05_press_1_raw_act
 36 lines in following concentration table = NCONC+1
    Conc.  %SD /Cr+PCr  Metabolite                                         
    0.000 999%   0.000 Ala                                                 
   10.477  43%   0.191 Asp                                                 
   54.716  44%   1.000 Cr                                                  
    0.000 999%   0.000 PCr                                                 
    6.333  43%   0.116 GABA                                                
    6.329  43%   0.116 Glc                                                 
    0.000 999%   0.000 Gln                                                 
   61.032 102%   1.115 Glu                                                 
    0.000 999%   0.000 GPC                                                 
   30.842  44%   0.564 PCh                                                 
   12.988 162%   0.237 GSH                                                 
  148.115  63%   2.707 Ins                                                 
    0.000 999%   0.000 Lac                                                 
    0.000 999%   0.000 NAA                                                 
   63.504  43%   1.161 NAAG                                                
    2.110  43% 3.9E-02 Scyllo                                              
   10.560  43%   0.193 Tau                                                 
    5.868  63%   0.107 -CrCH2                                              
   30.842  44%   0.564 GPC+PCh                                             
   63.504  43%   1.161 NAA+NAAG                                            
   54.716  44%   1.000 Cr+PCr                                              
   61.032 102%   1.115 Glu+Gln                                             
 1.07E+03  55%  19.642 Lip13a                                              
  152.446 151%   2.786 Lip13b                                              
  327.657  36%   5.988 Lip09                                               
 1.06E+03  24%  19.426 MM09                                                
  184.075  36%   3.364 Lip20                                               
    0.000 999%   0.000 MM20                                                
 2.94E+03  12%  53.683+MM12                                                
  197.144 110%   3.603 MM14                                                
    0.000 999%   0.000 MM17                                                
 1.23E+03  36%  22.428 Lip13a+Lip13b                                       
 4.36E+03   8%  79.714 MM14+Lip13a+Lip13b+MM12                             
 1.39E+03  17%  25.415 MM09+Lip09                                          
  184.075  36%   3.364 MM20+Lip20                                          
   6 lines in following misc. output table
  FWHM = 0.168 ppm    S/N =   5                                            
  Data shift =-0.054 ppm                                                   
  Ph: 164 deg     106.3 deg/ppm                                            
  alphaB,S = 4.4E-01,   3.6E+00                                            
   10 spline knots.   Ns = 9(2)                                            
  ( 8) 2 infls.   ( 1) 1 extrs.                                            
  498 points on ppm-axis = NY
      4.000000     3.992357     3.984714     3.977070     3.969427     3.961784     3.954141     3.946497     3.938854     3.931211
      3.923568     3.915925     3.908281     3.900638     3.892995     3.885352     3.877708     3.870065     3.862422     3.854779
      3.847136     3.839492     3.831849     3.824206     3.816563     3.808919     3.801276     3.793633     3.785990     3.778347
      3.770703     3.763060     3.755417     3.747774     3.740130     3.732487     3.724844     3.717201     3.709558     3.701914
      3.694271     3.686628     3.678985     3.671341     3.663698     3.656055     3.648412     3.640769     3.633125     3.625482
      3.617839     3.610196     3.602552     3.594909     3.587266     3.579623     3.571980     3.564336     3.556693     3.549050
      3.541407     3.533763     3.526120     3.518477     3.510834     3.503191     3.495547     3.487904     3.480261     3.472618
      3.464974     3.457331     3.449688     3.442045     3.434402     3.426758     3.419115     3.411472     3.403829     3.396185
      3.388542     3.380899     3.373256     3.365613     3.357969     3.350326     3.342683     3.335040     3.327396     3.319753
      3.312110     3.304467     3.296824     3.289180     3.281537     3.273894     3.266251     3.258607     3.250964     3.243321
      3.235678     3.228034     3.220391     3.212748     3.205105     3.197462     3.189818     3.182175     3.174532     3.166889
      3.159245     3.151602     3.143959     3.136316     3.128673     3.121029     3.113386     3.105743     3.098100     3.090456
      3.082813     3.075170     3.067527     3.059884     3.052240     3.044597     3.036954     3.029311     3.021667     3.014024
      3.006381     2.998738     2.991095     2.983451     2.975808     2.968165     2.960522     2.952878     2.945235     2.937592
      2.929949     2.922306     2.914662     2.907019     2.899376     2.891733     2.884089     2.876446     2.868803     2.861160
      2.853517     2.845873     2.838230     2.830587     2.822944     2.815300     2.807657     2.800014     2.792371     2.784728
      2.777084     2.769441     2.761798     2.754155     2.746511     2.738868     2.731225     2.723582     2.715939     2.708295
      2.700652     2.693009     2.685366     2.677722     2.670079     2.662436     2.654793     2.647150     2.639506     2.631863
      2.624220     2.616577     2.608933     2.601290     2.593647     2.586004     2.578361     2.570717     2.563074     2.555431
      2.547788     2.540144     2.532501     2.524858     2.517215     2.509572     2.501928     2.494285     2.486642     2.478999
      2.471355     2.463712     2.456069     2.448426     2.440783     2.433139     2.425496     2.417853     2.410210     2.402566
      2.394923     2.387280     2.379637     2.371994     2.364350     2.356707     2.349064     2.341421     2.333777     2.326134
      2.318491     2.310848     2.303205     2.295561     2.287918     2.280275     2.272632     2.264988     2.257345     2.249702
      2.242059     2.234416     2.226772     2.219129     2.211486     2.203843     2.196199     2.188556     2.180913     2.173270
      2.165627     2.157983     2.150340     2.142697     2.135054     2.127410     2.119767     2.112124     2.104481     2.096838
      2.089194     2.081551     2.073908     2.066265     2.058621     2.050978     2.043335     2.035692     2.028049     2.020405
      2.012762     2.005119     1.997476     1.989833     1.982190     1.974546     1.966903     1.959260     1.951617     1.943974
      1.936331     1.928688     1.921045     1.913402     1.905759     1.898115     1.890472     1.882829     1.875186     1.867543
      1.859900     1.852257     1.844614     1.836971     1.829327     1.821684     1.814041     1.806398     1.798755     1.791112
      1.783469     1.775826     1.768183     1.760540     1.752896     1.745253     1.737610     1.729967     1.722324     1.714681
      1.707038     1.699395     1.691752     1.684108     1.676465     1.668822     1.661179     1.653536     1.645893     1.638250
      1.630607     1.622964     1.615321     1.607677     1.600034     1.592391     1.584748     1.577105     1.569462     1.561819
      1.554176     1.546533     1.538890     1.531246     1.523603     1.515960     1.508317     1.500674     1.493031     1.485388
      1.477745     1.470102     1.462458     1.454815     1.447172     1.439529     1.431886     1.424243     1.416600     1.408957
      1.401314     1.393671     1.386027     1.378384     1.370741     1.363098     1.355455     1.347812     1.340169     1.332526
      1.324883     1.317240     1.309596     1.301953     1.294310     1.286667     1.279024     1.271381     1.263738     1.256095
      1.248452     1.240808     1.233165     1.225522     1.217879     1.210236     1.202593     1.194950     1.187307     1.179664
      1.172021     1.164377     1.156734     1.149091     1.141448     1.133805     1.126162     1.118519     1.110876     1.103233
      1.095590     1.087946     1.080303     1.072660     1.065017     1.057374     1.049731     1.042088     1.034445     1.026802
      1.019158     1.011515     1.003872     0.996229     0.988586     0.980943     0.973300     0.965657     0.958014     0.950371
      0.942727     0.935084     0.927441     0.919798     0.912155     0.904512     0.896869     0.889226     0.881583     0.873940
      0.866296     0.858653     0.851010     0.843367     0.835724     0.828081     0.820438     0.812795     0.805152     0.797508
      0.789865     0.782222     0.774579     0.766936     0.759293     0.751650     0.744007     0.736364     0.728721     0.721077
      0.713434     0.705791     0.698148     0.690505     0.682862     0.675219     0.667576     0.659933     0.652290     0.644646
      0.637003     0.629360     0.621717     0.614074     0.606431     0.598788     0.591145     0.583502     0.575858     0.568215
      0.560572     0.552929     0.545286     0.537643     0.530000     0.522357     0.514714     0.507071     0.499427     0.491784
      0.484141     0.476498     0.468855     0.461212     0.453569     0.445925     0.438282     0.430639     0.422996     0.415353
      0.407710     0.400067     0.392424     0.384780     0.377137     0.369494     0.361851     0.354208     0.346565     0.338922
      0.331278     0.323635     0.315992     0.308349     0.300706     0.293063     0.285420     0.277777     0.270133     0.262490
      0.254847     0.247204     0.239561     0.231918     0.224275     0.216631     0.208988     0.201345
 NY phased data points follow
   3.05114E-01 -1.36620E+00 -9.32287E-01 -7.77944E-01 -1.27051E+00 -1.60655E+00 -8.37129E-01 -5.89153E-01 -9.16668E-01  1.74334E+00
  -2.79642E+00  1.15314E-01  3.79550E-01 -1.30566E+00  9.60620E-01  4.46222E-01  2.65013E+00  3.27190E-01 -1.47813E+00  6.18041E-01
  -1.76726E+00  8.21170E-02  2.04579E+00 -9.26156E-01  1.26335E-01 -3.31565E+00  1.56475E-01  6.48078E-01 -5.93847E-01 -1.76759E+00
  -1.01004E+00 -1.55882E+00 -6.38490E-01 -7.35755E-01  2.88316E-01  1.80097E-01  1.21625E+00 -1.02351E+00 -4.35680E-01  2.55881E-02
   9.08325E-01 -1.38414E+00 -9.14109E-01  3.08989E-01 -5.59056E-01 -8.90632E-01 -2.81150E+00  8.26488E-01 -1.39974E+00  1.83793E+00
   6.82112E-01  3.71925E-01  1.11600E+00  1.63067E-01  1.29516E+00  5.40190E-01 -9.53805E-01 -9.16583E-01 -1.49993E+00  9.49706E-01
   1.31857E-01  1.06774E+00 -1.62014E+00 -8.56932E-01 -2.27812E+00  7.21942E-01  5.77994E-01  8.62682E-01 -2.12651E+00  1.16397E+00
  -5.34389E-01  6.02867E-01 -6.85722E-01 -2.07520E+00 -1.37485E+00  6.88540E-01  5.99131E-01 -5.36730E-01 -3.56899E-02 -9.01908E-02
  -4.73312E-01 -3.19353E-01 -1.21938E+00  1.80609E+00  2.43474E-01 -1.98751E+00  7.77008E-03  1.76834E+00  6.20990E-01  2.40799E+00
   1.21111E+00 -2.54283E-01 -1.85523E-01  4.36857E+00  7.66088E-01  4.88934E-01 -1.70080E-01  9.44830E-01 -3.77659E-01  6.57531E-01
  -1.77576E+00  1.34599E-01 -1.47070E+00  1.56288E+00  2.64832E+00  2.78097E+00  4.01697E+00  3.18432E+00 -5.36818E-01  9.97941E-01
   4.04112E+00  1.41509E+00  3.01299E-01  2.33545E-01 -1.92048E+00 -3.54093E-01  7.24200E-01  9.40581E-01 -2.17052E+00 -1.80789E-01
   3.48914E-01  1.28399E-01 -1.11126E+00  1.05913E+00 -1.92011E+00  1.27901E+00  4.13467E-01  2.59064E+00  3.83029E+00  3.48367E+00
   2.74481E+00  3.77565E+00  4.50331E+00  2.17186E+00  2.27983E+00  6.36987E-01  2.32183E+00  1.32498E+00  9.30907E-01  1.13415E+00
   3.92801E-02 -6.51929E-01 -7.77602E-01  1.56282E+00 -8.40796E-01  9.78694E-01  2.51979E+00  7.59352E-01  7.17547E-01  2.76488E+00
   2.63521E+00  2.39768E+00 -2.72647E-01  1.64591E+00  3.60132E+00 -7.20644E-01  3.38619E+00  9.70623E-01 -1.78474E-01  3.95569E-01
   9.63820E-01 -2.04448E-01  5.89128E-01  2.02575E+00 -4.41324E-01  3.50780E-01  1.37218E+00  1.71663E+00  5.38207E-01  3.19200E+00
   1.40839E+00 -1.94102E-01  1.74982E-01  7.07622E-01 -6.15664E-01  3.68557E-01 -3.11873E-01  1.62892E-01  3.46972E-01  4.97466E-01
   8.94495E-01  1.28775E+00  1.32331E+00 -9.41682E-01  1.94534E+00  1.38593E+00  3.42227E+00  2.87896E+00  8.26086E-01  1.55523E+00
   1.92362E+00  1.09614E+00  1.56212E+00  9.73912E-01 -9.74165E-01  1.04352E-01  1.59130E+00  2.65889E+00 -4.37349E-01  3.32801E-01
   2.04367E+00  1.40085E+00  7.99591E-01  5.36217E-01  1.13980E+00  3.40473E+00 -5.43726E-01 -5.52260E-02  4.08143E-01 -9.84846E-01
  -1.78258E+00 -6.09482E-02 -1.56985E+00  4.62003E-01 -4.12835E-01  2.10523E+00  1.06857E-01 -1.71684E+00 -1.34860E+00 -9.38506E-01
   8.07892E-01  9.38354E-01 -1.58263E-01 -3.49161E-01 -2.58674E+00 -1.67071E+00 -6.97440E-01 -7.96369E-01 -1.27229E+00 -3.09401E+00
  -2.00538E+00 -6.01603E-01 -1.25324E+00 -5.87073E-01 -2.96134E+00 -3.00983E+00 -2.75943E+00 -3.09532E+00 -3.07877E+00 -3.96935E+00
  -2.89060E+00 -1.48091E+00 -2.94148E+00 -2.81640E+00 -3.02903E+00 -2.23059E+00 -2.89276E+00 -3.61813E+00 -5.71360E+00 -2.67211E+00
  -6.09193E+00 -2.90739E+00 -4.23066E+00 -5.45500E+00 -5.78844E+00 -4.12680E+00 -4.19320E+00 -4.45327E+00 -4.13515E+00 -4.20601E+00
  -5.35141E+00 -2.77618E+00 -5.52195E+00 -4.64949E+00 -7.29671E+00 -7.80126E+00 -9.02818E+00 -9.35337E+00 -8.70686E+00 -8.58352E+00
  -9.51467E+00 -8.81912E+00 -1.10525E+01 -7.56495E+00 -1.04185E+01 -1.01652E+01 -9.08846E+00 -1.18581E+01 -1.11130E+01 -1.13132E+01
  -9.58835E+00 -1.03095E+01 -1.04356E+01 -1.24456E+01 -9.42035E+00 -1.00516E+01 -1.07905E+01 -1.13900E+01 -1.00126E+01 -1.31112E+01
  -1.15461E+01 -1.01161E+01 -9.89789E+00 -1.02897E+01 -1.00871E+01 -1.02772E+01 -1.17405E+01 -1.43597E+01 -1.22977E+01 -1.25676E+01
  -1.36021E+01 -1.34382E+01 -1.21938E+01 -1.28781E+01 -1.23383E+01 -1.15464E+01 -1.37301E+01 -1.38018E+01 -1.27894E+01 -1.55432E+01
  -1.33290E+01 -1.23554E+01 -1.60529E+01 -1.40809E+01 -1.24952E+01 -1.40213E+01 -1.52013E+01 -1.38836E+01 -1.48887E+01 -1.53838E+01
  -1.26643E+01 -1.53275E+01 -1.27731E+01 -1.54911E+01 -1.64084E+01 -1.44633E+01 -1.60191E+01 -1.83801E+01 -1.62797E+01 -1.55776E+01
  -1.50245E+01 -1.55875E+01 -1.57148E+01 -1.67399E+01 -1.63053E+01 -1.15257E+01 -1.62065E+01 -1.33320E+01 -1.41659E+01 -1.37458E+01
  -1.37147E+01 -1.48633E+01 -1.52698E+01 -1.54316E+01 -1.41681E+01 -1.48665E+01 -1.60580E+01 -1.55374E+01 -1.54327E+01 -1.81858E+01
  -1.49103E+01 -1.51526E+01 -1.51378E+01 -1.36822E+01 -1.41039E+01 -1.48349E+01 -1.16661E+01 -1.36268E+01 -1.08903E+01 -1.19923E+01
  -1.28007E+01 -1.01191E+01 -1.08487E+01 -1.03427E+01 -9.06680E+00 -6.68046E+00 -9.07861E+00 -7.99488E+00 -7.55234E+00 -3.35591E+00
  -3.19878E+00 -3.19138E+00 -3.88201E+00 -9.68803E-01 -4.58444E-03 -4.35792E-01  1.44802E+00  3.51278E+00  4.18822E+00  4.09010E+00
   6.64200E+00  3.80170E+00  5.50720E+00  8.20379E+00  5.56247E+00  7.86979E+00  7.38373E+00  6.84400E+00  5.64374E+00  5.03858E+00
   8.53907E+00  5.90018E+00  6.77943E+00  4.29970E+00  6.33415E+00  5.48200E+00  5.46453E+00  2.06089E+00  6.42497E+00  2.44256E+00
   4.84559E+00  3.23514E+00  3.82394E+00  5.13729E+00  4.40802E+00  5.00586E+00  6.03846E+00  3.67405E+00  3.96089E+00  4.38109E+00
   3.93541E+00  4.83382E+00  6.35105E+00  5.06331E+00  4.08882E+00  5.37245E+00  4.63089E+00  3.77845E+00  5.52139E+00  3.32126E+00
   3.89086E+00  6.00063E+00  5.30883E+00  5.57941E+00  4.94826E+00  6.73998E+00  5.50145E+00  5.61506E+00  5.98197E+00  4.56357E+00
   6.32353E+00  3.43730E+00  6.50971E+00  5.08512E+00  6.33624E+00  4.59844E+00  5.63610E+00  4.29909E+00  4.50133E+00  4.38488E+00
   4.95115E+00  3.68202E+00  4.76680E+00  5.52597E+00  4.21692E+00  4.15179E+00  5.24459E+00  6.64446E+00  5.22567E+00  6.76742E+00
   4.27754E+00  5.40312E+00  6.13615E+00  5.27644E+00  5.69702E+00  4.43174E+00  5.53140E+00  3.62911E+00  6.70399E+00  6.54788E+00
   4.26857E+00  3.92041E+00  4.03573E+00  6.08207E+00  4.26558E+00  6.40244E+00  7.39824E+00  5.75266E+00  4.97056E+00  6.06861E+00
   3.55645E+00  5.46358E+00  4.70573E+00  4.33197E+00  5.53395E+00  5.78295E+00  6.65966E+00  3.27983E+00  3.53934E+00  3.08674E+00
   5.29513E+00  4.69403E+00  5.44287E+00  3.13802E+00  2.00573E+00  3.57960E+00  2.99007E+00  4.38019E+00  4.12348E+00  3.89951E+00
   4.33331E+00  6.11532E+00  4.23975E+00  4.16005E+00  5.60045E+00  3.24934E+00  3.43199E+00  4.63717E+00
 NY points of the fit to the data follow
  -1.93921E-02 -2.81909E-01 -7.68801E-01 -9.88087E-01 -1.01900E+00 -9.28519E-01 -1.05846E+00 -9.71802E-01 -8.27295E-01 -5.07284E-01
  -3.84746E-02  1.41445E-01  4.41358E-01  5.93301E-01  3.14539E-01  3.57078E-01  2.54748E-01 -4.18438E-02 -7.32349E-01 -8.75222E-01
  -1.00457E+00 -1.02629E+00 -6.83066E-01 -7.70000E-01 -8.94483E-01 -9.51236E-01 -7.19946E-01 -6.86576E-01 -5.61418E-01 -5.25537E-01
  -3.91067E-02  3.70182E-01  6.86806E-01  6.02950E-01  5.20683E-01  2.03708E-01  1.42713E-01 -3.81017E-02 -8.64593E-02 -4.90948E-01
  -7.60409E-01 -8.58258E-01 -8.69634E-01 -8.18814E-01 -8.16940E-01 -6.37234E-01 -4.43135E-01 -1.54101E-01  1.35648E-01  4.38620E-01
   5.74945E-01  3.19467E-01  1.58559E-01 -2.77149E-02 -2.44176E-01 -7.13486E-01 -9.64416E-01 -1.11409E+00 -9.32694E-01 -6.02316E-01
  -3.79253E-01 -2.83059E-01 -2.26796E-01 -2.00263E-01 -1.09519E-01 -1.16236E-01 -6.16102E-02 -8.20784E-02 -2.86683E-02 -1.17422E-01
  -2.47030E-01 -2.86165E-01 -2.13194E-01 -2.83916E-01 -1.77672E-01 -1.65631E-01 -5.85379E-02 -1.10183E-01 -4.39558E-02  4.19557E-03
   1.07691E-01  1.82475E-01  1.51355E-01  1.33540E-01  4.29516E-02 -1.42085E-01  2.70060E-01  1.55336E+00  1.76224E+00  1.86685E+00
   1.72001E+00  1.12353E+00  1.35461E+00  1.59369E+00  1.53344E+00  6.57936E-01  7.47733E-01  6.56472E-01  7.12374E-01  3.70088E-01
   2.61612E-01  1.68979E-01  4.77130E-01  1.59349E+00  1.98109E+00  2.76802E+00  2.90378E+00  2.39925E+00  2.27482E+00  1.96232E+00
   2.38237E+00  9.11850E-01  6.31517E-01  2.13154E-02 -3.43788E-01  2.71257E-01  3.46559E-01  1.33699E-01 -6.11777E-01 -2.04341E-01
  -4.04080E-01 -6.01023E-02 -1.69007E-01  6.81508E-01  7.10552E-01  7.76966E-01  1.36694E+00  1.78760E+00  2.19297E+00  2.60679E+00
   2.29296E+00  2.49225E+00  2.19785E+00  2.28292E+00  1.18910E+00  8.22633E-01  3.69790E-01  9.94631E-02  3.71873E-01  3.25319E-01
   1.24118E-01 -1.01230E-01  2.98641E-01  2.96332E-01  5.92499E-01  6.73797E-01  1.25975E+00  1.45371E+00  1.48163E+00  1.47314E+00
   1.45200E+00  1.48407E+00  1.49036E+00  1.47662E+00  1.40871E+00  1.40998E+00  1.37152E+00  1.43097E+00  1.44210E+00  1.43889E+00
   1.41311E+00  1.46861E+00  1.47888E+00  1.50874E+00  1.49143E+00  1.46102E+00  1.35239E+00  1.34980E+00  1.36485E+00  1.34282E+00
   1.35739E+00  1.34289E+00  1.31028E+00  1.33455E+00  1.38235E+00  1.39066E+00  1.41422E+00  1.40069E+00  1.43009E+00  1.38032E+00
   1.33373E+00  1.21364E+00  1.10510E+00  1.07694E+00  1.05583E+00  1.02806E+00  1.04638E+00  9.65741E-01  9.45112E-01  9.59814E-01
   1.02982E+00  1.02571E+00  1.03016E+00  9.53186E-01  8.73778E-01  7.48142E-01  6.56133E-01  5.20439E-01  3.48296E-01  3.12340E-01
   3.04871E-01  2.77587E-01  2.86308E-01  2.12236E-01  2.28086E-01  1.52739E-01  7.88036E-02 -1.71672E-01 -2.96577E-01 -4.78303E-01
  -5.56950E-01 -6.63211E-01 -8.30860E-01 -9.20103E-01 -1.00344E+00 -9.89609E-01 -9.86357E-01 -9.94595E-01 -9.04014E-01 -9.26737E-01
  -8.93253E-01 -1.07564E+00 -1.22367E+00 -1.53981E+00 -1.86639E+00 -2.07932E+00 -2.33230E+00 -2.42730E+00 -2.55479E+00 -2.56682E+00
  -2.61966E+00 -2.57514E+00 -2.66349E+00 -2.79193E+00 -2.96294E+00 -3.08648E+00 -3.08509E+00 -3.35907E+00 -3.83563E+00 -3.61077E+00
  -2.99850E+00 -2.97992E+00 -2.68812E+00 -3.18029E+00 -3.38995E+00 -3.57273E+00 -3.07204E+00 -3.49573E+00 -3.75562E+00 -4.13681E+00
  -4.17384E+00 -4.53201E+00 -4.88067E+00 -5.27663E+00 -5.81252E+00 -5.82448E+00 -5.45761E+00 -5.27722E+00 -4.51342E+00 -4.62497E+00
  -4.39603E+00 -4.62464E+00 -4.29147E+00 -4.94966E+00 -5.80502E+00 -6.42670E+00 -7.29612E+00 -7.51675E+00 -7.63442E+00 -7.90573E+00
  -8.69889E+00 -8.91718E+00 -9.27686E+00 -9.34692E+00 -9.68790E+00 -9.61916E+00 -9.33289E+00 -9.34300E+00 -9.42889E+00 -9.54972E+00
  -9.65729E+00 -9.80279E+00 -9.93448E+00 -1.00983E+01 -1.02287E+01 -1.03817E+01 -1.05008E+01 -1.06313E+01 -1.07572E+01 -1.09019E+01
  -1.10379E+01 -1.11753E+01 -1.13040E+01 -1.14383E+01 -1.15583E+01 -1.16650E+01 -1.17799E+01 -1.19016E+01 -1.20149E+01 -1.21250E+01
  -1.22492E+01 -1.23717E+01 -1.25015E+01 -1.26187E+01 -1.27342E+01 -1.28482E+01 -1.29644E+01 -1.30712E+01 -1.31829E+01 -1.32842E+01
  -1.33946E+01 -1.35033E+01 -1.36055E+01 -1.37012E+01 -1.37987E+01 -1.38926E+01 -1.39856E+01 -1.40744E+01 -1.41624E+01 -1.42495E+01
  -1.43317E+01 -1.44096E+01 -1.44835E+01 -1.45525E+01 -1.46173E+01 -1.46772E+01 -1.47331E+01 -1.47845E+01 -1.48320E+01 -1.48753E+01
  -1.49152E+01 -1.49514E+01 -1.49850E+01 -1.50158E+01 -1.50450E+01 -1.50724E+01 -1.50991E+01 -1.51250E+01 -1.51514E+01 -1.51784E+01
  -1.52069E+01 -1.52366E+01 -1.52676E+01 -1.52984E+01 -1.53271E+01 -1.53487E+01 -1.53572E+01 -1.53430E+01 -1.52958E+01 -1.52035E+01
  -1.50556E+01 -1.48436E+01 -1.45650E+01 -1.42228E+01 -1.38281E+01 -1.33964E+01 -1.29473E+01 -1.24980E+01 -1.20624E+01 -1.16447E+01
  -1.12410E+01 -1.08369E+01 -1.04120E+01 -9.94139E+00 -9.40169E+00 -8.77263E+00 -8.04181E+00 -7.20373E+00 -6.26239E+00 -5.22832E+00
  -4.11981E+00 -2.95888E+00 -1.77205E+00 -5.86319E-01  5.69934E-01  1.67059E+00  2.69066E+00  3.60978E+00  4.41076E+00  5.08261E+00
   5.61846E+00  6.01795E+00  6.28466E+00  6.42799E+00  6.46013E+00  6.39750E+00  6.25737E+00  6.05911E+00  5.82101E+00  5.56174E+00
   5.29732E+00  5.04282E+00  4.80965E+00  4.60760E+00  4.44264E+00  4.31925E+00  4.23841E+00  4.20002E+00  4.20108E+00  4.23823E+00
   4.30604E+00  4.39955E+00  4.51242E+00  4.63928E+00  4.77391E+00  4.91155E+00  5.04697E+00  5.17670E+00  5.29689E+00  5.40538E+00
   5.49963E+00  5.57883E+00  5.64174E+00  5.68868E+00  5.71935E+00  5.73476E+00  5.73523E+00  5.72234E+00  5.69687E+00  5.66068E+00
   5.61469E+00  5.56078E+00  5.49989E+00  5.43393E+00  5.36380E+00  5.29128E+00  5.21702E+00  5.14254E+00  5.06835E+00  4.99579E+00
   4.92518E+00  4.85758E+00  4.79298E+00  4.73224E+00  4.67521E+00  4.62263E+00  4.57416E+00  4.53031E+00  4.49059E+00  4.45540E+00
   4.42427E+00  4.39755E+00  4.37465E+00  4.35582E+00  4.34043E+00  4.32876E+00  4.32026E+00  4.31517E+00  4.31286E+00  4.31355E+00
   4.31665E+00  4.32245E+00  4.33041E+00  4.34078E+00  4.35298E+00  4.36724E+00  4.38306E+00  4.40074E+00  4.41980E+00  4.44048E+00
   4.46227E+00  4.48542E+00  4.50952E+00  4.53488E+00  4.56103E+00  4.58822E+00  4.61600E+00  4.64466E+00  4.67383E+00  4.70380E+00
   4.73413E+00  4.76509E+00  4.79626E+00  4.82797E+00  4.85986E+00  4.89221E+00  4.92461E+00  4.95732E+00  4.98999E+00  5.02294E+00
   5.05582E+00  5.08890E+00  5.12179E+00  5.15477E+00  5.18751E+00  5.22033E+00  5.25290E+00  5.28544E+00  5.31761E+00  5.34969E+00
   5.38139E+00  5.41298E+00  5.44415E+00  5.47509E+00  5.50551E+00  5.53566E+00  5.56527E+00  5.59457E+00
 NY background values follow
    -1.723E+00   -1.740E+00   -1.756E+00   -1.771E+00   -1.787E+00   -1.801E+00   -1.815E+00   -1.829E+00   -1.842E+00   -1.854E+00
    -1.866E+00   -1.877E+00   -1.888E+00   -1.899E+00   -1.908E+00   -1.918E+00   -1.927E+00   -1.935E+00   -1.943E+00   -1.950E+00
    -1.957E+00   -1.963E+00   -1.969E+00   -1.974E+00   -1.979E+00   -1.983E+00   -1.987E+00   -1.990E+00   -1.993E+00   -1.995E+00
    -1.997E+00   -1.998E+00   -1.998E+00   -1.999E+00   -1.998E+00   -1.997E+00   -1.996E+00   -1.994E+00   -1.992E+00   -1.989E+00
    -1.985E+00   -1.982E+00   -1.977E+00   -1.972E+00   -1.967E+00   -1.961E+00   -1.954E+00   -1.947E+00   -1.940E+00   -1.932E+00
    -1.924E+00   -1.915E+00   -1.905E+00   -1.895E+00   -1.885E+00   -1.874E+00   -1.862E+00   -1.850E+00   -1.838E+00   -1.825E+00
    -1.811E+00   -1.797E+00   -1.782E+00   -1.767E+00   -1.752E+00   -1.736E+00   -1.719E+00   -1.702E+00   -1.685E+00   -1.667E+00
    -1.648E+00   -1.629E+00   -1.609E+00   -1.589E+00   -1.569E+00   -1.548E+00   -1.526E+00   -1.504E+00   -1.482E+00   -1.459E+00
    -1.436E+00   -1.412E+00   -1.388E+00   -1.363E+00   -1.338E+00   -1.313E+00   -1.287E+00   -1.261E+00   -1.235E+00   -1.208E+00
    -1.181E+00   -1.154E+00   -1.126E+00   -1.098E+00   -1.070E+00   -1.041E+00   -1.013E+00   -9.836E-01   -9.543E-01   -9.248E-01
    -8.951E-01   -8.652E-01   -8.352E-01   -8.049E-01   -7.745E-01   -7.440E-01   -7.133E-01   -6.825E-01   -6.516E-01   -6.207E-01
    -5.896E-01   -5.585E-01   -5.274E-01   -4.962E-01   -4.650E-01   -4.338E-01   -4.025E-01   -3.714E-01   -3.402E-01   -3.091E-01
    -2.781E-01   -2.472E-01   -2.164E-01   -1.856E-01   -1.550E-01   -1.246E-01   -9.428E-02   -6.415E-02   -3.420E-02   -4.461E-03
     2.507E-02    5.436E-02    8.341E-02    1.122E-01    1.407E-01    1.689E-01    1.968E-01    2.244E-01    2.517E-01    2.786E-01
     3.051E-01    3.313E-01    3.570E-01    3.824E-01    4.073E-01    4.317E-01    4.556E-01    4.790E-01    5.018E-01    5.240E-01
     5.455E-01    5.664E-01    5.866E-01    6.060E-01    6.247E-01    6.426E-01    6.596E-01    6.758E-01    6.911E-01    7.055E-01
     7.189E-01    7.313E-01    7.426E-01    7.529E-01    7.621E-01    7.702E-01    7.772E-01    7.829E-01    7.874E-01    7.907E-01
     7.927E-01    7.933E-01    7.927E-01    7.906E-01    7.871E-01    7.822E-01    7.758E-01    7.679E-01    7.585E-01    7.475E-01
     7.350E-01    7.208E-01    7.049E-01    6.874E-01    6.682E-01    6.472E-01    6.245E-01    5.999E-01    5.736E-01    5.454E-01
     5.153E-01    4.834E-01    4.495E-01    4.136E-01    3.758E-01    3.360E-01    2.941E-01    2.502E-01    2.043E-01    1.562E-01
     1.060E-01    5.367E-02   -8.263E-04   -5.751E-02   -1.164E-01   -1.775E-01   -2.409E-01   -3.065E-01   -3.744E-01   -4.446E-01
    -5.171E-01   -5.920E-01   -6.692E-01   -7.488E-01   -8.307E-01   -9.150E-01   -1.002E+00   -1.090E+00   -1.181E+00   -1.274E+00
    -1.369E+00   -1.466E+00   -1.565E+00   -1.666E+00   -1.768E+00   -1.872E+00   -1.978E+00   -2.086E+00   -2.194E+00   -2.305E+00
    -2.417E+00   -2.530E+00   -2.644E+00   -2.760E+00   -2.876E+00   -2.994E+00   -3.113E+00   -3.232E+00   -3.353E+00   -3.474E+00
    -3.596E+00   -3.719E+00   -3.842E+00   -3.966E+00   -4.090E+00   -4.215E+00   -4.340E+00   -4.466E+00   -4.591E+00   -4.717E+00
    -4.843E+00   -4.969E+00   -5.095E+00   -5.220E+00   -5.346E+00   -5.471E+00   -5.596E+00   -5.721E+00   -5.845E+00   -5.969E+00
    -6.092E+00   -6.215E+00   -6.337E+00   -6.458E+00   -6.578E+00   -6.698E+00   -6.817E+00   -6.934E+00   -7.051E+00   -7.167E+00
    -7.281E+00   -7.395E+00   -7.507E+00   -7.618E+00   -7.727E+00   -7.835E+00   -7.942E+00   -8.047E+00   -8.150E+00   -8.252E+00
    -8.352E+00   -8.451E+00   -8.547E+00   -8.642E+00   -8.735E+00   -8.827E+00   -8.916E+00   -9.003E+00   -9.088E+00   -9.172E+00
    -9.253E+00   -9.332E+00   -9.410E+00   -9.485E+00   -9.559E+00   -9.630E+00   -9.699E+00   -9.766E+00   -9.832E+00   -9.895E+00
    -9.956E+00   -1.001E+01   -1.007E+01   -1.013E+01   -1.018E+01   -1.023E+01   -1.028E+01   -1.032E+01   -1.037E+01   -1.041E+01
    -1.045E+01   -1.049E+01   -1.052E+01   -1.056E+01   -1.059E+01   -1.062E+01   -1.064E+01   -1.067E+01   -1.069E+01   -1.071E+01
    -1.073E+01   -1.075E+01   -1.076E+01   -1.077E+01   -1.078E+01   -1.079E+01   -1.079E+01   -1.080E+01   -1.080E+01   -1.080E+01
    -1.079E+01   -1.079E+01   -1.078E+01   -1.077E+01   -1.076E+01   -1.075E+01   -1.073E+01   -1.071E+01   -1.069E+01   -1.067E+01
    -1.065E+01   -1.062E+01   -1.059E+01   -1.056E+01   -1.053E+01   -1.050E+01   -1.046E+01   -1.042E+01   -1.038E+01   -1.034E+01
    -1.030E+01   -1.025E+01   -1.020E+01   -1.015E+01   -1.010E+01   -1.005E+01   -9.992E+00   -9.935E+00   -9.876E+00   -9.816E+00
    -9.754E+00   -9.690E+00   -9.624E+00   -9.557E+00   -9.488E+00   -9.418E+00   -9.346E+00   -9.273E+00   -9.199E+00   -9.122E+00
    -9.045E+00   -8.966E+00   -8.886E+00   -8.805E+00   -8.722E+00   -8.638E+00   -8.553E+00   -8.467E+00   -8.379E+00   -8.291E+00
    -8.201E+00   -8.111E+00   -8.019E+00   -7.926E+00   -7.833E+00   -7.738E+00   -7.643E+00   -7.547E+00   -7.450E+00   -7.352E+00
    -7.253E+00   -7.154E+00   -7.054E+00   -6.953E+00   -6.852E+00   -6.750E+00   -6.647E+00   -6.544E+00   -6.440E+00   -6.336E+00
    -6.231E+00   -6.126E+00   -6.021E+00   -5.915E+00   -5.808E+00   -5.702E+00   -5.594E+00   -5.487E+00   -5.380E+00   -5.272E+00
    -5.164E+00   -5.055E+00   -4.947E+00   -4.838E+00   -4.730E+00   -4.621E+00   -4.512E+00   -4.403E+00   -4.294E+00   -4.185E+00
    -4.076E+00   -3.967E+00   -3.858E+00   -3.750E+00   -3.641E+00   -3.533E+00   -3.424E+00   -3.316E+00   -3.208E+00   -3.100E+00
    -2.993E+00   -2.885E+00   -2.778E+00   -2.671E+00   -2.565E+00   -2.459E+00   -2.353E+00   -2.248E+00   -2.142E+00   -2.038E+00
    -1.934E+00   -1.830E+00   -1.726E+00   -1.623E+00   -1.521E+00   -1.419E+00   -1.317E+00   -1.216E+00   -1.116E+00   -1.016E+00
    -9.164E-01   -8.176E-01   -7.194E-01   -6.218E-01   -5.248E-01   -4.283E-01   -3.326E-01   -2.374E-01   -1.429E-01   -4.913E-02
     4.402E-02    1.365E-01    2.283E-01    3.193E-01    4.097E-01    4.993E-01    5.882E-01    6.764E-01    7.638E-01    8.505E-01
     9.364E-01    1.022E+00    1.106E+00    1.190E+00    1.272E+00    1.354E+00    1.436E+00    1.516E+00    1.596E+00    1.675E+00
     1.753E+00    1.830E+00    1.906E+00    1.982E+00    2.057E+00    2.131E+00    2.204E+00    2.276E+00    2.347E+00    2.418E+00
     2.488E+00    2.557E+00    2.625E+00    2.692E+00    2.759E+00    2.825E+00    2.889E+00    2.954E+00
 Asp      Conc. = 1.05E+01
