 LCModel (Version 6.3-1L) Copyright: S.W. Provencher.          Ref.: Magn. Reson. Med. 30:672-679 (1993).                
 Slice#1 Row#9 Col#14  PD_05_press_1_raw_act
 36 lines in following concentration table = NCONC+1
    Conc.  %SD /Cr+PCr  Metabolite                                         
   16.544 122%   0.000 Ala                                                 
    1.027 228%   0.000 Asp                                                 
    0.000 999%   0.000 Cr                                                  
    0.000 999%   0.000 PCr                                                 
    0.549 256%   0.000 GABA                                                
    0.574 244%   0.000 Glc                                                 
    0.000 999%   0.000 Gln                                                 
    0.000 999%   0.000 Glu                                                 
    0.000 999%   0.000 GPC                                                 
    0.000 999%   0.000 PCh                                                 
    0.000 999%   0.000 GSH                                                 
    0.000 999%   0.000 Ins                                                 
    0.000 999%   0.000 Lac                                                 
    0.000 999%   0.000 NAA                                                 
   19.329  66%   0.000 NAAG                                                
    0.209 223%   0.000 Scyllo                                              
    1.000 233%   0.000 Tau                                                 
    0.283 667%   0.000 -CrCH2                                              
    0.000 999%   0.000 GPC+PCh                                             
   19.329  66%   0.000 NAA+NAAG                                            
    0.000 999%   0.000 Cr+PCr                                              
    0.000 999%   0.000 Glu+Gln                                             
  870.217  17%   0.000 Lip13a                                              
    0.000 999%   0.000 Lip13b                                              
  244.758  33%   0.000 Lip09                                               
  124.344  63%   0.000 MM09                                                
  134.538  45%   0.000 Lip20                                               
  161.902  48%   0.000 MM20                                                
   98.080  63%   0.000 MM12                                                
    0.000 999%   0.000 MM14                                                
  170.929  31%   0.000 MM17                                                
  870.217  17%   0.000 Lip13a+Lip13b                                       
  968.298  12%   0.000 MM14+Lip13a+Lip13b+MM12                             
  369.103  14%   0.000 MM09+Lip09                                          
  296.440  24%   0.000 MM20+Lip20                                          
   6 lines in following misc. output table
  FWHM = 0.046 ppm    S/N =   2                                            
  Data shift = 0.145 ppm                                                   
  Ph: -54 deg       2.1 deg/ppm                                            
  alphaB,S = 8.5E+01,   2.6E+01                                            
   14 spline knots.   Ns = 5(1)                                            
   2 inflections.     1 extrema                                            
  498 points on ppm-axis = NY
      4.000000     3.992357     3.984714     3.977070     3.969427     3.961784     3.954141     3.946497     3.938854     3.931211
      3.923568     3.915925     3.908281     3.900638     3.892995     3.885352     3.877708     3.870065     3.862422     3.854779
      3.847136     3.839492     3.831849     3.824206     3.816563     3.808919     3.801276     3.793633     3.785990     3.778347
      3.770703     3.763060     3.755417     3.747774     3.740130     3.732487     3.724844     3.717201     3.709558     3.701914
      3.694271     3.686628     3.678985     3.671341     3.663698     3.656055     3.648412     3.640769     3.633125     3.625482
      3.617839     3.610196     3.602552     3.594909     3.587266     3.579623     3.571980     3.564336     3.556693     3.549050
      3.541407     3.533763     3.526120     3.518477     3.510834     3.503191     3.495547     3.487904     3.480261     3.472618
      3.464974     3.457331     3.449688     3.442045     3.434402     3.426758     3.419115     3.411472     3.403829     3.396185
      3.388542     3.380899     3.373256     3.365613     3.357969     3.350326     3.342683     3.335040     3.327396     3.319753
      3.312110     3.304467     3.296824     3.289180     3.281537     3.273894     3.266251     3.258607     3.250964     3.243321
      3.235678     3.228034     3.220391     3.212748     3.205105     3.197462     3.189818     3.182175     3.174532     3.166889
      3.159245     3.151602     3.143959     3.136316     3.128673     3.121029     3.113386     3.105743     3.098100     3.090456
      3.082813     3.075170     3.067527     3.059884     3.052240     3.044597     3.036954     3.029311     3.021667     3.014024
      3.006381     2.998738     2.991095     2.983451     2.975808     2.968165     2.960522     2.952878     2.945235     2.937592
      2.929949     2.922306     2.914662     2.907019     2.899376     2.891733     2.884089     2.876446     2.868803     2.861160
      2.853517     2.845873     2.838230     2.830587     2.822944     2.815300     2.807657     2.800014     2.792371     2.784728
      2.777084     2.769441     2.761798     2.754155     2.746511     2.738868     2.731225     2.723582     2.715939     2.708295
      2.700652     2.693009     2.685366     2.677722     2.670079     2.662436     2.654793     2.647150     2.639506     2.631863
      2.624220     2.616577     2.608933     2.601290     2.593647     2.586004     2.578361     2.570717     2.563074     2.555431
      2.547788     2.540144     2.532501     2.524858     2.517215     2.509572     2.501928     2.494285     2.486642     2.478999
      2.471355     2.463712     2.456069     2.448426     2.440783     2.433139     2.425496     2.417853     2.410210     2.402566
      2.394923     2.387280     2.379637     2.371994     2.364350     2.356707     2.349064     2.341421     2.333777     2.326134
      2.318491     2.310848     2.303205     2.295561     2.287918     2.280275     2.272632     2.264988     2.257345     2.249702
      2.242059     2.234416     2.226772     2.219129     2.211486     2.203843     2.196199     2.188556     2.180913     2.173270
      2.165627     2.157983     2.150340     2.142697     2.135054     2.127410     2.119767     2.112124     2.104481     2.096838
      2.089194     2.081551     2.073908     2.066265     2.058621     2.050978     2.043335     2.035692     2.028049     2.020405
      2.012762     2.005119     1.997476     1.989833     1.982190     1.974546     1.966903     1.959260     1.951617     1.943974
      1.936331     1.928688     1.921045     1.913402     1.905759     1.898115     1.890472     1.882829     1.875186     1.867543
      1.859900     1.852257     1.844614     1.836971     1.829327     1.821684     1.814041     1.806398     1.798755     1.791112
      1.783469     1.775826     1.768183     1.760540     1.752896     1.745253     1.737610     1.729967     1.722324     1.714681
      1.707038     1.699395     1.691752     1.684108     1.676465     1.668822     1.661179     1.653536     1.645893     1.638250
      1.630607     1.622964     1.615321     1.607677     1.600034     1.592391     1.584748     1.577105     1.569462     1.561819
      1.554176     1.546533     1.538890     1.531246     1.523603     1.515960     1.508317     1.500674     1.493031     1.485388
      1.477745     1.470102     1.462458     1.454815     1.447172     1.439529     1.431886     1.424243     1.416600     1.408957
      1.401314     1.393671     1.386027     1.378384     1.370741     1.363098     1.355455     1.347812     1.340169     1.332526
      1.324883     1.317240     1.309596     1.301953     1.294310     1.286667     1.279024     1.271381     1.263738     1.256095
      1.248452     1.240808     1.233165     1.225522     1.217879     1.210236     1.202593     1.194950     1.187307     1.179664
      1.172021     1.164377     1.156734     1.149091     1.141448     1.133805     1.126162     1.118519     1.110876     1.103233
      1.095590     1.087946     1.080303     1.072660     1.065017     1.057374     1.049731     1.042088     1.034445     1.026802
      1.019158     1.011515     1.003872     0.996229     0.988586     0.980943     0.973300     0.965657     0.958014     0.950371
      0.942727     0.935084     0.927441     0.919798     0.912155     0.904512     0.896869     0.889226     0.881583     0.873940
      0.866296     0.858653     0.851010     0.843367     0.835724     0.828081     0.820438     0.812795     0.805152     0.797508
      0.789865     0.782222     0.774579     0.766936     0.759293     0.751650     0.744007     0.736364     0.728721     0.721077
      0.713434     0.705791     0.698148     0.690505     0.682862     0.675219     0.667576     0.659933     0.652290     0.644646
      0.637003     0.629360     0.621717     0.614074     0.606431     0.598788     0.591145     0.583502     0.575858     0.568215
      0.560572     0.552929     0.545286     0.537643     0.530000     0.522357     0.514714     0.507071     0.499427     0.491784
      0.484141     0.476498     0.468855     0.461212     0.453569     0.445925     0.438282     0.430639     0.422996     0.415353
      0.407710     0.400067     0.392424     0.384780     0.377137     0.369494     0.361851     0.354208     0.346565     0.338922
      0.331278     0.323635     0.315992     0.308349     0.300706     0.293063     0.285420     0.277777     0.270133     0.262490
      0.254847     0.247204     0.239561     0.231918     0.224275     0.216631     0.208988     0.201345
 NY phased data points follow
   1.03956E+00  8.90867E-01  9.14321E-01 -1.77813E-02  3.05961E-01  4.04413E-01 -9.36067E-01 -1.87869E-01 -5.36581E-01  1.43832E+00
  -2.20267E-01  1.96904E+00  4.04426E-01  5.24329E-01  2.90064E-01 -4.18639E-01 -1.44426E+00  3.60113E-01 -1.82560E-01 -2.33121E-01
   4.25345E-01 -8.26623E-01 -3.32136E-02 -6.65395E-02  2.16072E+00  1.40824E+00  4.66513E-01 -3.93396E-02  1.86550E-01  1.20109E+00
  -1.83850E-01  7.40583E-01 -6.72792E-01  4.35764E-01  6.19954E-01 -2.33371E-01  1.68928E+00  8.25485E-01  9.53442E-01  1.62142E+00
  -1.04307E-01 -1.30846E-01  1.77268E-01  1.76465E+00  1.11518E+00  4.55556E-01  1.07090E+00  2.96744E-01  1.37355E+00 -1.83061E-01
  -8.85285E-01  7.13074E-01  1.07030E+00 -1.39296E+00 -4.34211E-01  1.04757E+00  5.17325E-01  1.27039E+00  1.81651E-01  7.34201E-01
  -4.11266E-01 -6.25980E-01  1.88676E-01  6.97166E-01  7.78608E-01  7.75671E-01  2.90032E-02 -3.20971E-01  1.13318E-01  1.33799E+00
   1.60724E-01  7.23319E-01 -1.48416E+00  6.12441E-01  7.30240E-01  9.01797E-01  1.37729E-02  8.51040E-01  8.14003E-01  6.45631E-01
  -6.16304E-01 -2.59183E-01  9.75875E-02 -2.60786E-01  1.30773E+00  1.10340E-01  3.10311E-01  8.72412E-01  7.88116E-01  6.74108E-01
  -5.52103E-01  3.38729E-01  7.47847E-01 -1.65703E+00 -5.60492E-01  5.39185E-01  9.74770E-01  1.90579E+00  6.16662E-01  4.43474E-01
  -2.72256E-01  6.25023E-01 -7.74827E-01  9.61646E-01 -1.00941E+00  2.34456E-01  7.79617E-01 -5.52998E-01 -1.80647E-01  6.42647E-01
   8.41315E-02  9.60937E-01 -6.66668E-03 -1.55784E+00  2.69268E-01  1.46920E+00  3.69986E-01  1.26499E+00  1.13541E-01  1.28447E+00
   4.33290E-01  3.00434E-01 -2.34977E-02 -6.13326E-01  1.19491E+00 -4.06661E-02 -9.54848E-01 -4.16501E-01  8.21611E-01  1.49659E-01
  -4.69725E-02 -1.22597E-01 -1.21254E-02  1.26544E+00  2.25450E-01  5.54279E-01  1.04720E-01  8.99459E-01 -8.83780E-01  1.72567E+00
   4.84307E-01  5.82067E-01  1.58474E-01  6.82872E-01 -4.23029E-01  1.18437E+00 -3.98082E-01 -5.81316E-01 -7.67332E-02 -5.39982E-01
  -5.58082E-01 -9.69918E-01 -1.33487E+00 -4.61070E-01  5.23249E-01  6.40604E-01  8.21463E-01  7.59264E-01  9.56136E-01 -2.23314E-01
  -4.68820E-01  5.40773E-01 -3.02987E-01  7.09641E-01  7.84826E-01 -1.46588E-01 -5.50659E-01 -1.05150E+00  1.23955E+00  8.17515E-01
  -1.60435E-01 -1.23938E+00 -6.63442E-01 -6.36915E-01 -3.51574E-01  6.15670E-01  1.05694E-01 -1.51728E-01  9.23420E-01  2.08907E+00
  -3.83264E-01  8.53254E-01 -4.13381E-01 -3.87550E-01  7.47371E-02 -2.77130E-01  1.20888E-01  5.05676E-01  6.58433E-02 -4.23379E-01
  -9.39145E-01 -3.61022E-02  1.53851E+00  3.81273E-01 -9.98497E-01  8.18863E-01  2.19982E+00  4.50984E-01 -1.00565E-01  1.72128E-01
   1.46350E+00  5.76043E-01  2.39401E+00  5.56739E-01  1.83221E+00 -5.55669E-01 -2.94367E-01  3.46178E-01  2.22108E-01  8.55303E-01
  -1.17392E-01 -4.77100E-01  8.80706E-01  6.17615E-01 -4.67009E-01 -2.55016E-01  9.56347E-01  2.74741E-02 -5.18031E-01 -3.91382E-01
   4.82353E-01 -3.62279E-01  8.00672E-01  2.79193E-01  5.49021E-01  8.15342E-01 -7.82604E-02  1.44664E+00 -3.74729E-01 -2.81118E-01
   8.25809E-01  5.34161E-01 -8.50014E-02  1.21794E+00  8.81256E-02  2.27476E-01  6.62785E-01  4.68480E-01  2.09623E+00  1.84875E-02
  -1.75972E-01 -1.08119E-01  2.89220E-02  8.41790E-01  6.80898E-01  7.01610E-01  1.07466E+00  6.74802E-01 -1.80398E-01  8.87931E-02
  -1.73194E-01  2.42037E+00  1.46948E+00  1.65463E+00  1.33745E+00  1.42683E+00  7.50968E-01  1.24277E+00  1.73549E+00  4.15186E-01
  -1.35468E+00  2.67149E-02 -7.91095E-01 -6.05106E-01  6.74947E-01 -2.10642E-01  1.34232E+00 -3.10651E-01  1.34636E+00  8.92364E-01
   2.86027E-04  9.04295E-01  3.36140E-01 -6.61174E-01  4.22118E-01  7.20869E-01  3.02945E-01 -4.34555E-01 -1.06328E+00  1.12470E+00
   1.79650E+00 -9.86482E-03 -8.00875E-01 -8.65844E-01  8.59645E-01  3.92958E-01  1.35660E+00  9.16092E-01  1.75232E+00  7.02434E-01
   1.46119E+00  5.11851E-01  5.62891E-01 -1.90512E-01 -1.69807E+00  5.12117E-01  1.26952E+00  2.40207E-01  1.81579E+00 -4.98767E-01
   8.97987E-02 -8.18769E-01  1.86264E-01  2.87086E-01 -3.85015E-01  1.04454E+00 -3.72356E-01  2.05287E+00  1.11305E+00  1.32453E+00
  -5.26012E-01 -1.44523E-01  1.31363E+00  1.07589E-01 -1.31836E+00 -2.62675E-02 -2.62254E-01  5.28003E-02 -5.75616E-01  9.49183E-01
  -5.77686E-01  1.19215E+00  5.27517E-01  2.35206E-01  1.40122E-01 -7.24047E-01  1.08935E+00  1.09419E+00  1.87489E+00  4.75268E-01
  -5.48646E-01 -6.55300E-01 -3.04849E-01 -3.31582E-01 -6.90815E-01 -3.42963E-01  2.11993E+00  4.70904E-01  4.01729E-01 -6.62924E-01
   5.03908E-01  1.03708E+00 -1.07996E-01 -5.17501E-01  1.69410E+00  6.94210E-01  1.12301E+00  7.85963E-01  1.39896E+00  1.08747E+00
   9.43089E-01  2.35383E+00  2.57115E+00  2.22510E+00  2.17430E+00  2.15376E+00  6.97972E-01  1.93060E+00  2.66193E+00  2.68136E+00
   3.51344E+00  3.31635E+00  1.43295E+00  1.00462E+00  1.62553E+00  3.55500E+00  3.28001E+00  1.99193E+00  3.03621E+00  3.38247E+00
   2.64744E+00  2.43153E+00  2.51770E+00  1.34452E+00  2.07326E+00  1.74640E+00  3.38608E+00  1.56878E+00  2.90855E+00  1.38478E+00
   9.16468E-01  1.32138E+00  1.48197E+00  2.47451E+00  3.09121E+00  2.22114E-01  1.65831E+00  2.67885E+00  8.06664E-01  1.35268E+00
   2.22130E+00  1.41616E+00  1.69419E-01  2.66323E+00 -4.76975E-01  1.58848E+00  1.50008E+00  1.29614E+00  6.27706E-01  1.91818E+00
   1.98410E+00  1.61470E+00  2.08442E-01  8.75588E-03  7.17068E-01  1.79291E+00  2.43799E+00  6.53355E-01  1.55113E+00 -2.93408E-01
   1.67316E+00  9.43092E-01  1.47202E+00  1.63441E+00  1.29519E+00 -3.53169E-01  1.60042E+00  1.19837E+00  5.95659E-03 -3.34432E-01
  -1.03440E-01 -1.42960E-01 -8.97258E-01 -4.07059E-01 -1.23102E-01 -8.03563E-01 -1.44948E+00 -8.07472E-01 -9.86815E-01  3.64269E-01
  -1.27579E+00 -8.74752E-01 -1.06843E+00 -1.41487E-01 -3.18471E-01  6.81709E-01 -1.33723E+00  5.33930E-01  3.78960E-01  1.13099E-01
  -1.73648E+00  8.91589E-02 -1.57782E+00 -7.37364E-01 -2.82931E-01 -8.05540E-01 -1.19479E+00 -3.11747E-01 -1.40441E+00 -1.02985E+00
  -1.53838E+00 -1.71280E+00 -1.57843E+00 -3.29213E-01 -1.02595E+00 -5.31172E-01 -1.44441E+00 -1.25454E+00 -8.96285E-01 -8.51781E-01
  -1.37468E+00 -1.09069E+00 -1.35263E+00 -9.36012E-01 -1.34094E+00 -1.55180E+00 -1.58593E+00 -1.04353E+00 -1.25371E+00 -1.68960E+00
  -8.06884E-01 -1.30783E+00 -2.23567E+00 -1.46593E+00 -1.81406E+00 -1.30978E+00 -1.94421E+00 -1.49570E+00 -1.79049E+00 -1.24990E+00
  -1.42668E+00 -1.16373E+00 -1.57210E+00 -1.01426E+00 -1.30722E+00  1.93085E-01 -3.52069E+00 -1.43127E+00 -2.48980E+00 -2.50070E+00
  -1.85584E+00 -2.11101E+00 -2.61678E+00 -2.45327E+00 -2.87518E+00 -2.43446E+00 -2.21402E+00 -1.17436E+00
 NY points of the fit to the data follow
   6.60351E-01  6.56171E-01  6.52035E-01  6.47379E-01  6.41529E-01  6.34727E-01  6.27765E-01  6.21360E-01  6.15763E-01  6.11069E-01
   6.07329E-01  6.04384E-01  6.01099E-01  5.95019E-01  5.86264E-01  5.77275E-01  5.70365E-01  5.67046E-01  5.68103E-01  5.74446E-01
   5.87254E-01  6.01174E-01  6.07295E-01  6.02010E-01  5.85974E-01  5.61906E-01  5.32771E-01  5.01645E-01  4.76325E-01  4.66726E-01
   4.73587E-01  4.91225E-01  5.12403E-01  5.31945E-01  5.46538E-01  5.52232E-01  5.45559E-01  5.28882E-01  5.08218E-01  4.89389E-01
   4.75191E-01  4.65683E-01  4.60348E-01  4.58487E-01  4.58714E-01  4.59081E-01  4.58118E-01  4.55641E-01  4.52369E-01  4.48836E-01
   4.45196E-01  4.41455E-01  4.37557E-01  4.33452E-01  4.29203E-01  4.24918E-01  4.20677E-01  4.16490E-01  4.12372E-01  4.08363E-01
   4.04504E-01  4.00865E-01  3.97428E-01  3.93929E-01  3.90350E-01  3.86547E-01  3.82382E-01  3.77954E-01  3.73430E-01  3.68949E-01
   3.65083E-01  3.62321E-01  3.60211E-01  3.58036E-01  3.55233E-01  3.51422E-01  3.46533E-01  3.40989E-01  3.35348E-01  3.30138E-01
   3.26029E-01  3.24175E-01  3.24410E-01  3.25052E-01  3.24784E-01  3.22972E-01  3.19510E-01  3.14613E-01  3.08434E-01  3.01224E-01
   2.93770E-01  2.87015E-01  2.81427E-01  2.77131E-01  2.74244E-01  2.72384E-01  2.71160E-01  2.70326E-01  2.69351E-01  2.67686E-01
   2.65288E-01  2.62430E-01  2.59564E-01  2.57340E-01  2.56001E-01  2.55393E-01  2.55233E-01  2.55325E-01  2.55553E-01  2.55863E-01
   2.56313E-01  2.57018E-01  2.58070E-01  2.59522E-01  2.61345E-01  2.63381E-01  2.65592E-01  2.68010E-01  2.70539E-01  2.73122E-01
   2.75798E-01  2.78660E-01  2.81782E-01  2.85123E-01  2.88519E-01  2.91864E-01  2.95061E-01  2.97883E-01  3.00060E-01  3.01399E-01
   3.01884E-01  3.01766E-01  3.01207E-01  3.00309E-01  2.99309E-01  2.98396E-01  2.97605E-01  2.96704E-01  2.95499E-01  2.94038E-01
   2.92470E-01  2.91000E-01  2.89614E-01  2.88141E-01  2.86532E-01  2.84769E-01  2.82755E-01  2.80357E-01  2.77299E-01  2.72260E-01
   2.64739E-01  2.56303E-01  2.48534E-01  2.42922E-01  2.40510E-01  2.39451E-01  2.37935E-01  2.34852E-01  2.29042E-01  2.19498E-01
   2.06285E-01  1.90974E-01  1.75832E-01  1.62140E-01  1.49314E-01  1.35279E-01  1.20932E-01  1.08914E-01  1.00033E-01  9.36262E-02
   8.74017E-02  7.95049E-02  7.03734E-02  6.00251E-02  4.80169E-02  3.46757E-02  2.13691E-02  8.90378E-03 -2.83112E-03 -1.18418E-02
  -1.74707E-02 -2.02864E-02 -2.05444E-02 -1.84013E-02 -1.47833E-02 -1.13146E-02 -9.49887E-03 -9.46632E-03 -1.18034E-02 -1.69459E-02
  -2.40840E-02 -3.28059E-02 -4.30040E-02 -5.42193E-02 -6.44181E-02 -7.04309E-02 -7.15157E-02 -6.86134E-02 -6.36422E-02 -5.87996E-02
  -5.55977E-02 -5.46374E-02 -5.59034E-02 -5.92859E-02 -6.47660E-02 -7.00461E-02 -7.30340E-02 -7.29955E-02 -6.96613E-02 -6.28306E-02
  -5.25257E-02 -3.93493E-02 -2.46285E-02 -9.97883E-03  3.63764E-03  1.63636E-02  2.90461E-02  4.23009E-02  5.64301E-02  7.15804E-02
   8.77055E-02  1.04654E-01  1.22118E-01  1.38999E-01  1.54964E-01  1.69898E-01  1.82624E-01  1.93430E-01  2.03441E-01  2.14276E-01
   2.28686E-01  2.47798E-01  2.69700E-01  2.91778E-01  3.13230E-01  3.33610E-01  3.51784E-01  3.65980E-01  3.78054E-01  3.92985E-01
   4.13986E-01  4.41344E-01  4.73512E-01  5.08125E-01  5.42841E-01  5.75823E-01  6.05155E-01  6.30436E-01  6.53345E-01  6.78489E-01
   7.27811E-01  8.50360E-01  1.02484E+00  1.19508E+00  1.32109E+00  1.38071E+00  1.36224E+00  1.26391E+00  1.09968E+00  9.04505E-01
   7.25358E-01  5.96124E-01  5.17804E-01  4.66281E-01  4.22658E-01  3.81042E-01  3.41133E-01  3.03816E-01  2.69417E-01  2.37946E-01
   2.09511E-01  1.83296E-01  1.57472E-01  1.31178E-01  1.04870E-01  7.97264E-02  5.71963E-02  3.88928E-02  2.66145E-02  2.13298E-02
   2.24590E-02  2.88705E-02  3.91805E-02  5.24432E-02  6.83693E-02  8.67252E-02  1.07572E-01  1.32028E-01  1.60888E-01  1.94044E-01
   2.30673E-01  2.69597E-01  3.09475E-01  3.48648E-01  3.85147E-01  4.17773E-01  4.46091E-01  4.70009E-01  4.89429E-01  5.03989E-01
   5.13246E-01  5.16819E-01  5.14367E-01  5.05625E-01  4.90596E-01  4.69697E-01  4.43731E-01  4.13656E-01  3.80468E-01  3.45177E-01
   3.08790E-01  2.72293E-01  2.36634E-01  2.02702E-01  1.71319E-01  1.43247E-01  1.19196E-01  9.98763E-02  8.60841E-02  7.89124E-02
   8.02932E-02  9.48296E-02  1.31503E-01  1.77231E-01  2.02051E-01  1.95204E-01  1.58616E-01  9.84874E-02  2.24568E-02 -5.89724E-02
  -1.14739E-01 -1.02255E-01 -1.66784E-02  1.19410E-01  2.75778E-01  4.29796E-01  5.67956E-01  6.79814E-01  7.60117E-01  8.15158E-01
   8.62305E-01  9.19553E-01  9.94019E-01  1.08213E+00  1.17933E+00  1.28305E+00  1.39165E+00  1.50372E+00  1.61793E+00  1.73290E+00
   1.84718E+00  1.95927E+00  2.06758E+00  2.17053E+00  2.26651E+00  2.35395E+00  2.43138E+00  2.49745E+00  2.55097E+00  2.59096E+00
   2.61670E+00  2.62773E+00  2.62389E+00  2.60533E+00  2.57248E+00  2.52609E+00  2.46715E+00  2.39694E+00  2.31690E+00  2.22865E+00
   2.13395E+00  2.03461E+00  1.93247E+00  1.82935E+00  1.72704E+00  1.62721E+00  1.53145E+00  1.44118E+00  1.35769E+00  1.28211E+00
   1.21537E+00  1.15828E+00  1.11143E+00  1.07524E+00  1.04997E+00  1.03567E+00  1.03219E+00  1.03919E+00  1.05611E+00  1.08218E+00
   1.11637E+00  1.15747E+00  1.20401E+00  1.25437E+00  1.30673E+00  1.35914E+00  1.40958E+00  1.45602E+00  1.49647E+00  1.52907E+00
   1.55213E+00  1.56424E+00  1.56429E+00  1.55153E+00  1.52559E+00  1.48649E+00  1.43463E+00  1.37077E+00  1.29596E+00  1.21153E+00
   1.11897E+00  1.01990E+00  9.16011E-01  8.08943E-01  7.00286E-01  5.91505E-01  4.83912E-01  3.78635E-01  2.76610E-01  1.78579E-01
   8.50941E-02 -3.46896E-03 -8.68915E-02 -1.65093E-01 -2.38106E-01 -3.06052E-01 -3.69125E-01 -4.27567E-01 -4.81654E-01 -5.31682E-01
  -5.77952E-01 -6.20764E-01 -6.60409E-01 -6.97165E-01 -7.31293E-01 -7.63035E-01 -7.92616E-01 -8.20238E-01 -8.46087E-01 -8.70330E-01
  -8.93119E-01 -9.14590E-01 -9.34863E-01 -9.54049E-01 -9.72244E-01 -9.89537E-01 -1.00601E+00 -1.02172E+00 -1.03675E+00 -1.05114E+00
  -1.06495E+00 -1.07822E+00 -1.09100E+00 -1.10332E+00 -1.11522E+00 -1.12672E+00 -1.13786E+00 -1.14867E+00 -1.15915E+00 -1.16935E+00
  -1.17927E+00 -1.18893E+00 -1.19835E+00 -1.20755E+00 -1.21654E+00 -1.22532E+00 -1.23392E+00 -1.24235E+00 -1.25061E+00 -1.25871E+00
  -1.26667E+00 -1.27448E+00 -1.28217E+00 -1.28973E+00 -1.29717E+00 -1.30450E+00 -1.31172E+00 -1.31884E+00 -1.32586E+00 -1.33279E+00
  -1.33964E+00 -1.34640E+00 -1.35308E+00 -1.35969E+00 -1.36622E+00 -1.37268E+00 -1.37908E+00 -1.38542E+00 -1.39169E+00 -1.39791E+00
  -1.40407E+00 -1.41018E+00 -1.41624E+00 -1.42224E+00 -1.42820E+00 -1.43412E+00 -1.43999E+00 -1.44582E+00
 NY background values follow
     6.428E-01    6.384E-01    6.341E-01    6.297E-01    6.253E-01    6.210E-01    6.166E-01    6.122E-01    6.079E-01    6.035E-01
     5.991E-01    5.947E-01    5.904E-01    5.860E-01    5.816E-01    5.773E-01    5.729E-01    5.685E-01    5.642E-01    5.598E-01
     5.554E-01    5.511E-01    5.467E-01    5.423E-01    5.380E-01    5.336E-01    5.292E-01    5.249E-01    5.205E-01    5.161E-01
     5.117E-01    5.074E-01    5.030E-01    4.986E-01    4.943E-01    4.899E-01    4.855E-01    4.812E-01    4.768E-01    4.724E-01
     4.681E-01    4.637E-01    4.593E-01    4.550E-01    4.506E-01    4.462E-01    4.418E-01    4.375E-01    4.331E-01    4.287E-01
     4.244E-01    4.200E-01    4.156E-01    4.113E-01    4.069E-01    4.025E-01    3.982E-01    3.938E-01    3.894E-01    3.851E-01
     3.807E-01    3.763E-01    3.719E-01    3.676E-01    3.632E-01    3.588E-01    3.545E-01    3.501E-01    3.457E-01    3.414E-01
     3.370E-01    3.326E-01    3.283E-01    3.239E-01    3.195E-01    3.152E-01    3.108E-01    3.064E-01    3.020E-01    2.977E-01
     2.933E-01    2.889E-01    2.846E-01    2.802E-01    2.758E-01    2.715E-01    2.671E-01    2.627E-01    2.584E-01    2.540E-01
     2.496E-01    2.453E-01    2.409E-01    2.365E-01    2.321E-01    2.278E-01    2.234E-01    2.190E-01    2.147E-01    2.103E-01
     2.059E-01    2.016E-01    1.972E-01    1.928E-01    1.885E-01    1.841E-01    1.797E-01    1.754E-01    1.710E-01    1.666E-01
     1.622E-01    1.579E-01    1.535E-01    1.491E-01    1.448E-01    1.404E-01    1.360E-01    1.317E-01    1.273E-01    1.229E-01
     1.186E-01    1.142E-01    1.098E-01    1.055E-01    1.011E-01    9.672E-02    9.235E-02    8.798E-02    8.361E-02    7.924E-02
     7.487E-02    7.050E-02    6.614E-02    6.177E-02    5.740E-02    5.303E-02    4.866E-02    4.429E-02    3.992E-02    3.555E-02
     3.118E-02    2.682E-02    2.245E-02    1.808E-02    1.371E-02    9.340E-03    4.972E-03    6.027E-04   -3.766E-03   -8.135E-03
    -1.250E-02   -1.687E-02   -2.124E-02   -2.561E-02   -2.998E-02   -3.435E-02   -3.872E-02   -4.309E-02   -4.745E-02   -5.182E-02
    -5.619E-02   -6.056E-02   -6.493E-02   -6.930E-02   -7.367E-02   -7.804E-02   -8.241E-02   -8.677E-02   -9.114E-02   -9.551E-02
    -9.988E-02   -1.043E-01   -1.086E-01   -1.130E-01   -1.174E-01   -1.217E-01   -1.261E-01   -1.305E-01   -1.348E-01   -1.392E-01
    -1.436E-01   -1.479E-01   -1.523E-01   -1.567E-01   -1.610E-01   -1.654E-01   -1.698E-01   -1.742E-01   -1.785E-01   -1.829E-01
    -1.873E-01   -1.916E-01   -1.960E-01   -2.004E-01   -2.047E-01   -2.091E-01   -2.135E-01   -2.178E-01   -2.222E-01   -2.266E-01
    -2.310E-01   -2.353E-01   -2.397E-01   -2.441E-01   -2.484E-01   -2.528E-01   -2.572E-01   -2.615E-01   -2.659E-01   -2.703E-01
    -2.746E-01   -2.790E-01   -2.834E-01   -2.878E-01   -2.921E-01   -2.965E-01   -3.009E-01   -3.052E-01   -3.096E-01   -3.140E-01
    -3.183E-01   -3.227E-01   -3.271E-01   -3.314E-01   -3.358E-01   -3.402E-01   -3.446E-01   -3.489E-01   -3.533E-01   -3.577E-01
    -3.620E-01   -3.664E-01   -3.708E-01   -3.751E-01   -3.795E-01   -3.839E-01   -3.882E-01   -3.926E-01   -3.970E-01   -4.013E-01
    -4.057E-01   -4.101E-01   -4.145E-01   -4.188E-01   -4.232E-01   -4.276E-01   -4.319E-01   -4.363E-01   -4.407E-01   -4.450E-01
    -4.494E-01   -4.538E-01   -4.582E-01   -4.625E-01   -4.669E-01   -4.713E-01   -4.756E-01   -4.800E-01   -4.844E-01   -4.887E-01
    -4.931E-01   -4.975E-01   -5.018E-01   -5.062E-01   -5.106E-01   -5.150E-01   -5.193E-01   -5.237E-01   -5.281E-01   -5.324E-01
    -5.368E-01   -5.412E-01   -5.455E-01   -5.499E-01   -5.543E-01   -5.586E-01   -5.630E-01   -5.674E-01   -5.718E-01   -5.761E-01
    -5.805E-01   -5.849E-01   -5.892E-01   -5.936E-01   -5.980E-01   -6.023E-01   -6.067E-01   -6.111E-01   -6.154E-01   -6.198E-01
    -6.242E-01   -6.286E-01   -6.329E-01   -6.373E-01   -6.417E-01   -6.460E-01   -6.504E-01   -6.548E-01   -6.591E-01   -6.635E-01
    -6.679E-01   -6.723E-01   -6.766E-01   -6.810E-01   -6.854E-01   -6.897E-01   -6.941E-01   -6.985E-01   -7.028E-01   -7.072E-01
    -7.116E-01   -7.159E-01   -7.203E-01   -7.247E-01   -7.291E-01   -7.334E-01   -7.378E-01   -7.422E-01   -7.465E-01   -7.509E-01
    -7.553E-01   -7.596E-01   -7.640E-01   -7.684E-01   -7.727E-01   -7.771E-01   -7.815E-01   -7.859E-01   -7.902E-01   -7.946E-01
    -7.990E-01   -8.033E-01   -8.077E-01   -8.121E-01   -8.164E-01   -8.208E-01   -8.252E-01   -8.296E-01   -8.339E-01   -8.383E-01
    -8.427E-01   -8.470E-01   -8.514E-01   -8.558E-01   -8.601E-01   -8.645E-01   -8.689E-01   -8.732E-01   -8.776E-01   -8.820E-01
    -8.864E-01   -8.907E-01   -8.951E-01   -8.995E-01   -9.038E-01   -9.082E-01   -9.126E-01   -9.169E-01   -9.213E-01   -9.257E-01
    -9.301E-01   -9.344E-01   -9.388E-01   -9.432E-01   -9.475E-01   -9.519E-01   -9.563E-01   -9.606E-01   -9.650E-01   -9.694E-01
    -9.738E-01   -9.781E-01   -9.825E-01   -9.869E-01   -9.912E-01   -9.956E-01   -1.000E+00   -1.004E+00   -1.009E+00   -1.013E+00
    -1.017E+00   -1.022E+00   -1.026E+00   -1.031E+00   -1.035E+00   -1.039E+00   -1.044E+00   -1.048E+00   -1.052E+00   -1.057E+00
    -1.061E+00   -1.066E+00   -1.070E+00   -1.074E+00   -1.079E+00   -1.083E+00   -1.087E+00   -1.092E+00   -1.096E+00   -1.100E+00
    -1.105E+00   -1.109E+00   -1.114E+00   -1.118E+00   -1.122E+00   -1.127E+00   -1.131E+00   -1.135E+00   -1.140E+00   -1.144E+00
    -1.149E+00   -1.153E+00   -1.157E+00   -1.162E+00   -1.166E+00   -1.170E+00   -1.175E+00   -1.179E+00   -1.183E+00   -1.188E+00
    -1.192E+00   -1.197E+00   -1.201E+00   -1.205E+00   -1.210E+00   -1.214E+00   -1.218E+00   -1.223E+00   -1.227E+00   -1.232E+00
    -1.236E+00   -1.240E+00   -1.245E+00   -1.249E+00   -1.253E+00   -1.258E+00   -1.262E+00   -1.267E+00   -1.271E+00   -1.275E+00
    -1.280E+00   -1.284E+00   -1.288E+00   -1.293E+00   -1.297E+00   -1.301E+00   -1.306E+00   -1.310E+00   -1.315E+00   -1.319E+00
    -1.323E+00   -1.328E+00   -1.332E+00   -1.336E+00   -1.341E+00   -1.345E+00   -1.350E+00   -1.354E+00   -1.358E+00   -1.363E+00
    -1.367E+00   -1.371E+00   -1.376E+00   -1.380E+00   -1.385E+00   -1.389E+00   -1.393E+00   -1.398E+00   -1.402E+00   -1.406E+00
    -1.411E+00   -1.415E+00   -1.419E+00   -1.424E+00   -1.428E+00   -1.433E+00   -1.437E+00   -1.441E+00   -1.446E+00   -1.450E+00
    -1.454E+00   -1.459E+00   -1.463E+00   -1.468E+00   -1.472E+00   -1.476E+00   -1.481E+00   -1.485E+00   -1.489E+00   -1.494E+00
    -1.498E+00   -1.502E+00   -1.507E+00   -1.511E+00   -1.516E+00   -1.520E+00   -1.524E+00   -1.529E+00
 Ala      Conc. = 1.65E+01
