 LCModel (Version 6.3-1L) Copyright: S.W. Provencher.          Ref.: Magn. Reson. Med. 30:672-679 (1993).                
 Slice#3 Row#13 Col#2  PD_05_press_1_raw_act
 36 lines in following concentration table = NCONC+1
    Conc.  %SD /Cr+PCr  Metabolite                                         
    0.000 999%   0.000 Ala                                                 
  196.414  45%   2.218 Asp                                                 
    0.000 999%   0.000 Cr                                                  
   88.543 742%   1.000 PCr                                                 
   42.384 125%   0.479 GABA                                                
   66.236  81%   0.748 Glc                                                 
    0.000 999%   0.000 Gln                                                 
 1.99E+04   8% 224.935 Glu                                                 
    0.000 999%   0.000 GPC                                                 
  126.016  42%   1.423 PCh                                                 
    0.000 999%   0.000 GSH                                                 
 3.64E+03  19%  41.111 Ins                                                 
 3.78E+03  51%  42.671 Lac                                                 
 1.63E+03  15%  18.358 NAA                                                 
    0.000 999%   0.000 NAAG                                                
   36.894  47%   0.417 Scyllo                                              
  148.528  59%   1.677 Tau                                                 
    0.000 999%   0.000 -CrCH2                                              
  126.016  42%   1.423 GPC+PCh                                             
 1.63E+03  15%  18.358 NAA+NAAG                                            
   88.543 119%   1.000 Cr+PCr                                              
 1.99E+04   8% 224.935 Glu+Gln                                             
 2.68E+04  18% 303.119 Lip13a                                              
    0.000 999%   0.000 Lip13b                                              
 7.17E+03  24%  80.943 Lip09                                               
 4.26E+03  26%  48.106 MM09                                                
    0.000 999%   0.000-Lip20                                               
    0.000 999%   0.000-MM20                                                
 1.65E+03  42%  18.585 MM12                                                
 1.53E+04  16% 172.438+MM14                                                
 1.04E+04  15% 117.249+MM17                                                
 2.68E+04  18% 303.119 Lip13a+Lip13b                                       
 4.38E+04  11% 494.143 MM14+Lip13a+Lip13b+MM12                             
 1.14E+04  17% 129.049 MM09+Lip09                                          
    0.000 999%   0.000 MM20+Lip20                                          
   6 lines in following misc. output table
  FWHM = 0.168 ppm    S/N =  14                                            
  Data shift =-0.061 ppm                                                   
  Ph:-155 deg     125.9 deg/ppm                                            
  alphaB,S = 3.0E-01,   6.5E+02                                            
   10 spline knots.   Ns = 9(2)                                            
  (13) 2 infls.   ( 1) 1 extrs.                                            
  498 points on ppm-axis = NY
      4.000000     3.992357     3.984714     3.977070     3.969427     3.961784     3.954141     3.946497     3.938854     3.931211
      3.923568     3.915925     3.908281     3.900638     3.892995     3.885352     3.877708     3.870065     3.862422     3.854779
      3.847136     3.839492     3.831849     3.824206     3.816563     3.808919     3.801276     3.793633     3.785990     3.778347
      3.770703     3.763060     3.755417     3.747774     3.740130     3.732487     3.724844     3.717201     3.709558     3.701914
      3.694271     3.686628     3.678985     3.671341     3.663698     3.656055     3.648412     3.640769     3.633125     3.625482
      3.617839     3.610196     3.602552     3.594909     3.587266     3.579623     3.571980     3.564336     3.556693     3.549050
      3.541407     3.533763     3.526120     3.518477     3.510834     3.503191     3.495547     3.487904     3.480261     3.472618
      3.464974     3.457331     3.449688     3.442045     3.434402     3.426758     3.419115     3.411472     3.403829     3.396185
      3.388542     3.380899     3.373256     3.365613     3.357969     3.350326     3.342683     3.335040     3.327396     3.319753
      3.312110     3.304467     3.296824     3.289180     3.281537     3.273894     3.266251     3.258607     3.250964     3.243321
      3.235678     3.228034     3.220391     3.212748     3.205105     3.197462     3.189818     3.182175     3.174532     3.166889
      3.159245     3.151602     3.143959     3.136316     3.128673     3.121029     3.113386     3.105743     3.098100     3.090456
      3.082813     3.075170     3.067527     3.059884     3.052240     3.044597     3.036954     3.029311     3.021667     3.014024
      3.006381     2.998738     2.991095     2.983451     2.975808     2.968165     2.960522     2.952878     2.945235     2.937592
      2.929949     2.922306     2.914662     2.907019     2.899376     2.891733     2.884089     2.876446     2.868803     2.861160
      2.853517     2.845873     2.838230     2.830587     2.822944     2.815300     2.807657     2.800014     2.792371     2.784728
      2.777084     2.769441     2.761798     2.754155     2.746511     2.738868     2.731225     2.723582     2.715939     2.708295
      2.700652     2.693009     2.685366     2.677722     2.670079     2.662436     2.654793     2.647150     2.639506     2.631863
      2.624220     2.616577     2.608933     2.601290     2.593647     2.586004     2.578361     2.570717     2.563074     2.555431
      2.547788     2.540144     2.532501     2.524858     2.517215     2.509572     2.501928     2.494285     2.486642     2.478999
      2.471355     2.463712     2.456069     2.448426     2.440783     2.433139     2.425496     2.417853     2.410210     2.402566
      2.394923     2.387280     2.379637     2.371994     2.364350     2.356707     2.349064     2.341421     2.333777     2.326134
      2.318491     2.310848     2.303205     2.295561     2.287918     2.280275     2.272632     2.264988     2.257345     2.249702
      2.242059     2.234416     2.226772     2.219129     2.211486     2.203843     2.196199     2.188556     2.180913     2.173270
      2.165627     2.157983     2.150340     2.142697     2.135054     2.127410     2.119767     2.112124     2.104481     2.096838
      2.089194     2.081551     2.073908     2.066265     2.058621     2.050978     2.043335     2.035692     2.028049     2.020405
      2.012762     2.005119     1.997476     1.989833     1.982190     1.974546     1.966903     1.959260     1.951617     1.943974
      1.936331     1.928688     1.921045     1.913402     1.905759     1.898115     1.890472     1.882829     1.875186     1.867543
      1.859900     1.852257     1.844614     1.836971     1.829327     1.821684     1.814041     1.806398     1.798755     1.791112
      1.783469     1.775826     1.768183     1.760540     1.752896     1.745253     1.737610     1.729967     1.722324     1.714681
      1.707038     1.699395     1.691752     1.684108     1.676465     1.668822     1.661179     1.653536     1.645893     1.638250
      1.630607     1.622964     1.615321     1.607677     1.600034     1.592391     1.584748     1.577105     1.569462     1.561819
      1.554176     1.546533     1.538890     1.531246     1.523603     1.515960     1.508317     1.500674     1.493031     1.485388
      1.477745     1.470102     1.462458     1.454815     1.447172     1.439529     1.431886     1.424243     1.416600     1.408957
      1.401314     1.393671     1.386027     1.378384     1.370741     1.363098     1.355455     1.347812     1.340169     1.332526
      1.324883     1.317240     1.309596     1.301953     1.294310     1.286667     1.279024     1.271381     1.263738     1.256095
      1.248452     1.240808     1.233165     1.225522     1.217879     1.210236     1.202593     1.194950     1.187307     1.179664
      1.172021     1.164377     1.156734     1.149091     1.141448     1.133805     1.126162     1.118519     1.110876     1.103233
      1.095590     1.087946     1.080303     1.072660     1.065017     1.057374     1.049731     1.042088     1.034445     1.026802
      1.019158     1.011515     1.003872     0.996229     0.988586     0.980943     0.973300     0.965657     0.958014     0.950371
      0.942727     0.935084     0.927441     0.919798     0.912155     0.904512     0.896869     0.889226     0.881583     0.873940
      0.866296     0.858653     0.851010     0.843367     0.835724     0.828081     0.820438     0.812795     0.805152     0.797508
      0.789865     0.782222     0.774579     0.766936     0.759293     0.751650     0.744007     0.736364     0.728721     0.721077
      0.713434     0.705791     0.698148     0.690505     0.682862     0.675219     0.667576     0.659933     0.652290     0.644646
      0.637003     0.629360     0.621717     0.614074     0.606431     0.598788     0.591145     0.583502     0.575858     0.568215
      0.560572     0.552929     0.545286     0.537643     0.530000     0.522357     0.514714     0.507071     0.499427     0.491784
      0.484141     0.476498     0.468855     0.461212     0.453569     0.445925     0.438282     0.430639     0.422996     0.415353
      0.407710     0.400067     0.392424     0.384780     0.377137     0.369494     0.361851     0.354208     0.346565     0.338922
      0.331278     0.323635     0.315992     0.308349     0.300706     0.293063     0.285420     0.277777     0.270133     0.262490
      0.254847     0.247204     0.239561     0.231918     0.224275     0.216631     0.208988     0.201345
 NY phased data points follow
   3.64392E+01  3.64362E+01  3.53729E+01  3.44410E+01  3.43495E+01  3.29934E+01  3.27208E+01  3.14203E+01  3.25504E+01  3.16789E+01
   2.89903E+01  2.97385E+01  2.92614E+01  2.88873E+01  2.81300E+01  2.85751E+01  2.61706E+01  2.61459E+01  2.54409E+01  2.51671E+01
   2.39846E+01  2.40254E+01  2.32619E+01  2.29846E+01  2.22438E+01  2.17137E+01  2.23035E+01  2.02538E+01  1.89048E+01  1.96758E+01
   2.00154E+01  1.80222E+01  1.83653E+01  1.80428E+01  1.78981E+01  1.57586E+01  1.54426E+01  1.60516E+01  1.45734E+01  1.46610E+01
   1.40965E+01  1.31961E+01  1.30837E+01  1.22857E+01  1.23977E+01  1.11829E+01  1.13324E+01  1.16233E+01  1.04539E+01  1.07972E+01
   9.83252E+00  9.99612E+00  1.09500E+01  1.06707E+01  8.24064E+00  7.77211E+00  7.35342E+00  7.75670E+00  6.61615E+00  7.28696E+00
   6.54823E+00  5.89228E+00  6.78105E+00  7.16136E+00  5.92755E+00  5.98517E+00  4.23687E+00  4.57030E+00  4.65244E+00  3.80943E+00
   3.44066E+00  3.52135E+00  2.56852E+00  2.64100E+00  2.41688E+00  2.83239E+00  3.45425E+00  2.44029E+00  3.15857E+00  2.31473E+00
   2.29553E+00  1.89134E+00  1.47279E+00  2.04578E+00  1.37098E+00  3.33219E+00  2.18502E+00  1.92733E+00  1.17600E+00  1.27269E+00
   1.29230E+00  1.03467E+00  5.54633E-01  1.07153E+00  9.98079E-01 -5.37761E-01  3.95129E-01  5.06162E-01  6.68732E-02  1.12667E-01
   2.10687E+00  6.55745E-01  1.20552E-01  9.37284E-01 -6.43725E-01  1.56346E+00  1.16928E+00  1.73771E+00  5.57178E-01  8.37809E-01
   2.06646E+00  1.40844E+00  2.80804E+00  2.62409E+00  1.95090E+00  2.72254E+00  3.15253E+00  2.66042E+00  2.23381E+00  1.75568E+00
   3.81865E+00  3.28878E+00  4.04282E+00  4.74144E+00  3.56480E+00  4.14683E+00  4.71021E+00  4.86301E+00  4.50697E+00  4.07147E+00
   4.92143E+00  5.04290E+00  6.50039E+00  5.87938E+00  5.73039E+00  4.71978E+00  5.11858E+00  5.57921E+00  4.82594E+00  4.99306E+00
   4.96356E+00  5.54675E+00  5.62633E+00  4.07825E+00  3.65803E+00  3.68811E+00  1.69643E+00  3.06446E+00  3.11651E+00  1.75528E+00
   2.42566E+00  1.38988E+00  3.41882E-01  1.35285E+00  7.03527E-01  1.07931E+00 -2.67626E-01  4.35899E-01  1.22438E+00  7.94648E-01
   1.53853E+00  8.58298E-01  8.97453E-01  1.56033E+00  2.50386E+00  2.31255E+00  2.65560E+00  2.76332E+00  3.94784E+00  5.76993E+00
   5.30055E+00  5.55609E+00  4.87932E+00  6.60788E+00  5.00063E+00  4.55681E+00  7.77156E+00  7.14678E+00  7.64174E+00  7.64322E+00
   6.13659E+00  6.84247E+00  8.39104E+00  7.59953E+00  7.70700E+00  7.72258E+00  8.00882E+00  6.89728E+00  7.49166E+00  8.48356E+00
   5.64358E+00  6.97295E+00  5.69881E+00  5.65075E+00  5.62130E+00  3.77452E+00  2.98568E+00  3.14718E+00  3.54246E-01 -4.05831E-02
  -1.44595E+00 -3.70024E+00 -5.23704E+00 -3.67791E+00 -6.11899E+00 -8.88102E+00 -1.03521E+01 -1.23923E+01 -1.47618E+01 -1.69461E+01
  -1.83155E+01 -2.15571E+01 -2.33802E+01 -2.47339E+01 -2.67444E+01 -2.96189E+01 -3.03592E+01 -3.17664E+01 -3.47801E+01 -3.55553E+01
  -3.63177E+01 -3.71270E+01 -3.74237E+01 -3.79208E+01 -3.90070E+01 -4.06772E+01 -4.06042E+01 -4.04871E+01 -4.14189E+01 -4.20648E+01
  -4.21700E+01 -4.18110E+01 -4.22654E+01 -4.30157E+01 -4.24995E+01 -4.39698E+01 -4.34697E+01 -4.31061E+01 -4.50056E+01 -4.33090E+01
  -4.39743E+01 -4.51199E+01 -4.43120E+01 -4.32382E+01 -4.34578E+01 -4.34814E+01 -4.23259E+01 -4.24225E+01 -4.00668E+01 -3.92617E+01
  -3.91800E+01 -3.75055E+01 -3.73363E+01 -3.52905E+01 -3.39739E+01 -3.13188E+01 -3.08156E+01 -2.96790E+01 -2.89380E+01 -2.80708E+01
  -2.70306E+01 -2.69515E+01 -2.57766E+01 -2.33167E+01 -2.37810E+01 -2.14627E+01 -2.02763E+01 -1.93678E+01 -1.75524E+01 -1.79095E+01
  -1.42037E+01 -1.33229E+01 -1.44297E+01 -1.41016E+01 -1.41908E+01 -1.11154E+01 -1.02939E+01 -1.16159E+01 -1.03687E+01 -9.24833E+00
  -8.23212E+00 -7.46237E+00 -7.84024E+00 -5.96475E+00 -6.35242E+00 -6.08981E+00 -5.99457E+00 -4.58542E+00 -5.71066E+00 -4.42197E+00
  -5.45129E+00 -2.63757E+00 -2.34221E+00 -2.62108E+00 -3.85406E+00 -4.71307E+00 -3.31020E+00 -4.03090E+00 -5.37710E+00 -4.56288E+00
  -3.04050E+00 -3.36847E+00 -4.00570E+00 -4.36224E+00 -3.85351E+00 -3.53294E+00 -3.93101E+00 -3.95510E+00 -3.30224E+00 -5.07773E+00
  -4.53063E+00 -2.23305E+00 -2.80829E+00 -2.99412E+00 -2.37170E+00 -1.69089E+00 -2.17482E+00 -6.51266E-01 -8.39291E-01  3.64127E-01
   2.49491E+00  2.45967E+00  3.14319E+00  2.63666E+00  4.80676E+00  4.95400E+00  4.51858E+00  7.14268E+00  8.35264E+00  9.17625E+00
   1.13583E+01  1.26831E+01  1.23076E+01  1.34001E+01  1.56550E+01  1.75221E+01  2.01331E+01  1.85780E+01  2.28559E+01  2.44371E+01
   2.61252E+01  2.81226E+01  2.84885E+01  3.04217E+01  3.20929E+01  3.21823E+01  3.29197E+01  3.35386E+01  3.37154E+01  3.42467E+01
   3.26307E+01  3.39290E+01  3.25581E+01  3.35171E+01  3.22943E+01  3.36434E+01  3.09525E+01  3.22289E+01  2.98022E+01  3.16753E+01
   2.95101E+01  3.07623E+01  2.87427E+01  2.89394E+01  2.86930E+01  2.70384E+01  2.65574E+01  2.64109E+01  2.71690E+01  2.50506E+01
   2.50796E+01  2.46050E+01  2.41270E+01  2.38531E+01  2.40378E+01  2.30540E+01  2.30174E+01  2.33133E+01  2.20734E+01  2.05817E+01
   2.11243E+01  2.02139E+01  1.97921E+01  2.08059E+01  1.96642E+01  1.82298E+01  1.96146E+01  1.90381E+01  1.68586E+01  1.79839E+01
   1.60380E+01  1.63483E+01  1.55343E+01  1.51821E+01  1.67315E+01  1.50151E+01  1.48131E+01  1.52991E+01  1.50445E+01  1.47351E+01
   1.40851E+01  1.48742E+01  1.33254E+01  1.17471E+01  1.31835E+01  1.18155E+01  1.17692E+01  1.24312E+01  1.13228E+01  1.05013E+01
   1.07676E+01  9.95977E+00  9.86493E+00  9.27240E+00  1.01143E+01  1.04485E+01  8.85055E+00  8.13593E+00  9.27421E+00  8.53031E+00
   8.62695E+00  7.88896E+00  5.25528E+00  7.19361E+00  7.79943E+00  6.91910E+00  6.98310E+00  7.95086E+00  5.72186E+00  6.92052E+00
   6.77563E+00  5.28412E+00  5.14731E+00  6.10282E+00  4.29127E+00  4.51942E+00  4.49441E+00  4.56173E+00  3.82595E+00  3.81385E+00
   2.46397E+00  2.65529E+00  3.43402E+00  3.44092E+00  2.50997E+00  1.12033E+00  1.51805E+00  2.68090E+00  2.71628E+00  8.49076E-01
   1.08806E+00 -1.25070E-01  1.95916E-01 -4.69841E-01 -9.15883E-01 -7.20565E-01 -9.96969E-01 -1.74295E+00  1.47516E-01 -2.20808E+00
  -2.16344E+00 -4.90489E-01 -5.89399E-01 -1.26497E+00 -3.44872E+00 -1.90541E+00 -2.63572E+00 -1.53817E+00 -3.41795E+00 -2.88296E+00
  -1.93569E+00 -2.94098E+00 -3.52793E+00 -3.64781E+00 -3.13381E+00 -4.34499E+00 -3.24566E+00 -3.25968E+00 -2.51837E+00 -3.38934E+00
  -5.10544E+00 -4.55741E+00 -3.69484E+00 -4.75949E+00 -4.44573E+00 -5.11917E+00 -4.89798E+00 -5.82816E+00 -4.56700E+00 -4.95511E+00
  -4.52906E+00 -7.04246E+00 -5.76686E+00 -6.09040E+00 -6.04943E+00 -4.62863E+00 -6.32879E+00 -5.27486E+00
 NY points of the fit to the data follow
   3.58695E+01  3.48637E+01  3.48298E+01  3.40380E+01  3.40642E+01  3.34353E+01  3.30519E+01  3.18650E+01  3.10211E+01  2.94335E+01
   2.84914E+01  2.72004E+01  2.70932E+01  2.63332E+01  2.65696E+01  2.55812E+01  2.57590E+01  2.42569E+01  2.43729E+01  2.30454E+01
   2.36037E+01  2.23514E+01  2.31228E+01  2.18802E+01  2.26735E+01  2.14325E+01  2.21002E+01  2.08996E+01  2.14194E+01  2.02811E+01
   2.05655E+01  1.94618E+01  1.94223E+01  1.84456E+01  1.84670E+01  1.79361E+01  1.78839E+01  1.75784E+01  1.73077E+01  1.70666E+01
   1.65380E+01  1.62987E+01  1.55825E+01  1.54988E+01  1.47553E+01  1.48758E+01  1.39940E+01  1.36439E+01  1.26133E+01  1.20700E+01
   1.11521E+01  1.09408E+01  1.05170E+01  1.05855E+01  1.01550E+01  9.81149E+00  9.09336E+00  8.28485E+00  7.47786E+00  6.99098E+00
   6.33277E+00  6.03090E+00  5.40109E+00  5.22258E+00  4.60115E+00  4.53762E+00  3.84964E+00  3.85292E+00  3.18384E+00  3.24585E+00
   2.58257E+00  2.69516E+00  2.11003E+00  2.34645E+00  2.01018E+00  2.39608E+00  1.94394E+00  2.14451E+00  1.54257E+00  1.62149E+00
   9.70722E-01  1.01556E+00  3.38124E-01  4.32012E-01 -2.04751E-01  9.46506E-02 -4.12473E-01  1.86159E-02 -4.42021E-01  3.42841E-02
  -4.85524E-01  1.22623E-03 -5.51092E-01 -2.86765E-02 -5.42039E-01  2.77375E-02 -4.17830E-01  1.89341E-01 -1.72834E-01  5.00378E-01
   1.76356E-01  8.40243E-01  5.41780E-01  1.16885E+00  9.26739E-01  1.49558E+00  1.32065E+00  1.83427E+00  1.79254E+00  2.27228E+00
   2.28137E+00  2.69373E+00  2.72698E+00  3.02619E+00  2.99073E+00  3.16584E+00  3.08587E+00  3.24994E+00  3.19162E+00  3.38971E+00
   3.38480E+00  3.65305E+00  3.68000E+00  4.03931E+00  4.11015E+00  4.63433E+00  4.69541E+00  5.17657E+00  5.19533E+00  5.60704E+00
   5.58825E+00  5.93057E+00  5.89939E+00  6.19636E+00  6.15153E+00  6.40125E+00  6.34677E+00  6.54749E+00  6.48919E+00  6.64064E+00
   6.58818E+00  6.69197E+00  6.63190E+00  6.65262E+00  6.59507E+00  6.55064E+00  6.51911E+00  6.45703E+00  6.44701E+00  6.39070E+00
   6.34676E+00  6.26441E+00  6.18516E+00  6.08312E+00  5.96593E+00  5.84374E+00  5.67851E+00  5.52650E+00  5.28700E+00  5.11042E+00
   4.84943E+00  4.65493E+00  4.37004E+00  4.12071E+00  3.81127E+00  3.52653E+00  3.21576E+00  2.90559E+00  2.59526E+00  2.22533E+00
   1.94960E+00  1.56220E+00  1.32975E+00  9.37300E-01  7.41644E-01  3.39660E-01  2.01190E-01 -1.84385E-01 -2.32868E-01 -5.69427E-01
  -5.64416E-01 -8.50044E-01 -7.86835E-01 -9.95855E-01 -7.92530E-01 -8.33771E-01 -6.97540E-01 -6.94304E-01 -7.77908E-01 -1.18137E+00
  -1.47695E+00 -2.15929E+00 -2.34596E+00 -2.70897E+00 -2.05590E+00 -1.11591E+00 -3.79375E-01  7.22494E-01  8.42020E-01  1.52610E+00
   3.80591E-01 -2.60391E-01 -2.81452E+00 -3.61197E+00 -6.53346E+00 -7.29252E+00 -1.03510E+01 -1.11553E+01 -1.43708E+01 -1.52433E+01
  -1.85959E+01 -1.94693E+01 -2.27399E+01 -2.36170E+01 -2.66195E+01 -2.74660E+01 -2.99947E+01 -3.07264E+01 -3.26487E+01 -3.33308E+01
  -3.47647E+01 -3.54470E+01 -3.65850E+01 -3.70551E+01 -3.76918E+01 -3.79635E+01 -3.83887E+01 -3.84130E+01 -3.87831E+01 -3.91136E+01
  -3.96339E+01 -3.99067E+01 -4.00343E+01 -3.95947E+01 -3.90322E+01 -3.74002E+01 -3.72985E+01 -3.61936E+01 -3.70167E+01 -3.66414E+01
  -3.85124E+01 -3.91708E+01 -4.06484E+01 -4.05030E+01 -4.13696E+01 -4.07348E+01 -4.09982E+01 -3.99273E+01 -3.96343E+01 -3.82627E+01
  -3.77485E+01 -3.63419E+01 -3.56795E+01 -3.42196E+01 -3.34629E+01 -3.19441E+01 -3.11227E+01 -2.96265E+01 -2.88348E+01 -2.75796E+01
  -2.70927E+01 -2.60004E+01 -2.58922E+01 -2.46006E+01 -2.44219E+01 -2.28443E+01 -2.26168E+01 -2.07105E+01 -2.05269E+01 -1.86940E+01
  -1.87356E+01 -1.68853E+01 -1.67931E+01 -1.48290E+01 -1.44890E+01 -1.25657E+01 -1.21535E+01 -1.06423E+01 -1.02353E+01 -8.94385E+00
  -8.32454E+00 -7.17284E+00 -5.81502E+00 -4.69147E+00 -3.93346E+00 -3.34358E+00 -3.10021E+00 -3.00947E+00 -3.23300E+00 -3.54471E+00
  -4.09046E+00 -4.64060E+00 -5.22746E+00 -5.70963E+00 -6.15307E+00 -6.46024E+00 -6.67011E+00 -6.73199E+00 -6.67205E+00 -6.49787E+00
  -6.20425E+00 -5.80661E+00 -5.32091E+00 -4.77118E+00 -4.18093E+00 -3.57539E+00 -2.97925E+00 -2.41676E+00 -1.90337E+00 -1.45379E+00
  -1.07962E+00 -7.83593E-01 -5.66688E-01 -4.22108E-01 -3.41074E-01 -3.08470E-01 -3.08175E-01 -3.18414E-01 -3.18175E-01 -2.81565E-01
  -1.84999E-01 -8.02097E-04  2.97137E-01  7.36095E-01  1.34677E+00  2.16839E+00  3.26457E+00  4.78375E+00  6.94420E+00  8.62208E+00
   1.06107E+01  1.22847E+01  1.39211E+01  1.55397E+01  1.66824E+01  1.80910E+01  1.96833E+01  2.14045E+01  2.29491E+01  2.47445E+01
   2.59469E+01  2.76518E+01  2.85172E+01  3.01079E+01  3.06497E+01  3.20954E+01  3.22048E+01  3.34494E+01  3.31006E+01  3.41441E+01
   3.34460E+01  3.43127E+01  3.33838E+01  3.40856E+01  3.29328E+01  3.34449E+01  3.20431E+01  3.23558E+01  3.08050E+01  3.10108E+01
   2.95717E+01  2.97190E+01  2.84487E+01  2.85531E+01  2.74317E+01  2.75600E+01  2.67063E+01  2.69690E+01  2.67719E+01  2.66541E+01
   2.59184E+01  2.54929E+01  2.43934E+01  2.37158E+01  2.23992E+01  2.15938E+01  2.11142E+01  2.08051E+01  2.06012E+01  2.04644E+01
   2.03674E+01  2.02884E+01  2.02090E+01  2.01135E+01  1.99889E+01  1.98246E+01  1.96133E+01  1.93502E+01  1.90337E+01  1.86648E+01
   1.82472E+01  1.77866E+01  1.72906E+01  1.67684E+01  1.62297E+01  1.56844E+01  1.51425E+01  1.46130E+01  1.41042E+01  1.36228E+01
   1.31744E+01  1.27627E+01  1.23897E+01  1.20562E+01  1.17614E+01  1.15032E+01  1.12787E+01  1.10837E+01  1.09137E+01  1.07638E+01
   1.06289E+01  1.05038E+01  1.03835E+01  1.02632E+01  1.01387E+01  1.00062E+01  9.86230E+00  9.70446E+00  9.53049E+00  9.33888E+00
   9.12872E+00  8.89964E+00  8.65175E+00  8.38560E+00  8.10210E+00  7.80254E+00  7.48846E+00  7.16163E+00  6.82399E+00  6.47750E+00
   6.12422E+00  5.76619E+00  5.40544E+00  5.04388E+00  4.68333E+00  4.32543E+00  3.97171E+00  3.62356E+00  3.28220E+00  2.94865E+00
   2.62380E+00  2.30830E+00  2.00278E+00  1.70761E+00  1.42313E+00  1.14946E+00  8.86693E-01  6.34721E-01  3.93490E-01  1.62766E-01
  -5.76466E-02 -2.68131E-01 -4.68987E-01 -6.60648E-01 -8.43454E-01 -1.01787E+00 -1.18428E+00 -1.34320E+00 -1.49505E+00 -1.64028E+00
  -1.77930E+00 -1.91256E+00 -2.04048E+00 -2.16349E+00 -2.28199E+00 -2.39636E+00 -2.50695E+00 -2.61414E+00 -2.71828E+00 -2.81971E+00
  -2.91874E+00 -3.01566E+00 -3.11075E+00 -3.20429E+00 -3.29656E+00 -3.38780E+00 -3.47822E+00 -3.56805E+00 -3.65750E+00 -3.74676E+00
  -3.83604E+00 -3.92550E+00 -4.01530E+00 -4.10557E+00 -4.19647E+00 -4.28813E+00 -4.38067E+00 -4.47420E+00 -4.56878E+00 -4.66450E+00
  -4.76141E+00 -4.85957E+00 -4.95896E+00 -5.05955E+00 -5.16122E+00 -5.26377E+00 -5.36686E+00 -5.46981E+00
 NY background values follow
     2.216E+01    2.142E+01    2.069E+01    1.997E+01    1.926E+01    1.855E+01    1.785E+01    1.716E+01    1.647E+01    1.579E+01
     1.512E+01    1.446E+01    1.381E+01    1.316E+01    1.252E+01    1.189E+01    1.127E+01    1.066E+01    1.005E+01    9.455E+00
     8.868E+00    8.289E+00    7.719E+00    7.159E+00    6.607E+00    6.065E+00    5.533E+00    5.009E+00    4.496E+00    3.992E+00
     3.498E+00    3.014E+00    2.540E+00    2.076E+00    1.623E+00    1.180E+00    7.470E-01    3.250E-01   -8.627E-02   -4.867E-01
    -8.762E-01   -1.255E+00   -1.622E+00   -1.978E+00   -2.322E+00   -2.656E+00   -2.977E+00   -3.287E+00   -3.585E+00   -3.871E+00
    -4.145E+00   -4.407E+00   -4.656E+00   -4.894E+00   -5.118E+00   -5.331E+00   -5.530E+00   -5.717E+00   -5.891E+00   -6.051E+00
    -6.199E+00   -6.333E+00   -6.454E+00   -6.562E+00   -6.656E+00   -6.736E+00   -6.803E+00   -6.855E+00   -6.894E+00   -6.918E+00
    -6.928E+00   -6.924E+00   -6.906E+00   -6.873E+00   -6.827E+00   -6.768E+00   -6.695E+00   -6.610E+00   -6.513E+00   -6.404E+00
    -6.284E+00   -6.153E+00   -6.011E+00   -5.859E+00   -5.697E+00   -5.526E+00   -5.346E+00   -5.157E+00   -4.959E+00   -4.754E+00
    -4.541E+00   -4.321E+00   -4.095E+00   -3.862E+00   -3.623E+00   -3.378E+00   -3.128E+00   -2.873E+00   -2.614E+00   -2.351E+00
    -2.084E+00   -1.814E+00   -1.541E+00   -1.265E+00   -9.875E-01   -7.080E-01   -4.271E-01   -1.452E-01    1.373E-01    4.200E-01
     7.025E-01    9.845E-01    1.266E+00    1.545E+00    1.823E+00    2.099E+00    2.373E+00    2.643E+00    2.911E+00    3.174E+00
     3.434E+00    3.689E+00    3.940E+00    4.185E+00    4.425E+00    4.659E+00    4.887E+00    5.107E+00    5.321E+00    5.527E+00
     5.726E+00    5.916E+00    6.098E+00    6.270E+00    6.433E+00    6.587E+00    6.730E+00    6.863E+00    6.984E+00    7.095E+00
     7.193E+00    7.280E+00    7.354E+00    7.416E+00    7.464E+00    7.499E+00    7.522E+00    7.531E+00    7.528E+00    7.511E+00
     7.481E+00    7.438E+00    7.382E+00    7.312E+00    7.229E+00    7.132E+00    7.022E+00    6.899E+00    6.762E+00    6.612E+00
     6.448E+00    6.270E+00    6.078E+00    5.873E+00    5.654E+00    5.421E+00    5.174E+00    4.914E+00    4.639E+00    4.350E+00
     4.048E+00    3.731E+00    3.400E+00    3.055E+00    2.695E+00    2.321E+00    1.933E+00    1.531E+00    1.114E+00    6.824E-01
     2.365E-01   -2.239E-01   -6.990E-01   -1.189E+00   -1.693E+00   -2.212E+00   -2.746E+00   -3.295E+00   -3.858E+00   -4.437E+00
    -5.031E+00   -5.639E+00   -6.263E+00   -6.901E+00   -7.555E+00   -8.224E+00   -8.908E+00   -9.608E+00   -1.032E+01   -1.105E+01
    -1.180E+01   -1.256E+01   -1.334E+01   -1.413E+01   -1.494E+01   -1.576E+01   -1.660E+01   -1.745E+01   -1.832E+01   -1.921E+01
    -2.011E+01   -2.103E+01   -2.196E+01   -2.291E+01   -2.388E+01   -2.486E+01   -2.586E+01   -2.687E+01   -2.789E+01   -2.892E+01
    -2.997E+01   -3.103E+01   -3.210E+01   -3.318E+01   -3.426E+01   -3.536E+01   -3.646E+01   -3.757E+01   -3.869E+01   -3.981E+01
    -4.094E+01   -4.207E+01   -4.320E+01   -4.434E+01   -4.547E+01   -4.661E+01   -4.775E+01   -4.889E+01   -5.003E+01   -5.117E+01
    -5.230E+01   -5.343E+01   -5.456E+01   -5.568E+01   -5.680E+01   -5.791E+01   -5.901E+01   -6.011E+01   -6.120E+01   -6.228E+01
    -6.335E+01   -6.441E+01   -6.546E+01   -6.650E+01   -6.753E+01   -6.854E+01   -6.954E+01   -7.053E+01   -7.150E+01   -7.245E+01
    -7.339E+01   -7.431E+01   -7.521E+01   -7.609E+01   -7.696E+01   -7.780E+01   -7.862E+01   -7.943E+01   -8.021E+01   -8.096E+01
    -8.170E+01   -8.240E+01   -8.309E+01   -8.374E+01   -8.438E+01   -8.498E+01   -8.556E+01   -8.610E+01   -8.662E+01   -8.711E+01
    -8.757E+01   -8.799E+01   -8.839E+01   -8.875E+01   -8.907E+01   -8.937E+01   -8.963E+01   -8.985E+01   -9.005E+01   -9.021E+01
    -9.034E+01   -9.044E+01   -9.051E+01   -9.055E+01   -9.056E+01   -9.054E+01   -9.049E+01   -9.041E+01   -9.031E+01   -9.018E+01
    -9.003E+01   -8.985E+01   -8.965E+01   -8.942E+01   -8.916E+01   -8.889E+01   -8.859E+01   -8.827E+01   -8.793E+01   -8.757E+01
    -8.718E+01   -8.678E+01   -8.636E+01   -8.592E+01   -8.546E+01   -8.498E+01   -8.449E+01   -8.398E+01   -8.345E+01   -8.291E+01
    -8.236E+01   -8.179E+01   -8.120E+01   -8.060E+01   -8.000E+01   -7.937E+01   -7.874E+01   -7.810E+01   -7.744E+01   -7.678E+01
    -7.610E+01   -7.542E+01   -7.473E+01   -7.404E+01   -7.333E+01   -7.262E+01   -7.190E+01   -7.118E+01   -7.045E+01   -6.972E+01
    -6.899E+01   -6.825E+01   -6.751E+01   -6.677E+01   -6.602E+01   -6.528E+01   -6.453E+01   -6.379E+01   -6.304E+01   -6.230E+01
    -6.156E+01   -6.082E+01   -6.008E+01   -5.935E+01   -5.862E+01   -5.790E+01   -5.718E+01   -5.647E+01   -5.576E+01   -5.506E+01
    -5.437E+01   -5.367E+01   -5.299E+01   -5.231E+01   -5.163E+01   -5.096E+01   -5.030E+01   -4.964E+01   -4.898E+01   -4.833E+01
    -4.769E+01   -4.705E+01   -4.642E+01   -4.579E+01   -4.517E+01   -4.455E+01   -4.394E+01   -4.333E+01   -4.273E+01   -4.214E+01
    -4.155E+01   -4.096E+01   -4.038E+01   -3.981E+01   -3.924E+01   -3.868E+01   -3.812E+01   -3.757E+01   -3.702E+01   -3.648E+01
    -3.595E+01   -3.542E+01   -3.489E+01   -3.438E+01   -3.386E+01   -3.335E+01   -3.285E+01   -3.236E+01   -3.186E+01   -3.138E+01
    -3.090E+01   -3.042E+01   -2.995E+01   -2.949E+01   -2.903E+01   -2.858E+01   -2.813E+01   -2.769E+01   -2.726E+01   -2.683E+01
    -2.640E+01   -2.598E+01   -2.557E+01   -2.516E+01   -2.476E+01   -2.437E+01   -2.397E+01   -2.359E+01   -2.321E+01   -2.284E+01
    -2.247E+01   -2.211E+01   -2.175E+01   -2.140E+01   -2.106E+01   -2.072E+01   -2.038E+01   -2.005E+01   -1.973E+01   -1.942E+01
    -1.911E+01   -1.880E+01   -1.850E+01   -1.821E+01   -1.792E+01   -1.764E+01   -1.736E+01   -1.709E+01   -1.682E+01   -1.656E+01
    -1.631E+01   -1.606E+01   -1.581E+01   -1.557E+01   -1.534E+01   -1.511E+01   -1.489E+01   -1.467E+01   -1.446E+01   -1.425E+01
    -1.405E+01   -1.386E+01   -1.367E+01   -1.348E+01   -1.330E+01   -1.313E+01   -1.296E+01   -1.279E+01   -1.264E+01   -1.248E+01
    -1.233E+01   -1.219E+01   -1.205E+01   -1.192E+01   -1.179E+01   -1.166E+01   -1.155E+01   -1.143E+01   -1.132E+01   -1.122E+01
    -1.112E+01   -1.103E+01   -1.094E+01   -1.086E+01   -1.078E+01   -1.071E+01   -1.064E+01   -1.057E+01   -1.051E+01   -1.046E+01
    -1.041E+01   -1.036E+01   -1.032E+01   -1.029E+01   -1.026E+01   -1.023E+01   -1.021E+01   -1.019E+01   -1.018E+01   -1.017E+01
    -1.017E+01   -1.017E+01   -1.018E+01   -1.019E+01   -1.021E+01   -1.023E+01   -1.025E+01   -1.028E+01
 Asp      Conc. = 1.96E+02
