 LCModel (Version 6.3-1L) Copyright: S.W. Provencher.          Ref.: Magn. Reson. Med. 30:672-679 (1993).                
 Slice#1 Row#2 Col#9  PD_05_press_1_raw_act
 36 lines in following concentration table = NCONC+1
    Conc.  %SD /Cr+PCr  Metabolite                                         
   62.325 573%   0.144 Ala                                                 
   20.535 456% 4.7E-02 Asp                                                 
  116.798 368%   0.270 Cr                                                  
  316.091 135%   0.730 PCr                                                 
   62.284  93%   0.144 GABA                                                
   73.917  78%   0.171 Glc                                                 
    0.000 999%   0.000 Gln                                                 
    0.000 999%   0.000 Glu                                                 
  146.208  78%   0.338 GPC                                                 
   36.373 313% 8.4E-02 PCh                                                 
  112.145  82%   0.259 GSH                                                 
  609.560  41%   1.408 Ins                                                 
    0.000 999%   0.000 Lac                                                 
  833.267  31%   1.925 NAA                                                 
  107.786 250%   0.249 NAAG                                                
   46.643  37%   0.108 Scyllo                                              
  157.989  57%   0.365 Tau                                                 
  161.950  67%   0.374 -CrCH2                                              
  182.581  13%   0.422 GPC+PCh                                             
  941.053  10%   2.174 NAA+NAAG                                            
  432.888  14%   1.000 Cr+PCr                                              
    0.000 999%   0.000 Glu+Gln                                             
    0.000 999%   0.000 Lip13a                                              
    0.000 999%   0.000 Lip13b                                              
    0.000 999%   0.000 Lip09                                               
  371.651  21%   0.859 MM09                                                
 2.81E-03 999% 6.5E-06 Lip20                                               
  664.776  35%   1.536 MM20                                                
    0.000 999%   0.000 MM12                                                
  466.662  33%   1.078 MM14                                                
  335.438  36%   0.775 MM17                                                
    0.000 999%   0.000 Lip13a+Lip13b                                       
  466.662  33%   1.078 MM14+Lip13a+Lip13b+MM12                             
  371.651  21%   0.859 MM09+Lip09                                          
  664.779  35%   1.536 MM20+Lip20                                          
   6 lines in following misc. output table
  FWHM = 0.153 ppm    S/N =   3                                            
  Data shift = 0.076 ppm                                                   
  Ph: -17 deg     -14.4 deg/ppm                                            
  alphaB,S = 8.5E+01,   1.3E+02                                            
   12 spline knots.   Ns = 9(2)                                            
   4 inflections.     1 extrema                                            
  498 points on ppm-axis = NY
      4.000000     3.992357     3.984714     3.977070     3.969427     3.961784     3.954141     3.946497     3.938854     3.931211
      3.923568     3.915925     3.908281     3.900638     3.892995     3.885352     3.877708     3.870065     3.862422     3.854779
      3.847136     3.839492     3.831849     3.824206     3.816563     3.808919     3.801276     3.793633     3.785990     3.778347
      3.770703     3.763060     3.755417     3.747774     3.740130     3.732487     3.724844     3.717201     3.709558     3.701914
      3.694271     3.686628     3.678985     3.671341     3.663698     3.656055     3.648412     3.640769     3.633125     3.625482
      3.617839     3.610196     3.602552     3.594909     3.587266     3.579623     3.571980     3.564336     3.556693     3.549050
      3.541407     3.533763     3.526120     3.518477     3.510834     3.503191     3.495547     3.487904     3.480261     3.472618
      3.464974     3.457331     3.449688     3.442045     3.434402     3.426758     3.419115     3.411472     3.403829     3.396185
      3.388542     3.380899     3.373256     3.365613     3.357969     3.350326     3.342683     3.335040     3.327396     3.319753
      3.312110     3.304467     3.296824     3.289180     3.281537     3.273894     3.266251     3.258607     3.250964     3.243321
      3.235678     3.228034     3.220391     3.212748     3.205105     3.197462     3.189818     3.182175     3.174532     3.166889
      3.159245     3.151602     3.143959     3.136316     3.128673     3.121029     3.113386     3.105743     3.098100     3.090456
      3.082813     3.075170     3.067527     3.059884     3.052240     3.044597     3.036954     3.029311     3.021667     3.014024
      3.006381     2.998738     2.991095     2.983451     2.975808     2.968165     2.960522     2.952878     2.945235     2.937592
      2.929949     2.922306     2.914662     2.907019     2.899376     2.891733     2.884089     2.876446     2.868803     2.861160
      2.853517     2.845873     2.838230     2.830587     2.822944     2.815300     2.807657     2.800014     2.792371     2.784728
      2.777084     2.769441     2.761798     2.754155     2.746511     2.738868     2.731225     2.723582     2.715939     2.708295
      2.700652     2.693009     2.685366     2.677722     2.670079     2.662436     2.654793     2.647150     2.639506     2.631863
      2.624220     2.616577     2.608933     2.601290     2.593647     2.586004     2.578361     2.570717     2.563074     2.555431
      2.547788     2.540144     2.532501     2.524858     2.517215     2.509572     2.501928     2.494285     2.486642     2.478999
      2.471355     2.463712     2.456069     2.448426     2.440783     2.433139     2.425496     2.417853     2.410210     2.402566
      2.394923     2.387280     2.379637     2.371994     2.364350     2.356707     2.349064     2.341421     2.333777     2.326134
      2.318491     2.310848     2.303205     2.295561     2.287918     2.280275     2.272632     2.264988     2.257345     2.249702
      2.242059     2.234416     2.226772     2.219129     2.211486     2.203843     2.196199     2.188556     2.180913     2.173270
      2.165627     2.157983     2.150340     2.142697     2.135054     2.127410     2.119767     2.112124     2.104481     2.096838
      2.089194     2.081551     2.073908     2.066265     2.058621     2.050978     2.043335     2.035692     2.028049     2.020405
      2.012762     2.005119     1.997476     1.989833     1.982190     1.974546     1.966903     1.959260     1.951617     1.943974
      1.936331     1.928688     1.921045     1.913402     1.905759     1.898115     1.890472     1.882829     1.875186     1.867543
      1.859900     1.852257     1.844614     1.836971     1.829327     1.821684     1.814041     1.806398     1.798755     1.791112
      1.783469     1.775826     1.768183     1.760540     1.752896     1.745253     1.737610     1.729967     1.722324     1.714681
      1.707038     1.699395     1.691752     1.684108     1.676465     1.668822     1.661179     1.653536     1.645893     1.638250
      1.630607     1.622964     1.615321     1.607677     1.600034     1.592391     1.584748     1.577105     1.569462     1.561819
      1.554176     1.546533     1.538890     1.531246     1.523603     1.515960     1.508317     1.500674     1.493031     1.485388
      1.477745     1.470102     1.462458     1.454815     1.447172     1.439529     1.431886     1.424243     1.416600     1.408957
      1.401314     1.393671     1.386027     1.378384     1.370741     1.363098     1.355455     1.347812     1.340169     1.332526
      1.324883     1.317240     1.309596     1.301953     1.294310     1.286667     1.279024     1.271381     1.263738     1.256095
      1.248452     1.240808     1.233165     1.225522     1.217879     1.210236     1.202593     1.194950     1.187307     1.179664
      1.172021     1.164377     1.156734     1.149091     1.141448     1.133805     1.126162     1.118519     1.110876     1.103233
      1.095590     1.087946     1.080303     1.072660     1.065017     1.057374     1.049731     1.042088     1.034445     1.026802
      1.019158     1.011515     1.003872     0.996229     0.988586     0.980943     0.973300     0.965657     0.958014     0.950371
      0.942727     0.935084     0.927441     0.919798     0.912155     0.904512     0.896869     0.889226     0.881583     0.873940
      0.866296     0.858653     0.851010     0.843367     0.835724     0.828081     0.820438     0.812795     0.805152     0.797508
      0.789865     0.782222     0.774579     0.766936     0.759293     0.751650     0.744007     0.736364     0.728721     0.721077
      0.713434     0.705791     0.698148     0.690505     0.682862     0.675219     0.667576     0.659933     0.652290     0.644646
      0.637003     0.629360     0.621717     0.614074     0.606431     0.598788     0.591145     0.583502     0.575858     0.568215
      0.560572     0.552929     0.545286     0.537643     0.530000     0.522357     0.514714     0.507071     0.499427     0.491784
      0.484141     0.476498     0.468855     0.461212     0.453569     0.445925     0.438282     0.430639     0.422996     0.415353
      0.407710     0.400067     0.392424     0.384780     0.377137     0.369494     0.361851     0.354208     0.346565     0.338922
      0.331278     0.323635     0.315992     0.308349     0.300706     0.293063     0.285420     0.277777     0.270133     0.262490
      0.254847     0.247204     0.239561     0.231918     0.224275     0.216631     0.208988     0.201345
 NY phased data points follow
   1.66106E-01  5.91637E-01 -1.89509E+00  5.50020E+00 -2.57257E+00 -2.14598E+00 -1.25214E+00  1.64667E+00  4.74048E+00  9.19345E-01
  -1.94840E+00  4.71968E+00  2.95733E+00  3.21162E+00 -3.20804E+00 -1.31015E+00  1.20615E+00 -3.12697E+00 -1.13719E+00  1.55434E+00
  -3.61739E-01 -2.44768E+00  1.88956E+00  7.65948E-02  1.60010E+00 -8.49566E-02  1.86175E-01 -1.53218E+00  1.20877E-01  1.90855E-01
   1.96941E+00 -2.93604E-01 -2.42917E+00 -2.10972E+00 -1.56560E+00 -1.66262E-01  1.36820E+00 -1.44014E+00  1.07544E+00  1.56303E+00
   7.99798E-01  1.99442E-01 -1.01456E+00 -1.67869E+00  3.38289E-01  1.30544E+00  1.74961E+00 -2.01331E+00  1.76457E+00 -4.52422E-01
   1.89975E+00  3.15637E+00  2.48634E+00  2.25197E+00 -9.60579E-01 -2.55843E+00  2.86890E+00 -4.50841E-01  1.26769E+00 -1.30380E+00
  -1.31210E+00 -3.10543E+00 -1.03289E+00  1.48322E+00 -3.87787E+00  4.30693E-01  1.77706E+00  1.09269E-01 -8.01440E-01 -4.28250E-01
  -3.06641E+00  2.64607E+00 -2.09481E+00  3.48537E+00  7.08331E-01  1.18748E+00  1.90515E+00 -4.01515E-01  3.60696E-01  1.09385E+00
   2.04588E+00  2.61528E+00  8.97811E-01 -1.62482E+00  3.68501E+00  6.93565E-01  2.24428E+00  1.42402E+00  7.93835E-01  8.27989E+00
   2.03113E+00  4.45761E+00  4.15560E+00  2.93625E+00  4.94596E+00  3.02270E+00 -1.61233E+00  4.68895E+00  2.95009E+00  5.31291E+00
   5.86628E+00  6.65175E+00  8.40257E+00  5.34309E+00  7.04657E+00  5.02833E+00  2.84166E+00  2.51919E+00  2.67787E+00  3.84727E+00
   8.12663E-01  2.24320E+00  4.98819E+00  8.93309E-01  1.07727E+00  3.13544E+00  2.68653E+00  2.61756E+00  1.17123E+00  2.87731E+00
   4.86193E+00  1.03373E+00  3.36297E+00  4.28310E+00  2.25924E+00  6.02140E+00  5.16592E+00  4.38207E+00  6.24627E+00  6.94498E+00
   3.90524E+00  3.72353E+00  3.50146E+00  3.15718E+00  7.13790E-01 -4.93696E-01 -1.16188E-01  2.42391E+00  1.32903E+00  2.65598E-01
   2.80826E+00 -2.59804E-01 -1.47077E+00 -3.03841E+00 -3.38748E+00 -1.41921E+00  1.43866E+00  1.44955E+00 -8.90522E-01 -1.80734E-01
  -6.72999E-01  2.35635E+00  1.42681E+00 -1.34229E+00  1.85058E+00 -1.31924E+00  3.54466E+00 -1.94570E+00 -1.51269E+00 -3.63869E-02
  -1.05632E-01 -5.09208E+00 -3.93800E+00 -1.40398E+00 -1.55961E+00  3.23350E+00 -4.49593E+00 -6.61034E-01 -5.98598E+00 -1.67779E+00
   7.31769E-01 -2.17745E+00 -4.43636E+00 -4.72300E+00 -3.60116E+00 -3.64239E+00 -5.34724E+00 -1.74524E+00 -2.97972E+00 -2.09142E+00
  -2.48138E-01 -4.48965E+00 -1.35804E+00 -1.39642E+00 -3.45481E+00 -4.03702E+00 -6.45768E+00 -1.99941E+00 -8.70023E-02 -5.48759E+00
  -4.53022E+00 -2.30130E+00 -1.44261E-01 -7.59973E+00 -2.06273E+00 -3.20791E+00 -3.14660E+00 -1.27034E+00  5.43232E-01 -4.39794E+00
  -1.01938E+00 -3.84356E+00  6.83562E-01 -1.02489E+00  5.88624E-01 -1.38604E+00 -4.46946E-01 -1.52090E+00 -2.37138E+00 -9.95464E-01
   1.40250E+00  1.74922E+00 -2.57620E+00  7.04058E-01  2.51412E+00  8.94615E-01 -5.18851E-02  4.51206E-01 -1.36820E+00  1.53812E+00
  -1.14279E+00 -1.68338E+00 -9.07675E-02 -2.36989E+00 -3.34979E+00 -7.52149E+00  9.65774E-01  1.89850E-01  3.00037E-01 -3.77855E+00
  -1.91961E+00 -5.93404E-01  1.08681E+00 -1.07448E+00 -3.06350E+00 -2.06079E+00  4.61591E+00  2.82698E+00  2.37521E+00  7.62787E-01
   3.33104E+00  3.33200E+00  7.36062E-01  1.92584E+00  2.21619E+00  8.27119E+00  7.06700E+00  8.19255E+00  9.40210E+00  8.38385E+00
   7.80448E+00  9.49995E+00  1.24175E+01  1.26547E+01  1.45079E+01  9.19191E+00  1.18561E+01  1.13609E+01  1.37170E+01  1.55326E+01
   1.49285E+01  1.60754E+01  1.52556E+01  8.70363E+00  1.10108E+01  9.42681E+00  4.15297E+00  6.25744E+00  4.38098E+00  1.22367E+00
   3.75083E+00  2.94641E+00  3.80573E+00  1.90904E+00  8.12816E-01  9.19625E-01  2.34628E+00 -2.87719E+00 -2.00283E+00  2.22308E+00
  -3.42918E+00  1.81008E-01  2.77306E+00  1.89841E-01  1.38154E+00  2.11564E+00 -1.18885E+00 -3.68504E+00 -5.70309E-01  1.10049E+00
  -1.60159E+00 -2.84901E-01  4.07774E+00 -4.78493E+00 -1.64900E-02  6.09458E-01 -3.55959E+00  1.96468E+00  8.19325E-01  2.21912E+00
   2.49318E+00 -1.87157E+00  6.05908E-01  8.12907E-02  3.94010E+00  1.27393E+00  1.29298E+00  4.12391E+00  3.60304E+00  3.14265E+00
   1.43144E+00 -6.80179E-02  3.06876E-01  2.53562E+00  1.21954E-01  6.78040E+00 -8.61548E-01  4.82331E-01  1.18869E+00 -7.75412E-03
   2.06311E+00  1.51160E+00  5.52660E+00  1.30782E+00  6.29888E+00  4.40378E+00  3.75035E+00  4.08165E+00  3.23616E+00 -6.67496E-01
   2.74542E+00  1.21950E+00  3.22710E-01  3.80477E+00  8.06441E-01  5.66688E+00 -1.93626E+00  1.28633E+00 -2.04803E+00  8.06481E-01
   2.46653E+00  2.49256E+00  1.10957E+00  3.48193E-01  9.94593E-01 -4.45352E-01  1.14890E+00  1.62331E-01  2.18843E+00  8.98542E-01
  -1.73265E+00  2.42804E+00 -9.14163E-01  1.86565E+00  3.05542E+00  6.49275E-01 -1.42559E-01  4.23259E+00 -3.71381E-01 -1.11051E+00
  -2.72471E+00 -2.46657E+00 -2.36038E+00 -3.72719E+00 -5.73842E+00 -2.39328E+00 -7.72309E+00 -2.99872E+00 -4.55513E+00 -9.63247E+00
  -5.33077E+00 -3.65919E+00 -5.20650E+00 -5.66883E+00 -4.71702E+00 -1.90433E+00 -2.59710E+00 -4.47533E+00 -2.60971E+00 -3.84212E+00
  -7.27737E+00 -2.29910E+00 -2.49206E+00 -4.70664E+00 -4.93425E+00 -1.10987E+00 -1.58369E+00  2.27034E-01 -5.51037E-01  1.09644E+00
   6.59877E-01 -1.67189E-01  3.21611E+00 -2.73834E-01  4.40666E+00  4.83003E+00  3.20599E+00  3.82819E+00  3.03808E+00  3.68427E+00
  -1.40258E+00  2.27413E+00  3.29829E+00  1.00408E-01  3.74346E+00  1.38664E+00  3.37906E+00  1.05037E+00  3.40294E+00  1.41723E+00
   2.36918E+00  5.98927E+00  4.17881E+00  1.10371E+00  8.33796E-01  2.90391E+00  3.07205E+00  4.26831E-01 -2.79282E+00  4.53668E+00
   2.13662E+00 -3.80463E-01  4.54037E-01  5.43831E-01  1.33769E+00  4.65198E-01  2.82445E+00  2.34108E+00 -2.44399E-01  3.75949E+00
   1.38190E+00  3.48729E+00  2.98465E-01 -3.19025E+00  1.33645E+00  6.08723E+00 -1.36953E+00  1.24025E+00  1.08950E+00  1.54269E+00
  -1.88623E+00 -1.92784E+00  1.26128E+00  3.73083E+00 -1.67855E+00 -1.66585E-01  1.41689E+00  1.07820E+00  1.47720E-01  1.13203E+00
  -4.33892E-01  1.39890E-01  1.05583E+00 -1.58207E+00 -7.03659E-01  2.54447E+00  3.23128E+00 -4.55530E-01 -1.51772E-01 -2.40047E-01
  -2.19988E+00 -4.11745E+00  3.33393E-01 -1.84720E+00 -1.07992E+00  3.48146E-01  3.49591E+00  1.25331E+00  2.54567E+00 -1.50771E+00
   1.10638E+00  3.12471E+00  2.35340E+00  8.95312E-02  4.50212E-01  8.93456E-01 -1.10835E-01 -5.81004E-01  1.12310E+00  1.92201E+00
   2.49334E+00 -2.18570E+00  2.01876E+00  3.53626E-02  1.22238E+00  1.11509E+00  1.42335E+00  2.30641E+00 -4.98380E-01  2.35552E+00
   2.24362E+00  2.14655E+00  6.17318E-01  2.44810E+00 -4.15641E-01  3.71119E+00  2.55885E+00 -2.08957E+00
 NY points of the fit to the data follow
   6.17487E-01  8.97486E-01  6.54485E-01  9.66828E-01  7.30929E-01  1.08631E+00  8.54125E-01  1.22075E+00  9.76001E-01  1.25233E+00
   9.85398E-01  1.10935E+00  8.92156E-01  8.30001E-01  6.74935E-01  4.73934E-01  3.87691E-01  1.25196E-01  1.03549E-01 -1.32660E-01
  -7.58788E-02 -2.71410E-01 -1.66548E-01 -3.54639E-01 -2.09804E-01 -3.92737E-01 -2.07944E-01 -3.72631E-01 -1.37495E-01 -2.46373E-01
   4.49683E-02 -2.54221E-02  2.38452E-01  1.63299E-01  3.53640E-01  2.55506E-01  3.57303E-01  2.43384E-01  2.92611E-01  1.89318E-01
   2.28217E-01  1.65537E-01  2.35041E-01  2.28371E-01  3.52956E-01  3.65554E-01  5.09552E-01  4.65987E-01  5.67663E-01  4.19639E-01
   4.39868E-01  2.21565E-01  1.86453E-01 -3.48932E-02 -5.54653E-02 -2.18707E-01 -1.78596E-01 -2.56337E-01 -1.47139E-01 -1.95948E-01
  -7.56701E-02 -1.56572E-01 -7.51045E-02 -1.92683E-01 -1.36408E-01 -2.43912E-01 -1.84160E-01 -2.40005E-01 -1.02434E-01 -1.26090E-01
   4.97177E-02  7.26423E-03  1.76672E-01  8.69661E-02  2.19274E-01  7.42900E-02  1.63760E-01 -1.34776E-02  6.40142E-02 -1.14642E-01
  -2.77352E-02 -1.76687E-01 -6.56575E-02 -1.37948E-01  2.05902E-01  4.52763E-01  8.37415E-01  1.33461E+00  1.58276E+00  2.23617E+00
   2.25090E+00  2.96327E+00  2.79000E+00  3.55999E+00  3.29757E+00  4.16417E+00  3.83301E+00  4.79588E+00  4.42220E+00  5.49835E+00
   5.00678E+00  6.08499E+00  5.30062E+00  6.13672E+00  5.02470E+00  5.45336E+00  4.16231E+00  4.23098E+00  3.14618E+00  3.31361E+00
   2.50702E+00  2.90556E+00  2.31375E+00  2.95265E+00  2.39517E+00  3.13049E+00  2.52841E+00  3.28508E+00  2.66776E+00  3.48807E+00
   2.89833E+00  3.84965E+00  3.28670E+00  4.42384E+00  3.80940E+00  5.03002E+00  4.20178E+00  5.21126E+00  4.14042E+00  4.73567E+00
   3.54402E+00  3.70775E+00  2.58526E+00  2.45526E+00  1.54877E+00  1.31528E+00  6.74202E-01  4.75655E-01  4.20316E-02 -1.29098E-01
  -4.22170E-01 -6.04104E-01 -7.99735E-01 -1.00731E+00 -1.10907E+00 -1.29072E+00 -1.32738E+00 -1.46881E+00 -1.48106E+00 -1.57738E+00
  -1.59847E+00 -1.67669E+00 -1.71432E+00 -1.78608E+00 -1.83333E+00 -1.90240E+00 -1.95979E+00 -2.03914E+00 -2.12160E+00 -2.19820E+00
  -2.27965E+00 -2.33412E+00 -2.41559E+00 -2.45728E+00 -2.53927E+00 -2.57716E+00 -2.65553E+00 -2.70468E+00 -2.77735E+00 -2.85087E+00
  -2.88204E+00 -2.96780E+00 -2.93559E+00 -3.01175E+00 -2.90071E+00 -2.95672E+00 -2.77941E+00 -2.83078E+00 -2.60243E+00 -2.66568E+00
  -2.41942E+00 -2.47680E+00 -2.22944E+00 -2.26622E+00 -2.03082E+00 -2.01779E+00 -1.78186E+00 -1.71687E+00 -1.49192E+00 -1.39717E+00
  -1.21531E+00 -1.12543E+00 -1.01392E+00 -9.47075E-01 -9.24638E-01 -8.93374E-01 -9.29150E-01 -9.22387E-01 -9.69088E-01 -9.75555E-01
  -9.91119E-01 -1.01097E+00 -9.86133E-01 -1.03813E+00 -9.87711E-01 -1.07648E+00 -1.00894E+00 -1.12044E+00 -1.04806E+00 -1.16657E+00
  -1.08558E+00 -1.19511E+00 -1.10196E+00 -1.19464E+00 -1.08659E+00 -1.14322E+00 -1.02667E+00 -1.03449E+00 -9.14987E-01 -8.70748E-01
  -7.56660E-01 -6.88313E-01 -5.93663E-01 -5.33343E-01 -4.67887E-01 -4.26958E-01 -3.87076E-01 -3.54676E-01 -3.19083E-01 -2.76548E-01
  -2.24582E-01 -1.58121E-01 -7.52825E-02  1.81579E-02  1.28151E-01  2.34292E-01  3.62128E-01  4.97879E-01  7.12737E-01  8.63410E-01
   1.18631E+00  1.49521E+00  2.49316E+00  2.98874E+00  4.40818E+00  4.93962E+00  6.48802E+00  6.90502E+00  8.30319E+00  8.53329E+00
   9.75780E+00  9.84094E+00  1.10237E+01  1.09972E+01  1.21647E+01  1.20509E+01  1.32608E+01  1.30295E+01  1.40628E+01  1.35809E+01
   1.39641E+01  1.31344E+01  1.26526E+01  1.15425E+01  1.03888E+01  9.19420E+00  7.80473E+00  6.72586E+00  5.48434E+00  4.64052E+00
   3.73341E+00  3.11453E+00  2.43014E+00  1.96371E+00  1.39529E+00  1.03691E+00  5.82769E-01  3.39204E-01  8.19804E-02 -6.01750E-02
  -1.83055E-01 -2.54607E-01 -2.83222E-01 -3.15419E-01 -3.18788E-01 -3.28439E-01 -3.10363E-01 -2.99011E-01 -2.61100E-01 -2.28689E-01
  -1.71111E-01 -1.17117E-01 -3.99473E-02  3.58599E-02  1.31895E-01  2.27280E-01  3.39296E-01  4.49556E-01  5.72299E-01  6.90616E-01
   8.16327E-01  9.34269E-01  1.05394E+00  1.16229E+00  1.26693E+00  1.35757E+00  1.44087E+00  1.51036E+00  1.57510E+00  1.63197E+00
   1.66279E+00  1.69607E+00  1.69038E+00  1.69911E+00  1.66303E+00  1.65070E+00  1.59698E+00  1.59578E+00  1.55654E+00  1.58029E+00
   1.56664E+00  1.61489E+00  1.62696E+00  1.69031E+00  1.71105E+00  1.77194E+00  1.78437E+00  1.82600E+00  1.82872E+00  1.84438E+00
   1.84367E+00  1.84169E+00  1.84829E+00  1.83523E+00  1.84958E+00  1.81677E+00  1.82160E+00  1.75533E+00  1.72845E+00  1.62120E+00
   1.55474E+00  1.41597E+00  1.31863E+00  1.16814E+00  1.05640E+00  9.13272E-01  8.00803E-01  6.70030E-01  5.63982E-01  4.46723E-01
   3.49033E-01  2.46148E-01  1.59866E-01  7.60742E-02  5.50748E-03 -5.94958E-02 -1.14075E-01 -1.62070E-01 -2.01741E-01 -2.36621E-01
  -2.64629E-01 -2.89058E-01 -3.07770E-01 -3.23883E-01 -3.35207E-01 -3.44683E-01 -3.50074E-01 -3.54151E-01 -3.54632E-01 -3.54123E-01
  -3.50299E-01 -3.45606E-01 -3.37681E-01 -3.28809E-01 -3.16585E-01 -3.03121E-01 -2.85949E-01 -2.66991E-01 -2.43696E-01 -2.17772E-01
  -1.86558E-01 -1.51520E-01 -1.09873E-01 -6.28423E-02 -7.53599E-03  5.50106E-02  1.27719E-01  2.09625E-01  3.03506E-01  4.08245E-01
   5.26204E-01  6.55799E-01  7.98639E-01  9.52322E-01  1.11737E+00  1.29027E+00  1.47024E+00  1.65259E+00  1.83532E+00  2.01274E+00
   2.18203E+00  2.33713E+00  2.47510E+00  2.59033E+00  2.68067E+00  2.74183E+00  2.77326E+00  2.77265E+00  2.74151E+00  2.67975E+00
   2.59088E+00  2.47672E+00  2.34228E+00  2.19059E+00  2.02733E+00  1.85582E+00  1.68154E+00  1.50731E+00  1.33769E+00  1.17450E+00
   1.02103E+00  8.77884E-01  7.47096E-01  6.28187E-01  5.22141E-01  4.27704E-01  3.45164E-01  2.72839E-01  2.10653E-01  1.56795E-01
   1.11082E-01  7.17806E-02  3.87607E-02  1.04742E-02 -1.30942E-02 -3.32718E-02 -4.99476E-02 -6.42371E-02 -7.59246E-02 -8.59461E-02
  -9.40163E-02 -1.00924E-01 -1.06343E-01 -1.10944E-01 -1.14386E-01 -1.17246E-01 -1.19189E-01 -1.20711E-01 -1.21493E-01 -1.21965E-01
  -1.21832E-01 -1.21466E-01 -1.20602E-01 -1.19558E-01 -1.18101E-01 -1.16496E-01 -1.14550E-01 -1.12480E-01 -1.10131E-01 -1.07670E-01
  -1.04980E-01 -1.02186E-01 -9.92080E-02 -9.61288E-02 -9.29078E-02 -8.95818E-02 -8.61501E-02 -8.26077E-02 -7.89949E-02 -7.52645E-02
  -7.14949E-02 -6.75965E-02 -6.36880E-02 -5.96397E-02 -5.56104E-02 -5.14291E-02 -4.72923E-02 -4.29885E-02 -3.87541E-02 -3.43390E-02
  -3.00185E-02 -2.55015E-02 -2.11007E-02 -1.64859E-02 -1.20096E-02 -7.30350E-03 -2.75705E-03  2.03853E-03  6.65687E-03  1.15445E-02
   1.62365E-02  2.12183E-02  2.59905E-02  3.10799E-02  3.59523E-02  4.11742E-02  4.61787E-02  5.15798E-02
 NY background values follow
    -2.797E+00   -2.792E+00   -2.786E+00   -2.780E+00   -2.775E+00   -2.769E+00   -2.763E+00   -2.758E+00   -2.752E+00   -2.747E+00
    -2.741E+00   -2.735E+00   -2.730E+00   -2.724E+00   -2.719E+00   -2.713E+00   -2.707E+00   -2.702E+00   -2.696E+00   -2.690E+00
    -2.685E+00   -2.679E+00   -2.674E+00   -2.668E+00   -2.662E+00   -2.657E+00   -2.651E+00   -2.646E+00   -2.640E+00   -2.634E+00
    -2.629E+00   -2.623E+00   -2.617E+00   -2.612E+00   -2.606E+00   -2.601E+00   -2.595E+00   -2.589E+00   -2.584E+00   -2.578E+00
    -2.572E+00   -2.567E+00   -2.561E+00   -2.556E+00   -2.550E+00   -2.544E+00   -2.539E+00   -2.533E+00   -2.528E+00   -2.522E+00
    -2.516E+00   -2.511E+00   -2.505E+00   -2.499E+00   -2.494E+00   -2.488E+00   -2.483E+00   -2.477E+00   -2.471E+00   -2.466E+00
    -2.460E+00   -2.455E+00   -2.449E+00   -2.443E+00   -2.438E+00   -2.432E+00   -2.426E+00   -2.421E+00   -2.415E+00   -2.410E+00
    -2.404E+00   -2.398E+00   -2.393E+00   -2.387E+00   -2.381E+00   -2.376E+00   -2.370E+00   -2.365E+00   -2.359E+00   -2.353E+00
    -2.348E+00   -2.342E+00   -2.337E+00   -2.331E+00   -2.325E+00   -2.320E+00   -2.314E+00   -2.308E+00   -2.303E+00   -2.297E+00
    -2.292E+00   -2.286E+00   -2.280E+00   -2.275E+00   -2.269E+00   -2.263E+00   -2.258E+00   -2.252E+00   -2.247E+00   -2.241E+00
    -2.235E+00   -2.230E+00   -2.224E+00   -2.219E+00   -2.213E+00   -2.207E+00   -2.202E+00   -2.196E+00   -2.190E+00   -2.185E+00
    -2.179E+00   -2.174E+00   -2.168E+00   -2.162E+00   -2.157E+00   -2.151E+00   -2.146E+00   -2.140E+00   -2.134E+00   -2.129E+00
    -2.123E+00   -2.117E+00   -2.112E+00   -2.106E+00   -2.101E+00   -2.095E+00   -2.089E+00   -2.084E+00   -2.078E+00   -2.072E+00
    -2.067E+00   -2.061E+00   -2.056E+00   -2.050E+00   -2.044E+00   -2.039E+00   -2.033E+00   -2.028E+00   -2.022E+00   -2.016E+00
    -2.011E+00   -2.005E+00   -1.999E+00   -1.994E+00   -1.988E+00   -1.983E+00   -1.977E+00   -1.971E+00   -1.966E+00   -1.960E+00
    -1.955E+00   -1.949E+00   -1.943E+00   -1.938E+00   -1.932E+00   -1.926E+00   -1.921E+00   -1.915E+00   -1.910E+00   -1.904E+00
    -1.898E+00   -1.893E+00   -1.887E+00   -1.881E+00   -1.876E+00   -1.870E+00   -1.865E+00   -1.859E+00   -1.853E+00   -1.848E+00
    -1.842E+00   -1.837E+00   -1.831E+00   -1.825E+00   -1.820E+00   -1.814E+00   -1.808E+00   -1.803E+00   -1.797E+00   -1.792E+00
    -1.786E+00   -1.780E+00   -1.775E+00   -1.769E+00   -1.764E+00   -1.758E+00   -1.752E+00   -1.747E+00   -1.741E+00   -1.735E+00
    -1.730E+00   -1.724E+00   -1.719E+00   -1.713E+00   -1.707E+00   -1.702E+00   -1.696E+00   -1.690E+00   -1.685E+00   -1.679E+00
    -1.674E+00   -1.668E+00   -1.662E+00   -1.657E+00   -1.651E+00   -1.646E+00   -1.640E+00   -1.634E+00   -1.629E+00   -1.623E+00
    -1.617E+00   -1.612E+00   -1.606E+00   -1.601E+00   -1.595E+00   -1.589E+00   -1.584E+00   -1.578E+00   -1.572E+00   -1.567E+00
    -1.561E+00   -1.556E+00   -1.550E+00   -1.544E+00   -1.539E+00   -1.533E+00   -1.528E+00   -1.522E+00   -1.516E+00   -1.511E+00
    -1.505E+00   -1.499E+00   -1.494E+00   -1.488E+00   -1.483E+00   -1.477E+00   -1.471E+00   -1.466E+00   -1.460E+00   -1.454E+00
    -1.449E+00   -1.443E+00   -1.438E+00   -1.432E+00   -1.426E+00   -1.421E+00   -1.415E+00   -1.410E+00   -1.404E+00   -1.398E+00
    -1.393E+00   -1.387E+00   -1.381E+00   -1.376E+00   -1.370E+00   -1.365E+00   -1.359E+00   -1.353E+00   -1.348E+00   -1.342E+00
    -1.337E+00   -1.331E+00   -1.325E+00   -1.320E+00   -1.314E+00   -1.308E+00   -1.303E+00   -1.297E+00   -1.292E+00   -1.286E+00
    -1.280E+00   -1.275E+00   -1.269E+00   -1.263E+00   -1.258E+00   -1.252E+00   -1.247E+00   -1.241E+00   -1.235E+00   -1.230E+00
    -1.224E+00   -1.219E+00   -1.213E+00   -1.207E+00   -1.202E+00   -1.196E+00   -1.190E+00   -1.185E+00   -1.179E+00   -1.174E+00
    -1.168E+00   -1.162E+00   -1.157E+00   -1.151E+00   -1.145E+00   -1.140E+00   -1.134E+00   -1.129E+00   -1.123E+00   -1.117E+00
    -1.112E+00   -1.106E+00   -1.100E+00   -1.095E+00   -1.089E+00   -1.084E+00   -1.078E+00   -1.072E+00   -1.067E+00   -1.061E+00
    -1.056E+00   -1.050E+00   -1.044E+00   -1.039E+00   -1.033E+00   -1.027E+00   -1.022E+00   -1.016E+00   -1.011E+00   -1.005E+00
    -9.993E-01   -9.937E-01   -9.881E-01   -9.825E-01   -9.769E-01   -9.712E-01   -9.656E-01   -9.600E-01   -9.544E-01   -9.488E-01
    -9.431E-01   -9.375E-01   -9.319E-01   -9.263E-01   -9.207E-01   -9.150E-01   -9.094E-01   -9.038E-01   -8.982E-01   -8.926E-01
    -8.869E-01   -8.813E-01   -8.757E-01   -8.701E-01   -8.645E-01   -8.588E-01   -8.532E-01   -8.476E-01   -8.420E-01   -8.364E-01
    -8.307E-01   -8.251E-01   -8.195E-01   -8.139E-01   -8.083E-01   -8.026E-01   -7.970E-01   -7.914E-01   -7.858E-01   -7.802E-01
    -7.745E-01   -7.689E-01   -7.633E-01   -7.577E-01   -7.521E-01   -7.464E-01   -7.408E-01   -7.352E-01   -7.296E-01   -7.240E-01
    -7.183E-01   -7.127E-01   -7.071E-01   -7.015E-01   -6.958E-01   -6.902E-01   -6.846E-01   -6.790E-01   -6.734E-01   -6.677E-01
    -6.621E-01   -6.565E-01   -6.509E-01   -6.453E-01   -6.396E-01   -6.340E-01   -6.284E-01   -6.228E-01   -6.172E-01   -6.115E-01
    -6.059E-01   -6.003E-01   -5.947E-01   -5.890E-01   -5.834E-01   -5.778E-01   -5.722E-01   -5.666E-01   -5.609E-01   -5.553E-01
    -5.497E-01   -5.441E-01   -5.385E-01   -5.328E-01   -5.272E-01   -5.216E-01   -5.160E-01   -5.104E-01   -5.047E-01   -4.991E-01
    -4.935E-01   -4.879E-01   -4.822E-01   -4.766E-01   -4.710E-01   -4.654E-01   -4.598E-01   -4.541E-01   -4.485E-01   -4.429E-01
    -4.373E-01   -4.316E-01   -4.260E-01   -4.204E-01   -4.148E-01   -4.092E-01   -4.035E-01   -3.979E-01   -3.923E-01   -3.867E-01
    -3.811E-01   -3.754E-01   -3.698E-01   -3.642E-01   -3.586E-01   -3.529E-01   -3.473E-01   -3.417E-01   -3.361E-01   -3.305E-01
    -3.248E-01   -3.192E-01   -3.136E-01   -3.080E-01   -3.023E-01   -2.967E-01   -2.911E-01   -2.855E-01   -2.799E-01   -2.742E-01
    -2.686E-01   -2.630E-01   -2.574E-01   -2.518E-01   -2.461E-01   -2.405E-01   -2.349E-01   -2.293E-01   -2.236E-01   -2.180E-01
    -2.124E-01   -2.068E-01   -2.012E-01   -1.955E-01   -1.899E-01   -1.843E-01   -1.787E-01   -1.730E-01   -1.674E-01   -1.618E-01
    -1.562E-01   -1.506E-01   -1.449E-01   -1.393E-01   -1.337E-01   -1.281E-01   -1.225E-01   -1.168E-01   -1.112E-01   -1.056E-01
    -9.996E-02   -9.434E-02   -8.872E-02   -8.310E-02   -7.748E-02   -7.185E-02   -6.623E-02   -6.061E-02   -5.499E-02   -4.937E-02
    -4.374E-02   -3.812E-02   -3.250E-02   -2.688E-02   -2.126E-02   -1.563E-02   -1.001E-02   -4.390E-03
 Ala      Conc. = 6.23E+01
