 LCModel (Version 6.3-1L) Copyright: S.W. Provencher.          Ref.: Magn. Reson. Med. 30:672-679 (1993).                
 Slice#1 Row#14 Col#8  PD_05_press_1_raw_act
 36 lines in following concentration table = NCONC+1
    Conc.  %SD /Cr+PCr  Metabolite                                         
   46.679  62%   1.606 Ala                                                 
    5.428  99%   0.187 Asp                                                 
    0.000 999%   0.000 Cr                                                  
   29.069  52%   1.000 PCr                                                 
    3.721  87%   0.128 GABA                                                
    3.373  96%   0.116 Glc                                                 
    0.000 999%   0.000 Gln                                                 
    0.000 999%   0.000 Glu                                                 
    0.000 999%   0.000 GPC                                                 
    9.828  58%   0.338 PCh                                                 
    0.000 999%   0.000 GSH                                                 
    1.185 999% 4.1E-02 Ins                                                 
   38.078  80%   1.310 Lac                                                 
   55.361  33%   1.904 NAA                                                 
    0.000 999%   0.000 NAAG                                                
    1.270  85% 4.4E-02 Scyllo                                              
    5.645  95%   0.194 Tau                                                 
   13.423  68%   0.462 -CrCH2                                              
    9.828  58%   0.338 GPC+PCh                                             
   55.361  33%   1.904 NAA+NAAG                                            
   29.069  52%   1.000 Cr+PCr                                              
    0.000 999%   0.000 Glu+Gln                                             
  113.440  83%   3.902 Lip13a                                              
    0.000 999%   0.000 Lip13b                                              
   23.915 152%   0.823 Lip09                                               
   36.937 133%   1.271 MM09                                                
   20.920 114%   0.720 Lip20                                               
   55.462 133%   1.908 MM20                                                
   11.095 134%   0.382 MM12                                                
   27.613 135%   0.950 MM14                                                
   13.873 135%   0.477 MM17                                                
  113.440  83%   3.902 Lip13a+Lip13b                                       
  152.148  55%   5.234 MM14+Lip13a+Lip13b+MM12                             
   60.853  70%   2.093 MM09+Lip09                                          
   76.381  91%   2.628 MM20+Lip20                                          
   6 lines in following misc. output table
  FWHM = 0.038 ppm    S/N =   1                                            
  Data shift = 0.015 ppm                                                   
  Ph: -61 deg     -28.1 deg/ppm                                            
  alphaB,S = 8.5E+01,   2.6E+01                                            
   14 spline knots.   Ns = 5(1)                                            
   2 inflections.     1 extrema                                            
  498 points on ppm-axis = NY
      4.000000     3.992357     3.984714     3.977070     3.969427     3.961784     3.954141     3.946497     3.938854     3.931211
      3.923568     3.915925     3.908281     3.900638     3.892995     3.885352     3.877708     3.870065     3.862422     3.854779
      3.847136     3.839492     3.831849     3.824206     3.816563     3.808919     3.801276     3.793633     3.785990     3.778347
      3.770703     3.763060     3.755417     3.747774     3.740130     3.732487     3.724844     3.717201     3.709558     3.701914
      3.694271     3.686628     3.678985     3.671341     3.663698     3.656055     3.648412     3.640769     3.633125     3.625482
      3.617839     3.610196     3.602552     3.594909     3.587266     3.579623     3.571980     3.564336     3.556693     3.549050
      3.541407     3.533763     3.526120     3.518477     3.510834     3.503191     3.495547     3.487904     3.480261     3.472618
      3.464974     3.457331     3.449688     3.442045     3.434402     3.426758     3.419115     3.411472     3.403829     3.396185
      3.388542     3.380899     3.373256     3.365613     3.357969     3.350326     3.342683     3.335040     3.327396     3.319753
      3.312110     3.304467     3.296824     3.289180     3.281537     3.273894     3.266251     3.258607     3.250964     3.243321
      3.235678     3.228034     3.220391     3.212748     3.205105     3.197462     3.189818     3.182175     3.174532     3.166889
      3.159245     3.151602     3.143959     3.136316     3.128673     3.121029     3.113386     3.105743     3.098100     3.090456
      3.082813     3.075170     3.067527     3.059884     3.052240     3.044597     3.036954     3.029311     3.021667     3.014024
      3.006381     2.998738     2.991095     2.983451     2.975808     2.968165     2.960522     2.952878     2.945235     2.937592
      2.929949     2.922306     2.914662     2.907019     2.899376     2.891733     2.884089     2.876446     2.868803     2.861160
      2.853517     2.845873     2.838230     2.830587     2.822944     2.815300     2.807657     2.800014     2.792371     2.784728
      2.777084     2.769441     2.761798     2.754155     2.746511     2.738868     2.731225     2.723582     2.715939     2.708295
      2.700652     2.693009     2.685366     2.677722     2.670079     2.662436     2.654793     2.647150     2.639506     2.631863
      2.624220     2.616577     2.608933     2.601290     2.593647     2.586004     2.578361     2.570717     2.563074     2.555431
      2.547788     2.540144     2.532501     2.524858     2.517215     2.509572     2.501928     2.494285     2.486642     2.478999
      2.471355     2.463712     2.456069     2.448426     2.440783     2.433139     2.425496     2.417853     2.410210     2.402566
      2.394923     2.387280     2.379637     2.371994     2.364350     2.356707     2.349064     2.341421     2.333777     2.326134
      2.318491     2.310848     2.303205     2.295561     2.287918     2.280275     2.272632     2.264988     2.257345     2.249702
      2.242059     2.234416     2.226772     2.219129     2.211486     2.203843     2.196199     2.188556     2.180913     2.173270
      2.165627     2.157983     2.150340     2.142697     2.135054     2.127410     2.119767     2.112124     2.104481     2.096838
      2.089194     2.081551     2.073908     2.066265     2.058621     2.050978     2.043335     2.035692     2.028049     2.020405
      2.012762     2.005119     1.997476     1.989833     1.982190     1.974546     1.966903     1.959260     1.951617     1.943974
      1.936331     1.928688     1.921045     1.913402     1.905759     1.898115     1.890472     1.882829     1.875186     1.867543
      1.859900     1.852257     1.844614     1.836971     1.829327     1.821684     1.814041     1.806398     1.798755     1.791112
      1.783469     1.775826     1.768183     1.760540     1.752896     1.745253     1.737610     1.729967     1.722324     1.714681
      1.707038     1.699395     1.691752     1.684108     1.676465     1.668822     1.661179     1.653536     1.645893     1.638250
      1.630607     1.622964     1.615321     1.607677     1.600034     1.592391     1.584748     1.577105     1.569462     1.561819
      1.554176     1.546533     1.538890     1.531246     1.523603     1.515960     1.508317     1.500674     1.493031     1.485388
      1.477745     1.470102     1.462458     1.454815     1.447172     1.439529     1.431886     1.424243     1.416600     1.408957
      1.401314     1.393671     1.386027     1.378384     1.370741     1.363098     1.355455     1.347812     1.340169     1.332526
      1.324883     1.317240     1.309596     1.301953     1.294310     1.286667     1.279024     1.271381     1.263738     1.256095
      1.248452     1.240808     1.233165     1.225522     1.217879     1.210236     1.202593     1.194950     1.187307     1.179664
      1.172021     1.164377     1.156734     1.149091     1.141448     1.133805     1.126162     1.118519     1.110876     1.103233
      1.095590     1.087946     1.080303     1.072660     1.065017     1.057374     1.049731     1.042088     1.034445     1.026802
      1.019158     1.011515     1.003872     0.996229     0.988586     0.980943     0.973300     0.965657     0.958014     0.950371
      0.942727     0.935084     0.927441     0.919798     0.912155     0.904512     0.896869     0.889226     0.881583     0.873940
      0.866296     0.858653     0.851010     0.843367     0.835724     0.828081     0.820438     0.812795     0.805152     0.797508
      0.789865     0.782222     0.774579     0.766936     0.759293     0.751650     0.744007     0.736364     0.728721     0.721077
      0.713434     0.705791     0.698148     0.690505     0.682862     0.675219     0.667576     0.659933     0.652290     0.644646
      0.637003     0.629360     0.621717     0.614074     0.606431     0.598788     0.591145     0.583502     0.575858     0.568215
      0.560572     0.552929     0.545286     0.537643     0.530000     0.522357     0.514714     0.507071     0.499427     0.491784
      0.484141     0.476498     0.468855     0.461212     0.453569     0.445925     0.438282     0.430639     0.422996     0.415353
      0.407710     0.400067     0.392424     0.384780     0.377137     0.369494     0.361851     0.354208     0.346565     0.338922
      0.331278     0.323635     0.315992     0.308349     0.300706     0.293063     0.285420     0.277777     0.270133     0.262490
      0.254847     0.247204     0.239561     0.231918     0.224275     0.216631     0.208988     0.201345
 NY phased data points follow
  -2.13629E+00 -4.11460E+00 -1.66398E+00 -3.37057E+00 -2.53948E+00 -2.55467E+00 -2.17117E+00 -2.27178E+00 -4.47491E+00 -4.37233E+00
  -1.01466E-01 -4.01890E+00 -3.70032E+00 -3.46018E+00 -2.65515E+00 -2.41327E+00 -2.54352E+00 -1.45074E+00 -3.25407E+00 -1.33829E+00
  -2.27208E+00 -3.19320E+00 -8.42959E-01 -2.09046E+00 -3.87309E+00 -4.07878E+00 -1.56189E-01 -2.59925E+00 -3.02912E+00 -1.77079E+00
  -2.42419E-01 -2.96869E+00 -1.16229E+00 -1.99791E+00 -2.62045E+00 -1.82823E-01 -3.26754E+00 -2.35452E+00 -2.14529E+00 -2.03952E+00
  -5.50403E-01 -5.05417E-01 -2.83273E+00 -1.01153E+00 -1.91476E+00 -8.23715E-01 -7.88416E-01 -1.12403E+00 -1.90785E+00 -1.18898E+00
  -1.15391E+00 -2.71571E+00 -1.52567E+00 -2.72976E+00 -3.93798E+00 -1.94182E+00 -2.04088E+00 -1.90648E+00 -3.25143E+00 -1.66415E+00
   1.16836E+00 -7.28983E-01 -1.56627E+00 -6.48702E-02 -1.15622E-01 -6.77663E-01 -2.40645E+00 -5.65105E-01 -2.07855E+00 -2.90560E+00
  -2.86791E+00 -1.57190E+00 -1.31449E+00 -7.20697E-01  1.27627E+00 -2.72536E+00 -1.64313E-01 -1.60668E+00 -3.70488E-01 -2.26811E-01
  -6.39670E-01 -1.85193E+00 -4.73416E-01 -3.36841E-03 -6.87939E-02 -1.35482E+00 -1.13997E+00 -2.14856E-01  1.39545E-02 -3.69399E+00
  -2.91517E+00 -4.66893E+00 -2.62684E+00 -1.02698E+00 -2.33110E+00 -6.56266E-01 -2.43393E+00 -6.18582E-01 -2.33756E+00 -1.34654E-01
  -1.59225E+00 -8.94109E-01  6.05798E-01  1.65880E-01 -2.45502E-01  3.31918E-01 -3.76318E-01 -1.45431E+00 -3.20627E+00 -2.02997E+00
  -3.61506E+00  9.77098E-03 -2.79570E+00 -1.07689E+00 -1.98291E+00 -1.95374E+00 -8.20511E-01 -1.84656E+00 -2.03855E+00 -3.30359E+00
  -1.55731E+00  1.26743E+00 -1.74573E+00  4.89525E-01 -7.54342E-01 -2.79082E-01  2.82611E+00  2.22918E+00  2.12079E+00 -1.33987E+00
  -1.46823E+00  2.75780E-02 -1.54865E+00 -1.24206E+00 -2.61917E+00 -5.14135E-01 -1.79046E+00 -3.54513E+00  8.25903E-01 -2.52448E+00
  -3.93162E+00 -1.04705E+00  1.39349E+00 -1.79562E+00 -3.05430E+00 -5.74047E-01 -1.78954E-01 -3.69685E+00 -1.11028E+00 -9.85739E-01
  -1.17378E+00 -1.58988E+00 -3.68776E-01 -1.57977E+00 -1.35305E+00  2.82164E+00  6.41041E-01 -1.58753E-01 -5.81682E-01  1.64896E+00
  -5.79385E-01 -2.25791E+00  1.94958E+00 -9.84453E-01 -7.84635E-01 -3.42410E-01 -2.66707E+00  2.45397E+00  5.39025E-01 -2.05264E+00
  -2.73276E+00 -3.15537E+00 -1.10655E+00  1.53333E-01 -1.92750E+00 -3.69464E+00 -1.37693E+00 -1.01992E+00 -2.17598E+00 -2.34612E+00
  -1.44423E+00 -6.97308E-01  3.01102E-01  3.46969E-01  1.11192E+00 -1.67434E+00  1.36863E+00 -5.63579E-01  2.19957E-01  4.03822E-01
  -1.17946E+00 -2.44624E+00  7.87600E-01 -1.82075E+00 -2.31148E+00 -5.92375E-01 -4.77893E-01 -2.43431E+00  1.69032E+00 -1.84280E+00
  -5.09152E-01 -8.97060E-01 -7.67091E-01 -2.42568E+00 -3.17582E+00 -8.60059E-01  8.64743E-01  8.53257E-01 -1.26525E-01  4.40511E-01
  -2.69453E+00 -1.34643E+00 -2.07737E-01 -7.64413E-01  1.40957E+00 -6.34050E-01 -1.41312E+00 -2.16073E+00 -4.94270E-01  3.63294E-02
  -1.96656E+00 -6.26362E-01 -4.33737E-01  1.50593E+00 -1.45749E+00 -8.64461E-01  1.08843E+00 -5.52227E-01  4.58508E-01 -3.13268E-01
  -6.69892E-01 -1.94056E+00 -3.27494E+00  1.70657E+00  8.51366E-02 -8.57799E-01  4.67658E-02 -1.09825E+00  2.12583E+00  1.46892E+00
   1.49138E+00 -6.45673E-01  5.74815E-01  3.09610E+00 -4.24219E+00  3.98144E-01 -1.11574E+00  1.34702E+00 -7.88687E-01 -4.65167E-01
  -1.77232E+00  6.06476E-01 -2.82261E-01 -1.95695E+00 -5.57535E-01  6.74663E-01  2.03719E-01 -6.24607E-01  1.89497E+00  2.88317E+00
   2.12016E+00  2.23620E+00  2.01132E+00 -3.46901E+00  4.12318E-01  6.20515E-01  5.91089E-01 -8.60226E-01 -1.91434E+00 -2.58599E+00
   6.92797E-01 -1.09010E+00 -1.55980E+00 -9.07507E-01 -1.83083E+00 -7.39109E-01  1.10414E+00 -1.55610E+00 -4.63740E-01  1.49127E+00
  -1.60701E+00 -1.79780E-01 -2.55618E+00  4.54564E-01 -3.54252E-02 -2.42254E-01 -6.23739E-02 -1.67360E+00 -1.11525E+00  9.67352E-02
   5.23054E-01 -2.72358E+00 -8.30603E-01  7.19327E-02 -2.79101E+00  1.82576E-02 -1.16450E+00  1.47446E+00 -1.25077E+00 -2.41075E+00
  -9.58393E-02 -8.33604E-01  2.55257E-01 -1.31642E+00 -4.38351E-01 -9.13231E-01 -2.81932E-02 -1.28926E+00  3.84876E-01  9.58468E-01
   1.04582E+00  1.93209E-01 -3.84451E-01 -4.78705E-01  2.69527E+00 -8.22576E-01  7.36756E-01 -1.12826E+00  1.73818E+00  2.03302E+00
  -3.62478E+00  1.26880E+00  2.00427E+00 -6.17578E-01  2.85987E-01  8.01337E-01 -1.05186E+00  7.24145E-01  8.32431E-01 -1.40927E+00
  -1.95463E+00 -1.40982E+00 -1.63119E+00 -4.95966E-01  3.69537E+00  7.30916E-01  4.53445E-01 -2.32995E+00  9.42039E-01  8.83983E-01
   1.90732E-02 -1.47153E+00  1.16241E-01  9.83415E-02  2.36475E+00  1.09241E-01 -3.79735E-01 -9.11259E-01 -1.78935E+00 -2.08208E+00
  -5.00020E-01  9.99459E-01 -3.64103E-01  1.51174E+00  1.19381E-01  1.88462E-01 -2.80923E-01  1.74281E+00  2.11786E+00 -1.04184E+00
  -3.06649E-01 -9.44897E-01 -4.87152E-01 -1.35431E+00  8.71338E-01  1.01114E+00  1.33874E+00  9.02618E-01  2.13237E+00  8.45786E-01
   7.29485E-01  1.89702E+00  4.27405E-01  1.62277E-01  1.77830E+00  1.38370E+00  2.23137E+00  1.77202E+00 -1.20851E+00  4.93750E-01
   1.29910E+00  8.89478E-01  3.45467E-01  3.07404E+00 -1.28137E-01 -2.12355E+00  1.27309E-01 -5.27655E-01  1.29702E+00  7.60491E-01
   1.69872E-01 -2.91977E-01  1.54086E-01  1.13163E+00  6.81321E-01  1.84986E+00 -1.10382E-01 -3.30871E+00 -1.49437E+00  2.17171E+00
   8.33706E-01  7.40836E-01  1.10546E+00 -2.78937E-01 -4.57412E-02  8.31081E-02 -1.63814E+00  8.45891E-01  4.87224E-01  3.79619E-02
  -3.57382E-01  1.29444E+00 -6.84887E-01  1.52380E+00  9.57709E-01  1.25796E+00 -1.34125E+00 -2.17313E+00  8.12401E-01 -2.16924E+00
   3.24834E+00 -3.66329E-01  6.50718E-01  1.97814E-01  1.01071E+00 -6.79786E-01 -1.37712E+00 -1.73907E-01  2.82302E-01 -2.15985E+00
   1.46153E+00  2.62296E+00 -2.23406E+00  2.22724E+00 -7.80827E-01  1.70235E+00  2.62400E-01 -8.32732E-01  4.58120E-01 -1.61258E+00
  -1.39125E+00 -1.96178E+00 -5.50416E-01 -1.77942E+00 -9.40536E-01 -2.84415E+00  1.68739E-01  1.86127E-01 -3.38400E-01  1.32007E+00
   1.18085E+00 -1.92370E+00  4.15783E-01  2.73707E+00  3.53851E-01  3.37895E-01  8.50597E-01 -2.47531E-01 -1.38349E+00 -4.64433E-01
  -1.16635E+00 -2.30371E-01 -8.96069E-01 -2.45026E+00  1.67105E+00 -2.77207E-01  1.54156E+00 -2.96448E+00  7.06410E-01 -5.34625E-01
  -1.56404E+00  1.49060E-01  4.89089E-01  1.39115E-02  2.29165E-01 -3.78638E-01  2.64490E-01  5.05586E-03 -1.90620E+00 -9.71700E-01
   1.20556E+00  2.33452E+00  1.02452E-01 -1.49410E+00 -2.85868E-01  2.17430E-02 -1.80712E+00  6.31077E-01 -1.34856E+00  2.31221E+00
  -1.37468E+00 -2.66178E+00  3.03940E-01 -1.31684E+00 -2.88227E+00 -2.55577E-01  4.59147E-01  2.43882E+00
 NY points of the fit to the data follow
  -1.73026E+00 -1.70575E+00 -1.68473E+00 -1.66092E+00 -1.60165E+00 -1.49642E+00 -1.37465E+00 -1.27255E+00 -1.22498E+00 -1.24907E+00
  -1.33612E+00 -1.45650E+00 -1.57204E+00 -1.65807E+00 -1.70566E+00 -1.72183E+00 -1.72308E+00 -1.71030E+00 -1.67646E+00 -1.62107E+00
  -1.54791E+00 -1.48433E+00 -1.45793E+00 -1.48028E+00 -1.54606E+00 -1.63550E+00 -1.72761E+00 -1.80292E+00 -1.83321E+00 -1.80317E+00
  -1.72426E+00 -1.62145E+00 -1.52355E+00 -1.44804E+00 -1.40744E+00 -1.41102E+00 -1.45239E+00 -1.50945E+00 -1.56208E+00 -1.59661E+00
  -1.61348E+00 -1.61628E+00 -1.60490E+00 -1.58409E+00 -1.56165E+00 -1.54301E+00 -1.53138E+00 -1.52501E+00 -1.52019E+00 -1.51592E+00
  -1.51001E+00 -1.50186E+00 -1.49257E+00 -1.48435E+00 -1.47941E+00 -1.47771E+00 -1.47713E+00 -1.47584E+00 -1.47260E+00 -1.46772E+00
  -1.46250E+00 -1.45695E+00 -1.45072E+00 -1.44469E+00 -1.43859E+00 -1.43352E+00 -1.43088E+00 -1.43016E+00 -1.43001E+00 -1.42872E+00
  -1.42226E+00 -1.40784E+00 -1.38841E+00 -1.36992E+00 -1.35846E+00 -1.35768E+00 -1.36721E+00 -1.38106E+00 -1.39167E+00 -1.39366E+00
  -1.38427E+00 -1.35939E+00 -1.32286E+00 -1.28615E+00 -1.25862E+00 -1.24699E+00 -1.25259E+00 -1.27064E+00 -1.29430E+00 -1.31685E+00
  -1.33308E+00 -1.34168E+00 -1.34423E+00 -1.34187E+00 -1.33086E+00 -1.30938E+00 -1.27831E+00 -1.23098E+00 -1.11120E+00 -8.52902E-01
  -5.12771E-01 -1.90229E-01  9.05284E-03  1.31803E-02 -1.79755E-01 -5.04529E-01 -8.50303E-01 -1.10885E+00 -1.23627E+00 -1.25627E+00
  -1.23631E+00 -1.22904E+00 -1.22636E+00 -1.22266E+00 -1.21779E+00 -1.21297E+00 -1.20808E+00 -1.20220E+00 -1.19475E+00 -1.18374E+00
  -1.16224E+00 -1.09377E+00 -8.88546E-01 -5.60778E-01 -2.05500E-01  6.62681E-02  1.60023E-01  4.38764E-02 -2.40542E-01 -5.95192E-01
  -9.01433E-01 -1.08584E+00 -1.14710E+00 -1.13815E+00 -1.12789E+00 -1.12473E+00 -1.11959E+00 -1.11371E+00 -1.10925E+00 -1.10638E+00
  -1.10410E+00 -1.10057E+00 -1.09501E+00 -1.08855E+00 -1.08236E+00 -1.07786E+00 -1.07611E+00 -1.07659E+00 -1.07763E+00 -1.07721E+00
  -1.07452E+00 -1.07013E+00 -1.06502E+00 -1.06011E+00 -1.05581E+00 -1.05385E+00 -1.05978E+00 -1.07478E+00 -1.09368E+00 -1.10798E+00
  -1.10697E+00 -1.08952E+00 -1.06269E+00 -1.03665E+00 -1.02191E+00 -1.02335E+00 -1.03810E+00 -1.05785E+00 -1.07296E+00 -1.08042E+00
  -1.08358E+00 -1.08977E+00 -1.10309E+00 -1.11446E+00 -1.11593E+00 -1.10524E+00 -1.08846E+00 -1.07309E+00 -1.06234E+00 -1.05701E+00
  -1.05438E+00 -1.05128E+00 -1.04841E+00 -1.04312E+00 -1.03184E+00 -1.01583E+00 -9.93633E-01 -9.65309E-01 -9.34260E-01 -9.06880E-01
  -8.89275E-01 -8.80319E-01 -8.71888E-01 -8.60642E-01 -8.48467E-01 -8.42010E-01 -8.47479E-01 -8.63852E-01 -8.82699E-01 -8.90056E-01
  -8.79807E-01 -8.55457E-01 -8.26852E-01 -8.05420E-01 -7.98477E-01 -8.04896E-01 -8.19016E-01 -8.35243E-01 -8.53681E-01 -8.72823E-01
  -8.88859E-01 -8.98905E-01 -8.97849E-01 -8.83841E-01 -8.59489E-01 -8.30636E-01 -8.04188E-01 -7.84020E-01 -7.68795E-01 -7.54081E-01
  -7.35922E-01 -7.16259E-01 -6.99514E-01 -6.88556E-01 -6.84666E-01 -6.87771E-01 -6.95909E-01 -7.04048E-01 -7.06444E-01 -7.00046E-01
  -6.85115E-01 -6.64475E-01 -6.41979E-01 -6.21196E-01 -6.04557E-01 -5.92337E-01 -5.82779E-01 -5.73408E-01 -5.62624E-01 -5.50497E-01
  -5.37654E-01 -5.24323E-01 -5.10626E-01 -4.96693E-01 -4.82670E-01 -4.68713E-01 -4.54957E-01 -4.41482E-01 -4.28268E-01 -4.15174E-01
  -4.01833E-01 -3.87403E-01 -3.69820E-01 -3.43118E-01 -2.79585E-01 -4.74844E-02  4.59435E-01  1.11188E+00  1.71031E+00  2.05090E+00
   2.00664E+00  1.59112E+00  9.44135E-01  2.84190E-01 -1.94382E-01 -4.25147E-01 -4.64199E-01 -4.44230E-01 -4.50264E-01 -4.61833E-01
  -4.70022E-01 -4.74216E-01 -4.75088E-01 -4.74414E-01 -4.74126E-01 -4.75471E-01 -4.78879E-01 -4.83965E-01 -4.90046E-01 -4.96143E-01
  -5.00964E-01 -5.03444E-01 -5.03207E-01 -5.00625E-01 -4.96323E-01 -4.90849E-01 -4.84865E-01 -4.78993E-01 -4.73358E-01 -4.67879E-01
  -4.62310E-01 -4.56378E-01 -4.49961E-01 -4.43011E-01 -4.35436E-01 -4.27210E-01 -4.18446E-01 -4.09335E-01 -4.00036E-01 -3.90702E-01
  -3.81463E-01 -3.72352E-01 -3.63408E-01 -3.54668E-01 -3.46142E-01 -3.37822E-01 -3.29662E-01 -3.21588E-01 -3.13487E-01 -3.05214E-01
  -2.96578E-01 -2.87346E-01 -2.77221E-01 -2.65838E-01 -2.52731E-01 -2.37290E-01 -2.18667E-01 -1.95620E-01 -1.66154E-01 -1.26725E-01
  -6.98797E-02  2.37593E-02  1.79832E-01  3.33347E-01  3.89894E-01  2.96049E-01  4.61665E-02 -3.08697E-01 -6.86501E-01 -1.00338E+00
  -1.13577E+00 -1.01092E+00 -6.76208E-01 -2.39440E-01  1.73001E-01  4.82964E-01  6.46032E-01  6.52621E-01  5.54991E-01  4.39123E-01
   3.77332E-01  4.09916E-01  5.31215E-01  6.63345E-01  7.23217E-01  6.60889E-01  4.64846E-01  1.71885E-01 -1.51450E-01 -4.22166E-01
  -5.18038E-01 -3.94589E-01 -1.04953E-01  2.48117E-01  5.51639E-01  7.45809E-01  8.09554E-01  7.51677E-01  6.25928E-01  4.97753E-01
   4.10419E-01  3.69666E-01  3.43383E-01  3.17465E-01  2.92470E-01  2.68370E-01  2.45016E-01  2.22367E-01  2.00480E-01  1.79460E-01
   1.59444E-01  1.40573E-01  1.22999E-01  1.06860E-01  9.22806E-02  7.93591E-02  6.81807E-02  5.88122E-02  5.13167E-02  4.57435E-02
   4.21382E-02  4.05342E-02  4.09678E-02  4.34691E-02  4.80718E-02  5.47965E-02  6.36556E-02  7.46378E-02  8.77140E-02  1.02820E-01
   1.19856E-01  1.38668E-01  1.59053E-01  1.80740E-01  2.03406E-01  2.26665E-01  2.50082E-01  2.73174E-01  2.95432E-01  3.16332E-01
   3.35366E-01  3.52053E-01  3.65969E-01  3.76757E-01  3.84159E-01  3.88013E-01  3.88276E-01  3.85013E-01  3.78401E-01  3.68708E-01
   3.56289E-01  3.41561E-01  3.24987E-01  3.07044E-01  2.88214E-01  2.68954E-01  2.49687E-01  2.30787E-01  2.12577E-01  1.95309E-01
   1.79183E-01  1.64330E-01  1.50836E-01  1.38735E-01  1.28022E-01  1.18658E-01  1.10582E-01  1.03711E-01  9.79583E-02  9.32265E-02
   8.94217E-02  8.64464E-02  8.42128E-02  8.26348E-02  8.16391E-02  8.11545E-02  8.11216E-02  8.14823E-02  8.21909E-02  8.32032E-02
   8.44859E-02  8.60049E-02  8.77350E-02  8.96491E-02  9.17292E-02  9.39553E-02  9.63151E-02  9.87923E-02  1.01377E-01  1.04056E-01
   1.06822E-01  1.09667E-01  1.12585E-01  1.15568E-01  1.18612E-01  1.21709E-01  1.24858E-01  1.28053E-01  1.31293E-01  1.34571E-01
   1.37887E-01  1.41235E-01  1.44617E-01  1.48028E-01  1.51468E-01  1.54932E-01  1.58422E-01  1.61932E-01  1.65466E-01  1.69019E-01
   1.72592E-01  1.76182E-01  1.79789E-01  1.83410E-01  1.87049E-01  1.90700E-01  1.94366E-01  1.98043E-01  2.01733E-01  2.05434E-01
   2.09147E-01  2.12870E-01  2.16604E-01  2.20345E-01  2.24097E-01  2.27857E-01  2.31626E-01  2.35403E-01  2.39188E-01  2.42979E-01
   2.46779E-01  2.50585E-01  2.54400E-01  2.58220E-01  2.62047E-01  2.65879E-01  2.69720E-01  2.73566E-01
 NY background values follow
    -1.733E+00   -1.729E+00   -1.725E+00   -1.721E+00   -1.717E+00   -1.713E+00   -1.709E+00   -1.705E+00   -1.701E+00   -1.697E+00
    -1.693E+00   -1.689E+00   -1.685E+00   -1.681E+00   -1.677E+00   -1.673E+00   -1.669E+00   -1.665E+00   -1.661E+00   -1.657E+00
    -1.653E+00   -1.649E+00   -1.645E+00   -1.641E+00   -1.637E+00   -1.633E+00   -1.629E+00   -1.624E+00   -1.620E+00   -1.616E+00
    -1.612E+00   -1.608E+00   -1.604E+00   -1.600E+00   -1.596E+00   -1.592E+00   -1.588E+00   -1.584E+00   -1.580E+00   -1.576E+00
    -1.572E+00   -1.568E+00   -1.564E+00   -1.560E+00   -1.556E+00   -1.552E+00   -1.548E+00   -1.544E+00   -1.540E+00   -1.536E+00
    -1.532E+00   -1.528E+00   -1.524E+00   -1.520E+00   -1.516E+00   -1.512E+00   -1.508E+00   -1.504E+00   -1.500E+00   -1.496E+00
    -1.492E+00   -1.488E+00   -1.484E+00   -1.480E+00   -1.476E+00   -1.472E+00   -1.468E+00   -1.464E+00   -1.460E+00   -1.456E+00
    -1.452E+00   -1.448E+00   -1.444E+00   -1.440E+00   -1.436E+00   -1.432E+00   -1.428E+00   -1.424E+00   -1.420E+00   -1.416E+00
    -1.412E+00   -1.408E+00   -1.404E+00   -1.400E+00   -1.396E+00   -1.392E+00   -1.388E+00   -1.384E+00   -1.380E+00   -1.375E+00
    -1.371E+00   -1.367E+00   -1.363E+00   -1.359E+00   -1.355E+00   -1.351E+00   -1.347E+00   -1.343E+00   -1.339E+00   -1.335E+00
    -1.331E+00   -1.327E+00   -1.323E+00   -1.319E+00   -1.315E+00   -1.311E+00   -1.307E+00   -1.303E+00   -1.299E+00   -1.295E+00
    -1.291E+00   -1.287E+00   -1.283E+00   -1.279E+00   -1.275E+00   -1.271E+00   -1.267E+00   -1.263E+00   -1.259E+00   -1.255E+00
    -1.251E+00   -1.247E+00   -1.243E+00   -1.239E+00   -1.235E+00   -1.231E+00   -1.227E+00   -1.223E+00   -1.219E+00   -1.215E+00
    -1.211E+00   -1.207E+00   -1.203E+00   -1.199E+00   -1.195E+00   -1.191E+00   -1.187E+00   -1.183E+00   -1.179E+00   -1.175E+00
    -1.171E+00   -1.167E+00   -1.163E+00   -1.159E+00   -1.155E+00   -1.151E+00   -1.147E+00   -1.143E+00   -1.139E+00   -1.135E+00
    -1.131E+00   -1.126E+00   -1.122E+00   -1.118E+00   -1.114E+00   -1.110E+00   -1.106E+00   -1.102E+00   -1.098E+00   -1.094E+00
    -1.090E+00   -1.086E+00   -1.082E+00   -1.078E+00   -1.074E+00   -1.070E+00   -1.066E+00   -1.062E+00   -1.058E+00   -1.054E+00
    -1.050E+00   -1.046E+00   -1.042E+00   -1.038E+00   -1.034E+00   -1.030E+00   -1.026E+00   -1.022E+00   -1.018E+00   -1.014E+00
    -1.010E+00   -1.006E+00   -1.002E+00   -9.980E-01   -9.940E-01   -9.900E-01   -9.859E-01   -9.819E-01   -9.779E-01   -9.739E-01
    -9.699E-01   -9.659E-01   -9.618E-01   -9.578E-01   -9.538E-01   -9.498E-01   -9.458E-01   -9.418E-01   -9.378E-01   -9.337E-01
    -9.297E-01   -9.257E-01   -9.217E-01   -9.177E-01   -9.137E-01   -9.096E-01   -9.056E-01   -9.016E-01   -8.976E-01   -8.936E-01
    -8.896E-01   -8.855E-01   -8.815E-01   -8.775E-01   -8.735E-01   -8.695E-01   -8.655E-01   -8.615E-01   -8.574E-01   -8.534E-01
    -8.494E-01   -8.454E-01   -8.414E-01   -8.374E-01   -8.333E-01   -8.293E-01   -8.253E-01   -8.213E-01   -8.173E-01   -8.133E-01
    -8.092E-01   -8.052E-01   -8.012E-01   -7.972E-01   -7.932E-01   -7.892E-01   -7.852E-01   -7.811E-01   -7.771E-01   -7.731E-01
    -7.691E-01   -7.651E-01   -7.611E-01   -7.570E-01   -7.530E-01   -7.490E-01   -7.450E-01   -7.410E-01   -7.370E-01   -7.330E-01
    -7.289E-01   -7.249E-01   -7.209E-01   -7.169E-01   -7.129E-01   -7.089E-01   -7.048E-01   -7.008E-01   -6.968E-01   -6.928E-01
    -6.888E-01   -6.848E-01   -6.807E-01   -6.767E-01   -6.727E-01   -6.687E-01   -6.647E-01   -6.607E-01   -6.567E-01   -6.526E-01
    -6.486E-01   -6.446E-01   -6.406E-01   -6.366E-01   -6.326E-01   -6.285E-01   -6.245E-01   -6.205E-01   -6.165E-01   -6.125E-01
    -6.085E-01   -6.045E-01   -6.004E-01   -5.964E-01   -5.924E-01   -5.884E-01   -5.844E-01   -5.804E-01   -5.763E-01   -5.723E-01
    -5.683E-01   -5.643E-01   -5.603E-01   -5.563E-01   -5.523E-01   -5.482E-01   -5.442E-01   -5.402E-01   -5.362E-01   -5.322E-01
    -5.282E-01   -5.241E-01   -5.201E-01   -5.161E-01   -5.121E-01   -5.081E-01   -5.041E-01   -5.001E-01   -4.960E-01   -4.920E-01
    -4.880E-01   -4.840E-01   -4.800E-01   -4.760E-01   -4.719E-01   -4.679E-01   -4.639E-01   -4.599E-01   -4.559E-01   -4.519E-01
    -4.479E-01   -4.438E-01   -4.398E-01   -4.358E-01   -4.318E-01   -4.278E-01   -4.238E-01   -4.197E-01   -4.157E-01   -4.117E-01
    -4.077E-01   -4.037E-01   -3.997E-01   -3.957E-01   -3.916E-01   -3.876E-01   -3.836E-01   -3.796E-01   -3.756E-01   -3.716E-01
    -3.676E-01   -3.635E-01   -3.595E-01   -3.555E-01   -3.515E-01   -3.475E-01   -3.435E-01   -3.394E-01   -3.354E-01   -3.314E-01
    -3.274E-01   -3.234E-01   -3.194E-01   -3.154E-01   -3.113E-01   -3.073E-01   -3.033E-01   -2.993E-01   -2.953E-01   -2.913E-01
    -2.872E-01   -2.832E-01   -2.792E-01   -2.752E-01   -2.712E-01   -2.672E-01   -2.632E-01   -2.591E-01   -2.551E-01   -2.511E-01
    -2.471E-01   -2.431E-01   -2.391E-01   -2.351E-01   -2.310E-01   -2.270E-01   -2.230E-01   -2.190E-01   -2.150E-01   -2.110E-01
    -2.069E-01   -2.029E-01   -1.989E-01   -1.949E-01   -1.909E-01   -1.869E-01   -1.829E-01   -1.788E-01   -1.748E-01   -1.708E-01
    -1.668E-01   -1.628E-01   -1.588E-01   -1.548E-01   -1.507E-01   -1.467E-01   -1.427E-01   -1.387E-01   -1.347E-01   -1.307E-01
    -1.266E-01   -1.226E-01   -1.186E-01   -1.146E-01   -1.106E-01   -1.066E-01   -1.026E-01   -9.854E-02   -9.453E-02   -9.051E-02
    -8.650E-02   -8.248E-02   -7.846E-02   -7.445E-02   -7.043E-02   -6.642E-02   -6.240E-02   -5.839E-02   -5.437E-02   -5.036E-02
    -4.635E-02   -4.233E-02   -3.832E-02   -3.430E-02   -3.029E-02   -2.627E-02   -2.226E-02   -1.824E-02   -1.423E-02   -1.021E-02
    -6.195E-03   -2.180E-03    1.835E-03    5.850E-03    9.865E-03    1.388E-02    1.789E-02    2.191E-02    2.592E-02    2.994E-02
     3.395E-02    3.797E-02    4.198E-02    4.600E-02    5.001E-02    5.403E-02    5.804E-02    6.206E-02    6.607E-02    7.009E-02
     7.410E-02    7.812E-02    8.213E-02    8.615E-02    9.016E-02    9.418E-02    9.819E-02    1.022E-01    1.062E-01    1.102E-01
     1.143E-01    1.183E-01    1.223E-01    1.263E-01    1.303E-01    1.343E-01    1.383E-01    1.424E-01    1.464E-01    1.504E-01
     1.544E-01    1.584E-01    1.624E-01    1.664E-01    1.705E-01    1.745E-01    1.785E-01    1.825E-01    1.865E-01    1.905E-01
     1.946E-01    1.986E-01    2.026E-01    2.066E-01    2.106E-01    2.146E-01    2.186E-01    2.227E-01    2.267E-01    2.307E-01
     2.347E-01    2.387E-01    2.427E-01    2.467E-01    2.508E-01    2.548E-01    2.588E-01    2.628E-01
 Ala      Conc. = 4.67E+01
