 LCModel (Version 6.3-1L) Copyright: S.W. Provencher.          Ref.: Magn. Reson. Med. 30:672-679 (1993).                
 Slice#1 Row#10 Col#5  PD_05_press_1_raw_act
 36 lines in following concentration table = NCONC+1
    Conc.  %SD /Cr+PCr  Metabolite                                         
  109.304  76%   0.144 Ala                                                 
    0.000 999%   0.000 Asp                                                 
   73.884 226% 9.7E-02 Cr                                                  
  686.014  26%   0.903 PCr                                                 
    0.000 999%   0.000 GABA                                                
    0.000 999%   0.000 Glc                                                 
  691.844  26%   0.910 Gln                                                 
  983.458  19%   1.294 Glu                                                 
  303.651   5%   0.400 GPC                                                 
    0.000 999%   0.000 PCh                                                 
  341.370  16%   0.449 GSH                                                 
  950.456  19%   1.251 Ins                                                 
    0.000 999%   0.000 Lac                                                 
 1.85E+03   6%   2.435 NAA                                                 
  153.147  79%   0.202 NAAG                                                
   79.834  24%   0.105 Scyllo                                              
  232.538  59%   0.306 Tau                                                 
  218.717  34%   0.288 -CrCH2                                              
  303.651   5%   0.400 GPC+PCh                                             
 2.00E+03   3%   2.636 NAA+NAAG                                            
  759.899   5%   1.000 Cr+PCr                                              
 1.68E+03  17%   2.205 Glu+Gln                                             
 1.92E+03  25%   2.532 Lip13a                                              
    0.000 999%   0.000 Lip13b                                              
  461.201  52%   0.607 Lip09                                               
 1.02E+03  25%   1.344 MM09                                                
  261.996  64%   0.345 Lip20                                               
 1.80E+03  16%   2.365 MM20                                                
  380.864  49%   0.501 MM12                                                
  619.252  45%   0.815 MM14                                                
  489.647  31%   0.644 MM17                                                
 1.92E+03  25%   2.532 Lip13a+Lip13b                                       
 2.92E+03  10%   3.848 MM14+Lip13a+Lip13b+MM12                             
 1.48E+03  10%   1.951 MM09+Lip09                                          
 2.06E+03  13%   2.710 MM20+Lip20                                          
   6 lines in following misc. output table
  FWHM = 0.054 ppm    S/N =  14                                            
  Data shift = 0.000 ppm                                                   
  Ph: -18 deg      -0.7 deg/ppm                                            
  alphaB,S = 2.3E+00,   1.1E+02                                            
   14 spline knots.   Ns = 7(1)                                            
  ( 9) 6 infls.   ( 7) 1 extrs.                                            
  498 points on ppm-axis = NY
      4.000000     3.992357     3.984714     3.977070     3.969427     3.961784     3.954141     3.946497     3.938854     3.931211
      3.923568     3.915925     3.908281     3.900638     3.892995     3.885352     3.877708     3.870065     3.862422     3.854779
      3.847136     3.839492     3.831849     3.824206     3.816563     3.808919     3.801276     3.793633     3.785990     3.778347
      3.770703     3.763060     3.755417     3.747774     3.740130     3.732487     3.724844     3.717201     3.709558     3.701914
      3.694271     3.686628     3.678985     3.671341     3.663698     3.656055     3.648412     3.640769     3.633125     3.625482
      3.617839     3.610196     3.602552     3.594909     3.587266     3.579623     3.571980     3.564336     3.556693     3.549050
      3.541407     3.533763     3.526120     3.518477     3.510834     3.503191     3.495547     3.487904     3.480261     3.472618
      3.464974     3.457331     3.449688     3.442045     3.434402     3.426758     3.419115     3.411472     3.403829     3.396185
      3.388542     3.380899     3.373256     3.365613     3.357969     3.350326     3.342683     3.335040     3.327396     3.319753
      3.312110     3.304467     3.296824     3.289180     3.281537     3.273894     3.266251     3.258607     3.250964     3.243321
      3.235678     3.228034     3.220391     3.212748     3.205105     3.197462     3.189818     3.182175     3.174532     3.166889
      3.159245     3.151602     3.143959     3.136316     3.128673     3.121029     3.113386     3.105743     3.098100     3.090456
      3.082813     3.075170     3.067527     3.059884     3.052240     3.044597     3.036954     3.029311     3.021667     3.014024
      3.006381     2.998738     2.991095     2.983451     2.975808     2.968165     2.960522     2.952878     2.945235     2.937592
      2.929949     2.922306     2.914662     2.907019     2.899376     2.891733     2.884089     2.876446     2.868803     2.861160
      2.853517     2.845873     2.838230     2.830587     2.822944     2.815300     2.807657     2.800014     2.792371     2.784728
      2.777084     2.769441     2.761798     2.754155     2.746511     2.738868     2.731225     2.723582     2.715939     2.708295
      2.700652     2.693009     2.685366     2.677722     2.670079     2.662436     2.654793     2.647150     2.639506     2.631863
      2.624220     2.616577     2.608933     2.601290     2.593647     2.586004     2.578361     2.570717     2.563074     2.555431
      2.547788     2.540144     2.532501     2.524858     2.517215     2.509572     2.501928     2.494285     2.486642     2.478999
      2.471355     2.463712     2.456069     2.448426     2.440783     2.433139     2.425496     2.417853     2.410210     2.402566
      2.394923     2.387280     2.379637     2.371994     2.364350     2.356707     2.349064     2.341421     2.333777     2.326134
      2.318491     2.310848     2.303205     2.295561     2.287918     2.280275     2.272632     2.264988     2.257345     2.249702
      2.242059     2.234416     2.226772     2.219129     2.211486     2.203843     2.196199     2.188556     2.180913     2.173270
      2.165627     2.157983     2.150340     2.142697     2.135054     2.127410     2.119767     2.112124     2.104481     2.096838
      2.089194     2.081551     2.073908     2.066265     2.058621     2.050978     2.043335     2.035692     2.028049     2.020405
      2.012762     2.005119     1.997476     1.989833     1.982190     1.974546     1.966903     1.959260     1.951617     1.943974
      1.936331     1.928688     1.921045     1.913402     1.905759     1.898115     1.890472     1.882829     1.875186     1.867543
      1.859900     1.852257     1.844614     1.836971     1.829327     1.821684     1.814041     1.806398     1.798755     1.791112
      1.783469     1.775826     1.768183     1.760540     1.752896     1.745253     1.737610     1.729967     1.722324     1.714681
      1.707038     1.699395     1.691752     1.684108     1.676465     1.668822     1.661179     1.653536     1.645893     1.638250
      1.630607     1.622964     1.615321     1.607677     1.600034     1.592391     1.584748     1.577105     1.569462     1.561819
      1.554176     1.546533     1.538890     1.531246     1.523603     1.515960     1.508317     1.500674     1.493031     1.485388
      1.477745     1.470102     1.462458     1.454815     1.447172     1.439529     1.431886     1.424243     1.416600     1.408957
      1.401314     1.393671     1.386027     1.378384     1.370741     1.363098     1.355455     1.347812     1.340169     1.332526
      1.324883     1.317240     1.309596     1.301953     1.294310     1.286667     1.279024     1.271381     1.263738     1.256095
      1.248452     1.240808     1.233165     1.225522     1.217879     1.210236     1.202593     1.194950     1.187307     1.179664
      1.172021     1.164377     1.156734     1.149091     1.141448     1.133805     1.126162     1.118519     1.110876     1.103233
      1.095590     1.087946     1.080303     1.072660     1.065017     1.057374     1.049731     1.042088     1.034445     1.026802
      1.019158     1.011515     1.003872     0.996229     0.988586     0.980943     0.973300     0.965657     0.958014     0.950371
      0.942727     0.935084     0.927441     0.919798     0.912155     0.904512     0.896869     0.889226     0.881583     0.873940
      0.866296     0.858653     0.851010     0.843367     0.835724     0.828081     0.820438     0.812795     0.805152     0.797508
      0.789865     0.782222     0.774579     0.766936     0.759293     0.751650     0.744007     0.736364     0.728721     0.721077
      0.713434     0.705791     0.698148     0.690505     0.682862     0.675219     0.667576     0.659933     0.652290     0.644646
      0.637003     0.629360     0.621717     0.614074     0.606431     0.598788     0.591145     0.583502     0.575858     0.568215
      0.560572     0.552929     0.545286     0.537643     0.530000     0.522357     0.514714     0.507071     0.499427     0.491784
      0.484141     0.476498     0.468855     0.461212     0.453569     0.445925     0.438282     0.430639     0.422996     0.415353
      0.407710     0.400067     0.392424     0.384780     0.377137     0.369494     0.361851     0.354208     0.346565     0.338922
      0.331278     0.323635     0.315992     0.308349     0.300706     0.293063     0.285420     0.277777     0.270133     0.262490
      0.254847     0.247204     0.239561     0.231918     0.224275     0.216631     0.208988     0.201345
 NY phased data points follow
  -2.99132E+00 -7.13256E-01  2.79418E-01  4.78985E-01  2.27624E+00 -1.16787E+00  7.19358E+00  1.52861E+00  6.80303E+00  8.60315E+00
   9.74367E+00  1.16930E+01  1.07562E+01  8.19503E+00  6.34490E+00  4.71927E+00  4.68014E+00  1.99684E+00  1.79966E+00 -1.57736E-02
   1.42518E+00  3.03338E+00  1.33639E+00 -3.10686E+00  3.62736E+00 -3.46533E-01  3.13892E+00  4.60007E+00  3.60414E+00  1.63127E+00
   5.14512E+00  6.52100E+00  5.06196E+00  6.17291E-01  4.04296E+00  2.53592E+00  5.91379E-01  7.65240E-02  1.12033E+00  2.43794E-01
   2.98810E+00  2.67552E+00  2.06834E+00  1.75772E+00  1.96027E+00  2.92530E+00  5.51216E+00  4.53636E+00  7.11262E+00  4.63999E+00
   3.98146E+00  1.27251E+00  1.99013E+00  2.58179E+00  1.30770E+00  7.08028E-01  2.51242E+00 -2.22822E+00  1.83092E+00 -8.72370E-01
   8.71186E-01 -1.02192E-03 -2.37805E+00  7.73203E-02 -1.20858E+00 -3.48868E+00 -1.26159E+00 -3.96935E+00 -6.70919E-01 -1.63106E+00
   2.28312E+00  1.00143E-02 -4.63504E-01 -2.93768E+00 -6.90754E-01 -3.98882E+00 -2.05543E+00 -2.22995E-01 -5.02535E+00 -3.35534E+00
  -1.58452E+00 -1.35354E+00 -3.07226E+00  6.01019E-01 -2.01905E+00 -4.33691E-01 -7.28779E-01 -1.50138E+00  2.20891E+00 -7.31425E-02
  -8.25214E-03  1.55804E+00 -8.97729E-02 -1.27523E+00  3.24417E+00  1.93782E+00  1.05636E+00  4.81828E-01  2.02019E+00  5.53764E+00
   8.40566E+00  1.00425E+01  1.92924E+01  2.51339E+01  2.43145E+01  2.10189E+01  1.64187E+01  1.33849E+01  1.12831E+01  7.99652E+00
   4.48121E+00  1.22110E+00  7.33752E-01 -2.52264E+00  6.26643E-01  6.53451E-01 -2.60514E-01  2.20358E+00 -4.31805E-01  2.30864E+00
   1.62832E-01  2.68167E+00  1.58598E+00  4.07060E+00  6.92082E+00  9.24675E+00  1.56759E+01  1.89274E+01  2.42583E+01  1.89969E+01
   1.86937E+01  1.47359E+01  9.27448E+00  8.88709E+00  2.05154E+00  2.38584E+00 -2.74576E+00  4.96320E-01 -1.07911E+00 -1.21931E+00
  -2.35126E+00 -1.96797E+00 -2.63460E+00 -2.21486E+00  4.00916E-01 -1.18194E+00 -1.71655E-01 -5.20561E+00 -1.18327E+00 -4.86228E+00
  -7.71794E+00 -6.16886E+00 -2.77052E+00 -1.22487E+00 -1.49930E+00 -6.17597E+00 -2.61644E+00 -2.33352E+00 -3.52589E+00 -3.76489E+00
  -1.28377E+00 -3.58737E+00 -5.65677E+00 -7.56398E+00 -5.05242E+00 -5.43757E+00 -3.04115E+00 -5.59033E+00 -4.82352E+00 -7.98257E+00
  -1.12010E+01 -1.06844E+01 -9.74700E+00 -1.05025E+01 -9.93153E+00 -1.60476E+01 -1.44807E+01 -1.12446E+01 -1.30357E+01 -1.21319E+01
  -1.52931E+01 -1.09669E+01 -1.13551E+01 -9.50648E+00 -7.80767E+00 -5.61053E+00 -4.34141E+00 -7.63405E+00 -7.65277E+00 -7.30497E+00
   5.07881E-01 -5.61772E+00 -6.35213E+00 -5.33630E+00 -6.32656E+00 -7.79100E+00 -1.01250E+01 -9.08024E+00 -9.11082E+00 -7.78696E+00
  -7.99742E+00 -1.02259E+01 -2.04097E+00 -3.37264E+00 -3.28222E+00 -4.08327E+00 -3.03553E+00 -9.89695E-01 -6.88969E+00 -5.33029E+00
  -3.58186E+00 -3.90175E+00 -3.47657E+00 -7.75668E-01 -1.25368E+00  1.11903E+00  6.68672E+00  4.45153E+00  5.31260E+00  7.56335E-01
   5.24504E-01 -2.81769E+00 -5.86346E+00 -5.65787E+00 -5.75974E+00 -2.73832E+00  2.01679E+00 -6.59179E-02  1.93651E+00  1.63693E+00
   4.47982E+00  3.37492E-01 -6.71006E-01  2.79402E+00  2.74243E+00  1.72776E+00  1.47325E+00  8.99646E-01  2.06524E+00  3.82335E+00
  -6.51053E-02  2.18043E+00  1.20474E+00 -5.96550E+00 -3.99344E+00 -3.95869E+00  2.02933E+00  5.31531E+00  2.65294E+00  4.20167E+00
   5.74082E+00  6.71335E+00  5.76039E+00  6.97527E+00  1.25805E+01  2.36212E+01  3.13927E+01  3.96357E+01  4.40595E+01  5.21540E+01
   6.12086E+01  6.83264E+01  6.54562E+01  4.73072E+01  3.06072E+01  2.48128E+01  1.97935E+01  1.01482E+01  5.23784E+00  5.45368E+00
   5.85302E+00 -4.64490E+00  1.06427E+00 -9.29218E-03 -1.14246E+00 -2.70024E+00 -3.36902E+00 -4.69986E+00 -2.74874E+00 -1.03824E+00
  -1.28626E+00 -3.74733E+00 -2.00849E+00 -1.40068E+00  7.54451E-01 -4.46005E+00 -2.96527E+00 -6.79414E+00 -5.68216E+00 -5.84307E+00
  -5.55152E+00 -5.07754E+00 -1.75132E+00 -1.04927E-01 -1.09357E+00 -7.45012E+00 -1.30943E+00 -2.81798E+00 -3.20026E+00 -2.21675E+00
  -1.52417E+00 -6.60392E-01 -1.54161E-01 -8.90082E-01  2.45474E+00 -2.35897E+00 -2.32231E-01 -4.87977E-01 -5.22142E+00  4.26789E-01
   2.51111E-02  1.84271E+00  2.57465E+00  2.63439E+00  7.81338E-01  2.03265E+00  2.92364E+00  2.26938E+00  2.85756E+00  4.79053E+00
   3.80609E+00  8.32332E-01 -1.34898E+00 -1.62592E+00  1.66893E+00  1.09456E+00 -6.33311E-01  3.60107E+00  7.10947E-01  1.16161E+00
   3.40882E+00  2.93384E+00 -9.27964E-01 -1.83449E-01 -1.85625E+00  3.43302E+00  1.85675E+00  3.32060E+00  5.56380E+00  4.26848E+00
   3.17675E+00  4.95064E+00  4.10552E+00  4.53557E+00  5.31971E+00  6.09966E+00  3.36673E+00  7.02345E+00  6.93482E+00  8.48180E+00
   7.54948E+00  4.02637E+00  5.55920E+00  5.75981E+00  5.96775E+00  1.06210E+01  5.35547E+00  6.34151E+00  1.02101E+01  5.72106E+00
   3.02339E+00  4.15321E+00  5.57635E+00  7.40964E+00  4.53811E+00  5.99587E+00  9.05754E+00  6.45232E+00  8.61772E+00  5.32610E+00
   3.81925E+00  3.90082E+00  3.29936E+00  3.84562E+00  5.16438E+00  5.98073E+00  3.57081E+00  2.62099E+00  4.07980E+00  2.54009E+00
   1.91361E+00  1.85837E+00  1.89537E+00  1.32500E+00  2.83379E+00  3.01859E+00  1.24648E-01  1.26258E+00  1.88732E+00  2.38203E+00
   3.09234E+00  5.08511E+00  6.33191E+00  4.33443E+00  1.00529E+01  4.84701E+00  6.45602E+00  4.21422E+00  9.79741E+00  7.24812E+00
   7.57193E+00  4.55149E+00  6.20354E+00  6.79627E+00  1.21103E+01  5.19746E+00  6.77296E+00  7.24927E+00  7.99608E+00  9.51779E+00
   9.60377E+00  1.03763E+01  8.17503E+00  8.81753E+00  5.31195E+00  5.32934E+00  4.71567E+00  6.14486E-01  2.77511E+00  3.25092E+00
   3.78959E+00  2.03832E+00  3.01531E+00  1.53678E+00  1.52656E+00  2.52016E+00  2.08667E+00 -2.67113E-01 -1.03172E-01 -7.26782E-01
   2.44533E+00 -3.10764E-02  2.23895E+00 -1.14270E+00  2.43131E+00  2.11853E+00  1.48564E+00 -1.97770E+00 -1.77403E+00  1.24008E+00
   1.01697E+00 -3.01523E+00 -2.32850E+00  5.24517E-01 -1.65449E+00  1.84655E+00  1.49108E-01 -5.34198E-04 -1.78936E-01  2.48769E-01
  -3.45087E-01 -1.36967E+00 -9.56611E-01 -2.87567E+00  8.32048E-01  4.73557E-01 -3.48206E+00  3.40493E-02  1.95513E+00 -9.40505E-01
   1.09568E+00  1.29480E+00 -2.59419E+00  1.24810E+00 -9.80193E-01 -3.80860E-01 -1.97984E+00  8.92954E-02 -1.60476E+00 -1.20045E+00
  -2.63886E+00 -2.44994E+00  1.54690E+00 -3.41852E-01  2.97678E-01  5.92166E-01  8.08774E-01 -1.77042E+00 -5.84885E-01  5.59274E-01
  -2.44319E-01 -3.15671E-01 -4.04974E-01  1.09937E+00  1.94997E+00 -1.70093E+00  1.97440E+00 -2.25734E+00  5.34575E-01 -3.79684E-02
  -2.24107E+00  2.70960E-01 -9.77358E-01 -1.31810E+00  1.50088E+00 -1.09730E+00  3.87144E-01 -3.97507E-01
 NY points of the fit to the data follow
  -5.18175E-01 -8.57983E-01 -9.32248E-01 -5.03157E-01  4.91555E-01  1.86439E+00  3.34415E+00  4.86340E+00  6.62900E+00  8.69411E+00
   1.05731E+01  1.13880E+01  1.05551E+01  8.48667E+00  6.29425E+00  4.64949E+00  3.39130E+00  2.19170E+00  1.10118E+00  5.03978E-01
   2.23707E-01  2.94510E-02 -5.16060E-02  1.01087E-01  4.23421E-01  8.79696E-01  1.47004E+00  2.32184E+00  3.59810E+00  5.16952E+00
   6.56556E+00  7.21893E+00  6.87252E+00  5.84483E+00  4.58457E+00  3.18054E+00  1.66213E+00  2.01707E-01 -8.27355E-01 -1.18955E+00
  -9.90028E-01 -2.93673E-01  6.72109E-01  1.67403E+00  2.63273E+00  3.59126E+00  4.56934E+00  5.30089E+00  5.30083E+00  4.33503E+00
   2.69390E+00  1.04986E+00 -9.39940E-02 -7.82151E-01 -1.25491E+00 -1.50300E+00 -1.39298E+00 -1.01203E+00 -5.70824E-01 -1.77693E-01
   1.00239E-01  1.12888E-01 -1.90214E-01 -6.97821E-01 -1.18653E+00 -1.47081E+00 -1.53444E+00 -1.45064E+00 -1.26601E+00 -1.01799E+00
  -7.39624E-01 -4.72666E-01 -2.88624E-01 -2.38019E-01 -3.19750E-01 -4.76099E-01 -6.63161E-01 -9.33712E-01 -1.30239E+00 -1.66537E+00
  -1.76912E+00 -1.56890E+00 -1.23257E+00 -9.03834E-01 -5.84935E-01 -1.96048E-01  2.09649E-01  4.22746E-01  2.13308E-01 -4.15923E-01
  -1.15245E+00 -1.63547E+00 -1.82613E+00 -1.95625E+00 -2.12022E+00 -2.10146E+00 -1.25654E+00  8.05052E-01  3.63191E+00  6.70812E+00
   9.85499E+00  1.34309E+01  1.77491E+01  2.20514E+01  2.44801E+01  2.34072E+01  1.90492E+01  1.36087E+01  9.14402E+00  5.80089E+00
   2.78134E+00 -3.32119E-02 -1.91065E+00 -2.56245E+00 -2.77461E+00 -2.87141E+00 -2.91578E+00 -2.89810E+00 -2.80943E+00 -2.58302E+00
  -1.86621E+00 -1.55996E-01  2.33945E+00  5.17236E+00  8.11326E+00  1.13811E+01  1.52997E+01  1.93429E+01  2.19536E+01  2.16002E+01
   1.82011E+01  1.34833E+01  9.36786E+00  6.18076E+00  3.19020E+00  1.70587E-01 -2.15350E+00 -3.11662E+00 -3.24728E+00 -2.99786E+00
  -2.60866E+00 -2.24140E+00 -1.99113E+00 -1.93138E+00 -2.06189E+00 -2.28681E+00 -2.53794E+00 -2.80591E+00 -3.06896E+00 -3.31523E+00
  -3.51085E+00 -3.65977E+00 -3.77416E+00 -3.87238E+00 -4.01069E+00 -4.18124E+00 -4.33658E+00 -4.43835E+00 -4.49835E+00 -4.64409E+00
  -4.93345E+00 -5.26209E+00 -5.42826E+00 -5.31363E+00 -5.05683E+00 -4.96041E+00 -5.20451E+00 -5.69309E+00 -6.19778E+00 -6.62164E+00
  -7.02592E+00 -7.39290E+00 -7.69600E+00 -7.93934E+00 -8.19700E+00 -8.51568E+00 -8.72388E+00 -8.63846E+00 -8.31083E+00 -8.03359E+00
  -8.07492E+00 -8.30633E+00 -8.35717E+00 -8.04722E+00 -7.54533E+00 -7.12075E+00 -6.73960E+00 -6.12496E+00 -5.15548E+00 -4.00124E+00
  -3.05088E+00 -2.60312E+00 -2.66537E+00 -3.04765E+00 -3.53280E+00 -3.96940E+00 -4.27306E+00 -4.27628E+00 -3.89841E+00 -3.14983E+00
  -2.13057E+00 -1.08197E+00 -3.12312E-01 -5.00876E-02 -2.90062E-01 -1.03740E+00 -2.33794E+00 -4.08127E+00 -5.87308E+00 -7.18022E+00
  -7.57277E+00 -7.02933E+00 -5.78598E+00 -4.16730E+00 -2.41789E+00 -6.83350E-01  6.45024E-01  1.01043E+00  2.15938E-01 -1.39051E+00
  -3.09900E+00 -4.54533E+00 -5.66375E+00 -6.17820E+00 -5.78357E+00 -4.47869E+00 -2.75610E+00 -1.30622E+00 -3.73849E-01  1.38992E-01
   3.98462E-01  4.45390E-01  3.62476E-01  3.74294E-01  6.01456E-01  9.29493E-01  1.26636E+00  1.61683E+00  1.92141E+00  1.99703E+00
   1.69836E+00  1.12725E+00  5.22555E-01  1.06146E-01  6.42710E-02  4.77174E-01  1.22857E+00  2.00652E+00  2.70393E+00  3.51653E+00
   4.49314E+00  5.48358E+00  6.70033E+00  9.80841E+00  1.56349E+01  2.29241E+01  3.02523E+01  3.72080E+01  4.49040E+01  5.40622E+01
   6.25502E+01  6.58346E+01  6.06324E+01  4.87647E+01  3.61056E+01  2.66020E+01  1.93306E+01  1.23304E+01  5.93842E+00  2.33535E+00
   1.16403E+00  5.44380E-01  1.18105E-01 -1.58036E-01 -3.31717E-01 -4.86900E-01 -6.61548E-01 -8.69809E-01 -1.09423E+00 -1.30857E+00
  -1.50750E+00 -1.69950E+00 -1.87468E+00 -2.01079E+00 -2.10771E+00 -2.18653E+00 -2.26099E+00 -2.32595E+00 -2.37345E+00 -2.40351E+00
  -2.41861E+00 -2.41266E+00 -2.38058E+00 -2.32421E+00 -2.24962E+00 -2.15933E+00 -2.05220E+00 -1.92655E+00 -1.78210E+00 -1.61829E+00
  -1.43361E+00 -1.22657E+00 -1.00079E+00 -7.63179E-01 -5.19987E-01 -2.76305E-01 -3.75811E-02  1.89812E-01  3.99861E-01  5.89092E-01
   7.55027E-01  8.95313E-01  1.00875E+00  1.09538E+00  1.15692E+00  1.19703E+00  1.22118E+00  1.23626E+00  1.25152E+00  1.28205E+00
   1.35448E+00  1.46381E+00  1.56433E+00  1.63475E+00  1.68203E+00  1.72244E+00  1.73154E+00  1.62324E+00  1.34480E+00  9.73141E-01
   6.62289E-01  5.52666E-01  6.59569E-01  9.18640E-01  1.32560E+00  1.92109E+00  2.66562E+00  3.36968E+00  3.85030E+00  4.12873E+00
   4.33084E+00  4.52949E+00  4.70804E+00  4.84210E+00  4.96954E+00  5.14869E+00  5.36120E+00  5.58762E+00  5.81826E+00  6.04645E+00
   6.26646E+00  6.47267E+00  6.65980E+00  6.82293E+00  6.95783E+00  7.06065E+00  7.12808E+00  7.15726E+00  7.14637E+00  7.09464E+00
   7.00252E+00  6.87118E+00  6.70260E+00  6.49946E+00  6.26542E+00  6.00487E+00  5.72280E+00  5.42426E+00  5.11442E+00  4.79842E+00
   4.48163E+00  4.16931E+00  3.86642E+00  3.57738E+00  3.30620E+00  3.05658E+00  2.83213E+00  2.63605E+00  2.47120E+00  2.33986E+00
   2.24419E+00  2.18616E+00  2.16778E+00  2.19070E+00  2.25623E+00  2.36516E+00  2.51806E+00  2.71509E+00  2.95594E+00  3.23928E+00
   3.56281E+00  3.92306E+00  4.31561E+00  4.73487E+00  5.17408E+00  5.62502E+00  6.07842E+00  6.52411E+00  6.95164E+00  7.35034E+00
   7.70975E+00  8.01983E+00  8.27164E+00  8.45774E+00  8.57274E+00  8.61323E+00  8.57798E+00  8.46780E+00  8.28581E+00  8.03714E+00
   7.72883E+00  7.36908E+00  6.96700E+00  6.53203E+00  6.07392E+00  5.60215E+00  5.12573E+00  4.65260E+00  4.18960E+00  3.74234E+00
   3.31545E+00  2.91239E+00  2.53556E+00  2.18618E+00  1.86459E+00  1.57044E+00  1.30302E+00  1.06117E+00  8.43409E-01  6.47893E-01
   4.72762E-01  3.16160E-01  1.76477E-01  5.20648E-02 -5.86378E-02 -1.57250E-01 -2.45114E-01 -3.23411E-01 -3.93045E-01 -4.54968E-01
  -5.10049E-01 -5.59183E-01 -6.02982E-01 -6.41968E-01 -6.76499E-01 -7.07079E-01 -7.34153E-01 -7.58188E-01 -7.79394E-01 -7.97977E-01
  -8.14070E-01 -8.27994E-01 -8.39989E-01 -8.50296E-01 -8.58935E-01 -8.65988E-01 -8.71523E-01 -8.75791E-01 -8.78923E-01 -8.81033E-01
  -8.82052E-01 -8.82041E-01 -8.81057E-01 -8.79313E-01 -8.76856E-01 -8.73719E-01 -8.69804E-01 -8.65187E-01 -8.59940E-01 -8.54235E-01
  -8.48048E-01 -8.41370E-01 -8.34107E-01 -8.26365E-01 -8.18214E-01 -8.09780E-01 -8.00985E-01 -7.91803E-01 -7.82174E-01 -7.72236E-01
  -7.62044E-01 -7.51670E-01 -7.41002E-01 -7.30023E-01 -7.18713E-01 -7.07222E-01 -6.95575E-01 -6.83798E-01 -6.71761E-01 -6.59481E-01
  -6.46971E-01 -6.34382E-01 -6.21697E-01 -6.08906E-01 -5.95886E-01 -5.82691E-01 -5.69361E-01 -5.56025E-01
 NY background values follow
    -3.707E+00   -3.715E+00   -3.724E+00   -3.732E+00   -3.741E+00   -3.749E+00   -3.758E+00   -3.767E+00   -3.775E+00   -3.784E+00
    -3.792E+00   -3.801E+00   -3.809E+00   -3.818E+00   -3.826E+00   -3.835E+00   -3.844E+00   -3.852E+00   -3.861E+00   -3.869E+00
    -3.878E+00   -3.886E+00   -3.895E+00   -3.904E+00   -3.912E+00   -3.921E+00   -3.929E+00   -3.938E+00   -3.946E+00   -3.955E+00
    -3.964E+00   -3.972E+00   -3.981E+00   -3.989E+00   -3.998E+00   -4.006E+00   -4.015E+00   -4.023E+00   -4.032E+00   -4.041E+00
    -4.049E+00   -4.058E+00   -4.066E+00   -4.075E+00   -4.083E+00   -4.092E+00   -4.100E+00   -4.109E+00   -4.117E+00   -4.126E+00
    -4.135E+00   -4.143E+00   -4.152E+00   -4.160E+00   -4.169E+00   -4.177E+00   -4.186E+00   -4.194E+00   -4.203E+00   -4.211E+00
    -4.220E+00   -4.228E+00   -4.237E+00   -4.245E+00   -4.254E+00   -4.262E+00   -4.271E+00   -4.279E+00   -4.288E+00   -4.296E+00
    -4.304E+00   -4.313E+00   -4.321E+00   -4.330E+00   -4.338E+00   -4.346E+00   -4.355E+00   -4.363E+00   -4.372E+00   -4.380E+00
    -4.388E+00   -4.397E+00   -4.405E+00   -4.413E+00   -4.421E+00   -4.430E+00   -4.438E+00   -4.446E+00   -4.454E+00   -4.463E+00
    -4.471E+00   -4.479E+00   -4.487E+00   -4.495E+00   -4.504E+00   -4.512E+00   -4.520E+00   -4.528E+00   -4.536E+00   -4.544E+00
    -4.552E+00   -4.560E+00   -4.568E+00   -4.576E+00   -4.584E+00   -4.592E+00   -4.600E+00   -4.608E+00   -4.615E+00   -4.623E+00
    -4.631E+00   -4.639E+00   -4.646E+00   -4.654E+00   -4.662E+00   -4.669E+00   -4.677E+00   -4.685E+00   -4.692E+00   -4.700E+00
    -4.707E+00   -4.714E+00   -4.722E+00   -4.729E+00   -4.736E+00   -4.744E+00   -4.751E+00   -4.758E+00   -4.765E+00   -4.772E+00
    -4.779E+00   -4.786E+00   -4.793E+00   -4.800E+00   -4.807E+00   -4.814E+00   -4.821E+00   -4.828E+00   -4.834E+00   -4.841E+00
    -4.847E+00   -4.854E+00   -4.860E+00   -4.867E+00   -4.873E+00   -4.879E+00   -4.886E+00   -4.892E+00   -4.898E+00   -4.904E+00
    -4.910E+00   -4.916E+00   -4.921E+00   -4.927E+00   -4.933E+00   -4.938E+00   -4.944E+00   -4.949E+00   -4.954E+00   -4.960E+00
    -4.965E+00   -4.970E+00   -4.975E+00   -4.980E+00   -4.984E+00   -4.989E+00   -4.994E+00   -4.998E+00   -5.002E+00   -5.007E+00
    -5.011E+00   -5.015E+00   -5.019E+00   -5.022E+00   -5.026E+00   -5.030E+00   -5.033E+00   -5.037E+00   -5.040E+00   -5.043E+00
    -5.046E+00   -5.049E+00   -5.051E+00   -5.054E+00   -5.056E+00   -5.059E+00   -5.061E+00   -5.063E+00   -5.065E+00   -5.067E+00
    -5.069E+00   -5.070E+00   -5.072E+00   -5.073E+00   -5.074E+00   -5.075E+00   -5.076E+00   -5.077E+00   -5.078E+00   -5.079E+00
    -5.079E+00   -5.079E+00   -5.080E+00   -5.080E+00   -5.080E+00   -5.080E+00   -5.080E+00   -5.079E+00   -5.079E+00   -5.078E+00
    -5.078E+00   -5.077E+00   -5.076E+00   -5.075E+00   -5.074E+00   -5.072E+00   -5.071E+00   -5.070E+00   -5.068E+00   -5.066E+00
    -5.064E+00   -5.063E+00   -5.060E+00   -5.058E+00   -5.056E+00   -5.054E+00   -5.051E+00   -5.049E+00   -5.046E+00   -5.043E+00
    -5.040E+00   -5.037E+00   -5.034E+00   -5.031E+00   -5.027E+00   -5.024E+00   -5.020E+00   -5.017E+00   -5.013E+00   -5.009E+00
    -5.005E+00   -5.001E+00   -4.996E+00   -4.992E+00   -4.988E+00   -4.983E+00   -4.978E+00   -4.973E+00   -4.969E+00   -4.963E+00
    -4.958E+00   -4.953E+00   -4.948E+00   -4.942E+00   -4.936E+00   -4.931E+00   -4.925E+00   -4.919E+00   -4.913E+00   -4.906E+00
    -4.900E+00   -4.894E+00   -4.887E+00   -4.880E+00   -4.873E+00   -4.867E+00   -4.859E+00   -4.852E+00   -4.845E+00   -4.838E+00
    -4.830E+00   -4.822E+00   -4.814E+00   -4.807E+00   -4.799E+00   -4.790E+00   -4.782E+00   -4.774E+00   -4.765E+00   -4.757E+00
    -4.748E+00   -4.739E+00   -4.730E+00   -4.721E+00   -4.712E+00   -4.702E+00   -4.693E+00   -4.683E+00   -4.674E+00   -4.664E+00
    -4.654E+00   -4.644E+00   -4.634E+00   -4.624E+00   -4.613E+00   -4.603E+00   -4.592E+00   -4.582E+00   -4.571E+00   -4.560E+00
    -4.549E+00   -4.538E+00   -4.527E+00   -4.515E+00   -4.504E+00   -4.492E+00   -4.481E+00   -4.469E+00   -4.457E+00   -4.445E+00
    -4.433E+00   -4.421E+00   -4.409E+00   -4.396E+00   -4.384E+00   -4.371E+00   -4.359E+00   -4.346E+00   -4.333E+00   -4.320E+00
    -4.307E+00   -4.294E+00   -4.281E+00   -4.267E+00   -4.254E+00   -4.240E+00   -4.227E+00   -4.213E+00   -4.199E+00   -4.185E+00
    -4.171E+00   -4.157E+00   -4.143E+00   -4.129E+00   -4.115E+00   -4.100E+00   -4.086E+00   -4.071E+00   -4.056E+00   -4.042E+00
    -4.027E+00   -4.012E+00   -3.997E+00   -3.982E+00   -3.967E+00   -3.952E+00   -3.936E+00   -3.921E+00   -3.905E+00   -3.890E+00
    -3.874E+00   -3.859E+00   -3.843E+00   -3.827E+00   -3.811E+00   -3.795E+00   -3.779E+00   -3.763E+00   -3.747E+00   -3.731E+00
    -3.714E+00   -3.698E+00   -3.681E+00   -3.665E+00   -3.648E+00   -3.632E+00   -3.615E+00   -3.598E+00   -3.581E+00   -3.565E+00
    -3.548E+00   -3.531E+00   -3.514E+00   -3.496E+00   -3.479E+00   -3.462E+00   -3.445E+00   -3.427E+00   -3.410E+00   -3.393E+00
    -3.375E+00   -3.357E+00   -3.340E+00   -3.322E+00   -3.304E+00   -3.287E+00   -3.269E+00   -3.251E+00   -3.233E+00   -3.215E+00
    -3.197E+00   -3.179E+00   -3.161E+00   -3.143E+00   -3.124E+00   -3.106E+00   -3.088E+00   -3.069E+00   -3.051E+00   -3.033E+00
    -3.014E+00   -2.996E+00   -2.977E+00   -2.958E+00   -2.940E+00   -2.921E+00   -2.902E+00   -2.884E+00   -2.865E+00   -2.846E+00
    -2.827E+00   -2.808E+00   -2.789E+00   -2.770E+00   -2.751E+00   -2.732E+00   -2.713E+00   -2.694E+00   -2.675E+00   -2.655E+00
    -2.636E+00   -2.617E+00   -2.598E+00   -2.578E+00   -2.559E+00   -2.540E+00   -2.520E+00   -2.501E+00   -2.481E+00   -2.462E+00
    -2.442E+00   -2.423E+00   -2.403E+00   -2.384E+00   -2.364E+00   -2.345E+00   -2.325E+00   -2.305E+00   -2.286E+00   -2.266E+00
    -2.246E+00   -2.227E+00   -2.207E+00   -2.187E+00   -2.167E+00   -2.148E+00   -2.128E+00   -2.108E+00   -2.088E+00   -2.068E+00
    -2.049E+00   -2.029E+00   -2.009E+00   -1.989E+00   -1.969E+00   -1.949E+00   -1.929E+00   -1.909E+00   -1.889E+00   -1.870E+00
    -1.850E+00   -1.830E+00   -1.810E+00   -1.790E+00   -1.770E+00   -1.750E+00   -1.730E+00   -1.710E+00   -1.690E+00   -1.670E+00
    -1.650E+00   -1.630E+00   -1.610E+00   -1.590E+00   -1.570E+00   -1.550E+00   -1.530E+00   -1.510E+00   -1.490E+00   -1.470E+00
    -1.450E+00   -1.430E+00   -1.410E+00   -1.390E+00   -1.370E+00   -1.350E+00   -1.330E+00   -1.310E+00   -1.290E+00   -1.270E+00
    -1.249E+00   -1.229E+00   -1.209E+00   -1.189E+00   -1.169E+00   -1.149E+00   -1.129E+00   -1.109E+00
 Ala      Conc. = 1.09E+02
