 LCModel (Version 6.3-1L) Copyright: S.W. Provencher.          Ref.: Magn. Reson. Med. 30:672-679 (1993).                
 Slice#3 Row#3 Col#9  PD_05_press_1_raw_act
 36 lines in following concentration table = NCONC+1
    Conc.  %SD /Cr+PCr  Metabolite                                         
  762.181  30%   0.499 Ala                                                 
    0.000 999%   0.000 Asp                                                 
  328.166  62%   0.215 Cr                                                  
 1.20E+03  17%   0.785 PCr                                                 
  153.245 111%   0.100 GABA                                                
    0.000 999%   0.000 Glc                                                 
 3.33E+03  16%   2.181 Gln                                                 
 4.01E+03  16%   2.621 Glu                                                 
  470.045   5%   0.308 GPC                                                 
    0.000 999%   0.000 PCh                                                 
  370.593  26%   0.242 GSH                                                 
 1.18E+03  23%   0.772 Ins                                                 
   35.870 745% 2.3E-02 Lac                                                 
 1.86E+03  10%   1.219 NAA                                                 
  196.917 102%   0.129 NAAG                                                
   68.640  37% 4.5E-02 Scyllo                                              
    0.000 999%   0.000 Tau                                                 
    0.000 999%   0.000 -CrCH2                                              
  470.045   5%   0.308 GPC+PCh                                             
 2.06E+03   4%   1.348 NAA+NAAG                                            
 1.53E+03   4%   1.000 Cr+PCr                                              
 7.34E+03  15%   4.802 Glu+Gln                                             
    0.000 999%   0.000 Lip13a                                              
   78.633 111% 5.1E-02 Lip13b                                              
    4.908 990% 3.2E-03 Lip09                                               
  642.944  18%   0.421 MM09                                                
   18.087 180% 1.2E-02 Lip20                                               
 1.20E+03  21%   0.787 MM20                                                
  182.846  42%   0.120 MM12                                                
  676.052  29%   0.442 MM14                                                
  458.222  30%   0.300 MM17                                                
   78.633 111% 5.1E-02 Lip13a+Lip13b                                       
  937.531  25%   0.613 MM14+Lip13a+Lip13b+MM12                             
  647.852  17%   0.424 MM09+Lip09                                          
 1.22E+03  21%   0.799 MM20+Lip20                                          
   6 lines in following misc. output table
  FWHM = 0.107 ppm    S/N =  10                                            
  Data shift = 0.015 ppm                                                   
  Ph:  -4 deg     -11.3 deg/ppm                                            
  alphaB,S = 9.2E-01,   1.2E+02                                            
   14 spline knots.   Ns = 7(2)                                            
  ( 9) 5 infls.   ( 3) 1 extrs.                                            
  498 points on ppm-axis = NY
      4.000000     3.992357     3.984714     3.977070     3.969427     3.961784     3.954141     3.946497     3.938854     3.931211
      3.923568     3.915925     3.908281     3.900638     3.892995     3.885352     3.877708     3.870065     3.862422     3.854779
      3.847136     3.839492     3.831849     3.824206     3.816563     3.808919     3.801276     3.793633     3.785990     3.778347
      3.770703     3.763060     3.755417     3.747774     3.740130     3.732487     3.724844     3.717201     3.709558     3.701914
      3.694271     3.686628     3.678985     3.671341     3.663698     3.656055     3.648412     3.640769     3.633125     3.625482
      3.617839     3.610196     3.602552     3.594909     3.587266     3.579623     3.571980     3.564336     3.556693     3.549050
      3.541407     3.533763     3.526120     3.518477     3.510834     3.503191     3.495547     3.487904     3.480261     3.472618
      3.464974     3.457331     3.449688     3.442045     3.434402     3.426758     3.419115     3.411472     3.403829     3.396185
      3.388542     3.380899     3.373256     3.365613     3.357969     3.350326     3.342683     3.335040     3.327396     3.319753
      3.312110     3.304467     3.296824     3.289180     3.281537     3.273894     3.266251     3.258607     3.250964     3.243321
      3.235678     3.228034     3.220391     3.212748     3.205105     3.197462     3.189818     3.182175     3.174532     3.166889
      3.159245     3.151602     3.143959     3.136316     3.128673     3.121029     3.113386     3.105743     3.098100     3.090456
      3.082813     3.075170     3.067527     3.059884     3.052240     3.044597     3.036954     3.029311     3.021667     3.014024
      3.006381     2.998738     2.991095     2.983451     2.975808     2.968165     2.960522     2.952878     2.945235     2.937592
      2.929949     2.922306     2.914662     2.907019     2.899376     2.891733     2.884089     2.876446     2.868803     2.861160
      2.853517     2.845873     2.838230     2.830587     2.822944     2.815300     2.807657     2.800014     2.792371     2.784728
      2.777084     2.769441     2.761798     2.754155     2.746511     2.738868     2.731225     2.723582     2.715939     2.708295
      2.700652     2.693009     2.685366     2.677722     2.670079     2.662436     2.654793     2.647150     2.639506     2.631863
      2.624220     2.616577     2.608933     2.601290     2.593647     2.586004     2.578361     2.570717     2.563074     2.555431
      2.547788     2.540144     2.532501     2.524858     2.517215     2.509572     2.501928     2.494285     2.486642     2.478999
      2.471355     2.463712     2.456069     2.448426     2.440783     2.433139     2.425496     2.417853     2.410210     2.402566
      2.394923     2.387280     2.379637     2.371994     2.364350     2.356707     2.349064     2.341421     2.333777     2.326134
      2.318491     2.310848     2.303205     2.295561     2.287918     2.280275     2.272632     2.264988     2.257345     2.249702
      2.242059     2.234416     2.226772     2.219129     2.211486     2.203843     2.196199     2.188556     2.180913     2.173270
      2.165627     2.157983     2.150340     2.142697     2.135054     2.127410     2.119767     2.112124     2.104481     2.096838
      2.089194     2.081551     2.073908     2.066265     2.058621     2.050978     2.043335     2.035692     2.028049     2.020405
      2.012762     2.005119     1.997476     1.989833     1.982190     1.974546     1.966903     1.959260     1.951617     1.943974
      1.936331     1.928688     1.921045     1.913402     1.905759     1.898115     1.890472     1.882829     1.875186     1.867543
      1.859900     1.852257     1.844614     1.836971     1.829327     1.821684     1.814041     1.806398     1.798755     1.791112
      1.783469     1.775826     1.768183     1.760540     1.752896     1.745253     1.737610     1.729967     1.722324     1.714681
      1.707038     1.699395     1.691752     1.684108     1.676465     1.668822     1.661179     1.653536     1.645893     1.638250
      1.630607     1.622964     1.615321     1.607677     1.600034     1.592391     1.584748     1.577105     1.569462     1.561819
      1.554176     1.546533     1.538890     1.531246     1.523603     1.515960     1.508317     1.500674     1.493031     1.485388
      1.477745     1.470102     1.462458     1.454815     1.447172     1.439529     1.431886     1.424243     1.416600     1.408957
      1.401314     1.393671     1.386027     1.378384     1.370741     1.363098     1.355455     1.347812     1.340169     1.332526
      1.324883     1.317240     1.309596     1.301953     1.294310     1.286667     1.279024     1.271381     1.263738     1.256095
      1.248452     1.240808     1.233165     1.225522     1.217879     1.210236     1.202593     1.194950     1.187307     1.179664
      1.172021     1.164377     1.156734     1.149091     1.141448     1.133805     1.126162     1.118519     1.110876     1.103233
      1.095590     1.087946     1.080303     1.072660     1.065017     1.057374     1.049731     1.042088     1.034445     1.026802
      1.019158     1.011515     1.003872     0.996229     0.988586     0.980943     0.973300     0.965657     0.958014     0.950371
      0.942727     0.935084     0.927441     0.919798     0.912155     0.904512     0.896869     0.889226     0.881583     0.873940
      0.866296     0.858653     0.851010     0.843367     0.835724     0.828081     0.820438     0.812795     0.805152     0.797508
      0.789865     0.782222     0.774579     0.766936     0.759293     0.751650     0.744007     0.736364     0.728721     0.721077
      0.713434     0.705791     0.698148     0.690505     0.682862     0.675219     0.667576     0.659933     0.652290     0.644646
      0.637003     0.629360     0.621717     0.614074     0.606431     0.598788     0.591145     0.583502     0.575858     0.568215
      0.560572     0.552929     0.545286     0.537643     0.530000     0.522357     0.514714     0.507071     0.499427     0.491784
      0.484141     0.476498     0.468855     0.461212     0.453569     0.445925     0.438282     0.430639     0.422996     0.415353
      0.407710     0.400067     0.392424     0.384780     0.377137     0.369494     0.361851     0.354208     0.346565     0.338922
      0.331278     0.323635     0.315992     0.308349     0.300706     0.293063     0.285420     0.277777     0.270133     0.262490
      0.254847     0.247204     0.239561     0.231918     0.224275     0.216631     0.208988     0.201345
 NY phased data points follow
   2.71490E+01  2.61021E+01  3.00167E+01  2.68612E+01  2.76476E+01  2.97741E+01  3.15132E+01  3.40544E+01  3.59694E+01  3.49341E+01
   3.34037E+01  3.46452E+01  3.42160E+01  3.39605E+01  2.99364E+01  3.07264E+01  2.79470E+01  2.60048E+01  2.49766E+01  2.61194E+01
   2.02484E+01  2.35874E+01  1.98660E+01  2.29495E+01  2.26928E+01  2.41618E+01  2.24892E+01  1.99728E+01  2.22293E+01  2.66591E+01
   2.37872E+01  2.06848E+01  1.93000E+01  2.33160E+01  1.92264E+01  1.92481E+01  1.94640E+01  2.09555E+01  1.80641E+01  2.34067E+01
   2.07340E+01  1.95166E+01  1.71427E+01  2.19006E+01  2.09760E+01  2.32763E+01  2.08518E+01  2.30389E+01  2.07989E+01  1.96118E+01
   1.93944E+01  2.12268E+01  1.80137E+01  1.93398E+01  2.08013E+01  1.90730E+01  1.82156E+01  1.55541E+01  1.59036E+01  1.39335E+01
   1.50200E+01  1.08003E+01  1.59741E+01  9.11715E+00  1.14528E+01  1.10862E+01  9.03997E+00  1.15296E+01  8.75975E+00  7.77614E+00
   5.18804E+00  8.23041E+00  6.71953E+00  9.30431E+00  1.00887E+01  9.93456E+00  1.04784E+01  1.03066E+01  7.71901E+00  1.12876E+01
   9.04088E+00  9.65741E+00  9.19242E+00  9.67922E+00  1.30318E+01  1.18535E+01  8.97682E+00  1.27329E+01  9.73575E+00  9.74919E+00
   1.23807E+01  1.49790E+01  1.64058E+01  1.45911E+01  1.69878E+01  1.93527E+01  1.62415E+01  1.98478E+01  2.24388E+01  2.37718E+01
   2.75976E+01  2.67925E+01  2.97470E+01  2.99566E+01  3.16129E+01  2.86773E+01  2.56942E+01  2.65761E+01  2.46770E+01  2.50093E+01
   2.13235E+01  1.85872E+01  1.59091E+01  1.60527E+01  1.63993E+01  1.60991E+01  1.53292E+01  1.78054E+01  1.63819E+01  2.03813E+01
   2.07762E+01  2.25591E+01  2.58995E+01  2.59284E+01  3.19866E+01  3.21322E+01  3.30413E+01  3.35443E+01  3.13670E+01  3.18080E+01
   2.66764E+01  2.51172E+01  2.85776E+01  2.90613E+01  2.23507E+01  1.81584E+01  1.70061E+01  1.43846E+01  1.03820E+01  1.01130E+01
   1.01359E+01  1.08028E+01  7.32813E+00  1.32429E+01  1.04404E+01  1.10338E+01  1.05637E+01  8.94622E+00  7.85129E+00  8.59840E+00
   4.79660E+00  7.34957E+00  6.45636E+00  6.26105E+00  8.68652E+00  6.12388E+00  8.41718E+00  7.62367E+00  5.14002E+00  5.01649E+00
   5.09584E+00  4.91592E+00  6.43635E+00  4.66628E+00  3.32755E+00  3.63149E+00  2.86396E+00  3.33237E+00  6.18366E+00  4.97246E+00
   4.80271E+00 -1.35163E+00  1.97666E-01  3.30165E+00 -1.33417E+00  3.17229E+00 -1.33853E+00 -2.99112E+00 -3.15817E-01  3.20509E+00
  -2.03066E+00 -2.06832E+00 -3.36987E+00  1.70730E+00  1.69856E+00  1.96383E+00  7.14345E-01  2.25083E+00  7.09184E-01  5.82855E+00
   3.17322E+00  7.19670E+00  3.91641E+00  7.17670E+00  3.99841E+00  8.03552E+00  9.05190E+00  5.34813E+00  6.71817E+00  7.48796E+00
   4.22028E+00  5.96368E+00  7.64012E+00  5.50933E+00  5.89953E+00  8.40670E+00  6.23353E+00  5.72372E+00  3.56821E+00  4.26688E+00
   8.95888E+00  4.62693E+00  7.06050E+00  7.63158E+00  7.35322E+00  7.78499E+00  8.91815E+00  7.03329E+00  5.54669E+00  7.90827E+00
   5.24711E+00  5.27738E+00  7.92792E+00  5.66242E+00  8.75000E+00  8.35153E+00  5.39488E+00  8.21683E+00  7.07589E+00  8.93234E+00
   6.88841E+00  1.01489E+01  7.43419E+00  8.04758E+00  1.26784E+01  1.08372E+01  9.41200E+00  6.81887E+00  6.33167E+00  9.32704E+00
   1.00738E+01  7.64572E+00  8.38155E+00  8.46383E+00  1.21919E+01  1.11208E+01  1.28333E+01  1.22583E+01  1.50080E+01  1.76141E+01
   1.70457E+01  2.13796E+01  2.10353E+01  2.69633E+01  2.84453E+01  3.48870E+01  3.72538E+01  4.00773E+01  4.22999E+01  4.79762E+01
   4.72257E+01  4.53610E+01  4.36340E+01  3.46433E+01  3.78202E+01  3.55896E+01  3.19747E+01  2.89997E+01  2.43108E+01  2.06938E+01
   1.77200E+01  1.73972E+01  1.50456E+01  1.43002E+01  1.04513E+01  1.29634E+01  1.14911E+01  9.44028E+00  1.18317E+01  1.21015E+01
   6.50259E+00  9.32622E+00  1.00805E+01  1.06212E+01  6.82709E+00  9.26490E+00  7.63771E+00  6.63312E+00  9.23981E+00  9.74232E+00
   7.00584E+00  7.23756E+00  8.16143E+00  9.75172E+00  7.76291E+00  7.54992E+00  6.88953E+00  8.41464E+00  9.91107E+00  7.75333E+00
   7.25668E+00  7.73261E+00  9.56104E+00  7.77156E+00  8.58632E+00  5.76749E+00  7.37365E+00  6.78099E+00  7.76700E+00  1.00035E+01
   1.12870E+01  1.06383E+01  1.26565E+01  9.40376E+00  1.28692E+01  1.12474E+01  9.50507E+00  9.37671E+00  7.83590E+00  1.08889E+01
   1.23227E+01  7.53175E+00  6.12889E+00  7.77221E+00  8.63516E+00  6.80467E+00  9.58115E+00  9.32329E+00  7.65283E+00  6.08935E+00
   7.03550E+00  5.49693E+00  8.21779E+00  7.84947E+00  8.68378E+00  7.75598E+00  8.34353E+00  7.85479E+00  7.73792E+00  9.10501E+00
   1.05184E+01  9.54326E+00  1.04840E+01  9.54987E+00  8.23808E+00  9.34177E+00  8.11647E+00  8.62477E+00  1.02499E+01  8.15087E+00
   8.62605E+00  6.37994E+00  6.92339E+00  8.36870E+00  6.91516E+00  5.70857E+00  7.63082E+00  5.84434E+00  8.91464E+00  7.80484E+00
   6.20279E+00  4.25870E+00  5.43011E+00  5.91859E+00  6.25798E+00  4.60409E+00  6.16928E+00  4.20806E+00  4.57709E+00  3.54929E+00
   3.39227E+00  5.95640E+00  4.10808E+00  3.63981E+00  2.33765E+00  6.24360E+00  4.94723E+00  3.16065E+00  4.22826E+00  4.98250E+00
   6.70416E+00  8.96193E+00  4.21249E+00  3.19265E+00  6.46919E-01  2.51945E+00  2.95377E+00  3.87251E+00  5.03864E+00  6.08896E+00
   5.73400E+00  4.25013E+00  3.18797E+00  8.54010E+00  4.38579E+00  4.02287E+00  8.94564E+00  8.71602E+00  4.30640E+00  6.26773E+00
   6.27421E+00  5.61533E+00  1.04650E+01  5.87524E+00  5.49567E+00  1.06967E+01  6.54900E+00  9.86818E+00  9.84468E+00  8.53914E+00
   9.19505E+00  8.67341E+00  4.72280E+00  6.24680E+00  6.97409E+00  3.44266E+00  4.04761E+00  5.58495E+00  4.88111E+00  5.86324E-01
   3.78633E+00  4.29206E+00  2.81549E+00  4.26863E+00  3.74576E+00  1.80799E+00  2.68827E+00  2.57837E+00  5.20253E+00  9.29456E-01
   1.82079E+00  1.25664E+00  2.07640E+00  1.87736E+00  2.71390E+00  2.95684E+00  1.31465E+00  1.28770E+00  1.74671E+00  2.08439E+00
   1.62217E+00  4.08755E+00 -1.07603E+00  1.45474E+00  4.65937E+00  6.99543E-01  1.41591E+00  3.40512E+00  2.56568E+00 -9.98618E-01
   1.61808E+00  1.89647E+00  1.81527E+00  2.34963E+00  5.33916E+00  2.75176E+00  1.57141E+00  1.26928E+00  9.83229E-01 -9.42973E-01
  -4.44221E-01  4.00124E+00 -1.19255E-01  2.98001E+00  1.85445E+00  6.85994E-01  2.53902E+00  3.30968E+00 -5.01203E-01  2.55265E+00
   4.35421E+00  8.08069E-01  2.98452E+00 -1.67796E-01  2.36829E+00  1.38502E+00 -5.31772E-01  3.43967E+00 -9.68784E-01  3.09579E+00
   1.37365E+00  1.37546E+00  8.76560E-01 -1.55519E-01  3.36943E-01  2.23513E+00  2.00512E+00  3.36758E-01  2.76503E+00 -4.49976E-01
   2.53641E+00  3.58790E+00  2.01891E+00  2.64621E+00  5.34420E+00  3.76003E+00  3.69416E+00  3.98157E+00
 NY points of the fit to the data follow
   2.34792E+01  2.49232E+01  2.55988E+01  2.75914E+01  2.81236E+01  3.05526E+01  3.07197E+01  3.31909E+01  3.24534E+01  3.42893E+01
   3.27832E+01  3.38683E+01  3.22211E+01  3.27552E+01  3.03608E+01  3.03159E+01  2.74551E+01  2.70329E+01  2.49459E+01  2.48180E+01
   2.33451E+01  2.35416E+01  2.21485E+01  2.24379E+01  2.07988E+01  2.13260E+01  2.03648E+01  2.15327E+01  2.12582E+01  2.28743E+01
   2.26874E+01  2.37544E+01  2.27255E+01  2.30191E+01  2.18060E+01  2.20783E+01  2.15240E+01  2.19555E+01  2.17286E+01  2.17020E+01
   2.11656E+01  2.05707E+01  2.00637E+01  1.96552E+01  1.97629E+01  1.95690E+01  1.99683E+01  1.95836E+01  1.96773E+01  1.89865E+01
   1.87963E+01  1.80305E+01  1.77676E+01  1.70898E+01  1.67382E+01  1.59552E+01  1.54722E+01  1.47464E+01  1.44429E+01  1.38469E+01
   1.36953E+01  1.32267E+01  1.31235E+01  1.26881E+01  1.26559E+01  1.22979E+01  1.24133E+01  1.21071E+01  1.21920E+01  1.18793E+01
   1.18978E+01  1.16477E+01  1.17132E+01  1.15695E+01  1.16027E+01  1.14879E+01  1.14092E+01  1.13216E+01  1.11596E+01  1.11313E+01
   1.09236E+01  1.09527E+01  1.06813E+01  1.07724E+01  1.03828E+01  1.05019E+01  9.93957E+00  1.01057E+01  9.72238E+00  1.10110E+01
   1.12117E+01  1.31662E+01  1.35707E+01  1.55198E+01  1.59593E+01  1.80560E+01  1.88444E+01  2.15148E+01  2.26958E+01  2.54629E+01
   2.67363E+01  2.89127E+01  2.96679E+01  2.99073E+01  2.98087E+01  2.81652E+01  2.75489E+01  2.58676E+01  2.50909E+01  2.28284E+01
   2.16601E+01  1.85642E+01  1.80529E+01  1.62110E+01  1.65986E+01  1.61085E+01  1.70122E+01  1.75530E+01  1.89146E+01  2.00128E+01
   2.21311E+01  2.42955E+01  2.67675E+01  2.90063E+01  3.09937E+01  3.26697E+01  3.30627E+01  3.34053E+01  3.21155E+01  3.13118E+01
   2.97551E+01  2.86348E+01  2.65493E+01  2.47238E+01  2.16929E+01  1.92169E+01  1.65512E+01  1.44333E+01  1.27394E+01  1.12128E+01
   1.03995E+01  9.33320E+00  8.75557E+00  7.96520E+00  7.93626E+00  7.59022E+00  7.67747E+00  7.36300E+00  7.37421E+00  7.03437E+00
   6.95992E+00  6.67545E+00  6.56582E+00  6.32124E+00  6.17562E+00  5.92576E+00  5.75830E+00  5.50999E+00  5.34189E+00  5.11526E+00
   4.95934E+00  4.77866E+00  4.56830E+00  4.45038E+00  4.16046E+00  3.99835E+00  3.68026E+00  3.46108E+00  3.20706E+00  3.02474E+00
   2.80215E+00  2.59298E+00  2.38338E+00  2.08854E+00  2.01464E+00  1.72486E+00  1.89929E+00  1.68725E+00  2.06405E+00  1.84515E+00
   2.20485E+00  2.03453E+00  2.35548E+00  2.29530E+00  2.50712E+00  2.52819E+00  2.66750E+00  3.00186E+00  3.15901E+00  3.85236E+00
   3.83320E+00  4.79272E+00  4.53962E+00  5.61082E+00  5.17060E+00  6.17068E+00  5.26839E+00  6.47517E+00  5.40061E+00  6.90936E+00
   5.86404E+00  7.46624E+00  6.53286E+00  7.69457E+00  6.34708E+00  7.01834E+00  5.41556E+00  5.77673E+00  4.11982E+00  4.61097E+00
   4.16568E+00  4.72832E+00  5.52205E+00  5.59328E+00  6.33345E+00  5.99709E+00  6.35137E+00  5.69602E+00  6.05123E+00  5.49888E+00
   5.98710E+00  5.66865E+00  5.83490E+00  6.12965E+00  5.72093E+00  6.74652E+00  6.10874E+00  7.46826E+00  6.79114E+00  8.43389E+00
   8.09782E+00  9.69996E+00  9.14029E+00  1.03795E+01  9.91518E+00  1.05299E+01  1.01359E+01  1.00336E+01  1.00985E+01  9.20141E+00
   9.39816E+00  7.85623E+00  8.87031E+00  7.37595E+00  9.11096E+00  8.16157E+00  1.13230E+01  1.10756E+01  1.50661E+01  1.55054E+01
   1.96033E+01  2.09849E+01  2.51869E+01  2.71645E+01  3.15124E+01  3.38634E+01  3.77051E+01  3.99275E+01  4.26598E+01  4.42292E+01
   4.42804E+01  4.43046E+01  4.15500E+01  4.05529E+01  3.73684E+01  3.61680E+01  3.22565E+01  3.05740E+01  2.54151E+01  2.33838E+01
   1.90174E+01  1.74247E+01  1.43720E+01  1.34046E+01  1.17443E+01  1.10949E+01  9.82336E+00  9.37340E+00  9.07804E+00  8.87222E+00
   8.73820E+00  8.54900E+00  8.46737E+00  8.25674E+00  8.17353E+00  7.98392E+00  7.92428E+00  7.78407E+00  7.76860E+00  7.69144E+00
   7.69935E+00  7.68338E+00  7.72221E+00  7.75263E+00  7.81054E+00  7.86916E+00  7.94735E+00  8.03040E+00  8.11686E+00  8.21007E+00
   8.30035E+00  8.39377E+00  8.47880E+00  8.56015E+00  8.63368E+00  8.69677E+00  8.75216E+00  8.79960E+00  8.84210E+00  8.88366E+00
   8.93592E+00  9.01349E+00  9.16425E+00  9.43178E+00  9.51015E+00  9.75191E+00  9.68348E+00  9.79953E+00  9.62632E+00  9.65193E+00
   9.33873E+00  9.50293E+00  9.19698E+00  9.32680E+00  9.00034E+00  8.84963E+00  8.37534E+00  7.80397E+00  7.41820E+00  6.76926E+00
   6.92564E+00  6.58676E+00  7.17237E+00  6.87896E+00  7.84023E+00  7.32559E+00  8.52207E+00  7.96017E+00  8.98966E+00  8.61014E+00
   9.58985E+00  9.27110E+00  9.99839E+00  9.41491E+00  9.67769E+00  9.12220E+00  9.03333E+00  8.51689E+00  8.31195E+00  7.97234E+00
   7.83034E+00  7.59270E+00  7.43020E+00  7.32988E+00  7.24224E+00  7.13863E+00  7.02559E+00  6.86928E+00  6.69643E+00  6.49912E+00
   6.29080E+00  6.07662E+00  5.86658E+00  5.65423E+00  5.46979E+00  5.29679E+00  5.14971E+00  5.01534E+00  4.90269E+00  4.80160E+00
   4.71376E+00  4.62961E+00  4.55532E+00  4.48851E+00  4.42797E+00  4.37358E+00  4.32580E+00  4.28542E+00  4.25350E+00  4.23124E+00
   4.22002E+00  4.22130E+00  4.23665E+00  4.26768E+00  4.31605E+00  4.38338E+00  4.47121E+00  4.58084E+00  4.71330E+00  4.86915E+00
   5.04839E+00  5.25030E+00  5.47329E+00  5.71481E+00  5.97126E+00  6.23801E+00  6.50945E+00  6.77905E+00  7.03964E+00  7.28360E+00
   7.50324E+00  7.69115E+00  7.84056E+00  7.94574E+00  8.00229E+00  8.00740E+00  7.96002E+00  7.86094E+00  7.71271E+00  7.51948E+00
   7.28675E+00  7.02107E+00  6.72966E+00  6.42008E+00  6.09978E+00  5.77583E+00  5.45463E+00  5.14173E+00  4.84168E+00  4.55799E+00
   4.29315E+00  4.04865E+00  3.82516E+00  3.62259E+00  3.44032E+00  3.27725E+00  3.13202E+00  3.00305E+00  2.88873E+00  2.78742E+00
   2.69759E+00  2.61776E+00  2.54664E+00  2.48300E+00  2.42583E+00  2.37422E+00  2.32739E+00  2.28470E+00  2.24556E+00  2.20952E+00
   2.17615E+00  2.14516E+00  2.11624E+00  2.08918E+00  2.06372E+00  2.03976E+00  2.01709E+00  1.99565E+00  1.97527E+00  1.95591E+00
   1.93744E+00  1.91983E+00  1.90299E+00  1.88691E+00  1.87148E+00  1.85670E+00  1.84249E+00  1.82885E+00  1.81571E+00  1.80309E+00
   1.79091E+00  1.77918E+00  1.76785E+00  1.75692E+00  1.74637E+00  1.73617E+00  1.72630E+00  1.71675E+00  1.70750E+00  1.69854E+00
   1.68987E+00  1.68146E+00  1.67330E+00  1.66538E+00  1.65768E+00  1.65022E+00  1.64297E+00  1.63593E+00  1.62907E+00  1.62239E+00
   1.61590E+00  1.60959E+00  1.60345E+00  1.59746E+00  1.59162E+00  1.58593E+00  1.58040E+00  1.57502E+00  1.56977E+00  1.56466E+00
   1.55968E+00  1.55486E+00  1.55018E+00  1.54566E+00  1.54129E+00  1.53709E+00  1.53308E+00  1.52929E+00
 NY background values follow
     1.286E+01    1.280E+01    1.274E+01    1.268E+01    1.262E+01    1.256E+01    1.250E+01    1.243E+01    1.237E+01    1.231E+01
     1.225E+01    1.219E+01    1.213E+01    1.207E+01    1.200E+01    1.194E+01    1.188E+01    1.182E+01    1.176E+01    1.170E+01
     1.164E+01    1.158E+01    1.152E+01    1.146E+01    1.139E+01    1.133E+01    1.127E+01    1.121E+01    1.115E+01    1.109E+01
     1.103E+01    1.098E+01    1.092E+01    1.086E+01    1.080E+01    1.074E+01    1.068E+01    1.062E+01    1.056E+01    1.051E+01
     1.045E+01    1.039E+01    1.033E+01    1.028E+01    1.022E+01    1.016E+01    1.011E+01    1.005E+01    9.993E+00    9.937E+00
     9.882E+00    9.827E+00    9.772E+00    9.717E+00    9.663E+00    9.609E+00    9.555E+00    9.502E+00    9.449E+00    9.396E+00
     9.344E+00    9.292E+00    9.240E+00    9.188E+00    9.137E+00    9.087E+00    9.036E+00    8.986E+00    8.937E+00    8.887E+00
     8.838E+00    8.790E+00    8.742E+00    8.694E+00    8.646E+00    8.599E+00    8.553E+00    8.507E+00    8.461E+00    8.416E+00
     8.371E+00    8.326E+00    8.282E+00    8.239E+00    8.196E+00    8.153E+00    8.111E+00    8.069E+00    8.028E+00    7.987E+00
     7.947E+00    7.907E+00    7.868E+00    7.829E+00    7.791E+00    7.753E+00    7.715E+00    7.678E+00    7.642E+00    7.606E+00
     7.570E+00    7.535E+00    7.500E+00    7.466E+00    7.432E+00    7.399E+00    7.366E+00    7.333E+00    7.301E+00    7.269E+00
     7.237E+00    7.206E+00    7.176E+00    7.145E+00    7.116E+00    7.086E+00    7.057E+00    7.028E+00    7.000E+00    6.971E+00
     6.944E+00    6.916E+00    6.889E+00    6.862E+00    6.836E+00    6.810E+00    6.784E+00    6.758E+00    6.733E+00    6.708E+00
     6.683E+00    6.659E+00    6.635E+00    6.611E+00    6.587E+00    6.564E+00    6.541E+00    6.518E+00    6.496E+00    6.473E+00
     6.451E+00    6.429E+00    6.408E+00    6.386E+00    6.365E+00    6.344E+00    6.324E+00    6.303E+00    6.283E+00    6.263E+00
     6.244E+00    6.224E+00    6.205E+00    6.186E+00    6.167E+00    6.149E+00    6.130E+00    6.112E+00    6.094E+00    6.076E+00
     6.059E+00    6.042E+00    6.024E+00    6.008E+00    5.991E+00    5.974E+00    5.958E+00    5.942E+00    5.926E+00    5.910E+00
     5.895E+00    5.879E+00    5.864E+00    5.849E+00    5.834E+00    5.820E+00    5.805E+00    5.791E+00    5.777E+00    5.763E+00
     5.749E+00    5.736E+00    5.722E+00    5.709E+00    5.696E+00    5.683E+00    5.670E+00    5.658E+00    5.645E+00    5.633E+00
     5.620E+00    5.608E+00    5.596E+00    5.584E+00    5.572E+00    5.561E+00    5.549E+00    5.537E+00    5.526E+00    5.514E+00
     5.503E+00    5.491E+00    5.480E+00    5.469E+00    5.458E+00    5.446E+00    5.435E+00    5.424E+00    5.413E+00    5.402E+00
     5.391E+00    5.380E+00    5.368E+00    5.357E+00    5.346E+00    5.335E+00    5.324E+00    5.313E+00    5.301E+00    5.290E+00
     5.278E+00    5.267E+00    5.255E+00    5.244E+00    5.232E+00    5.220E+00    5.209E+00    5.197E+00    5.185E+00    5.172E+00
     5.160E+00    5.148E+00    5.136E+00    5.123E+00    5.110E+00    5.098E+00    5.085E+00    5.072E+00    5.059E+00    5.046E+00
     5.033E+00    5.019E+00    5.006E+00    4.992E+00    4.979E+00    4.965E+00    4.951E+00    4.937E+00    4.923E+00    4.909E+00
     4.895E+00    4.880E+00    4.866E+00    4.851E+00    4.836E+00    4.821E+00    4.807E+00    4.791E+00    4.776E+00    4.761E+00
     4.746E+00    4.730E+00    4.715E+00    4.699E+00    4.683E+00    4.667E+00    4.651E+00    4.635E+00    4.618E+00    4.602E+00
     4.585E+00    4.569E+00    4.552E+00    4.535E+00    4.518E+00    4.501E+00    4.483E+00    4.466E+00    4.448E+00    4.431E+00
     4.413E+00    4.395E+00    4.377E+00    4.359E+00    4.341E+00    4.322E+00    4.304E+00    4.285E+00    4.267E+00    4.248E+00
     4.229E+00    4.210E+00    4.191E+00    4.172E+00    4.153E+00    4.133E+00    4.114E+00    4.094E+00    4.075E+00    4.055E+00
     4.035E+00    4.015E+00    3.995E+00    3.975E+00    3.955E+00    3.934E+00    3.914E+00    3.894E+00    3.873E+00    3.852E+00
     3.832E+00    3.811E+00    3.790E+00    3.769E+00    3.748E+00    3.726E+00    3.705E+00    3.684E+00    3.662E+00    3.641E+00
     3.619E+00    3.598E+00    3.576E+00    3.554E+00    3.532E+00    3.511E+00    3.489E+00    3.467E+00    3.445E+00    3.423E+00
     3.401E+00    3.379E+00    3.356E+00    3.334E+00    3.312E+00    3.290E+00    3.268E+00    3.245E+00    3.223E+00    3.201E+00
     3.179E+00    3.157E+00    3.134E+00    3.112E+00    3.090E+00    3.068E+00    3.046E+00    3.024E+00    3.001E+00    2.979E+00
     2.957E+00    2.935E+00    2.913E+00    2.892E+00    2.870E+00    2.848E+00    2.826E+00    2.805E+00    2.783E+00    2.761E+00
     2.740E+00    2.719E+00    2.697E+00    2.676E+00    2.655E+00    2.634E+00    2.613E+00    2.592E+00    2.571E+00    2.551E+00
     2.530E+00    2.510E+00    2.489E+00    2.469E+00    2.449E+00    2.429E+00    2.409E+00    2.389E+00    2.370E+00    2.350E+00
     2.331E+00    2.312E+00    2.293E+00    2.274E+00    2.255E+00    2.236E+00    2.218E+00    2.199E+00    2.181E+00    2.163E+00
     2.145E+00    2.128E+00    2.110E+00    2.093E+00    2.075E+00    2.058E+00    2.042E+00    2.025E+00    2.008E+00    1.992E+00
     1.976E+00    1.960E+00    1.945E+00    1.929E+00    1.914E+00    1.899E+00    1.884E+00    1.869E+00    1.855E+00    1.841E+00
     1.827E+00    1.813E+00    1.799E+00    1.786E+00    1.773E+00    1.760E+00    1.747E+00    1.734E+00    1.722E+00    1.710E+00
     1.698E+00    1.686E+00    1.675E+00    1.664E+00    1.652E+00    1.642E+00    1.631E+00    1.620E+00    1.610E+00    1.600E+00
     1.590E+00    1.580E+00    1.571E+00    1.561E+00    1.552E+00    1.543E+00    1.535E+00    1.526E+00    1.518E+00    1.509E+00
     1.501E+00    1.494E+00    1.486E+00    1.479E+00    1.471E+00    1.464E+00    1.457E+00    1.451E+00    1.444E+00    1.438E+00
     1.432E+00    1.426E+00    1.420E+00    1.414E+00    1.409E+00    1.404E+00    1.398E+00    1.393E+00    1.389E+00    1.384E+00
     1.380E+00    1.375E+00    1.371E+00    1.367E+00    1.363E+00    1.359E+00    1.355E+00    1.352E+00    1.348E+00    1.345E+00
     1.342E+00    1.339E+00    1.336E+00    1.333E+00    1.330E+00    1.327E+00    1.324E+00    1.322E+00    1.319E+00    1.317E+00
     1.314E+00    1.312E+00    1.310E+00    1.308E+00    1.306E+00    1.303E+00    1.301E+00    1.299E+00    1.297E+00    1.296E+00
     1.294E+00    1.292E+00    1.290E+00    1.288E+00    1.286E+00    1.284E+00    1.282E+00    1.281E+00
 Ala      Conc. = 7.62E+02
