 LCModel (Version 6.3-1L) Copyright: S.W. Provencher.          Ref.: Magn. Reson. Med. 30:672-679 (1993).                
 Slice#1 Row#13 Col#2  PD_05_press_1_raw_act
 36 lines in following concentration table = NCONC+1
    Conc.  %SD /Cr+PCr  Metabolite                                         
    0.000 999%   0.000 Ala                                                 
   10.614  89%   0.113 Asp                                                 
    0.000 999%   0.000 Cr                                                  
   94.194  20%   1.000 PCr                                                 
    7.026  81% 7.5E-02 GABA                                                
    6.157  92% 6.5E-02 Glc                                                 
  412.892  42%   4.383 Gln                                                 
  465.703  41%   4.944 Glu                                                 
    0.000 999%   0.000 GPC                                                 
    0.000 999%   0.000 PCh                                                 
   49.632  63%   0.527 GSH                                                 
  184.585  52%   1.960 Ins                                                 
    0.000 999%   0.000 Lac                                                 
   90.535  49%   0.961 NAA                                                 
   32.365 152%   0.344 NAAG                                                
    1.919  97% 2.0E-02 Scyllo                                              
    7.427 127% 7.9E-02 Tau                                                 
    0.000 999%   0.000 -CrCH2                                              
    0.000 999%   0.000 GPC+PCh                                             
  122.900  19%   1.305 NAA+NAAG                                            
   94.194  20%   1.000 Cr+PCr                                              
  878.596  37%   9.327 Glu+Gln                                             
    0.000 999%   0.000 Lip13a                                              
    0.000 999%   0.000 Lip13b                                              
    0.000 999%   0.000 Lip09                                               
   15.927 283%   0.169 MM09                                                
 2.74E-03 999% 2.9E-05 Lip20                                               
   23.981 282%   0.255 MM20                                                
    4.773 283% 5.1E-02 MM12                                                
   11.780 287%   0.125 MM14                                                
    6.002 282% 6.4E-02 MM17                                                
    0.000 999%   0.000 Lip13a+Lip13b                                       
   16.553 286%   0.176 MM14+Lip13a+Lip13b+MM12                             
   15.927 283%   0.169 MM09+Lip09                                          
   23.984 282%   0.255 MM20+Lip20                                          
   6 lines in following misc. output table
  FWHM = 0.099 ppm    S/N =   1                                            
  Data shift =-0.008 ppm                                                   
  Ph: 107 deg      -8.3 deg/ppm                                            
  alphaB,S = 3.9E-01,   7.8E+01                                            
   14 spline knots.   Ns = 9(1)                                            
  ( 8) 4 infls.   ( 9) 1 extrs.                                            
  498 points on ppm-axis = NY
      4.000000     3.992357     3.984714     3.977070     3.969427     3.961784     3.954141     3.946497     3.938854     3.931211
      3.923568     3.915925     3.908281     3.900638     3.892995     3.885352     3.877708     3.870065     3.862422     3.854779
      3.847136     3.839492     3.831849     3.824206     3.816563     3.808919     3.801276     3.793633     3.785990     3.778347
      3.770703     3.763060     3.755417     3.747774     3.740130     3.732487     3.724844     3.717201     3.709558     3.701914
      3.694271     3.686628     3.678985     3.671341     3.663698     3.656055     3.648412     3.640769     3.633125     3.625482
      3.617839     3.610196     3.602552     3.594909     3.587266     3.579623     3.571980     3.564336     3.556693     3.549050
      3.541407     3.533763     3.526120     3.518477     3.510834     3.503191     3.495547     3.487904     3.480261     3.472618
      3.464974     3.457331     3.449688     3.442045     3.434402     3.426758     3.419115     3.411472     3.403829     3.396185
      3.388542     3.380899     3.373256     3.365613     3.357969     3.350326     3.342683     3.335040     3.327396     3.319753
      3.312110     3.304467     3.296824     3.289180     3.281537     3.273894     3.266251     3.258607     3.250964     3.243321
      3.235678     3.228034     3.220391     3.212748     3.205105     3.197462     3.189818     3.182175     3.174532     3.166889
      3.159245     3.151602     3.143959     3.136316     3.128673     3.121029     3.113386     3.105743     3.098100     3.090456
      3.082813     3.075170     3.067527     3.059884     3.052240     3.044597     3.036954     3.029311     3.021667     3.014024
      3.006381     2.998738     2.991095     2.983451     2.975808     2.968165     2.960522     2.952878     2.945235     2.937592
      2.929949     2.922306     2.914662     2.907019     2.899376     2.891733     2.884089     2.876446     2.868803     2.861160
      2.853517     2.845873     2.838230     2.830587     2.822944     2.815300     2.807657     2.800014     2.792371     2.784728
      2.777084     2.769441     2.761798     2.754155     2.746511     2.738868     2.731225     2.723582     2.715939     2.708295
      2.700652     2.693009     2.685366     2.677722     2.670079     2.662436     2.654793     2.647150     2.639506     2.631863
      2.624220     2.616577     2.608933     2.601290     2.593647     2.586004     2.578361     2.570717     2.563074     2.555431
      2.547788     2.540144     2.532501     2.524858     2.517215     2.509572     2.501928     2.494285     2.486642     2.478999
      2.471355     2.463712     2.456069     2.448426     2.440783     2.433139     2.425496     2.417853     2.410210     2.402566
      2.394923     2.387280     2.379637     2.371994     2.364350     2.356707     2.349064     2.341421     2.333777     2.326134
      2.318491     2.310848     2.303205     2.295561     2.287918     2.280275     2.272632     2.264988     2.257345     2.249702
      2.242059     2.234416     2.226772     2.219129     2.211486     2.203843     2.196199     2.188556     2.180913     2.173270
      2.165627     2.157983     2.150340     2.142697     2.135054     2.127410     2.119767     2.112124     2.104481     2.096838
      2.089194     2.081551     2.073908     2.066265     2.058621     2.050978     2.043335     2.035692     2.028049     2.020405
      2.012762     2.005119     1.997476     1.989833     1.982190     1.974546     1.966903     1.959260     1.951617     1.943974
      1.936331     1.928688     1.921045     1.913402     1.905759     1.898115     1.890472     1.882829     1.875186     1.867543
      1.859900     1.852257     1.844614     1.836971     1.829327     1.821684     1.814041     1.806398     1.798755     1.791112
      1.783469     1.775826     1.768183     1.760540     1.752896     1.745253     1.737610     1.729967     1.722324     1.714681
      1.707038     1.699395     1.691752     1.684108     1.676465     1.668822     1.661179     1.653536     1.645893     1.638250
      1.630607     1.622964     1.615321     1.607677     1.600034     1.592391     1.584748     1.577105     1.569462     1.561819
      1.554176     1.546533     1.538890     1.531246     1.523603     1.515960     1.508317     1.500674     1.493031     1.485388
      1.477745     1.470102     1.462458     1.454815     1.447172     1.439529     1.431886     1.424243     1.416600     1.408957
      1.401314     1.393671     1.386027     1.378384     1.370741     1.363098     1.355455     1.347812     1.340169     1.332526
      1.324883     1.317240     1.309596     1.301953     1.294310     1.286667     1.279024     1.271381     1.263738     1.256095
      1.248452     1.240808     1.233165     1.225522     1.217879     1.210236     1.202593     1.194950     1.187307     1.179664
      1.172021     1.164377     1.156734     1.149091     1.141448     1.133805     1.126162     1.118519     1.110876     1.103233
      1.095590     1.087946     1.080303     1.072660     1.065017     1.057374     1.049731     1.042088     1.034445     1.026802
      1.019158     1.011515     1.003872     0.996229     0.988586     0.980943     0.973300     0.965657     0.958014     0.950371
      0.942727     0.935084     0.927441     0.919798     0.912155     0.904512     0.896869     0.889226     0.881583     0.873940
      0.866296     0.858653     0.851010     0.843367     0.835724     0.828081     0.820438     0.812795     0.805152     0.797508
      0.789865     0.782222     0.774579     0.766936     0.759293     0.751650     0.744007     0.736364     0.728721     0.721077
      0.713434     0.705791     0.698148     0.690505     0.682862     0.675219     0.667576     0.659933     0.652290     0.644646
      0.637003     0.629360     0.621717     0.614074     0.606431     0.598788     0.591145     0.583502     0.575858     0.568215
      0.560572     0.552929     0.545286     0.537643     0.530000     0.522357     0.514714     0.507071     0.499427     0.491784
      0.484141     0.476498     0.468855     0.461212     0.453569     0.445925     0.438282     0.430639     0.422996     0.415353
      0.407710     0.400067     0.392424     0.384780     0.377137     0.369494     0.361851     0.354208     0.346565     0.338922
      0.331278     0.323635     0.315992     0.308349     0.300706     0.293063     0.285420     0.277777     0.270133     0.262490
      0.254847     0.247204     0.239561     0.231918     0.224275     0.216631     0.208988     0.201345
 NY phased data points follow
   8.66696E+00  1.28911E+01  1.19306E+01  1.00839E+01  9.54979E+00  1.19299E+01  1.07064E+01  9.95929E+00  1.04531E+01  1.17633E+01
   1.12296E+01  1.12826E+01  1.05692E+01  1.06581E+01  1.17070E+01  9.08593E+00  8.51494E+00  9.20313E+00  1.03766E+01  9.63062E+00
   8.03554E+00  9.71794E+00  8.83325E+00  9.10644E+00  9.15701E+00  9.58944E+00  9.14891E+00  8.18122E+00  8.57117E+00  9.94438E+00
   7.42495E+00  8.87787E+00  9.88494E+00  7.48240E+00  8.70207E+00  8.41671E+00  6.98436E+00  9.73598E+00  6.52285E+00  9.07296E+00
   7.78581E+00  7.57138E+00  9.13337E+00  6.98578E+00  6.82649E+00  6.24651E+00  8.34742E+00  7.64438E+00  7.89694E+00  7.44311E+00
   6.44703E+00  6.36180E+00  8.45530E+00  7.57071E+00  7.80755E+00  9.01528E+00  6.04056E+00  6.48138E+00  7.58015E+00  6.72735E+00
   5.49135E+00  3.18065E+00  5.02124E+00  6.67439E+00  5.03154E+00  4.50670E+00  5.34894E+00  7.20609E+00  6.48417E+00  6.14131E+00
   5.36285E+00  5.21530E+00  5.35911E+00  6.35941E+00  5.11265E+00  5.93362E+00  5.85707E+00  6.76699E+00  5.03731E+00  4.58540E+00
   3.36823E+00  6.59133E+00  4.92369E+00  5.06691E+00  5.09382E+00  6.57291E+00  3.17621E+00  5.28738E+00  5.61605E+00  4.52219E+00
   4.69988E+00  5.36371E+00  3.68696E+00  3.91623E+00  5.12986E+00  4.49675E+00  5.58808E+00  4.84976E+00  4.29496E+00  3.88738E+00
   3.47208E+00  4.36525E+00  4.19753E+00  3.38424E+00  3.18251E+00  4.28510E+00  5.67305E+00  6.08800E+00  5.07515E+00  4.23372E+00
   2.43963E+00  5.60291E+00  3.46196E+00  4.02610E+00  3.93260E+00  2.33601E+00  4.09088E+00  5.37374E+00  3.48123E+00  4.39718E+00
   3.23110E+00  5.30352E+00  5.28412E+00  3.91554E+00  6.19311E+00  4.17533E+00  3.51622E+00  5.61445E+00  7.20046E+00  5.09816E+00
   6.18457E+00  6.72990E+00  6.27400E+00  6.10596E+00  6.80318E+00  6.32899E+00  4.55930E+00  6.17858E+00  4.69941E+00  4.40378E+00
   4.53937E+00  5.16742E+00  5.36796E+00  5.12220E+00  5.99638E+00  6.23581E+00  3.71834E+00  5.12440E+00  4.70960E+00  4.49775E+00
   4.93361E+00  4.71336E+00  4.09934E+00  3.90599E+00  5.39158E+00  6.37777E+00  4.58347E+00  5.01806E+00  2.94435E+00  4.61758E+00
   3.74911E+00  4.93600E+00  4.25730E+00  4.63359E+00  6.06720E+00  4.19679E+00  4.44843E+00  2.60036E+00  4.32396E+00  4.92685E+00
   3.72266E+00  2.20530E+00  4.79001E+00  3.36301E+00  4.37538E+00  5.13911E+00  3.65368E+00  4.37821E+00  3.19896E+00  3.75843E+00
   3.85348E+00  5.39617E+00  3.35785E+00  4.89237E+00  4.49079E+00  4.21677E+00  3.94872E+00  4.75630E+00  6.12044E+00  5.92601E+00
   4.44120E+00  3.71574E+00  6.37201E+00  5.21118E+00  5.21403E+00  5.51650E+00  6.05678E+00  5.82472E+00  5.67853E+00  5.19653E+00
   5.30925E+00  5.21220E+00  5.42269E+00  6.48509E+00  7.71415E+00  6.82854E+00  6.65970E+00  6.10930E+00  4.89588E+00  6.05191E+00
   6.17716E+00  5.62858E+00  6.67669E+00  5.27904E+00  6.39517E+00  5.72118E+00  6.33415E+00  6.94146E+00  6.38088E+00  3.66413E+00
   6.64480E+00  7.67948E+00  6.70292E+00  7.34324E+00  7.47704E+00  6.57192E+00  4.96843E+00  7.50085E+00  5.78379E+00  7.39452E+00
   7.98817E+00  8.90230E+00  6.41669E+00  6.45502E+00  8.12213E+00  7.21022E+00  6.86763E+00  4.83296E+00  6.02787E+00  7.55091E+00
   5.87286E+00  8.07830E+00  8.05594E+00  8.16851E+00  8.39486E+00  7.21735E+00  6.59093E+00  6.19220E+00  7.50932E+00  8.04925E+00
   6.75639E+00  5.96868E+00  6.87824E+00  8.43964E+00  8.06141E+00  7.63938E+00  6.41533E+00  7.66742E+00  7.37218E+00  8.40559E+00
   9.91695E+00  8.43886E+00  7.31887E+00  8.93669E+00  8.26816E+00  9.47939E+00  1.03510E+01  7.33760E+00  6.62561E+00  8.13568E+00
   7.22568E+00  8.57398E+00  7.52349E+00  6.24854E+00  6.88566E+00  7.01709E+00  7.71276E+00  6.94912E+00  7.43815E+00  7.18890E+00
   8.23075E+00  7.76274E+00  7.03160E+00  7.48843E+00  6.71944E+00  7.25821E+00  6.38123E+00  5.96023E+00  6.68487E+00  5.98168E+00
   6.47696E+00  7.19482E+00  5.55241E+00  7.00853E+00  5.70290E+00  6.70458E+00  4.96726E+00  5.82524E+00  6.27415E+00  7.85185E+00
   5.02654E+00  6.48617E+00  6.13966E+00  5.55147E+00  5.76040E+00  6.14683E+00  6.66882E+00  6.16260E+00  6.67432E+00  4.67851E+00
   6.28276E+00  6.02744E+00  5.24531E+00  5.18832E+00  5.46633E+00  4.90146E+00  5.26811E+00  6.47201E+00  3.46836E+00  3.43799E+00
   5.04496E+00  4.02734E+00  6.17221E+00  5.75315E+00  5.65150E+00  4.09068E+00  4.94153E+00  6.32293E+00  3.41375E+00  5.04282E+00
   4.42859E+00  5.47835E+00  3.99115E+00  4.39410E+00  4.31527E+00  4.29897E+00  3.59146E+00  2.93631E+00  2.85147E+00  4.47359E+00
   2.57316E+00  3.74198E+00  3.69696E+00  4.69676E+00  2.70179E+00  1.14255E+00  3.62110E+00  4.29681E+00  6.81231E+00  3.71289E+00
   4.46371E+00  6.75800E+00  3.55977E+00  3.63104E+00  2.54164E+00  4.08621E+00  3.45247E+00  4.18329E+00  4.62294E+00  2.44850E+00
   3.57370E+00  3.35318E+00  2.26113E+00  3.54509E+00  3.08863E+00  3.87087E+00  1.27689E+00  4.80638E+00  3.84824E+00  4.26613E+00
   1.43019E+00  3.78184E+00  4.07260E+00  2.62765E+00  3.75263E+00  4.06168E+00  4.00714E+00  4.05871E+00  4.16601E+00  2.98174E+00
   4.25940E+00  4.54755E+00  3.37531E+00  4.11220E+00  5.89921E+00  4.17200E+00  1.34825E+00  3.62354E+00  4.66484E+00  1.96085E+00
   2.80472E+00  2.38007E+00  2.74449E+00  5.99991E+00  3.72324E+00  3.39632E+00  3.98709E+00  3.69140E+00  2.40347E+00  1.81515E+00
   3.40627E+00  2.53766E+00  4.61067E+00  1.51458E+00  2.14611E+00  1.20089E+00  1.00495E+00  4.00662E+00  3.21383E+00  2.98340E+00
   4.37977E+00  2.75457E+00  3.35263E+00  3.85006E+00  4.23391E+00  2.75768E+00  3.03957E+00  3.20349E+00  1.80122E+00  3.83796E+00
   2.62953E+00  4.74646E+00  1.49888E+00  2.60179E+00  3.85851E+00  9.19862E-01  3.10262E+00  2.03408E+00  2.94886E+00  2.15938E+00
   2.57102E+00  1.79092E+00  3.58638E+00  2.76987E+00  1.49158E+00  2.78069E+00  3.73357E+00  3.66071E+00  2.07764E+00  1.58963E+00
   2.66651E+00  3.50263E+00  2.78351E+00  2.62962E+00  2.37427E+00  1.07863E+00  2.96185E+00  1.95392E+00  2.06276E+00  1.42705E+00
   2.97712E+00  3.78091E+00  3.22167E+00  2.60635E+00  3.59186E+00  2.99897E+00  5.03478E+00  1.41144E+00  3.29632E+00  2.31821E+00
   2.40233E+00  3.31062E+00  1.77389E+00  1.66761E+00  4.20810E+00  4.91756E+00  2.23066E+00  3.62000E+00  1.51101E+00  2.04896E+00
   6.94473E-01  1.66546E+00  2.46953E+00  3.24527E+00  2.02281E+00  2.99941E+00  2.89810E+00  2.74928E+00  3.93537E+00  1.96895E-01
   2.45910E+00  1.36126E+00  1.76448E+00  1.78906E+00  3.12543E+00  2.74155E+00  2.23977E-01  2.64862E+00  2.35457E+00  2.39384E+00
   2.13844E+00  2.10138E+00  9.71259E-01  1.61919E+00  2.31444E+00  2.56501E+00  4.15956E-01  2.14838E+00
 NY points of the fit to the data follow
   1.00132E+01  9.99255E+00  9.94619E+00  9.86832E+00  9.82310E+00  9.82713E+00  9.86690E+00  9.93441E+00  1.00045E+01  1.00498E+01
   1.00525E+01  1.00188E+01  9.97202E+00  9.92294E+00  9.85656E+00  9.75172E+00  9.61075E+00  9.42520E+00  9.14888E+00  8.81230E+00
   8.58456E+00  8.54835E+00  8.57874E+00  8.63456E+00  8.71278E+00  8.77189E+00  8.78168E+00  8.76749E+00  8.78388E+00  8.83311E+00
   8.88576E+00  8.92156E+00  8.91096E+00  8.83289E+00  8.70241E+00  8.58267E+00  8.54943E+00  8.57409E+00  8.52103E+00  8.33449E+00
   8.04676E+00  7.70545E+00  7.35121E+00  7.15913E+00  7.21698E+00  7.41428E+00  7.62919E+00  7.78515E+00  7.82833E+00  7.72254E+00
   7.55030E+00  7.41461E+00  7.30659E+00  7.19525E+00  7.05858E+00  6.89228E+00  6.70062E+00  6.50230E+00  6.35526E+00  6.30623E+00
   6.32126E+00  6.34002E+00  6.33875E+00  6.32752E+00  6.31068E+00  6.28263E+00  6.24126E+00  6.19069E+00  6.13075E+00  6.05693E+00
   5.98470E+00  5.93508E+00  5.90835E+00  5.89975E+00  5.89320E+00  5.87848E+00  5.85090E+00  5.80866E+00  5.74897E+00  5.67229E+00
   5.58434E+00  5.49295E+00  5.40246E+00  5.32325E+00  5.24975E+00  5.17556E+00  5.10299E+00  5.03679E+00  4.98028E+00  4.93084E+00
   4.88609E+00  4.84349E+00  4.80440E+00  4.77187E+00  4.74525E+00  4.72503E+00  4.71740E+00  4.72750E+00  4.73729E+00  4.73121E+00
   4.70523E+00  4.66728E+00  4.62442E+00  4.58189E+00  4.54404E+00  4.51544E+00  4.49785E+00  4.49458E+00  4.50694E+00  4.52521E+00
   4.54469E+00  4.56137E+00  4.57622E+00  4.59004E+00  4.60030E+00  4.60704E+00  4.61719E+00  4.65035E+00  4.76326E+00  4.94575E+00
   5.10519E+00  5.22255E+00  5.34896E+00  5.53117E+00  5.76261E+00  6.00178E+00  6.20952E+00  6.35796E+00  6.43387E+00  6.45558E+00
   6.45595E+00  6.43932E+00  6.37636E+00  6.23533E+00  6.00416E+00  5.68363E+00  5.28289E+00  4.87804E+00  4.64690E+00  4.59387E+00
   4.57939E+00  4.56965E+00  4.56119E+00  4.56106E+00  4.58390E+00  4.62822E+00  4.66976E+00  4.69699E+00  4.70618E+00  4.69492E+00
   4.67202E+00  4.64610E+00  4.62352E+00  4.61149E+00  4.60668E+00  4.60766E+00  4.61280E+00  4.61794E+00  4.62024E+00  4.62191E+00
   4.62716E+00  4.63628E+00  4.64888E+00  4.66427E+00  4.67957E+00  4.68986E+00  4.69314E+00  4.69375E+00  4.69752E+00  4.71065E+00
   4.73209E+00  4.75210E+00  4.76045E+00  4.75929E+00  4.75790E+00  4.76423E+00  4.77994E+00  4.79751E+00  4.81241E+00  4.82841E+00
   4.84996E+00  4.87839E+00  4.91579E+00  4.96279E+00  5.01488E+00  5.06233E+00  5.10094E+00  5.13058E+00  5.14542E+00  5.15343E+00
   5.16322E+00  5.17404E+00  5.18250E+00  5.20185E+00  5.24096E+00  5.29358E+00  5.36158E+00  5.45516E+00  5.55298E+00  5.64523E+00
   5.71814E+00  5.73122E+00  5.71000E+00  5.75034E+00  5.85467E+00  5.94920E+00  5.99661E+00  6.02547E+00  5.98612E+00  5.86999E+00
   5.73242E+00  5.62733E+00  5.55850E+00  5.49358E+00  5.43961E+00  5.46941E+00  5.63323E+00  5.88478E+00  6.15408E+00  6.44520E+00
   6.68025E+00  6.67718E+00  6.44246E+00  6.16136E+00  5.88254E+00  5.63081E+00  5.49952E+00  5.57383E+00  5.76282E+00  6.04799E+00
   6.41066E+00  6.78699E+00  7.07727E+00  7.17000E+00  7.05103E+00  6.86448E+00  6.71672E+00  6.61698E+00  6.55278E+00  6.50136E+00
   6.45733E+00  6.41065E+00  6.34415E+00  6.27713E+00  6.24867E+00  6.26549E+00  6.28976E+00  6.25984E+00  6.18035E+00  6.11415E+00
   6.09714E+00  6.22079E+00  6.56464E+00  6.99544E+00  7.32405E+00  7.60545E+00  7.91315E+00  8.22703E+00  8.52106E+00  8.79876E+00
   9.00695E+00  9.06386E+00  8.98140E+00  8.83403E+00  8.66949E+00  8.48407E+00  8.28195E+00  8.09274E+00  7.85382E+00  7.49090E+00
   7.04773E+00  6.70775E+00  6.56798E+00  6.49928E+00  6.45926E+00  6.44473E+00  6.43122E+00  6.41604E+00  6.40925E+00  6.40494E+00
   6.39768E+00  6.38340E+00  6.35562E+00  6.31180E+00  6.26286E+00  6.21980E+00  6.18357E+00  6.15233E+00  6.12507E+00  6.10172E+00
   6.08082E+00  6.05824E+00  6.03218E+00  6.00446E+00  5.97633E+00  5.94818E+00  5.92002E+00  5.89256E+00  5.86567E+00  5.83849E+00
   5.81090E+00  5.78284E+00  5.75386E+00  5.72449E+00  5.69529E+00  5.66615E+00  5.63700E+00  5.60789E+00  5.57883E+00  5.54957E+00
   5.51960E+00  5.48901E+00  5.45797E+00  5.42661E+00  5.39526E+00  5.36400E+00  5.33280E+00  5.30173E+00  5.27084E+00  5.24014E+00
   5.20965E+00  5.17937E+00  5.14930E+00  5.11943E+00  5.08976E+00  5.06024E+00  5.03084E+00  5.00153E+00  4.97226E+00  4.94300E+00
   4.91370E+00  4.88433E+00  4.85486E+00  4.82525E+00  4.79548E+00  4.76554E+00  4.73540E+00  4.70508E+00  4.67457E+00  4.64390E+00
   4.61309E+00  4.58217E+00  4.55116E+00  4.52012E+00  4.48910E+00  4.45813E+00  4.42726E+00  4.39655E+00  4.36602E+00  4.33574E+00
   4.30572E+00  4.27600E+00  4.24661E+00  4.21757E+00  4.18888E+00  4.16055E+00  4.13259E+00  4.10499E+00  4.07775E+00  4.05085E+00
   4.02428E+00  3.99804E+00  3.97211E+00  3.94647E+00  3.92111E+00  3.89602E+00  3.87117E+00  3.84658E+00  3.82223E+00  3.79812E+00
   3.77426E+00  3.75067E+00  3.72735E+00  3.70434E+00  3.68164E+00  3.65929E+00  3.63730E+00  3.61571E+00  3.59455E+00  3.57385E+00
   3.55364E+00  3.53396E+00  3.51484E+00  3.49631E+00  3.47842E+00  3.46119E+00  3.44465E+00  3.42882E+00  3.41371E+00  3.39932E+00
   3.38565E+00  3.37266E+00  3.36031E+00  3.34852E+00  3.33720E+00  3.32626E+00  3.31556E+00  3.30496E+00  3.29429E+00  3.28341E+00
   3.27215E+00  3.26036E+00  3.24792E+00  3.23469E+00  3.22061E+00  3.20561E+00  3.18970E+00  3.17288E+00  3.15521E+00  3.13676E+00
   3.11766E+00  3.09803E+00  3.07801E+00  3.05774E+00  3.03737E+00  3.01703E+00  2.99685E+00  2.97694E+00  2.95739E+00  2.93825E+00
   2.91959E+00  2.90143E+00  2.88378E+00  2.86666E+00  2.85005E+00  2.83391E+00  2.81824E+00  2.80300E+00  2.78816E+00  2.77368E+00
   2.75953E+00  2.74568E+00  2.73210E+00  2.71876E+00  2.70564E+00  2.69271E+00  2.67996E+00  2.66736E+00  2.65491E+00  2.64258E+00
   2.63037E+00  2.61826E+00  2.60624E+00  2.59430E+00  2.58244E+00  2.57064E+00  2.55891E+00  2.54722E+00  2.53558E+00  2.52398E+00
   2.51241E+00  2.50087E+00  2.48935E+00  2.47785E+00  2.46637E+00  2.45489E+00  2.44343E+00  2.43198E+00  2.42055E+00  2.40911E+00
   2.39769E+00  2.38627E+00  2.37486E+00  2.36345E+00  2.35205E+00  2.34064E+00  2.32924E+00  2.31783E+00  2.30643E+00  2.29502E+00
   2.28361E+00  2.27220E+00  2.26079E+00  2.24936E+00  2.23794E+00  2.22650E+00  2.21506E+00  2.20361E+00  2.19215E+00  2.18068E+00
   2.16919E+00  2.15770E+00  2.14619E+00  2.13467E+00  2.12313E+00  2.11158E+00  2.10001E+00  2.08841E+00  2.07680E+00  2.06517E+00
   2.05352E+00  2.04184E+00  2.03014E+00  2.01841E+00  2.00665E+00  1.99486E+00  1.98303E+00  1.97118E+00
 NY background values follow
     9.035E+00    8.981E+00    8.927E+00    8.872E+00    8.818E+00    8.764E+00    8.709E+00    8.655E+00    8.601E+00    8.546E+00
     8.492E+00    8.438E+00    8.383E+00    8.329E+00    8.275E+00    8.221E+00    8.167E+00    8.113E+00    8.059E+00    8.005E+00
     7.952E+00    7.898E+00    7.845E+00    7.791E+00    7.738E+00    7.685E+00    7.632E+00    7.580E+00    7.527E+00    7.475E+00
     7.423E+00    7.371E+00    7.319E+00    7.268E+00    7.217E+00    7.166E+00    7.115E+00    7.065E+00    7.015E+00    6.965E+00
     6.915E+00    6.866E+00    6.817E+00    6.769E+00    6.720E+00    6.673E+00    6.625E+00    6.578E+00    6.531E+00    6.485E+00
     6.438E+00    6.393E+00    6.348E+00    6.303E+00    6.258E+00    6.214E+00    6.171E+00    6.127E+00    6.085E+00    6.042E+00
     6.001E+00    5.959E+00    5.918E+00    5.878E+00    5.838E+00    5.799E+00    5.760E+00    5.721E+00    5.683E+00    5.646E+00
     5.609E+00    5.573E+00    5.537E+00    5.502E+00    5.468E+00    5.434E+00    5.400E+00    5.367E+00    5.335E+00    5.303E+00
     5.272E+00    5.242E+00    5.212E+00    5.183E+00    5.155E+00    5.127E+00    5.100E+00    5.073E+00    5.047E+00    5.022E+00
     4.997E+00    4.974E+00    4.951E+00    4.928E+00    4.906E+00    4.885E+00    4.865E+00    4.845E+00    4.826E+00    4.808E+00
     4.790E+00    4.774E+00    4.757E+00    4.742E+00    4.727E+00    4.712E+00    4.699E+00    4.686E+00    4.673E+00    4.662E+00
     4.650E+00    4.640E+00    4.630E+00    4.621E+00    4.612E+00    4.605E+00    4.597E+00    4.591E+00    4.585E+00    4.579E+00
     4.574E+00    4.570E+00    4.566E+00    4.563E+00    4.561E+00    4.559E+00    4.558E+00    4.557E+00    4.557E+00    4.558E+00
     4.559E+00    4.561E+00    4.563E+00    4.566E+00    4.569E+00    4.573E+00    4.578E+00    4.583E+00    4.588E+00    4.595E+00
     4.601E+00    4.608E+00    4.616E+00    4.624E+00    4.633E+00    4.642E+00    4.652E+00    4.662E+00    4.673E+00    4.684E+00
     4.696E+00    4.708E+00    4.720E+00    4.733E+00    4.746E+00    4.760E+00    4.774E+00    4.788E+00    4.803E+00    4.818E+00
     4.834E+00    4.850E+00    4.866E+00    4.883E+00    4.900E+00    4.917E+00    4.935E+00    4.952E+00    4.971E+00    4.989E+00
     5.008E+00    5.027E+00    5.046E+00    5.066E+00    5.085E+00    5.105E+00    5.126E+00    5.146E+00    5.167E+00    5.188E+00
     5.209E+00    5.230E+00    5.251E+00    5.273E+00    5.295E+00    5.316E+00    5.338E+00    5.361E+00    5.383E+00    5.405E+00
     5.427E+00    5.450E+00    5.472E+00    5.494E+00    5.517E+00    5.539E+00    5.561E+00    5.583E+00    5.606E+00    5.628E+00
     5.650E+00    5.671E+00    5.693E+00    5.715E+00    5.736E+00    5.757E+00    5.778E+00    5.799E+00    5.820E+00    5.840E+00
     5.860E+00    5.880E+00    5.900E+00    5.919E+00    5.938E+00    5.957E+00    5.975E+00    5.993E+00    6.011E+00    6.028E+00
     6.044E+00    6.061E+00    6.077E+00    6.092E+00    6.107E+00    6.122E+00    6.136E+00    6.149E+00    6.162E+00    6.174E+00
     6.186E+00    6.198E+00    6.209E+00    6.219E+00    6.229E+00    6.238E+00    6.247E+00    6.255E+00    6.263E+00    6.270E+00
     6.276E+00    6.282E+00    6.288E+00    6.293E+00    6.297E+00    6.301E+00    6.304E+00    6.307E+00    6.309E+00    6.310E+00
     6.311E+00    6.312E+00    6.311E+00    6.311E+00    6.309E+00    6.307E+00    6.305E+00    6.301E+00    6.297E+00    6.293E+00
     6.288E+00    6.282E+00    6.276E+00    6.269E+00    6.262E+00    6.254E+00    6.245E+00    6.236E+00    6.226E+00    6.215E+00
     6.204E+00    6.192E+00    6.180E+00    6.166E+00    6.153E+00    6.138E+00    6.123E+00    6.108E+00    6.092E+00    6.075E+00
     6.058E+00    6.040E+00    6.022E+00    6.003E+00    5.984E+00    5.964E+00    5.944E+00    5.923E+00    5.902E+00    5.880E+00
     5.858E+00    5.836E+00    5.813E+00    5.790E+00    5.766E+00    5.742E+00    5.718E+00    5.693E+00    5.668E+00    5.643E+00
     5.617E+00    5.591E+00    5.565E+00    5.539E+00    5.512E+00    5.485E+00    5.458E+00    5.430E+00    5.403E+00    5.375E+00
     5.347E+00    5.318E+00    5.290E+00    5.261E+00    5.233E+00    5.204E+00    5.175E+00    5.146E+00    5.117E+00    5.087E+00
     5.058E+00    5.028E+00    4.999E+00    4.969E+00    4.940E+00    4.910E+00    4.881E+00    4.851E+00    4.821E+00    4.792E+00
     4.762E+00    4.732E+00    4.702E+00    4.673E+00    4.643E+00    4.614E+00    4.584E+00    4.555E+00    4.525E+00    4.496E+00
     4.467E+00    4.438E+00    4.409E+00    4.380E+00    4.351E+00    4.323E+00    4.294E+00    4.266E+00    4.238E+00    4.210E+00
     4.182E+00    4.155E+00    4.127E+00    4.100E+00    4.073E+00    4.046E+00    4.020E+00    3.993E+00    3.967E+00    3.942E+00
     3.916E+00    3.891E+00    3.866E+00    3.841E+00    3.817E+00    3.793E+00    3.769E+00    3.745E+00    3.722E+00    3.699E+00
     3.676E+00    3.653E+00    3.631E+00    3.609E+00    3.587E+00    3.566E+00    3.544E+00    3.523E+00    3.503E+00    3.482E+00
     3.462E+00    3.442E+00    3.422E+00    3.402E+00    3.383E+00    3.364E+00    3.345E+00    3.326E+00    3.308E+00    3.289E+00
     3.271E+00    3.253E+00    3.236E+00    3.218E+00    3.201E+00    3.184E+00    3.167E+00    3.151E+00    3.134E+00    3.118E+00
     3.102E+00    3.086E+00    3.070E+00    3.055E+00    3.039E+00    3.024E+00    3.009E+00    2.994E+00    2.980E+00    2.965E+00
     2.951E+00    2.937E+00    2.923E+00    2.909E+00    2.895E+00    2.881E+00    2.868E+00    2.855E+00    2.841E+00    2.828E+00
     2.815E+00    2.802E+00    2.790E+00    2.777E+00    2.765E+00    2.752E+00    2.740E+00    2.728E+00    2.716E+00    2.704E+00
     2.692E+00    2.680E+00    2.668E+00    2.656E+00    2.645E+00    2.633E+00    2.622E+00    2.610E+00    2.599E+00    2.587E+00
     2.576E+00    2.565E+00    2.554E+00    2.542E+00    2.531E+00    2.520E+00    2.509E+00    2.498E+00    2.487E+00    2.476E+00
     2.465E+00    2.454E+00    2.443E+00    2.432E+00    2.421E+00    2.410E+00    2.399E+00    2.388E+00    2.377E+00    2.366E+00
     2.355E+00    2.344E+00    2.333E+00    2.322E+00    2.311E+00    2.300E+00    2.289E+00    2.278E+00    2.267E+00    2.256E+00
     2.245E+00    2.234E+00    2.223E+00    2.212E+00    2.201E+00    2.190E+00    2.179E+00    2.168E+00    2.156E+00    2.145E+00
     2.134E+00    2.123E+00    2.112E+00    2.101E+00    2.090E+00    2.079E+00    2.067E+00    2.056E+00    2.045E+00    2.034E+00
     2.023E+00    2.011E+00    2.000E+00    1.989E+00    1.978E+00    1.966E+00    1.955E+00    1.944E+00
 Asp      Conc. = 1.06E+01
