 LCModel (Version 6.3-1L) Copyright: S.W. Provencher.          Ref.: Magn. Reson. Med. 30:672-679 (1993).                
 Slice#2 Row#8 Col#9  PD_05_press_1_raw_act
 36 lines in following concentration table = NCONC+1
    Conc.  %SD /Cr+PCr  Metabolite                                         
   54.538 165% 3.8E-02 Ala                                                 
    0.000 999%   0.000 Asp                                                 
  313.171  57%   0.220 Cr                                                  
 1.11E+03  17%   0.780 PCr                                                 
  102.289 144% 7.2E-02 GABA                                                
  299.248  51%   0.210 Glc                                                 
  611.801  31%   0.429 Gln                                                 
 1.63E+03  14%   1.146 Glu                                                 
  643.687   4%   0.452 GPC                                                 
    0.000 999%   0.000 PCh                                                 
  403.318  16%   0.283 GSH                                                 
 1.81E+03  13%   1.269 Ins                                                 
    0.000 999%   0.000 Lac                                                 
 2.41E+03   4%   1.695 NAA                                                 
   46.677 185% 3.3E-02 NAAG                                                
  206.709  13%   0.145 Scyllo                                              
  458.758  43%   0.322 Tau                                                 
  196.186  53%   0.138 -CrCH2                                              
  643.687   4%   0.452 GPC+PCh                                             
 2.46E+03   3%   1.727 NAA+NAAG                                            
 1.42E+03   4%   1.000 Cr+PCr                                              
 2.24E+03  14%   1.575 Glu+Gln                                             
    0.000 999%   0.000 Lip13a                                              
   15.702 595% 1.1E-02 Lip13b                                              
    0.000 999%   0.000 Lip09                                               
 1.21E+03  17%   0.850 MM09                                                
    2.673 999% 1.9E-03 Lip20                                               
 2.39E+03  15%   1.680 MM20                                                
  331.070  43%   0.232 MM12                                                
 1.09E+03  27%   0.764 MM14                                                
  462.020  47%   0.324 MM17                                                
   15.702 595% 1.1E-02 Lip13a+Lip13b                                       
 1.44E+03  24%   1.008 MM14+Lip13a+Lip13b+MM12                             
 1.21E+03  17%   0.850 MM09+Lip09                                          
 2.40E+03  15%   1.682 MM20+Lip20                                          
   6 lines in following misc. output table
  FWHM = 0.046 ppm    S/N =  15                                            
  Data shift = 0.000 ppm                                                   
  Ph: -80 deg     -24.3 deg/ppm                                            
  alphaB,S = 9.4E-01,   5.1E+01                                            
   14 spline knots.   Ns = 6(1)                                            
  (11) 4 infls.   ( 5) 1 extrs.                                            
  498 points on ppm-axis = NY
      4.000000     3.992357     3.984714     3.977070     3.969427     3.961784     3.954141     3.946497     3.938854     3.931211
      3.923568     3.915925     3.908281     3.900638     3.892995     3.885352     3.877708     3.870065     3.862422     3.854779
      3.847136     3.839492     3.831849     3.824206     3.816563     3.808919     3.801276     3.793633     3.785990     3.778347
      3.770703     3.763060     3.755417     3.747774     3.740130     3.732487     3.724844     3.717201     3.709558     3.701914
      3.694271     3.686628     3.678985     3.671341     3.663698     3.656055     3.648412     3.640769     3.633125     3.625482
      3.617839     3.610196     3.602552     3.594909     3.587266     3.579623     3.571980     3.564336     3.556693     3.549050
      3.541407     3.533763     3.526120     3.518477     3.510834     3.503191     3.495547     3.487904     3.480261     3.472618
      3.464974     3.457331     3.449688     3.442045     3.434402     3.426758     3.419115     3.411472     3.403829     3.396185
      3.388542     3.380899     3.373256     3.365613     3.357969     3.350326     3.342683     3.335040     3.327396     3.319753
      3.312110     3.304467     3.296824     3.289180     3.281537     3.273894     3.266251     3.258607     3.250964     3.243321
      3.235678     3.228034     3.220391     3.212748     3.205105     3.197462     3.189818     3.182175     3.174532     3.166889
      3.159245     3.151602     3.143959     3.136316     3.128673     3.121029     3.113386     3.105743     3.098100     3.090456
      3.082813     3.075170     3.067527     3.059884     3.052240     3.044597     3.036954     3.029311     3.021667     3.014024
      3.006381     2.998738     2.991095     2.983451     2.975808     2.968165     2.960522     2.952878     2.945235     2.937592
      2.929949     2.922306     2.914662     2.907019     2.899376     2.891733     2.884089     2.876446     2.868803     2.861160
      2.853517     2.845873     2.838230     2.830587     2.822944     2.815300     2.807657     2.800014     2.792371     2.784728
      2.777084     2.769441     2.761798     2.754155     2.746511     2.738868     2.731225     2.723582     2.715939     2.708295
      2.700652     2.693009     2.685366     2.677722     2.670079     2.662436     2.654793     2.647150     2.639506     2.631863
      2.624220     2.616577     2.608933     2.601290     2.593647     2.586004     2.578361     2.570717     2.563074     2.555431
      2.547788     2.540144     2.532501     2.524858     2.517215     2.509572     2.501928     2.494285     2.486642     2.478999
      2.471355     2.463712     2.456069     2.448426     2.440783     2.433139     2.425496     2.417853     2.410210     2.402566
      2.394923     2.387280     2.379637     2.371994     2.364350     2.356707     2.349064     2.341421     2.333777     2.326134
      2.318491     2.310848     2.303205     2.295561     2.287918     2.280275     2.272632     2.264988     2.257345     2.249702
      2.242059     2.234416     2.226772     2.219129     2.211486     2.203843     2.196199     2.188556     2.180913     2.173270
      2.165627     2.157983     2.150340     2.142697     2.135054     2.127410     2.119767     2.112124     2.104481     2.096838
      2.089194     2.081551     2.073908     2.066265     2.058621     2.050978     2.043335     2.035692     2.028049     2.020405
      2.012762     2.005119     1.997476     1.989833     1.982190     1.974546     1.966903     1.959260     1.951617     1.943974
      1.936331     1.928688     1.921045     1.913402     1.905759     1.898115     1.890472     1.882829     1.875186     1.867543
      1.859900     1.852257     1.844614     1.836971     1.829327     1.821684     1.814041     1.806398     1.798755     1.791112
      1.783469     1.775826     1.768183     1.760540     1.752896     1.745253     1.737610     1.729967     1.722324     1.714681
      1.707038     1.699395     1.691752     1.684108     1.676465     1.668822     1.661179     1.653536     1.645893     1.638250
      1.630607     1.622964     1.615321     1.607677     1.600034     1.592391     1.584748     1.577105     1.569462     1.561819
      1.554176     1.546533     1.538890     1.531246     1.523603     1.515960     1.508317     1.500674     1.493031     1.485388
      1.477745     1.470102     1.462458     1.454815     1.447172     1.439529     1.431886     1.424243     1.416600     1.408957
      1.401314     1.393671     1.386027     1.378384     1.370741     1.363098     1.355455     1.347812     1.340169     1.332526
      1.324883     1.317240     1.309596     1.301953     1.294310     1.286667     1.279024     1.271381     1.263738     1.256095
      1.248452     1.240808     1.233165     1.225522     1.217879     1.210236     1.202593     1.194950     1.187307     1.179664
      1.172021     1.164377     1.156734     1.149091     1.141448     1.133805     1.126162     1.118519     1.110876     1.103233
      1.095590     1.087946     1.080303     1.072660     1.065017     1.057374     1.049731     1.042088     1.034445     1.026802
      1.019158     1.011515     1.003872     0.996229     0.988586     0.980943     0.973300     0.965657     0.958014     0.950371
      0.942727     0.935084     0.927441     0.919798     0.912155     0.904512     0.896869     0.889226     0.881583     0.873940
      0.866296     0.858653     0.851010     0.843367     0.835724     0.828081     0.820438     0.812795     0.805152     0.797508
      0.789865     0.782222     0.774579     0.766936     0.759293     0.751650     0.744007     0.736364     0.728721     0.721077
      0.713434     0.705791     0.698148     0.690505     0.682862     0.675219     0.667576     0.659933     0.652290     0.644646
      0.637003     0.629360     0.621717     0.614074     0.606431     0.598788     0.591145     0.583502     0.575858     0.568215
      0.560572     0.552929     0.545286     0.537643     0.530000     0.522357     0.514714     0.507071     0.499427     0.491784
      0.484141     0.476498     0.468855     0.461212     0.453569     0.445925     0.438282     0.430639     0.422996     0.415353
      0.407710     0.400067     0.392424     0.384780     0.377137     0.369494     0.361851     0.354208     0.346565     0.338922
      0.331278     0.323635     0.315992     0.308349     0.300706     0.293063     0.285420     0.277777     0.270133     0.262490
      0.254847     0.247204     0.239561     0.231918     0.224275     0.216631     0.208988     0.201345
 NY phased data points follow
  -9.44745E+01 -9.59524E+01 -8.92486E+01 -8.46239E+01 -7.92845E+01 -7.71133E+01 -6.90180E+01 -6.24714E+01 -5.55266E+01 -5.19032E+01
  -4.61244E+01 -4.64238E+01 -5.16663E+01 -6.16603E+01 -6.72279E+01 -6.53279E+01 -7.22511E+01 -6.70737E+01 -7.03496E+01 -7.46282E+01
  -7.54500E+01 -7.19839E+01 -7.14588E+01 -7.19738E+01 -6.88433E+01 -7.05009E+01 -6.40622E+01 -6.25377E+01 -6.00638E+01 -5.78847E+01
  -5.79891E+01 -5.50656E+01 -5.51257E+01 -5.72841E+01 -5.61993E+01 -5.78213E+01 -5.94708E+01 -5.84094E+01 -5.74169E+01 -5.68282E+01
  -5.71468E+01 -5.32343E+01 -5.54958E+01 -4.83253E+01 -4.82767E+01 -4.28441E+01 -4.27954E+01 -4.19101E+01 -4.24324E+01 -4.53851E+01
  -4.76946E+01 -4.54397E+01 -4.74401E+01 -4.66234E+01 -4.69457E+01 -4.44616E+01 -4.64144E+01 -4.19666E+01 -4.34750E+01 -4.58872E+01
  -4.94694E+01 -4.73279E+01 -4.81607E+01 -4.96622E+01 -4.86329E+01 -4.85938E+01 -5.15764E+01 -4.74367E+01 -4.96703E+01 -4.42030E+01
  -4.68625E+01 -4.24705E+01 -4.53775E+01 -3.91254E+01 -4.35244E+01 -3.98724E+01 -3.75640E+01 -3.85268E+01 -3.99186E+01 -3.74534E+01
  -3.56744E+01 -3.61445E+01 -3.66650E+01 -3.97816E+01 -3.72772E+01 -3.53522E+01 -3.31473E+01 -3.19344E+01 -2.97572E+01 -2.41037E+01
  -2.79274E+01 -2.75345E+01 -2.45798E+01 -2.71324E+01 -3.50394E+01 -2.90191E+01 -3.09673E+01 -2.98297E+01 -2.01466E+01 -5.86538E+00
   1.73782E+00  1.95415E+01  3.00649E+01  2.98414E+01  2.21171E+01  1.08629E+01 -4.10751E-01 -7.78700E+00 -1.30108E+01 -1.44193E+01
  -1.56624E+01 -2.15868E+01 -2.23193E+01 -2.75249E+01 -2.44533E+01 -2.40422E+01 -2.68055E+01 -2.52092E+01 -2.31495E+01 -2.78908E+01
  -2.39474E+01 -2.54306E+01 -2.57733E+01 -1.86128E+01 -1.63463E+00  1.31672E+01  2.42343E+01  2.86700E+01  2.59447E+01  1.79882E+01
   6.96475E+00 -1.62417E+00 -4.80053E+00 -6.80243E+00 -8.26116E+00 -1.83816E+01 -2.09280E+01 -2.21206E+01 -2.46576E+01 -2.30323E+01
  -2.59017E+01 -2.52337E+01 -2.33596E+01 -2.10772E+01 -1.96407E+01 -1.67753E+01 -1.61009E+01 -1.78891E+01 -1.78860E+01 -1.78074E+01
  -1.83303E+01 -2.40536E+01 -1.46941E+01 -1.86071E+01 -1.97819E+01 -1.78152E+01 -1.71012E+01 -1.80310E+01 -1.45928E+01 -1.48602E+01
  -1.64744E+01 -2.07760E+01 -2.13357E+01 -2.21961E+01 -1.76896E+01 -1.57160E+01 -1.48765E+01 -1.43329E+01 -1.77973E+01 -1.92514E+01
  -1.76681E+01 -1.91373E+01 -1.71408E+01 -1.75495E+01 -1.78028E+01 -2.26026E+01 -1.95789E+01 -2.05636E+01 -1.52250E+01 -1.55126E+01
  -1.86957E+01 -2.18736E+01 -2.26296E+01 -2.01851E+01 -1.83970E+01 -1.86208E+01 -1.87848E+01 -1.39110E+01 -1.31731E+01 -1.02356E+01
  -3.83901E+00 -2.38661E+00 -1.18522E+00 -2.43381E+00 -2.27938E+00  9.30301E-01 -2.60838E+00 -5.11100E+00 -9.75133E+00 -6.02306E+00
  -7.09222E+00 -4.18485E+00 -3.02109E+00  4.07321E-01  2.38232E+00  1.37759E+00 -3.42889E+00 -3.50355E+00 -9.54502E+00 -1.26983E+01
  -1.51049E+01 -1.12817E+01 -5.45798E+00 -1.38805E-01  9.23740E+00  4.30980E+00  9.78562E+00  1.10240E+01  2.61148E+00  1.18352E+00
  -1.59294E+00 -5.27918E+00 -6.02071E+00 -3.99026E+00  1.17289E+00  1.50160E+00  4.94699E+00  3.62125E+00  3.04411E+00  4.58168E+00
   5.05476E+00  6.62628E+00  8.49159E+00  7.54733E+00  8.98968E+00  1.06198E+01  1.01444E+01  9.88313E+00  9.91651E+00  7.56331E+00
   5.72515E+00 -6.20693E-01 -2.89160E+00  2.64618E-01  3.94170E+00  1.07131E+01  1.57916E+01  1.59285E+01  1.25978E+01  1.74194E+01
   1.75404E+01  1.74615E+01  1.26631E+01  1.22568E+01  1.61332E+01  2.19325E+01  2.85843E+01  3.58333E+01  5.45311E+01  7.73697E+01
   9.59837E+01  1.09803E+02  9.00643E+01  7.10756E+01  5.28158E+01  4.89591E+01  4.32042E+01  3.80595E+01  2.85537E+01  2.11062E+01
   1.64393E+01  8.42487E+00  1.10417E+01  8.60350E+00  9.55224E+00  9.99910E+00  9.38301E+00  6.47592E+00  8.27178E+00  1.16684E+01
   9.32760E+00  8.14823E+00  9.88829E+00  1.10655E+01  7.95842E+00  8.69724E+00  8.86753E+00  1.27504E+01  1.08385E+01  1.07417E+01
   1.29883E+01  1.19925E+01  7.07226E+00  9.82521E+00  1.35458E+01  1.13039E+01  1.00203E+01  9.97155E+00  1.04510E+01  9.62144E+00
   1.12408E+01  1.43586E+01  1.23914E+01  6.62454E+00  7.30617E+00  1.17514E+01  1.25053E+01  1.51219E+01  9.63586E+00  1.12811E+01
   1.45521E+01  1.54058E+01  1.38270E+01  1.69586E+01  1.43913E+01  1.36902E+01  1.10100E+01  1.53282E+01  1.62819E+01  1.34721E+01
   1.52968E+01  1.66354E+01  1.47297E+01  1.42532E+01  1.28473E+01  1.27061E+01  1.24583E+01  1.16190E+01  1.40707E+01  1.35895E+01
   1.10876E+01  1.33986E+01  1.54253E+01  1.77497E+01  1.70709E+01  1.34325E+01  1.49681E+01  1.67657E+01  1.60116E+01  1.71412E+01
   1.70334E+01  1.69068E+01  1.96683E+01  1.55061E+01  2.09829E+01  1.60879E+01  1.70224E+01  1.66301E+01  1.87142E+01  1.96802E+01
   1.79792E+01  1.18598E+01  1.58991E+01  2.01051E+01  1.69474E+01  1.71283E+01  1.41862E+01  1.49146E+01  1.46950E+01  1.14648E+01
   1.51543E+01  1.63295E+01  1.10509E+01  1.22960E+01  1.38829E+01  1.44843E+01  1.54118E+01  1.54991E+01  1.26670E+01  1.64689E+01
   1.21614E+01  1.87490E+01  1.24576E+01  1.72265E+01  1.21660E+01  1.70716E+01  1.46037E+01  1.32216E+01  1.70587E+01  1.16186E+01
   1.53876E+01  1.08022E+01  1.10122E+01  1.30899E+01  1.56198E+01  1.60104E+01  1.35947E+01  1.54597E+01  1.37351E+01  1.46106E+01
   1.48013E+01  1.73371E+01  1.34471E+01  1.36081E+01  1.55666E+01  1.89001E+01  1.93799E+01  2.05493E+01  2.10054E+01  1.90953E+01
   1.97113E+01  1.77620E+01  2.10379E+01  1.61815E+01  1.81716E+01  2.23004E+01  1.85035E+01  1.69639E+01  1.88328E+01  2.24630E+01
   2.07924E+01  2.09826E+01  2.01512E+01  2.48047E+01  2.53565E+01  2.06223E+01  2.33820E+01  2.17213E+01  1.91448E+01  2.54328E+01
   1.72591E+01  1.96523E+01  1.95791E+01  1.95784E+01  1.83032E+01  2.19097E+01  1.90914E+01  1.56439E+01  1.98531E+01  1.94889E+01
   1.42813E+01  1.55148E+01  1.66084E+01  1.77104E+01  1.56392E+01  1.78201E+01  1.62257E+01  1.55996E+01  1.38079E+01  1.46274E+01
   2.11024E+01  1.69122E+01  1.53403E+01  1.62620E+01  1.66171E+01  1.77332E+01  1.44958E+01  1.65357E+01  1.35708E+01  1.52433E+01
   1.84976E+01  1.60229E+01  1.28497E+01  1.83958E+01  1.62186E+01  1.42109E+01  1.68567E+01  1.29918E+01  1.43606E+01  1.45003E+01
   1.39202E+01  1.24772E+01  1.34295E+01  1.56846E+01  1.48143E+01  1.65131E+01  1.54364E+01  1.25843E+01  1.10462E+01  1.59735E+01
   1.70159E+01  9.58269E+00  1.41517E+01  1.32308E+01  1.38838E+01  1.45435E+01  1.29768E+01  1.38079E+01  1.39180E+01  1.43758E+01
   1.56319E+01  1.78931E+01  1.17953E+01  1.56151E+01  1.48858E+01  1.57270E+01  1.54807E+01  1.64296E+01  1.40892E+01  1.55697E+01
   1.76761E+01  1.67856E+01  1.63448E+01  1.80536E+01  1.44657E+01  1.38725E+01  1.66013E+01  1.54876E+01
 NY points of the fit to the data follow
  -8.44189E+01 -8.38950E+01 -8.33130E+01 -8.21165E+01 -7.98255E+01 -7.61980E+01 -7.06780E+01 -6.34709E+01 -5.56675E+01 -4.94043E+01
  -4.72735E+01 -4.99747E+01 -5.52704E+01 -6.01063E+01 -6.27461E+01 -6.37067E+01 -6.52822E+01 -6.86302E+01 -7.05585E+01 -7.11982E+01
  -7.08901E+01 -7.02991E+01 -6.98471E+01 -6.95766E+01 -6.92322E+01 -6.84626E+01 -6.69323E+01 -6.45284E+01 -6.13484E+01 -5.77845E+01
  -5.48218E+01 -5.33015E+01 -5.32361E+01 -5.39458E+01 -5.50489E+01 -5.61930E+01 -5.77588E+01 -6.01014E+01 -6.14660E+01 -6.13652E+01
  -6.02472E+01 -5.83472E+01 -5.57367E+01 -5.22461E+01 -4.83366E+01 -4.45657E+01 -4.21516E+01 -4.24715E+01 -4.52078E+01 -4.85186E+01
  -5.07624E+01 -5.13518E+01 -5.12848E+01 -5.18730E+01 -5.25351E+01 -5.19346E+01 -5.03022E+01 -4.85185E+01 -4.69590E+01 -4.60401E+01
  -4.60332E+01 -4.67941E+01 -4.77719E+01 -4.81830E+01 -4.77335E+01 -4.68490E+01 -4.59376E+01 -4.50682E+01 -4.43370E+01 -4.34746E+01
  -4.24981E+01 -4.14802E+01 -4.04837E+01 -3.96302E+01 -3.88965E+01 -3.82998E+01 -3.82617E+01 -3.88241E+01 -3.96835E+01 -4.01798E+01
  -4.00329E+01 -3.93879E+01 -3.86885E+01 -3.80439E+01 -3.67191E+01 -3.45210E+01 -3.17076E+01 -2.90285E+01 -2.77953E+01 -2.85966E+01
  -3.03964E+01 -3.17998E+01 -3.22602E+01 -3.21923E+01 -3.27060E+01 -3.38304E+01 -3.31327E+01 -2.94436E+01 -2.23508E+01 -1.10095E+01
   3.90477E+00  1.95222E+01  3.06407E+01  3.19344E+01  2.30718E+01  9.84214E+00 -9.86692E-01 -6.43446E+00 -8.96809E+00 -1.37799E+01
  -2.20038E+01 -2.66597E+01 -2.78571E+01 -2.81496E+01 -2.81359E+01 -2.80955E+01 -2.79725E+01 -2.77707E+01 -2.75222E+01 -2.71653E+01
  -2.64998E+01 -2.47994E+01 -2.09805E+01 -1.39859E+01 -3.03485E+00  1.04301E+01  2.29939E+01  2.97040E+01  2.69336E+01  1.69841E+01
   6.45752E+00 -8.06505E-02 -2.68402E+00 -5.11475E+00 -1.16644E+01 -1.94245E+01 -2.21310E+01 -2.24410E+01 -2.17387E+01 -2.06320E+01
  -1.97208E+01 -1.91970E+01 -1.88604E+01 -1.87303E+01 -1.86778E+01 -1.85408E+01 -1.84178E+01 -1.83731E+01 -1.83868E+01 -1.85126E+01
  -1.85562E+01 -1.85386E+01 -1.84601E+01 -1.82996E+01 -1.80519E+01 -1.77507E+01 -1.74897E+01 -1.73495E+01 -1.74462E+01 -1.77695E+01
  -1.81350E+01 -1.82528E+01 -1.78233E+01 -1.69149E+01 -1.59680E+01 -1.55014E+01 -1.57745E+01 -1.64824E+01 -1.69531E+01 -1.68616E+01
  -1.66703E+01 -1.66721E+01 -1.70415E+01 -1.76727E+01 -1.80765E+01 -1.82209E+01 -1.80306E+01 -1.74022E+01 -1.65633E+01 -1.59761E+01
  -1.58848E+01 -1.60730E+01 -1.60771E+01 -1.56281E+01 -1.49482E+01 -1.45231E+01 -1.41452E+01 -1.30880E+01 -1.11033E+01 -8.61902E+00
  -6.79117E+00 -6.08228E+00 -6.22778E+00 -6.75900E+00 -7.10387E+00 -7.03310E+00 -6.91601E+00 -6.62124E+00 -5.97316E+00 -4.97605E+00
  -3.65463E+00 -2.15276E+00 -7.91234E-01  2.70039E-01  5.91954E-01 -1.41591E-01 -1.96315E+00 -4.44986E+00 -6.75872E+00 -8.05275E+00
  -7.96116E+00 -6.74396E+00 -4.76754E+00 -1.88748E+00  1.49112E+00  4.69043E+00  6.42412E+00  5.78472E+00  2.58761E+00 -1.59080E+00
  -5.03237E+00 -7.06415E+00 -7.81721E+00 -7.09792E+00 -4.83070E+00 -1.20914E+00  1.73327E+00  3.23298E+00  3.73731E+00  4.13482E+00
   4.81162E+00  5.22035E+00  5.32722E+00  5.85605E+00  6.85970E+00  7.93763E+00  8.99604E+00  9.76402E+00  9.91609E+00  9.27406E+00
   7.93061E+00  6.64553E+00  6.21584E+00  6.78137E+00  7.90988E+00  9.34813E+00  1.06961E+01  1.14413E+01  1.17030E+01  1.19226E+01
   1.23755E+01  1.30612E+01  1.39175E+01  1.50675E+01  1.68234E+01  2.02436E+01  2.67969E+01  3.88964E+01  5.74309E+01  7.93010E+01
   9.76187E+01  1.03517E+02  9.32684E+01  7.37743E+01  5.62082E+01  4.63997E+01  4.23987E+01  3.68712E+01  2.46803E+01  1.53031E+01
   1.25726E+01  1.15176E+01  1.10427E+01  1.10643E+01  1.11899E+01  1.11985E+01  1.10929E+01  1.08814E+01  1.06109E+01  1.03746E+01
   1.01689E+01  9.94543E+00  9.75935E+00  9.66309E+00  9.63777E+00  9.65369E+00  9.67927E+00  9.71215E+00  9.78219E+00  9.87119E+00
   9.96520E+00  1.00744E+01  1.01898E+01  1.03081E+01  1.04411E+01  1.05936E+01  1.07610E+01  1.09367E+01  1.11203E+01  1.13096E+01
   1.15025E+01  1.16988E+01  1.18904E+01  1.20720E+01  1.22401E+01  1.23929E+01  1.25295E+01  1.26484E+01  1.27497E+01  1.28353E+01
   1.29061E+01  1.29637E+01  1.30119E+01  1.30541E+01  1.30939E+01  1.31360E+01  1.31852E+01  1.32462E+01  1.33235E+01  1.34223E+01
   1.35511E+01  1.37237E+01  1.39437E+01  1.42045E+01  1.44711E+01  1.46820E+01  1.47768E+01  1.47262E+01  1.45828E+01  1.44805E+01
   1.45188E+01  1.47087E+01  1.50127E+01  1.53795E+01  1.57908E+01  1.62711E+01  1.66784E+01  1.68813E+01  1.69416E+01  1.69629E+01
   1.70058E+01  1.70481E+01  1.69882E+01  1.68443E+01  1.67195E+01  1.66029E+01  1.64840E+01  1.63620E+01  1.62382E+01  1.61156E+01
   1.59960E+01  1.58811E+01  1.57711E+01  1.56664E+01  1.55667E+01  1.54720E+01  1.53815E+01  1.52948E+01  1.52114E+01  1.51321E+01
   1.50573E+01  1.49881E+01  1.49243E+01  1.48662E+01  1.48130E+01  1.47648E+01  1.47208E+01  1.46805E+01  1.46428E+01  1.46071E+01
   1.45730E+01  1.45410E+01  1.45114E+01  1.44849E+01  1.44617E+01  1.44430E+01  1.44298E+01  1.44236E+01  1.44257E+01  1.44371E+01
   1.44587E+01  1.44921E+01  1.45386E+01  1.45999E+01  1.46772E+01  1.47719E+01  1.48851E+01  1.50188E+01  1.51746E+01  1.53543E+01
   1.55590E+01  1.57899E+01  1.60480E+01  1.63341E+01  1.66483E+01  1.69903E+01  1.73582E+01  1.77496E+01  1.81612E+01  1.85887E+01
   1.90265E+01  1.94680E+01  1.99050E+01  2.03294E+01  2.07324E+01  2.11052E+01  2.14390E+01  2.17254E+01  2.19569E+01  2.21279E+01
   2.22341E+01  2.22734E+01  2.22450E+01  2.21505E+01  2.19932E+01  2.17784E+01  2.15128E+01  2.12043E+01  2.08611E+01  2.04920E+01
   2.01056E+01  1.97106E+01  1.93147E+01  1.89251E+01  1.85470E+01  1.81855E+01  1.78439E+01  1.75254E+01  1.72312E+01  1.69621E+01
   1.67177E+01  1.64976E+01  1.63007E+01  1.61258E+01  1.59712E+01  1.58351E+01  1.57155E+01  1.56109E+01  1.55198E+01  1.54408E+01
   1.53723E+01  1.53130E+01  1.52616E+01  1.52174E+01  1.51795E+01  1.51472E+01  1.51196E+01  1.50961E+01  1.50761E+01  1.50596E+01
   1.50459E+01  1.50350E+01  1.50260E+01  1.50190E+01  1.50137E+01  1.50102E+01  1.50081E+01  1.50074E+01  1.50076E+01  1.50089E+01
   1.50111E+01  1.50144E+01  1.50184E+01  1.50232E+01  1.50285E+01  1.50344E+01  1.50409E+01  1.50482E+01  1.50559E+01  1.50640E+01
   1.50724E+01  1.50813E+01  1.50906E+01  1.51005E+01  1.51106E+01  1.51210E+01  1.51316E+01  1.51427E+01  1.51542E+01  1.51660E+01
   1.51780E+01  1.51902E+01  1.52027E+01  1.52156E+01  1.52288E+01  1.52424E+01  1.52561E+01  1.52700E+01  1.52842E+01  1.52989E+01
   1.53138E+01  1.53291E+01  1.53444E+01  1.53602E+01  1.53762E+01  1.53928E+01  1.54096E+01  1.54267E+01
 NY background values follow
    -8.920E+01   -8.860E+01   -8.800E+01   -8.739E+01   -8.679E+01   -8.619E+01   -8.559E+01   -8.499E+01   -8.439E+01   -8.379E+01
    -8.319E+01   -8.259E+01   -8.199E+01   -8.139E+01   -8.079E+01   -8.019E+01   -7.959E+01   -7.900E+01   -7.840E+01   -7.780E+01
    -7.721E+01   -7.662E+01   -7.602E+01   -7.543E+01   -7.484E+01   -7.425E+01   -7.367E+01   -7.308E+01   -7.250E+01   -7.191E+01
    -7.133E+01   -7.075E+01   -7.017E+01   -6.959E+01   -6.902E+01   -6.844E+01   -6.787E+01   -6.730E+01   -6.673E+01   -6.617E+01
    -6.560E+01   -6.504E+01   -6.448E+01   -6.393E+01   -6.337E+01   -6.282E+01   -6.227E+01   -6.172E+01   -6.117E+01   -6.063E+01
    -6.009E+01   -5.955E+01   -5.902E+01   -5.849E+01   -5.796E+01   -5.743E+01   -5.690E+01   -5.638E+01   -5.586E+01   -5.534E+01
    -5.483E+01   -5.432E+01   -5.381E+01   -5.331E+01   -5.280E+01   -5.230E+01   -5.180E+01   -5.131E+01   -5.082E+01   -5.033E+01
    -4.984E+01   -4.936E+01   -4.888E+01   -4.840E+01   -4.793E+01   -4.746E+01   -4.699E+01   -4.652E+01   -4.606E+01   -4.560E+01
    -4.515E+01   -4.469E+01   -4.424E+01   -4.380E+01   -4.335E+01   -4.291E+01   -4.247E+01   -4.204E+01   -4.161E+01   -4.118E+01
    -4.076E+01   -4.034E+01   -3.992E+01   -3.950E+01   -3.909E+01   -3.868E+01   -3.828E+01   -3.788E+01   -3.748E+01   -3.708E+01
    -3.669E+01   -3.630E+01   -3.591E+01   -3.553E+01   -3.515E+01   -3.477E+01   -3.439E+01   -3.402E+01   -3.365E+01   -3.328E+01
    -3.292E+01   -3.255E+01   -3.219E+01   -3.184E+01   -3.148E+01   -3.113E+01   -3.078E+01   -3.043E+01   -3.009E+01   -2.974E+01
    -2.940E+01   -2.906E+01   -2.873E+01   -2.839E+01   -2.806E+01   -2.773E+01   -2.740E+01   -2.708E+01   -2.675E+01   -2.643E+01
    -2.611E+01   -2.580E+01   -2.548E+01   -2.517E+01   -2.485E+01   -2.454E+01   -2.423E+01   -2.393E+01   -2.362E+01   -2.332E+01
    -2.302E+01   -2.272E+01   -2.242E+01   -2.212E+01   -2.182E+01   -2.153E+01   -2.124E+01   -2.095E+01   -2.066E+01   -2.037E+01
    -2.008E+01   -1.980E+01   -1.951E+01   -1.923E+01   -1.895E+01   -1.867E+01   -1.839E+01   -1.811E+01   -1.784E+01   -1.756E+01
    -1.729E+01   -1.702E+01   -1.674E+01   -1.647E+01   -1.620E+01   -1.594E+01   -1.567E+01   -1.540E+01   -1.514E+01   -1.488E+01
    -1.461E+01   -1.435E+01   -1.409E+01   -1.383E+01   -1.357E+01   -1.331E+01   -1.305E+01   -1.280E+01   -1.254E+01   -1.229E+01
    -1.203E+01   -1.178E+01   -1.153E+01   -1.127E+01   -1.102E+01   -1.077E+01   -1.052E+01   -1.027E+01   -1.003E+01   -9.780E+00
    -9.534E+00   -9.289E+00   -9.046E+00   -8.803E+00   -8.561E+00   -8.321E+00   -8.082E+00   -7.844E+00   -7.607E+00   -7.371E+00
    -7.137E+00   -6.904E+00   -6.672E+00   -6.442E+00   -6.213E+00   -5.986E+00   -5.760E+00   -5.535E+00   -5.312E+00   -5.091E+00
    -4.871E+00   -4.653E+00   -4.436E+00   -4.222E+00   -4.008E+00   -3.797E+00   -3.587E+00   -3.380E+00   -3.174E+00   -2.970E+00
    -2.767E+00   -2.567E+00   -2.369E+00   -2.172E+00   -1.978E+00   -1.786E+00   -1.595E+00   -1.407E+00   -1.221E+00   -1.037E+00
    -8.554E-01   -6.755E-01   -4.976E-01   -3.217E-01   -1.478E-01    2.421E-02    1.943E-01    3.624E-01    5.286E-01    6.930E-01
     8.554E-01    1.016E+00    1.175E+00    1.332E+00    1.487E+00    1.641E+00    1.792E+00    1.942E+00    2.091E+00    2.237E+00
     2.382E+00    2.525E+00    2.667E+00    2.807E+00    2.945E+00    3.082E+00    3.218E+00    3.351E+00    3.484E+00    3.614E+00
     3.743E+00    3.871E+00    3.997E+00    4.122E+00    4.246E+00    4.368E+00    4.489E+00    4.608E+00    4.726E+00    4.843E+00
     4.958E+00    5.072E+00    5.185E+00    5.296E+00    5.407E+00    5.516E+00    5.624E+00    5.730E+00    5.836E+00    5.940E+00
     6.043E+00    6.145E+00    6.246E+00    6.346E+00    6.444E+00    6.541E+00    6.637E+00    6.732E+00    6.826E+00    6.919E+00
     7.011E+00    7.101E+00    7.191E+00    7.279E+00    7.367E+00    7.453E+00    7.538E+00    7.623E+00    7.706E+00    7.788E+00
     7.869E+00    7.950E+00    8.029E+00    8.107E+00    8.185E+00    8.261E+00    8.336E+00    8.411E+00    8.484E+00    8.557E+00
     8.629E+00    8.699E+00    8.769E+00    8.838E+00    8.906E+00    8.974E+00    9.040E+00    9.106E+00    9.170E+00    9.234E+00
     9.297E+00    9.359E+00    9.421E+00    9.482E+00    9.542E+00    9.601E+00    9.659E+00    9.717E+00    9.774E+00    9.830E+00
     9.886E+00    9.941E+00    9.995E+00    1.005E+01    1.010E+01    1.015E+01    1.021E+01    1.026E+01    1.031E+01    1.036E+01
     1.041E+01    1.046E+01    1.050E+01    1.055E+01    1.060E+01    1.065E+01    1.069E+01    1.074E+01    1.078E+01    1.083E+01
     1.087E+01    1.092E+01    1.096E+01    1.100E+01    1.105E+01    1.109E+01    1.113E+01    1.117E+01    1.121E+01    1.125E+01
     1.130E+01    1.134E+01    1.138E+01    1.142E+01    1.146E+01    1.149E+01    1.153E+01    1.157E+01    1.161E+01    1.165E+01
     1.169E+01    1.173E+01    1.176E+01    1.180E+01    1.184E+01    1.187E+01    1.191E+01    1.195E+01    1.198E+01    1.202E+01
     1.205E+01    1.209E+01    1.212E+01    1.216E+01    1.219E+01    1.223E+01    1.226E+01    1.230E+01    1.233E+01    1.236E+01
     1.240E+01    1.243E+01    1.246E+01    1.250E+01    1.253E+01    1.256E+01    1.260E+01    1.263E+01    1.266E+01    1.269E+01
     1.272E+01    1.276E+01    1.279E+01    1.282E+01    1.285E+01    1.288E+01    1.291E+01    1.294E+01    1.297E+01    1.301E+01
     1.304E+01    1.307E+01    1.310E+01    1.313E+01    1.316E+01    1.319E+01    1.322E+01    1.325E+01    1.328E+01    1.331E+01
     1.333E+01    1.336E+01    1.339E+01    1.342E+01    1.345E+01    1.348E+01    1.351E+01    1.353E+01    1.356E+01    1.359E+01
     1.362E+01    1.364E+01    1.367E+01    1.370E+01    1.372E+01    1.375E+01    1.378E+01    1.380E+01    1.383E+01    1.385E+01
     1.388E+01    1.391E+01    1.393E+01    1.396E+01    1.398E+01    1.400E+01    1.403E+01    1.405E+01    1.408E+01    1.410E+01
     1.412E+01    1.415E+01    1.417E+01    1.419E+01    1.421E+01    1.423E+01    1.426E+01    1.428E+01    1.430E+01    1.432E+01
     1.434E+01    1.436E+01    1.438E+01    1.440E+01    1.442E+01    1.444E+01    1.446E+01    1.448E+01    1.450E+01    1.452E+01
     1.454E+01    1.456E+01    1.458E+01    1.460E+01    1.462E+01    1.464E+01    1.466E+01    1.468E+01    1.470E+01    1.472E+01
     1.474E+01    1.476E+01    1.478E+01    1.480E+01    1.482E+01    1.484E+01    1.486E+01    1.488E+01    1.490E+01    1.492E+01
     1.494E+01    1.496E+01    1.498E+01    1.500E+01    1.502E+01    1.504E+01    1.506E+01    1.509E+01
 Ala      Conc. = 5.45E+01
