 LCModel (Version 6.3-1L) Copyright: S.W. Provencher.          Ref.: Magn. Reson. Med. 30:672-679 (1993).                
 Slice#1 Row#8 Col#2  PD_05_press_1_raw_act
 36 lines in following concentration table = NCONC+1
    Conc.  %SD /Cr+PCr  Metabolite                                         
    2.189 999% 1.7E-02 Ala                                                 
   36.087  79%   0.275 Asp                                                 
  131.114  16%   1.000 Cr                                                  
    0.000 999%   0.000 PCr                                                 
   18.375  95%   0.140 GABA                                                
   16.798 104%   0.128 Glc                                                 
   60.359 151%   0.460 Gln                                                 
  271.157  39%   2.068 Glu                                                 
    6.710 999% 5.1E-02 GPC                                                 
   45.092 161%   0.344 PCh                                                 
   72.834  41%   0.556 GSH                                                 
  243.903  42%   1.860 Ins                                                 
    0.000 999%   0.000 Lac                                                 
  248.360   9%   1.894 NAA                                                 
    0.000 999%   0.000 NAAG                                                
   10.588  50% 8.1E-02 Scyllo                                              
   38.004  75%   0.290 Tau                                                 
  110.142  28%   0.840 -CrCH2                                              
   51.803  15%   0.395 GPC+PCh                                             
  248.360   9%   1.894 NAA+NAAG                                            
  131.114  16%   1.000 Cr+PCr                                              
  331.516  45%   2.528 Glu+Gln                                             
    0.000 999%   0.000 Lip13a                                              
    0.000 999%   0.000 Lip13b                                              
    0.000 999%   0.000 Lip09                                               
  130.991  44%   0.999 MM09                                                
 1.50E-04 999% 1.1E-06 Lip20                                               
  197.452  44%   1.506 MM20                                                
   39.287  44%   0.300 MM12                                                
   96.374  46%   0.735 MM14                                                
   49.128  46%   0.375 MM17                                                
    0.000 999%   0.000 Lip13a+Lip13b                                       
  135.661  45%   1.035 MM14+Lip13a+Lip13b+MM12                             
  130.991  44%   0.999 MM09+Lip09                                          
  197.453  44%   1.506 MM20+Lip20                                          
   6 lines in following misc. output table
  FWHM = 0.054 ppm    S/N =   3                                            
  Data shift =-0.008 ppm                                                   
  Ph: -46 deg     -15.0 deg/ppm                                            
  alphaB,S = 8.3E-01,   2.6E+01                                            
   14 spline knots.   Ns = 6(1)                                            
  (11) 6 infls.   (11) 1 extrs.                                            
  498 points on ppm-axis = NY
      4.000000     3.992357     3.984714     3.977070     3.969427     3.961784     3.954141     3.946497     3.938854     3.931211
      3.923568     3.915925     3.908281     3.900638     3.892995     3.885352     3.877708     3.870065     3.862422     3.854779
      3.847136     3.839492     3.831849     3.824206     3.816563     3.808919     3.801276     3.793633     3.785990     3.778347
      3.770703     3.763060     3.755417     3.747774     3.740130     3.732487     3.724844     3.717201     3.709558     3.701914
      3.694271     3.686628     3.678985     3.671341     3.663698     3.656055     3.648412     3.640769     3.633125     3.625482
      3.617839     3.610196     3.602552     3.594909     3.587266     3.579623     3.571980     3.564336     3.556693     3.549050
      3.541407     3.533763     3.526120     3.518477     3.510834     3.503191     3.495547     3.487904     3.480261     3.472618
      3.464974     3.457331     3.449688     3.442045     3.434402     3.426758     3.419115     3.411472     3.403829     3.396185
      3.388542     3.380899     3.373256     3.365613     3.357969     3.350326     3.342683     3.335040     3.327396     3.319753
      3.312110     3.304467     3.296824     3.289180     3.281537     3.273894     3.266251     3.258607     3.250964     3.243321
      3.235678     3.228034     3.220391     3.212748     3.205105     3.197462     3.189818     3.182175     3.174532     3.166889
      3.159245     3.151602     3.143959     3.136316     3.128673     3.121029     3.113386     3.105743     3.098100     3.090456
      3.082813     3.075170     3.067527     3.059884     3.052240     3.044597     3.036954     3.029311     3.021667     3.014024
      3.006381     2.998738     2.991095     2.983451     2.975808     2.968165     2.960522     2.952878     2.945235     2.937592
      2.929949     2.922306     2.914662     2.907019     2.899376     2.891733     2.884089     2.876446     2.868803     2.861160
      2.853517     2.845873     2.838230     2.830587     2.822944     2.815300     2.807657     2.800014     2.792371     2.784728
      2.777084     2.769441     2.761798     2.754155     2.746511     2.738868     2.731225     2.723582     2.715939     2.708295
      2.700652     2.693009     2.685366     2.677722     2.670079     2.662436     2.654793     2.647150     2.639506     2.631863
      2.624220     2.616577     2.608933     2.601290     2.593647     2.586004     2.578361     2.570717     2.563074     2.555431
      2.547788     2.540144     2.532501     2.524858     2.517215     2.509572     2.501928     2.494285     2.486642     2.478999
      2.471355     2.463712     2.456069     2.448426     2.440783     2.433139     2.425496     2.417853     2.410210     2.402566
      2.394923     2.387280     2.379637     2.371994     2.364350     2.356707     2.349064     2.341421     2.333777     2.326134
      2.318491     2.310848     2.303205     2.295561     2.287918     2.280275     2.272632     2.264988     2.257345     2.249702
      2.242059     2.234416     2.226772     2.219129     2.211486     2.203843     2.196199     2.188556     2.180913     2.173270
      2.165627     2.157983     2.150340     2.142697     2.135054     2.127410     2.119767     2.112124     2.104481     2.096838
      2.089194     2.081551     2.073908     2.066265     2.058621     2.050978     2.043335     2.035692     2.028049     2.020405
      2.012762     2.005119     1.997476     1.989833     1.982190     1.974546     1.966903     1.959260     1.951617     1.943974
      1.936331     1.928688     1.921045     1.913402     1.905759     1.898115     1.890472     1.882829     1.875186     1.867543
      1.859900     1.852257     1.844614     1.836971     1.829327     1.821684     1.814041     1.806398     1.798755     1.791112
      1.783469     1.775826     1.768183     1.760540     1.752896     1.745253     1.737610     1.729967     1.722324     1.714681
      1.707038     1.699395     1.691752     1.684108     1.676465     1.668822     1.661179     1.653536     1.645893     1.638250
      1.630607     1.622964     1.615321     1.607677     1.600034     1.592391     1.584748     1.577105     1.569462     1.561819
      1.554176     1.546533     1.538890     1.531246     1.523603     1.515960     1.508317     1.500674     1.493031     1.485388
      1.477745     1.470102     1.462458     1.454815     1.447172     1.439529     1.431886     1.424243     1.416600     1.408957
      1.401314     1.393671     1.386027     1.378384     1.370741     1.363098     1.355455     1.347812     1.340169     1.332526
      1.324883     1.317240     1.309596     1.301953     1.294310     1.286667     1.279024     1.271381     1.263738     1.256095
      1.248452     1.240808     1.233165     1.225522     1.217879     1.210236     1.202593     1.194950     1.187307     1.179664
      1.172021     1.164377     1.156734     1.149091     1.141448     1.133805     1.126162     1.118519     1.110876     1.103233
      1.095590     1.087946     1.080303     1.072660     1.065017     1.057374     1.049731     1.042088     1.034445     1.026802
      1.019158     1.011515     1.003872     0.996229     0.988586     0.980943     0.973300     0.965657     0.958014     0.950371
      0.942727     0.935084     0.927441     0.919798     0.912155     0.904512     0.896869     0.889226     0.881583     0.873940
      0.866296     0.858653     0.851010     0.843367     0.835724     0.828081     0.820438     0.812795     0.805152     0.797508
      0.789865     0.782222     0.774579     0.766936     0.759293     0.751650     0.744007     0.736364     0.728721     0.721077
      0.713434     0.705791     0.698148     0.690505     0.682862     0.675219     0.667576     0.659933     0.652290     0.644646
      0.637003     0.629360     0.621717     0.614074     0.606431     0.598788     0.591145     0.583502     0.575858     0.568215
      0.560572     0.552929     0.545286     0.537643     0.530000     0.522357     0.514714     0.507071     0.499427     0.491784
      0.484141     0.476498     0.468855     0.461212     0.453569     0.445925     0.438282     0.430639     0.422996     0.415353
      0.407710     0.400067     0.392424     0.384780     0.377137     0.369494     0.361851     0.354208     0.346565     0.338922
      0.331278     0.323635     0.315992     0.308349     0.300706     0.293063     0.285420     0.277777     0.270133     0.262490
      0.254847     0.247204     0.239561     0.231918     0.224275     0.216631     0.208988     0.201345
 NY phased data points follow
  -3.25015E+01 -3.29394E+01 -3.24878E+01 -3.09889E+01 -3.25514E+01 -3.01527E+01 -2.94815E+01 -2.61811E+01 -2.96477E+01 -2.83475E+01
  -2.57806E+01 -2.60455E+01 -2.69706E+01 -2.64049E+01 -2.58558E+01 -2.59957E+01 -2.70172E+01 -2.58723E+01 -2.44424E+01 -2.36079E+01
  -2.37635E+01 -2.58476E+01 -2.62574E+01 -2.68470E+01 -2.25676E+01 -2.33002E+01 -2.19232E+01 -2.18230E+01 -2.08639E+01 -2.18450E+01
  -2.42574E+01 -2.07738E+01 -1.98700E+01 -2.17924E+01 -2.13612E+01 -2.02645E+01 -1.92962E+01 -1.95263E+01 -1.92936E+01 -2.23019E+01
  -1.84439E+01 -2.10192E+01 -1.71892E+01 -1.78565E+01 -1.77220E+01 -1.92115E+01 -2.00677E+01 -1.79114E+01 -1.72257E+01 -1.78177E+01
  -1.83508E+01 -2.00637E+01 -1.90312E+01 -1.70239E+01 -1.78411E+01 -1.69372E+01 -1.75565E+01 -1.82820E+01 -1.93687E+01 -1.57063E+01
  -1.89126E+01 -1.81071E+01 -1.55919E+01 -1.77276E+01 -1.57043E+01 -1.69109E+01 -1.50334E+01 -1.74577E+01 -1.63670E+01 -1.72884E+01
  -1.58240E+01 -1.48345E+01 -1.63702E+01 -1.54654E+01 -1.47556E+01 -1.55469E+01 -1.63465E+01 -1.71313E+01 -1.39128E+01 -1.38092E+01
  -1.19131E+01 -1.42853E+01 -1.31678E+01 -1.30955E+01 -1.31719E+01 -1.39697E+01 -1.37610E+01 -1.40818E+01 -1.30331E+01 -1.30555E+01
  -1.20152E+01 -1.04196E+01 -1.27584E+01 -1.47110E+01 -1.23669E+01 -1.21636E+01 -9.63285E+00 -1.29039E+01 -1.07174E+01 -1.10641E+01
  -1.04250E+01 -9.67125E+00 -5.62469E+00 -7.06090E+00 -7.29323E+00 -9.51641E+00 -8.09196E+00 -9.47903E+00 -9.08195E+00 -1.40372E+01
  -1.09551E+01 -8.93011E+00 -9.34123E+00 -1.17720E+01 -8.36125E+00 -8.38176E+00 -1.04415E+01 -8.51312E+00 -8.48287E+00 -1.06883E+01
  -9.45802E+00 -1.07608E+01 -9.59229E+00 -8.46763E+00 -8.34087E+00 -6.52645E+00 -2.52602E+00 -4.82113E+00 -5.20191E+00 -6.36670E+00
  -4.50365E+00 -7.50709E+00 -5.85575E+00 -7.24371E+00 -6.96715E+00 -7.60829E+00 -7.35903E+00 -8.87849E+00 -6.92194E+00 -1.03507E+01
  -7.52482E+00 -8.62357E+00 -7.75904E+00 -7.40098E+00 -7.33140E+00 -5.91463E+00 -9.90827E+00 -7.67677E+00 -9.86424E+00 -8.90411E+00
  -7.83939E+00 -5.13906E+00 -7.98559E+00 -8.86529E+00 -7.60774E+00 -8.40054E+00 -7.88987E+00 -7.36684E+00 -9.50993E+00 -7.03974E+00
  -5.22583E+00 -6.83514E+00 -8.21471E+00 -9.26648E+00 -1.02108E+01 -7.55693E+00 -7.56918E+00 -8.40806E+00 -7.72188E+00 -7.56566E+00
  -6.72063E+00 -5.86067E+00 -6.58627E+00 -6.42826E+00 -7.46114E+00 -5.65297E+00 -9.17732E+00 -8.51393E+00 -4.69222E+00 -5.25096E+00
  -4.35830E+00 -5.99997E+00 -4.49678E+00 -4.80021E+00 -6.84746E+00 -3.85169E+00 -5.13611E+00 -6.33819E+00 -5.65152E+00 -6.94899E+00
  -6.48494E+00 -3.96272E+00 -5.75765E+00 -6.47571E+00 -5.65806E+00 -7.06501E+00 -2.57668E+00 -6.38492E+00 -4.59720E+00 -3.97644E+00
  -4.27446E+00 -2.69034E+00 -6.06176E+00 -5.13386E+00 -3.22437E+00 -2.68855E+00 -3.61355E+00 -2.24591E+00 -3.10912E+00 -4.07963E+00
  -7.45694E+00 -4.85725E+00 -5.08658E+00 -1.66907E+00 -3.12777E+00  3.19705E-02 -2.49997E+00 -2.16742E+00 -5.04393E+00 -2.32201E+00
  -2.76442E+00 -3.94616E+00 -4.41320E+00 -2.36794E+00 -5.61542E+00 -2.72535E+00 -3.06349E+00 -2.46261E+00 -9.03439E-01 -1.98891E+00
  -5.06871E+00 -2.09489E+00 -1.83549E+00 -2.92197E+00 -1.78871E+00 -4.45803E+00 -3.66678E+00  4.15046E-01 -1.04415E+00 -1.05923E+00
  -2.78836E+00 -3.75677E+00 -3.11926E+00 -2.23041E+00 -2.07784E-01  2.80501E-01 -2.01857E+00 -1.22906E+00  1.71753E+00 -1.09438E+00
  -3.57523E-01 -7.83161E-01 -2.76699E+00 -2.95251E+00  4.25014E-01 -1.09315E+00  1.64478E+00  1.43847E+00  3.98743E+00  5.73557E+00
   7.04094E+00  5.18860E+00  7.77748E+00  4.38704E+00  3.84823E+00  1.32250E+00  1.52221E+00  1.07486E+00  6.02411E-01 -1.34176E+00
  -2.37018E+00  7.14145E-01 -2.09277E+00 -2.70789E+00 -1.10502E-01 -9.51611E-01 -2.91553E-01 -1.76672E+00 -1.93094E+00 -1.40735E+00
  -8.33789E-01 -8.92370E-01 -1.61768E+00  2.18673E-01 -8.00348E-01 -1.76188E+00 -2.34249E+00 -7.32484E-01 -1.12041E+00 -1.46086E+00
  -4.95461E-02 -1.03090E+00 -1.43110E+00 -1.98998E+00 -8.20448E-02 -4.91076E+00 -6.69821E-01  6.70756E-01 -2.45609E+00  4.91202E-01
   2.19036E-01 -8.66347E-01 -8.87166E-01 -1.47401E+00 -1.10699E-01 -3.24005E+00 -2.20887E+00  8.56294E-01 -6.93606E-01 -1.90183E+00
   2.21240E-01 -1.01477E+00  3.79075E-01 -1.95193E+00 -2.93682E-01 -1.00838E+00 -9.42389E-01 -1.02526E+00 -5.41037E-01 -3.80027E-01
   8.60858E-01 -1.92695E+00 -2.14728E+00 -9.08539E-01 -4.15359E+00 -1.21618E-01  5.37040E-02 -1.44117E+00 -2.01442E+00 -8.72985E-01
  -8.35200E-01 -1.07052E+00 -3.97200E-01 -2.39857E+00 -2.74840E+00 -5.51130E-01 -1.16620E+00 -1.91866E+00 -2.23378E+00 -1.53780E+00
   2.19930E+00 -4.60932E-01 -2.35561E-02 -2.03059E+00 -8.79468E-01 -8.14196E-01  4.59913E-01  8.57058E-01  1.12260E+00 -6.34273E-01
   4.29562E-01 -4.51957E-01 -6.22392E-02 -1.84455E+00  8.94555E-01  2.17785E+00  1.16418E+00 -6.41287E-01 -2.21126E+00 -3.25076E+00
  -1.07997E+00 -1.02986E+00 -1.84579E+00 -6.89438E-01 -2.77500E+00  2.51374E-01 -1.40889E+00 -1.65862E+00 -1.43144E+00  4.24837E-01
  -4.43643E-01 -1.61009E+00  1.96120E+00  6.08801E-02  1.13006E+00 -3.51834E-01  4.81956E-01  1.00545E+00 -1.39013E+00  1.56513E+00
   2.77905E+00  2.29588E+00 -3.12007E-01  3.85491E-01  2.41786E+00 -1.24503E-01  1.79235E+00  1.86305E+00  5.26554E-01  1.68224E+00
   4.10911E-01 -5.16540E-01  6.12672E-01  1.73782E+00  9.69026E-02  5.79466E-01 -9.23982E-01  1.44579E-01  1.40518E-01  2.52430E-01
   5.99902E-01  9.66044E-01  8.20685E-01  1.12199E+00  1.14464E+00  1.79455E+00 -2.55044E-01 -2.80250E-02 -9.26496E-01 -1.52473E+00
  -4.40620E-02  6.74387E-01 -3.48416E-01  9.34025E-01 -4.60343E-01  1.73399E-01  3.93951E-01  1.82542E-01 -1.14496E+00  5.37370E-01
  -7.99807E-01 -1.82616E+00  9.41089E-02  5.29318E-01  3.63764E-01 -1.21066E-01  5.96069E-01  1.23722E+00 -4.12722E-01  8.40889E-01
  -1.11081E+00  3.87907E-01 -1.20514E+00  1.00961E-01 -1.04909E+00  1.01021E+00 -8.57791E-01  2.03746E-01 -1.28625E-01  7.21653E-01
   3.45320E-01 -8.38349E-01 -1.51218E+00  6.13552E-01 -8.04291E-01  1.38691E+00  8.38771E-01  2.31594E+00  7.86433E-01 -1.14231E+00
   1.60784E+00 -1.88443E-01  1.02965E+00  3.02459E+00  2.36265E-01 -1.04831E+00  6.18026E-03 -9.95290E-01  6.14704E-01  1.75741E+00
   5.62170E-01  2.34175E+00  1.30554E+00  1.53723E+00 -2.37505E+00  1.57575E+00  3.10072E-01  4.91775E-01  1.96627E+00  2.27759E+00
   2.00324E+00 -3.72590E-01  4.45491E-01  1.03703E+00  1.16614E+00  1.73352E+00  9.40798E-01  8.61522E-01  1.59670E+00 -1.24815E+00
   1.21424E+00  2.47958E-01 -7.01545E-01  1.31635E+00  1.61331E+00  1.01542E+00  3.30557E+00  2.99537E-01 -1.39883E-01  1.69789E+00
   1.48667E+00  1.97727E+00  2.53389E+00  5.30834E-01  6.97969E-01  9.93198E-01  1.72265E+00  2.36354E+00
 NY points of the fit to the data follow
  -2.85965E+01 -2.85246E+01 -2.84900E+01 -2.86056E+01 -2.87207E+01 -2.86199E+01 -2.84269E+01 -2.84094E+01 -2.82860E+01 -2.76272E+01
  -2.66483E+01 -2.58743E+01 -2.54303E+01 -2.51632E+01 -2.50475E+01 -2.50065E+01 -2.49026E+01 -2.48792E+01 -2.50035E+01 -2.50538E+01
  -2.48776E+01 -2.46396E+01 -2.44380E+01 -2.42273E+01 -2.38761E+01 -2.34915E+01 -2.31726E+01 -2.27637E+01 -2.21746E+01 -2.15985E+01
  -2.12178E+01 -2.09455E+01 -2.07616E+01 -2.07649E+01 -2.09111E+01 -2.10464E+01 -2.12198E+01 -2.14724E+01 -2.15726E+01 -2.15044E+01
  -2.13349E+01 -2.10327E+01 -2.06095E+01 -2.01482E+01 -1.97008E+01 -1.91848E+01 -1.86621E+01 -1.83760E+01 -1.83777E+01 -1.85248E+01
  -1.87009E+01 -1.88574E+01 -1.89507E+01 -1.89526E+01 -1.88841E+01 -1.87285E+01 -1.84637E+01 -1.81233E+01 -1.77735E+01 -1.74835E+01
  -1.72802E+01 -1.71540E+01 -1.70922E+01 -1.70544E+01 -1.69940E+01 -1.68892E+01 -1.67415E+01 -1.65572E+01 -1.63586E+01 -1.61346E+01
  -1.58702E+01 -1.56248E+01 -1.54335E+01 -1.52727E+01 -1.51297E+01 -1.50192E+01 -1.49486E+01 -1.48789E+01 -1.48143E+01 -1.47420E+01
  -1.46026E+01 -1.44297E+01 -1.42946E+01 -1.41694E+01 -1.40089E+01 -1.38786E+01 -1.38405E+01 -1.38455E+01 -1.38258E+01 -1.37672E+01
  -1.36596E+01 -1.35121E+01 -1.33607E+01 -1.32191E+01 -1.30504E+01 -1.28576E+01 -1.26052E+01 -1.20589E+01 -1.13109E+01 -1.06448E+01
  -9.87690E+00 -8.77212E+00 -7.71381E+00 -7.29165E+00 -7.45793E+00 -7.89562E+00 -8.48786E+00 -9.13601E+00 -9.68717E+00 -1.01512E+01
  -1.06625E+01 -1.09461E+01 -1.09403E+01 -1.08656E+01 -1.07776E+01 -1.06882E+01 -1.05906E+01 -1.04923E+01 -1.03927E+01 -1.02698E+01
  -1.00654E+01 -9.58814E+00 -8.88669E+00 -8.23012E+00 -7.51023E+00 -6.50646E+00 -5.51069E+00 -5.04475E+00 -5.12775E+00 -5.48907E+00
  -6.00696E+00 -6.59670E+00 -7.13899E+00 -7.65122E+00 -8.25061E+00 -8.66772E+00 -8.77090E+00 -8.75221E+00 -8.64684E+00 -8.48120E+00
  -8.30677E+00 -8.14941E+00 -8.00717E+00 -7.89392E+00 -7.80882E+00 -7.75126E+00 -7.72696E+00 -7.71382E+00 -7.70324E+00 -7.69013E+00
  -7.65896E+00 -7.61714E+00 -7.57043E+00 -7.52092E+00 -7.46351E+00 -7.40942E+00 -7.36821E+00 -7.32701E+00 -7.28952E+00 -7.25928E+00
  -7.22811E+00 -7.17692E+00 -7.09139E+00 -6.98176E+00 -6.87284E+00 -6.78848E+00 -6.72716E+00 -6.67463E+00 -6.62436E+00 -6.58605E+00
  -6.56824E+00 -6.56345E+00 -6.55209E+00 -6.52300E+00 -6.49892E+00 -6.48634E+00 -6.44657E+00 -6.36261E+00 -6.27183E+00 -6.20920E+00
  -6.16693E+00 -6.11924E+00 -6.05270E+00 -5.95501E+00 -5.84300E+00 -5.73949E+00 -5.60640E+00 -5.41671E+00 -5.18166E+00 -4.95146E+00
  -4.77730E+00 -4.68112E+00 -4.66089E+00 -4.67415E+00 -4.68785E+00 -4.71321E+00 -4.73836E+00 -4.70244E+00 -4.58091E+00 -4.39766E+00
  -4.17937E+00 -3.95844E+00 -3.76623E+00 -3.61720E+00 -3.56834E+00 -3.63208E+00 -3.77226E+00 -3.95991E+00 -4.17457E+00 -4.32050E+00
  -4.26700E+00 -4.05463E+00 -3.78994E+00 -3.44047E+00 -2.98977E+00 -2.62846E+00 -2.58465E+00 -2.81477E+00 -3.17883E+00 -3.58209E+00
  -4.00667E+00 -4.37712E+00 -4.51253E+00 -4.36833E+00 -4.01758E+00 -3.57940E+00 -3.17137E+00 -2.82629E+00 -2.58292E+00 -2.43813E+00
  -2.37102E+00 -2.34629E+00 -2.30490E+00 -2.23074E+00 -2.15438E+00 -2.06165E+00 -1.96322E+00 -1.94941E+00 -2.01321E+00 -2.08504E+00
  -2.15691E+00 -2.24370E+00 -2.28376E+00 -2.19417E+00 -2.03853E+00 -1.89064E+00 -1.74796E+00 -1.60896E+00 -1.51430E+00 -1.48138E+00
  -1.44066E+00 -1.37970E+00 -1.29705E+00 -1.13835E+00 -6.19287E-01  4.46878E-01  1.52189E+00  2.50562E+00  3.94191E+00  5.71430E+00
   6.75992E+00  6.61204E+00  5.81333E+00  4.70953E+00  3.38521E+00  2.10468E+00  1.05842E+00 -3.89510E-05 -9.79059E-01 -1.34678E+00
  -1.45201E+00 -1.49446E+00 -1.48780E+00 -1.44088E+00 -1.39643E+00 -1.36130E+00 -1.33619E+00 -1.32477E+00 -1.32956E+00 -1.34357E+00
  -1.36318E+00 -1.38316E+00 -1.39592E+00 -1.39829E+00 -1.38970E+00 -1.37225E+00 -1.35179E+00 -1.32956E+00 -1.30452E+00 -1.28094E+00
  -1.25905E+00 -1.23698E+00 -1.21515E+00 -1.19369E+00 -1.17130E+00 -1.14740E+00 -1.12285E+00 -1.09832E+00 -1.07359E+00 -1.04922E+00
  -1.02620E+00 -1.00421E+00 -9.83754E-01 -9.65228E-01 -9.48986E-01 -9.34957E-01 -9.23066E-01 -9.13045E-01 -9.04651E-01 -8.97493E-01
  -8.91385E-01 -8.85873E-01 -8.80451E-01 -8.74662E-01 -8.68183E-01 -8.60621E-01 -8.51728E-01 -8.41139E-01 -8.28630E-01 -8.13851E-01
  -7.96424E-01 -7.75765E-01 -7.53879E-01 -7.32418E-01 -7.09978E-01 -6.86595E-01 -6.66225E-01 -6.51045E-01 -6.38247E-01 -6.23384E-01
  -6.05158E-01 -5.85500E-01 -5.64654E-01 -5.40771E-01 -5.14299E-01 -4.87783E-01 -4.65390E-01 -4.48585E-01 -4.36739E-01 -4.29443E-01
  -4.25454E-01 -4.23548E-01 -4.24773E-01 -4.28007E-01 -4.30789E-01 -4.33405E-01 -4.36059E-01 -4.38551E-01 -4.40745E-01 -4.42389E-01
  -4.43361E-01 -4.43440E-01 -4.42558E-01 -4.40581E-01 -4.37551E-01 -4.33439E-01 -4.28365E-01 -4.22350E-01 -4.15560E-01 -4.08073E-01
  -4.00102E-01 -3.91742E-01 -3.83184E-01 -3.74471E-01 -3.65747E-01 -3.57016E-01 -3.48375E-01 -3.39750E-01 -3.31138E-01 -3.22372E-01
  -3.13376E-01 -3.03925E-01 -2.93883E-01 -2.82953E-01 -2.70922E-01 -2.57439E-01 -2.42268E-01 -2.25050E-01 -2.05539E-01 -1.83360E-01
  -1.58267E-01 -1.29927E-01 -9.81735E-02 -6.27756E-02 -2.36832E-02  1.91941E-02  6.57206E-02  1.15744E-01  1.68845E-01  2.24573E-01
   2.82214E-01  3.41021E-01  3.99984E-01  4.58083E-01  5.14086E-01  5.66844E-01  6.15104E-01  6.57793E-01  6.93825E-01  7.22392E-01
   7.42784E-01  7.54670E-01  7.57878E-01  7.52635E-01  7.39309E-01  7.18636E-01  6.91444E-01  6.58858E-01  6.21992E-01  5.82127E-01
   5.40411E-01  4.98060E-01  4.56078E-01  4.15471E-01  3.76968E-01  3.41247E-01  3.08701E-01  2.79684E-01  2.54299E-01  2.32647E-01
   2.14607E-01  2.00086E-01  1.88813E-01  1.80604E-01  1.75145E-01  1.72230E-01  1.71535E-01  1.72858E-01  1.75900E-01  1.80506E-01
   1.86435E-01  1.93578E-01  2.01725E-01  2.10799E-01  2.20628E-01  2.31183E-01  2.42330E-01  2.54060E-01  2.66253E-01  2.78909E-01
   2.91931E-01  3.05349E-01  3.19077E-01  3.33148E-01  3.47471E-01  3.62085E-01  3.76916E-01  3.92015E-01  4.07314E-01  4.22855E-01
   4.38562E-01  4.54488E-01  4.70571E-01  4.86869E-01  5.03312E-01  5.19946E-01  5.36699E-01  5.53625E-01  5.70665E-01  5.87874E-01
   6.05183E-01  6.22639E-01  6.40175E-01  6.57851E-01  6.75608E-01  6.93501E-01  7.11460E-01  7.29533E-01  7.47661E-01  7.65902E-01
   7.84199E-01  8.02604E-01  8.21047E-01  8.39582E-01  8.58150E-01  8.76812E-01  8.95507E-01  9.14286E-01  9.33079E-01  9.51944E-01
   9.70823E-01  9.89778E-01  1.00875E+00  1.02777E+00  1.04680E+00  1.06588E+00  1.08496E+00  1.10410E+00  1.12323E+00  1.14241E+00
   1.16157E+00  1.18077E+00  1.19996E+00  1.21920E+00  1.23842E+00  1.25767E+00  1.27690E+00  1.29617E+00
 NY background values follow
    -2.916E+01   -2.897E+01   -2.878E+01   -2.859E+01   -2.839E+01   -2.820E+01   -2.801E+01   -2.782E+01   -2.763E+01   -2.744E+01
    -2.725E+01   -2.706E+01   -2.687E+01   -2.668E+01   -2.649E+01   -2.630E+01   -2.611E+01   -2.592E+01   -2.573E+01   -2.554E+01
    -2.535E+01   -2.516E+01   -2.498E+01   -2.479E+01   -2.460E+01   -2.441E+01   -2.423E+01   -2.404E+01   -2.386E+01   -2.367E+01
    -2.349E+01   -2.330E+01   -2.312E+01   -2.294E+01   -2.275E+01   -2.257E+01   -2.239E+01   -2.221E+01   -2.203E+01   -2.185E+01
    -2.167E+01   -2.149E+01   -2.132E+01   -2.114E+01   -2.097E+01   -2.079E+01   -2.062E+01   -2.044E+01   -2.027E+01   -2.010E+01
    -1.993E+01   -1.976E+01   -1.959E+01   -1.942E+01   -1.925E+01   -1.909E+01   -1.892E+01   -1.876E+01   -1.859E+01   -1.843E+01
    -1.827E+01   -1.811E+01   -1.795E+01   -1.779E+01   -1.763E+01   -1.747E+01   -1.732E+01   -1.716E+01   -1.701E+01   -1.685E+01
    -1.670E+01   -1.655E+01   -1.640E+01   -1.625E+01   -1.610E+01   -1.595E+01   -1.580E+01   -1.566E+01   -1.551E+01   -1.537E+01
    -1.523E+01   -1.509E+01   -1.495E+01   -1.481E+01   -1.467E+01   -1.453E+01   -1.439E+01   -1.426E+01   -1.412E+01   -1.399E+01
    -1.386E+01   -1.373E+01   -1.360E+01   -1.347E+01   -1.334E+01   -1.322E+01   -1.309E+01   -1.297E+01   -1.284E+01   -1.272E+01
    -1.260E+01   -1.248E+01   -1.236E+01   -1.224E+01   -1.213E+01   -1.201E+01   -1.190E+01   -1.178E+01   -1.167E+01   -1.156E+01
    -1.145E+01   -1.134E+01   -1.123E+01   -1.112E+01   -1.101E+01   -1.091E+01   -1.080E+01   -1.070E+01   -1.059E+01   -1.049E+01
    -1.039E+01   -1.029E+01   -1.019E+01   -1.009E+01   -9.993E+00   -9.896E+00   -9.800E+00   -9.705E+00   -9.611E+00   -9.518E+00
    -9.425E+00   -9.334E+00   -9.243E+00   -9.153E+00   -9.064E+00   -8.975E+00   -8.888E+00   -8.801E+00   -8.715E+00   -8.630E+00
    -8.546E+00   -8.462E+00   -8.379E+00   -8.297E+00   -8.216E+00   -8.135E+00   -8.055E+00   -7.976E+00   -7.898E+00   -7.820E+00
    -7.743E+00   -7.666E+00   -7.591E+00   -7.515E+00   -7.441E+00   -7.367E+00   -7.294E+00   -7.221E+00   -7.149E+00   -7.078E+00
    -7.007E+00   -6.937E+00   -6.867E+00   -6.798E+00   -6.729E+00   -6.661E+00   -6.593E+00   -6.526E+00   -6.459E+00   -6.393E+00
    -6.328E+00   -6.262E+00   -6.198E+00   -6.133E+00   -6.070E+00   -6.006E+00   -5.943E+00   -5.881E+00   -5.818E+00   -5.757E+00
    -5.695E+00   -5.634E+00   -5.574E+00   -5.513E+00   -5.453E+00   -5.394E+00   -5.334E+00   -5.276E+00   -5.217E+00   -5.159E+00
    -5.101E+00   -5.044E+00   -4.987E+00   -4.931E+00   -4.875E+00   -4.819E+00   -4.763E+00   -4.709E+00   -4.654E+00   -4.600E+00
    -4.546E+00   -4.493E+00   -4.440E+00   -4.388E+00   -4.336E+00   -4.284E+00   -4.233E+00   -4.182E+00   -4.132E+00   -4.082E+00
    -4.033E+00   -3.984E+00   -3.935E+00   -3.887E+00   -3.839E+00   -3.792E+00   -3.745E+00   -3.699E+00   -3.653E+00   -3.608E+00
    -3.563E+00   -3.519E+00   -3.475E+00   -3.431E+00   -3.388E+00   -3.346E+00   -3.304E+00   -3.263E+00   -3.221E+00   -3.181E+00
    -3.141E+00   -3.101E+00   -3.062E+00   -3.024E+00   -2.985E+00   -2.948E+00   -2.911E+00   -2.874E+00   -2.838E+00   -2.802E+00
    -2.767E+00   -2.732E+00   -2.697E+00   -2.663E+00   -2.630E+00   -2.597E+00   -2.564E+00   -2.532E+00   -2.501E+00   -2.469E+00
    -2.439E+00   -2.408E+00   -2.378E+00   -2.349E+00   -2.320E+00   -2.291E+00   -2.263E+00   -2.236E+00   -2.209E+00   -2.182E+00
    -2.155E+00   -2.129E+00   -2.104E+00   -2.079E+00   -2.054E+00   -2.030E+00   -2.006E+00   -1.983E+00   -1.960E+00   -1.937E+00
    -1.915E+00   -1.894E+00   -1.872E+00   -1.851E+00   -1.831E+00   -1.811E+00   -1.791E+00   -1.772E+00   -1.753E+00   -1.734E+00
    -1.716E+00   -1.698E+00   -1.680E+00   -1.663E+00   -1.646E+00   -1.629E+00   -1.613E+00   -1.597E+00   -1.581E+00   -1.566E+00
    -1.550E+00   -1.535E+00   -1.520E+00   -1.506E+00   -1.492E+00   -1.477E+00   -1.464E+00   -1.450E+00   -1.436E+00   -1.423E+00
    -1.410E+00   -1.397E+00   -1.384E+00   -1.371E+00   -1.359E+00   -1.346E+00   -1.334E+00   -1.322E+00   -1.310E+00   -1.298E+00
    -1.286E+00   -1.274E+00   -1.263E+00   -1.251E+00   -1.239E+00   -1.228E+00   -1.216E+00   -1.205E+00   -1.193E+00   -1.182E+00
    -1.171E+00   -1.159E+00   -1.148E+00   -1.137E+00   -1.125E+00   -1.114E+00   -1.103E+00   -1.092E+00   -1.080E+00   -1.069E+00
    -1.058E+00   -1.047E+00   -1.036E+00   -1.025E+00   -1.014E+00   -1.003E+00   -9.917E-01   -9.807E-01   -9.697E-01   -9.588E-01
    -9.478E-01   -9.369E-01   -9.260E-01   -9.151E-01   -9.042E-01   -8.934E-01   -8.825E-01   -8.717E-01   -8.609E-01   -8.501E-01
    -8.393E-01   -8.285E-01   -8.178E-01   -8.070E-01   -7.963E-01   -7.855E-01   -7.748E-01   -7.641E-01   -7.534E-01   -7.427E-01
    -7.320E-01   -7.214E-01   -7.107E-01   -7.000E-01   -6.894E-01   -6.787E-01   -6.681E-01   -6.574E-01   -6.468E-01   -6.361E-01
    -6.254E-01   -6.147E-01   -6.040E-01   -5.933E-01   -5.825E-01   -5.718E-01   -5.610E-01   -5.502E-01   -5.393E-01   -5.285E-01
    -5.176E-01   -5.066E-01   -4.957E-01   -4.847E-01   -4.736E-01   -4.625E-01   -4.514E-01   -4.402E-01   -4.289E-01   -4.176E-01
    -4.063E-01   -3.949E-01   -3.834E-01   -3.719E-01   -3.603E-01   -3.486E-01   -3.369E-01   -3.251E-01   -3.132E-01   -3.013E-01
    -2.893E-01   -2.772E-01   -2.650E-01   -2.527E-01   -2.404E-01   -2.279E-01   -2.154E-01   -2.027E-01   -1.900E-01   -1.772E-01
    -1.643E-01   -1.513E-01   -1.382E-01   -1.250E-01   -1.117E-01   -9.826E-02   -8.477E-02   -7.117E-02   -5.748E-02   -4.369E-02
    -2.981E-02   -1.582E-02   -1.736E-03    1.245E-02    2.673E-02    4.111E-02    5.560E-02    7.018E-02    8.486E-02    9.965E-02
     1.145E-01    1.295E-01    1.446E-01    1.598E-01    1.751E-01    1.905E-01    2.060E-01    2.216E-01    2.373E-01    2.531E-01
     2.690E-01    2.850E-01    3.011E-01    3.174E-01    3.337E-01    3.501E-01    3.667E-01    3.833E-01    4.001E-01    4.169E-01
     4.339E-01    4.510E-01    4.682E-01    4.854E-01    5.028E-01    5.203E-01    5.379E-01    5.556E-01    5.734E-01    5.912E-01
     6.092E-01    6.272E-01    6.453E-01    6.635E-01    6.818E-01    7.001E-01    7.186E-01    7.370E-01    7.556E-01    7.742E-01
     7.928E-01    8.115E-01    8.303E-01    8.491E-01    8.679E-01    8.868E-01    9.057E-01    9.247E-01    9.437E-01    9.627E-01
     9.818E-01    1.001E+00    1.020E+00    1.039E+00    1.058E+00    1.077E+00    1.097E+00    1.116E+00    1.135E+00    1.154E+00
     1.173E+00    1.192E+00    1.212E+00    1.231E+00    1.250E+00    1.269E+00    1.288E+00    1.307E+00
 Ala      Conc. = 2.19E+00
