 LCModel (Version 6.3-1L) Copyright: S.W. Provencher.          Ref.: Magn. Reson. Med. 30:672-679 (1993).                
 Slice#1 Row#10 Col#13  PD_05_press_1_raw_act
 36 lines in following concentration table = NCONC+1
    Conc.  %SD /Cr+PCr  Metabolite                                         
   13.090 206%   2.860 Ala                                                 
    2.169  77%   0.474 Asp                                                 
    0.000 999%   0.000 Cr                                                  
    4.577 272%   1.000 PCr                                                 
    1.297  77%   0.283 GABA                                                
    1.301  77%   0.284 Glc                                                 
   84.858  65%  18.541 Gln                                                 
    0.000 999%   0.000 Glu                                                 
    0.000 999%   0.000 GPC                                                 
    0.000 999%   0.000 PCh                                                 
    0.000 999%   0.000 GSH                                                 
   20.999 257%   4.588 Ins                                                 
    0.000 999%   0.000 Lac                                                 
    0.000 999%   0.000 NAA                                                 
   39.202  38%   8.565 NAAG                                                
    0.440  76% 9.6E-02 Scyllo                                              
    2.203  76%   0.481 Tau                                                 
    0.459 276%   0.100 -CrCH2                                              
    0.000 999%   0.000 GPC+PCh                                             
   39.202  38%   8.565 NAA+NAAG                                            
    4.577 272%   1.000 Cr+PCr                                              
   84.858  65%  18.541 Glu+Gln                                             
 1.25E+03  13% 273.434 Lip13a                                              
    0.000 999%   0.000 Lip13b                                              
  380.032  19%  83.033 Lip09                                               
    0.000 999%   0.000 MM09                                                
  156.453  42%  34.183 Lip20                                               
    0.000 999%   0.000 MM20                                                
   19.011 212%   4.154 MM12                                                
    0.000 999%   0.000 MM14                                                
    9.107 587%   1.990 MM17                                                
 1.25E+03  13% 273.434 Lip13a+Lip13b                                       
 1.27E+03  12% 277.588 MM14+Lip13a+Lip13b+MM12                             
  380.032  19%  83.033 MM09+Lip09                                          
  156.453  42%  34.183 MM20+Lip20                                          
   6 lines in following misc. output table
  FWHM = 0.046 ppm    S/N =   2                                            
  Data shift =-0.015 ppm                                                   
  Ph: -60 deg       4.3 deg/ppm                                            
  alphaB,S = 8.5E+01,   2.6E+01                                            
   14 spline knots.   Ns = 5(1)                                            
   2 inflections.     1 extrema                                            
  498 points on ppm-axis = NY
      4.000000     3.992357     3.984714     3.977070     3.969427     3.961784     3.954141     3.946497     3.938854     3.931211
      3.923568     3.915925     3.908281     3.900638     3.892995     3.885352     3.877708     3.870065     3.862422     3.854779
      3.847136     3.839492     3.831849     3.824206     3.816563     3.808919     3.801276     3.793633     3.785990     3.778347
      3.770703     3.763060     3.755417     3.747774     3.740130     3.732487     3.724844     3.717201     3.709558     3.701914
      3.694271     3.686628     3.678985     3.671341     3.663698     3.656055     3.648412     3.640769     3.633125     3.625482
      3.617839     3.610196     3.602552     3.594909     3.587266     3.579623     3.571980     3.564336     3.556693     3.549050
      3.541407     3.533763     3.526120     3.518477     3.510834     3.503191     3.495547     3.487904     3.480261     3.472618
      3.464974     3.457331     3.449688     3.442045     3.434402     3.426758     3.419115     3.411472     3.403829     3.396185
      3.388542     3.380899     3.373256     3.365613     3.357969     3.350326     3.342683     3.335040     3.327396     3.319753
      3.312110     3.304467     3.296824     3.289180     3.281537     3.273894     3.266251     3.258607     3.250964     3.243321
      3.235678     3.228034     3.220391     3.212748     3.205105     3.197462     3.189818     3.182175     3.174532     3.166889
      3.159245     3.151602     3.143959     3.136316     3.128673     3.121029     3.113386     3.105743     3.098100     3.090456
      3.082813     3.075170     3.067527     3.059884     3.052240     3.044597     3.036954     3.029311     3.021667     3.014024
      3.006381     2.998738     2.991095     2.983451     2.975808     2.968165     2.960522     2.952878     2.945235     2.937592
      2.929949     2.922306     2.914662     2.907019     2.899376     2.891733     2.884089     2.876446     2.868803     2.861160
      2.853517     2.845873     2.838230     2.830587     2.822944     2.815300     2.807657     2.800014     2.792371     2.784728
      2.777084     2.769441     2.761798     2.754155     2.746511     2.738868     2.731225     2.723582     2.715939     2.708295
      2.700652     2.693009     2.685366     2.677722     2.670079     2.662436     2.654793     2.647150     2.639506     2.631863
      2.624220     2.616577     2.608933     2.601290     2.593647     2.586004     2.578361     2.570717     2.563074     2.555431
      2.547788     2.540144     2.532501     2.524858     2.517215     2.509572     2.501928     2.494285     2.486642     2.478999
      2.471355     2.463712     2.456069     2.448426     2.440783     2.433139     2.425496     2.417853     2.410210     2.402566
      2.394923     2.387280     2.379637     2.371994     2.364350     2.356707     2.349064     2.341421     2.333777     2.326134
      2.318491     2.310848     2.303205     2.295561     2.287918     2.280275     2.272632     2.264988     2.257345     2.249702
      2.242059     2.234416     2.226772     2.219129     2.211486     2.203843     2.196199     2.188556     2.180913     2.173270
      2.165627     2.157983     2.150340     2.142697     2.135054     2.127410     2.119767     2.112124     2.104481     2.096838
      2.089194     2.081551     2.073908     2.066265     2.058621     2.050978     2.043335     2.035692     2.028049     2.020405
      2.012762     2.005119     1.997476     1.989833     1.982190     1.974546     1.966903     1.959260     1.951617     1.943974
      1.936331     1.928688     1.921045     1.913402     1.905759     1.898115     1.890472     1.882829     1.875186     1.867543
      1.859900     1.852257     1.844614     1.836971     1.829327     1.821684     1.814041     1.806398     1.798755     1.791112
      1.783469     1.775826     1.768183     1.760540     1.752896     1.745253     1.737610     1.729967     1.722324     1.714681
      1.707038     1.699395     1.691752     1.684108     1.676465     1.668822     1.661179     1.653536     1.645893     1.638250
      1.630607     1.622964     1.615321     1.607677     1.600034     1.592391     1.584748     1.577105     1.569462     1.561819
      1.554176     1.546533     1.538890     1.531246     1.523603     1.515960     1.508317     1.500674     1.493031     1.485388
      1.477745     1.470102     1.462458     1.454815     1.447172     1.439529     1.431886     1.424243     1.416600     1.408957
      1.401314     1.393671     1.386027     1.378384     1.370741     1.363098     1.355455     1.347812     1.340169     1.332526
      1.324883     1.317240     1.309596     1.301953     1.294310     1.286667     1.279024     1.271381     1.263738     1.256095
      1.248452     1.240808     1.233165     1.225522     1.217879     1.210236     1.202593     1.194950     1.187307     1.179664
      1.172021     1.164377     1.156734     1.149091     1.141448     1.133805     1.126162     1.118519     1.110876     1.103233
      1.095590     1.087946     1.080303     1.072660     1.065017     1.057374     1.049731     1.042088     1.034445     1.026802
      1.019158     1.011515     1.003872     0.996229     0.988586     0.980943     0.973300     0.965657     0.958014     0.950371
      0.942727     0.935084     0.927441     0.919798     0.912155     0.904512     0.896869     0.889226     0.881583     0.873940
      0.866296     0.858653     0.851010     0.843367     0.835724     0.828081     0.820438     0.812795     0.805152     0.797508
      0.789865     0.782222     0.774579     0.766936     0.759293     0.751650     0.744007     0.736364     0.728721     0.721077
      0.713434     0.705791     0.698148     0.690505     0.682862     0.675219     0.667576     0.659933     0.652290     0.644646
      0.637003     0.629360     0.621717     0.614074     0.606431     0.598788     0.591145     0.583502     0.575858     0.568215
      0.560572     0.552929     0.545286     0.537643     0.530000     0.522357     0.514714     0.507071     0.499427     0.491784
      0.484141     0.476498     0.468855     0.461212     0.453569     0.445925     0.438282     0.430639     0.422996     0.415353
      0.407710     0.400067     0.392424     0.384780     0.377137     0.369494     0.361851     0.354208     0.346565     0.338922
      0.331278     0.323635     0.315992     0.308349     0.300706     0.293063     0.285420     0.277777     0.270133     0.262490
      0.254847     0.247204     0.239561     0.231918     0.224275     0.216631     0.208988     0.201345
 NY phased data points follow
   7.60155E-01  1.21179E-01 -1.25703E+00 -4.60610E-01  2.96922E-01 -3.78826E-02  3.06185E-01 -8.69471E-01 -5.45274E-02  1.39627E+00
   8.58663E-01  5.70088E-01 -7.63468E-01 -9.51268E-01  2.42928E-01 -2.51546E-01  3.39428E-01 -1.62602E-01  1.02504E+00  1.36567E-01
  -9.66887E-01 -6.13798E-01  1.24685E+00  5.99249E-01 -2.87285E-02  3.89118E-01  1.05658E+00 -1.17469E+00  8.89262E-01 -2.16846E+00
   8.03628E-01  2.28118E-01  6.21416E-01  7.70598E-01  1.94492E+00 -4.85409E-01 -2.59780E+00 -1.33136E+00 -7.00728E-01 -8.82056E-01
   6.37085E-02  5.85345E-01  6.13698E-01  1.00692E+00  2.62116E-01  9.06625E-01 -9.04517E-01 -3.86772E-01  1.16465E+00  9.40592E-01
   1.89124E+00  1.86077E+00  1.08991E+00 -5.79076E-01 -7.22597E-01  7.71445E-01  5.29118E-01  4.45433E-01  7.47038E-01  1.51859E+00
   1.05725E-01  1.25670E-01 -8.39755E-01  2.57875E-01 -4.62252E-01  1.33848E+00  4.55689E-01  1.61650E+00  1.28804E+00  1.69638E+00
   5.69903E-01  4.78390E-01  2.77545E-01 -1.25939E+00  2.64249E-02 -1.07384E+00  3.01153E-02  8.92786E-01  1.08857E+00 -1.13745E-01
  -1.50839E+00 -8.51222E-01 -2.02498E+00  8.42685E-01 -6.63477E-01 -3.34302E-01 -6.47566E-01  7.25145E-03  1.58433E+00  3.53214E-01
   1.12298E+00  4.54070E-04  1.30368E+00 -9.47260E-01  1.17909E+00 -1.13404E-01  4.92170E-01  2.08430E-01  7.56650E-01 -9.23382E-02
  -4.65653E-01 -5.09223E-01  1.28047E+00  9.87761E-01 -1.33974E+00 -8.36981E-01 -1.23770E-01 -5.51247E-01 -1.14025E+00  7.22232E-01
  -3.74021E-01 -2.08449E-01 -1.76292E+00  4.64820E-01 -1.14981E+00  1.17520E+00  1.73963E+00  9.70575E-01  1.19190E+00  1.22395E+00
  -3.87065E-01  1.11749E+00  9.48739E-01 -4.74534E-01  1.59475E-01 -2.14203E+00  1.42613E-01  1.33979E+00 -3.40413E-03  1.14706E+00
   8.07705E-01  1.03197E-02 -5.75118E-02  1.20096E+00  5.56700E-01  2.57799E-01  1.51231E+00  1.41673E+00  5.33512E-01 -8.08993E-01
  -3.10726E-01  5.79249E-01 -2.42228E-01 -3.32053E+00 -4.55859E-01  1.45690E+00  2.58410E-01  1.38141E-01  2.15064E-01  2.01476E-02
   3.49062E-01  7.66100E-01  8.03076E-01 -3.25685E-01  8.03598E-01  1.19570E+00  1.21783E+00  7.47495E-01 -8.40322E-02  2.32937E-01
  -1.18950E-01  1.86562E-01  9.25364E-01 -2.81379E-01 -1.52812E-01 -1.45050E-01  8.90504E-01  1.21680E+00 -9.27536E-01  8.84413E-01
   1.70183E-01  8.69547E-01 -7.35052E-01 -1.28378E+00 -1.57605E+00  1.13137E+00  1.10030E+00  1.42868E-01  1.84808E+00  1.41716E+00
  -8.81821E-01  1.75398E-01 -8.23709E-03  8.44714E-01 -3.25130E-01 -2.57170E-01 -1.74502E+00  1.03044E+00 -3.21150E-01 -1.89228E-02
   8.62620E-01 -2.43971E-01 -9.11424E-01  4.55415E-01  1.07194E+00  1.17995E+00 -6.96496E-01  1.44251E+00 -1.07249E+00  4.40615E-01
  -1.10375E-02 -3.36636E-01 -5.31884E-01 -5.44735E-01 -2.71251E-01  1.68781E+00  4.92368E-01 -1.77721E-01 -6.08757E-01  3.40072E-02
  -4.52599E-01 -1.63177E+00 -1.66272E+00  8.58442E-01  1.51512E+00  1.30524E+00  1.71964E+00 -1.80549E-01  5.27121E-01 -7.50975E-01
   8.26092E-01  7.06498E-01  5.40053E-01 -9.38137E-01  6.28903E-01  1.37443E+00  7.66670E-02 -7.03089E-01 -4.40047E-01  1.04069E+00
   4.12939E-01  1.61454E+00 -7.32379E-01 -7.90091E-01  7.06039E-01  3.44428E-01  9.68364E-01 -4.79154E-01  4.78786E-01 -1.24024E+00
   1.09434E+00  1.06246E+00  3.00330E-01 -1.05370E-01 -7.37988E-01  1.44316E+00 -2.86874E-01  4.87798E-01  1.56873E+00 -1.99947E+00
   1.26664E+00  7.91589E-01  1.68535E+00  1.37560E+00  1.44459E+00  1.79630E+00  2.01195E+00 -3.30067E-01  2.73726E+00  2.11918E+00
   1.52263E+00  2.15938E+00 -3.33063E-01 -2.38713E+00 -1.07676E+00 -2.93703E+00  2.00569E-01 -1.98118E-01  6.05359E-02 -1.08889E+00
  -2.10702E-01  5.28201E-01  8.27055E-01  1.62221E+00  1.17500E+00  1.29493E+00 -1.01407E+00 -7.78237E-02 -2.85868E+00  1.50456E-02
   4.98483E-01  4.36491E-01 -3.84930E-01 -2.00911E+00 -1.30753E+00 -1.76779E-01  3.83569E-01  8.99317E-01  2.06461E-02 -9.39674E-01
  -9.80518E-01  9.76600E-01 -5.81140E-02  9.45979E-01 -7.36164E-01 -5.98605E-01  2.83297E-01 -2.39139E-01  5.17558E-01  4.52630E-01
   9.69325E-01 -4.88817E-01  8.86701E-01  8.82351E-01 -3.97487E-01  9.38806E-01 -2.54154E-01 -1.22501E+00  1.28208E+00  6.19279E-02
  -2.78102E-01 -1.69379E+00  1.60242E+00 -3.27178E-01 -2.77907E-01 -1.94161E-01  7.31370E-01  5.70653E-01 -8.53374E-01  1.78582E+00
   1.25886E+00  2.31551E+00 -1.60526E-01  1.68470E+00  8.95535E-01  1.14699E+00  1.90875E+00 -1.20547E+00  8.28167E-02  6.09303E-01
   2.40887E+00  5.17018E-01  7.98537E-01 -2.68474E-01  5.64997E-02 -5.65688E-01  2.53560E+00  1.95286E+00  1.00859E+00  1.54800E+00
   1.10158E+00  9.78312E-01  1.26884E+00  2.23568E+00  2.25841E+00  2.42879E+00  2.86243E+00  1.93392E+00  3.46663E+00  1.89130E+00
   3.76710E+00  3.55869E+00  3.39397E+00  3.60271E+00  2.55737E+00  2.46095E+00  4.87458E+00  4.33483E+00  3.62258E+00  4.84513E+00
   2.58434E+00  4.45078E+00  5.08942E+00  4.57245E+00  4.41351E+00  3.65495E+00  3.55167E+00  3.83944E+00  4.98654E+00  7.06706E+00
   4.60289E+00  5.17750E+00  4.88284E+00  4.38389E+00  2.53313E+00  5.27413E+00  2.66093E+00  2.92174E+00  3.91046E+00  4.17954E+00
   3.13507E+00  3.70412E+00  4.24110E+00  1.30759E+00  3.87521E+00  5.44798E+00  4.38955E+00  2.67971E+00  4.33271E+00  3.00844E+00
   3.96387E+00  4.33396E+00  3.02830E+00  1.29027E+00  2.23405E+00  4.40377E+00  2.20685E+00  2.04719E+00  1.83604E+00  2.37930E+00
   2.81967E+00 -2.72786E-02  1.95628E+00  1.33698E+00 -1.70378E-01  1.18595E+00 -1.88853E+00  1.35881E+00  1.10013E+00  1.63154E+00
   1.01158E+00  8.06793E-01  6.48027E-01 -4.74466E-01 -2.21566E-01 -1.06868E+00  3.68082E-02  1.64973E+00 -7.13778E-01 -6.42399E-01
   1.14241E+00  1.50083E+00  2.04439E+00  3.94992E-01 -1.02272E+00  1.49511E+00  1.23618E+00 -9.91183E-01 -9.37249E-02  5.61228E-01
   1.36271E-01 -2.35159E-01 -3.21827E-01  6.70525E-01 -3.01346E-01  2.51421E-01  8.11057E-01  2.36084E+00  1.65792E+00 -1.82170E+00
  -9.52242E-01 -1.09831E+00 -8.66971E-01 -8.11370E-01 -9.15416E-01  4.13407E-01 -1.60206E+00 -1.24160E+00  2.36393E-01 -2.57360E+00
  -1.24727E+00 -1.87148E+00 -1.70015E-01 -7.76799E-01 -1.36951E+00 -3.08418E-01 -6.22785E-01 -1.65436E+00 -1.02170E+00 -5.67784E-01
   3.06071E-02 -1.14643E+00 -8.61508E-01 -8.66900E-01 -1.64852E+00  4.25879E-01  6.86335E-01  1.47758E-01  7.41885E-01 -4.87833E-01
  -1.15003E+00 -1.77729E+00  4.13218E-02 -1.88959E+00  2.55546E-01  5.52806E-01 -1.36275E+00  5.17916E-01  6.86078E-01 -8.81346E-01
  -1.23369E+00 -3.63608E-01 -1.08761E+00 -5.46420E-01 -3.10481E-02 -6.50315E-01  3.79116E-01  4.88206E-02 -6.04083E-01  2.38319E-01
  -8.80887E-01 -1.93902E-01 -6.22742E-01 -2.24063E+00  1.68908E+00  2.16849E+00 -1.03109E+00 -2.40728E-01
 NY points of the fit to the data follow
   3.08327E-01  2.91694E-01  2.79474E-01  2.74165E-01  2.76921E-01  2.85843E-01  2.98149E-01  3.12601E-01  3.27647E-01  3.40681E-01
   3.48205E-01  3.46297E-01  3.32160E-01  3.07526E-01  2.80179E-01  2.59441E-01  2.50506E-01  2.49841E-01  2.54652E-01  2.66867E-01
   2.88486E-01  3.09465E-01  3.20032E-01  3.17042E-01  2.96113E-01  2.53863E-01  1.97091E-01  1.47765E-01  1.20923E-01  1.31176E-01
   1.91065E-01  2.92616E-01  4.00330E-01  4.67588E-01  4.73843E-01  4.15313E-01  3.08029E-01  1.94119E-01  1.21319E-01  1.12366E-01
   1.45130E-01  1.91414E-01  2.34390E-01  2.65942E-01  2.85618E-01  3.02118E-01  3.24292E-01  3.46156E-01  3.59330E-01  3.56754E-01
   3.32041E-01  2.85477E-01  2.28076E-01  1.78009E-01  1.51444E-01  1.50354E-01  1.63520E-01  1.80994E-01  1.98281E-01  2.13349E-01
   2.24373E-01  2.29492E-01  2.27076E-01  2.16219E-01  1.98565E-01  1.78833E-01  1.64119E-01  1.59506E-01  1.64198E-01  1.74321E-01
   1.85372E-01  1.94743E-01  2.00813E-01  2.03269E-01  2.02427E-01  1.97875E-01  1.89976E-01  1.79927E-01  1.69672E-01  1.60948E-01
   1.53704E-01  1.48927E-01  1.46480E-01  1.44418E-01  1.40459E-01  1.33605E-01  1.23578E-01  1.10748E-01  9.63380E-02  8.27072E-02
   7.31677E-02  7.13713E-02  7.83211E-02  9.04533E-02  1.01283E-01  1.06430E-01  1.05597E-01  1.00534E-01  9.25057E-02  8.24318E-02
   7.16966E-02  6.21698E-02  5.51751E-02  5.18733E-02  5.18687E-02  5.41922E-02  5.83215E-02  6.31523E-02  6.76986E-02  7.09802E-02
   7.23629E-02  7.22610E-02  7.17295E-02  7.12467E-02  7.06833E-02  7.00238E-02  6.90901E-02  6.80199E-02  6.69742E-02  6.62885E-02
   6.66959E-02  7.11046E-02  8.56191E-02  1.08922E-01  1.37570E-01  1.69781E-01  2.02944E-01  2.32102E-01  2.50280E-01  2.49587E-01
   2.26021E-01  1.86152E-01  1.45025E-01  1.17737E-01  1.09309E-01  1.09975E-01  1.13523E-01  1.18883E-01  1.25568E-01  1.33077E-01
   1.41023E-01  1.49255E-01  1.57624E-01  1.66001E-01  1.74310E-01  1.82730E-01  1.91341E-01  1.99655E-01  2.06796E-01  2.11022E-01
   2.11627E-01  2.10114E-01  2.07583E-01  2.05011E-01  2.03549E-01  2.02704E-01  2.03207E-01  2.06670E-01  2.12699E-01  2.17579E-01
   2.15947E-01  2.03959E-01  1.83533E-01  1.60929E-01  1.40665E-01  1.23806E-01  1.10018E-01  9.76441E-02  8.63072E-02  7.67669E-02
   6.88352E-02  6.23961E-02  5.92244E-02  5.89560E-02  5.77121E-02  5.03131E-02  3.45316E-02  1.32434E-02 -5.71724E-03 -1.52887E-02
  -1.68968E-02 -1.53244E-02 -1.35408E-02 -9.82789E-03 -1.85803E-04  1.60528E-02  3.63174E-02  5.54053E-02  6.57654E-02  6.07109E-02
   4.33320E-02  1.63880E-02 -2.11282E-02 -6.88933E-02 -1.24111E-01 -1.78750E-01 -2.16043E-01 -2.16515E-01 -1.70600E-01 -8.12542E-02
   4.15386E-02  1.74685E-01  2.90597E-01  3.57183E-01  3.45979E-01  2.38596E-01  6.20512E-02 -1.37006E-01 -3.25253E-01 -4.76199E-01
  -5.62535E-01 -5.55062E-01 -4.33722E-01 -2.19927E-01  2.37836E-02  2.21138E-01  3.22613E-01  3.37638E-01  3.25380E-01  3.17497E-01
   3.13063E-01  3.11506E-01  3.14138E-01  3.19185E-01  3.25149E-01  3.30816E-01  3.33383E-01  3.30824E-01  3.23589E-01  3.13028E-01
   2.96216E-01  2.63944E-01  2.22284E-01  1.81713E-01  1.50564E-01  1.38274E-01  1.56977E-01  2.05035E-01  2.74397E-01  3.65094E-01
   4.56598E-01  5.08087E-01  4.84101E-01  3.78811E-01  2.28881E-01  8.58324E-02 -1.10307E-03 -7.05151E-03  5.98409E-02  1.68407E-01
   3.11867E-01  5.31638E-01  8.06216E-01  1.09078E+00  1.36174E+00  1.59934E+00  1.77505E+00  1.85281E+00  1.78504E+00  1.54076E+00
   1.16393E+00  7.72711E-01  4.93853E-01  3.76366E-01  3.38829E-01  3.14283E-01  2.88676E-01  2.63604E-01  2.40321E-01  2.19174E-01
   2.00569E-01  1.84819E-01  1.71065E-01  1.58140E-01  1.43979E-01  1.26482E-01  1.05165E-01  8.15130E-02  5.89793E-02  4.11982E-02
   2.99615E-02  2.60104E-02  2.78094E-02  3.17566E-02  3.47422E-02  3.58752E-02  3.47409E-02  3.18161E-02  2.81762E-02  2.54250E-02
   2.53074E-02  2.84304E-02  3.43607E-02  4.27589E-02  5.20239E-02  6.03324E-02  6.63906E-02  6.98814E-02  7.20055E-02  7.47627E-02
   7.89122E-02  8.47803E-02  9.27012E-02  1.02494E-01  1.13330E-01  1.24129E-01  1.34234E-01  1.44046E-01  1.54028E-01  1.64386E-01
   1.75325E-01  1.87011E-01  1.99623E-01  2.13359E-01  2.28420E-01  2.45035E-01  2.63482E-01  2.84114E-01  3.07404E-01  3.34030E-01
   3.65112E-01  4.03069E-01  4.51868E-01  5.06205E-01  5.57669E-01  6.03458E-01  6.40488E-01  6.63814E-01  6.68402E-01  6.52321E-01
   6.28784E-01  6.24367E-01  6.60863E-01  7.49923E-01  8.86682E-01  1.04988E+00  1.22445E+00  1.40222E+00  1.56815E+00  1.70835E+00
   1.82237E+00  1.92572E+00  2.04170E+00  2.17936E+00  2.33139E+00  2.49312E+00  2.66189E+00  2.83557E+00  3.01207E+00  3.18923E+00
   3.36477E+00  3.53627E+00  3.70125E+00  3.85720E+00  4.00165E+00  4.13222E+00  4.24675E+00  4.34332E+00  4.42036E+00  4.47673E+00
   4.51173E+00  4.52515E+00  4.51730E+00  4.48900E+00  4.44157E+00  4.37678E+00  4.29681E+00  4.20416E+00  4.10158E+00  3.99200E+00
   3.87843E+00  3.76385E+00  3.65115E+00  3.54302E+00  3.44187E+00  3.34982E+00  3.26854E+00  3.19928E+00  3.14280E+00  3.09934E+00
   3.06863E+00  3.04986E+00  3.04177E+00  3.04260E+00  3.05024E+00  3.06221E+00  3.07585E+00  3.08836E+00  3.09694E+00  3.09891E+00
   3.09178E+00  3.07344E+00  3.04218E+00  2.99681E+00  2.93665E+00  2.86159E+00  2.77206E+00  2.66902E+00  2.55385E+00  2.42830E+00
   2.29436E+00  2.15420E+00  2.01005E+00  1.86409E+00  1.71839E+00  1.57482E+00  1.43502E+00  1.30035E+00  1.17189E+00  1.05041E+00
   9.36461E-01  8.30299E-01  7.31987E-01  6.41406E-01  5.58300E-01  4.82306E-01  4.12988E-01  3.49863E-01  2.92427E-01  2.40176E-01
   1.92622E-01  1.49301E-01  1.09775E-01  7.36428E-02  4.05388E-02  1.01354E-02 -1.78588E-02 -4.37038E-02 -6.76310E-02 -8.98449E-02
  -1.10524E-01 -1.29825E-01 -1.47883E-01 -1.64819E-01 -1.80743E-01 -1.95750E-01 -2.09923E-01 -2.23333E-01 -2.36045E-01 -2.48120E-01
  -2.59609E-01 -2.70562E-01 -2.81017E-01 -2.91012E-01 -3.00580E-01 -3.09754E-01 -3.18563E-01 -3.27031E-01 -3.35181E-01 -3.43033E-01
  -3.50606E-01 -3.57920E-01 -3.64992E-01 -3.71835E-01 -3.78461E-01 -3.84884E-01 -3.91116E-01 -3.97169E-01 -4.03053E-01 -4.08776E-01
  -4.14346E-01 -4.19772E-01 -4.25061E-01 -4.30221E-01 -4.35258E-01 -4.40178E-01 -4.44985E-01 -4.49685E-01 -4.54286E-01 -4.58792E-01
  -4.63207E-01 -4.67533E-01 -4.71775E-01 -4.75937E-01 -4.80024E-01 -4.84039E-01 -4.87983E-01 -4.91860E-01 -4.95671E-01 -4.99422E-01
  -5.03115E-01 -5.06751E-01 -5.10332E-01 -5.13860E-01 -5.17337E-01 -5.20767E-01 -5.24150E-01 -5.27489E-01 -5.30783E-01 -5.34035E-01
  -5.37248E-01 -5.40422E-01 -5.43558E-01 -5.46658E-01 -5.49722E-01 -5.52752E-01 -5.55749E-01 -5.58715E-01
 NY background values follow
     2.295E-01    2.277E-01    2.260E-01    2.242E-01    2.225E-01    2.208E-01    2.190E-01    2.173E-01    2.155E-01    2.138E-01
     2.121E-01    2.103E-01    2.086E-01    2.068E-01    2.051E-01    2.034E-01    2.016E-01    1.999E-01    1.981E-01    1.964E-01
     1.946E-01    1.929E-01    1.912E-01    1.894E-01    1.877E-01    1.859E-01    1.842E-01    1.825E-01    1.807E-01    1.790E-01
     1.772E-01    1.755E-01    1.738E-01    1.720E-01    1.703E-01    1.685E-01    1.668E-01    1.651E-01    1.633E-01    1.616E-01
     1.598E-01    1.581E-01    1.563E-01    1.546E-01    1.529E-01    1.511E-01    1.494E-01    1.476E-01    1.459E-01    1.442E-01
     1.424E-01    1.407E-01    1.389E-01    1.372E-01    1.355E-01    1.337E-01    1.320E-01    1.302E-01    1.285E-01    1.268E-01
     1.250E-01    1.233E-01    1.215E-01    1.198E-01    1.181E-01    1.163E-01    1.146E-01    1.128E-01    1.111E-01    1.093E-01
     1.076E-01    1.059E-01    1.041E-01    1.024E-01    1.006E-01    9.890E-02    9.716E-02    9.542E-02    9.368E-02    9.194E-02
     9.020E-02    8.846E-02    8.671E-02    8.497E-02    8.323E-02    8.149E-02    7.975E-02    7.801E-02    7.627E-02    7.453E-02
     7.279E-02    7.105E-02    6.931E-02    6.757E-02    6.582E-02    6.408E-02    6.234E-02    6.060E-02    5.886E-02    5.712E-02
     5.538E-02    5.364E-02    5.190E-02    5.016E-02    4.842E-02    4.667E-02    4.493E-02    4.319E-02    4.145E-02    3.971E-02
     3.797E-02    3.623E-02    3.449E-02    3.275E-02    3.101E-02    2.927E-02    2.752E-02    2.578E-02    2.404E-02    2.230E-02
     2.056E-02    1.882E-02    1.708E-02    1.534E-02    1.360E-02    1.186E-02    1.012E-02    8.375E-03    6.634E-03    4.893E-03
     3.152E-03    1.411E-03   -3.297E-04   -2.071E-03   -3.812E-03   -5.552E-03   -7.293E-03   -9.034E-03   -1.078E-02   -1.252E-02
    -1.426E-02   -1.600E-02   -1.774E-02   -1.948E-02   -2.122E-02   -2.296E-02   -2.470E-02   -2.644E-02   -2.818E-02   -2.993E-02
    -3.167E-02   -3.341E-02   -3.515E-02   -3.689E-02   -3.863E-02   -4.037E-02   -4.211E-02   -4.385E-02   -4.559E-02   -4.734E-02
    -4.908E-02   -5.082E-02   -5.256E-02   -5.430E-02   -5.604E-02   -5.778E-02   -5.952E-02   -6.126E-02   -6.300E-02   -6.474E-02
    -6.649E-02   -6.823E-02   -6.997E-02   -7.171E-02   -7.345E-02   -7.519E-02   -7.693E-02   -7.867E-02   -8.041E-02   -8.215E-02
    -8.390E-02   -8.564E-02   -8.738E-02   -8.912E-02   -9.086E-02   -9.260E-02   -9.434E-02   -9.608E-02   -9.782E-02   -9.956E-02
    -1.013E-01   -1.030E-01   -1.048E-01   -1.065E-01   -1.083E-01   -1.100E-01   -1.118E-01   -1.135E-01   -1.152E-01   -1.170E-01
    -1.187E-01   -1.205E-01   -1.222E-01   -1.239E-01   -1.257E-01   -1.274E-01   -1.292E-01   -1.309E-01   -1.326E-01   -1.344E-01
    -1.361E-01   -1.379E-01   -1.396E-01   -1.413E-01   -1.431E-01   -1.448E-01   -1.466E-01   -1.483E-01   -1.501E-01   -1.518E-01
    -1.535E-01   -1.553E-01   -1.570E-01   -1.588E-01   -1.605E-01   -1.622E-01   -1.640E-01   -1.657E-01   -1.675E-01   -1.692E-01
    -1.709E-01   -1.727E-01   -1.744E-01   -1.762E-01   -1.779E-01   -1.797E-01   -1.814E-01   -1.831E-01   -1.849E-01   -1.866E-01
    -1.884E-01   -1.901E-01   -1.918E-01   -1.936E-01   -1.953E-01   -1.971E-01   -1.988E-01   -2.005E-01   -2.023E-01   -2.040E-01
    -2.058E-01   -2.075E-01   -2.093E-01   -2.110E-01   -2.127E-01   -2.145E-01   -2.162E-01   -2.180E-01   -2.197E-01   -2.214E-01
    -2.232E-01   -2.249E-01   -2.267E-01   -2.284E-01   -2.301E-01   -2.319E-01   -2.336E-01   -2.354E-01   -2.371E-01   -2.388E-01
    -2.406E-01   -2.423E-01   -2.441E-01   -2.458E-01   -2.476E-01   -2.493E-01   -2.510E-01   -2.528E-01   -2.545E-01   -2.563E-01
    -2.580E-01   -2.597E-01   -2.615E-01   -2.632E-01   -2.650E-01   -2.667E-01   -2.684E-01   -2.702E-01   -2.719E-01   -2.737E-01
    -2.754E-01   -2.772E-01   -2.789E-01   -2.806E-01   -2.824E-01   -2.841E-01   -2.859E-01   -2.876E-01   -2.893E-01   -2.911E-01
    -2.928E-01   -2.946E-01   -2.963E-01   -2.980E-01   -2.998E-01   -3.015E-01   -3.033E-01   -3.050E-01   -3.068E-01   -3.085E-01
    -3.102E-01   -3.120E-01   -3.137E-01   -3.155E-01   -3.172E-01   -3.189E-01   -3.207E-01   -3.224E-01   -3.242E-01   -3.259E-01
    -3.276E-01   -3.294E-01   -3.311E-01   -3.329E-01   -3.346E-01   -3.363E-01   -3.381E-01   -3.398E-01   -3.416E-01   -3.433E-01
    -3.451E-01   -3.468E-01   -3.485E-01   -3.503E-01   -3.520E-01   -3.538E-01   -3.555E-01   -3.572E-01   -3.590E-01   -3.607E-01
    -3.625E-01   -3.642E-01   -3.659E-01   -3.677E-01   -3.694E-01   -3.712E-01   -3.729E-01   -3.747E-01   -3.764E-01   -3.781E-01
    -3.799E-01   -3.816E-01   -3.834E-01   -3.851E-01   -3.868E-01   -3.886E-01   -3.903E-01   -3.921E-01   -3.938E-01   -3.955E-01
    -3.973E-01   -3.990E-01   -4.008E-01   -4.025E-01   -4.043E-01   -4.060E-01   -4.077E-01   -4.095E-01   -4.112E-01   -4.130E-01
    -4.147E-01   -4.164E-01   -4.182E-01   -4.199E-01   -4.217E-01   -4.234E-01   -4.251E-01   -4.269E-01   -4.286E-01   -4.304E-01
    -4.321E-01   -4.338E-01   -4.356E-01   -4.373E-01   -4.391E-01   -4.408E-01   -4.426E-01   -4.443E-01   -4.460E-01   -4.478E-01
    -4.495E-01   -4.513E-01   -4.530E-01   -4.547E-01   -4.565E-01   -4.582E-01   -4.600E-01   -4.617E-01   -4.634E-01   -4.652E-01
    -4.669E-01   -4.687E-01   -4.704E-01   -4.722E-01   -4.739E-01   -4.756E-01   -4.774E-01   -4.791E-01   -4.809E-01   -4.826E-01
    -4.843E-01   -4.861E-01   -4.878E-01   -4.896E-01   -4.913E-01   -4.930E-01   -4.948E-01   -4.965E-01   -4.983E-01   -5.000E-01
    -5.017E-01   -5.035E-01   -5.052E-01   -5.070E-01   -5.087E-01   -5.105E-01   -5.122E-01   -5.139E-01   -5.157E-01   -5.174E-01
    -5.192E-01   -5.209E-01   -5.226E-01   -5.244E-01   -5.261E-01   -5.279E-01   -5.296E-01   -5.313E-01   -5.331E-01   -5.348E-01
    -5.366E-01   -5.383E-01   -5.401E-01   -5.418E-01   -5.435E-01   -5.453E-01   -5.470E-01   -5.488E-01   -5.505E-01   -5.522E-01
    -5.540E-01   -5.557E-01   -5.575E-01   -5.592E-01   -5.609E-01   -5.627E-01   -5.644E-01   -5.662E-01   -5.679E-01   -5.696E-01
    -5.714E-01   -5.731E-01   -5.749E-01   -5.766E-01   -5.784E-01   -5.801E-01   -5.818E-01   -5.836E-01   -5.853E-01   -5.871E-01
    -5.888E-01   -5.905E-01   -5.923E-01   -5.940E-01   -5.958E-01   -5.975E-01   -5.992E-01   -6.010E-01   -6.027E-01   -6.045E-01
    -6.062E-01   -6.080E-01   -6.097E-01   -6.114E-01   -6.132E-01   -6.149E-01   -6.167E-01   -6.184E-01   -6.201E-01   -6.219E-01
    -6.236E-01   -6.254E-01   -6.271E-01   -6.288E-01   -6.306E-01   -6.323E-01   -6.341E-01   -6.358E-01
 Ala      Conc. = 1.31E+01
