 LCModel (Version 6.3-1L) Copyright: S.W. Provencher.          Ref.: Magn. Reson. Med. 30:672-679 (1993).                
 Slice#1 Row#7 Col#13  PD_05_press_1_raw_act
 36 lines in following concentration table = NCONC+1
    Conc.  %SD /Cr+PCr  Metabolite                                         
    0.000 999%   0.000 Ala                                                 
    6.038  57%   5.029 Asp                                                 
    0.000 999%   0.000 Cr                                                  
    1.201 849%   1.000 PCr                                                 
    3.393  61%   2.826 GABA                                                
    3.497  59%   2.913 Glc                                                 
    0.000 999%   0.000 Gln                                                 
   89.685  53%  74.701 Glu                                                 
    5.140  91%   4.282 GPC                                                 
    0.000 999%   0.000 PCh                                                 
    0.000 999%   0.000 GSH                                                 
   64.909  78%  54.064 Ins                                                 
   38.600  61%  32.151 Lac                                                 
   86.641  25%  72.165 NAA                                                 
   13.760 136%  11.461 NAAG                                                
    1.187  58%   0.989 Scyllo                                              
    5.799  59%   4.830 Tau                                                 
    0.000 999%   0.000 -CrCH2                                              
    5.140  91%   4.282 GPC+PCh                                             
  100.400  28%  83.626 NAA+NAAG                                            
    1.201 849%   1.000 Cr+PCr                                              
   89.685  53%  74.701 Glu+Gln                                             
 1.88E+03  28% 1.6E+03 Lip13a                                              
    0.000 999%   0.000 Lip13b                                              
  688.256  28% 573.266 Lip09                                               
 1.30E+03  17% 1.1E+03 MM09                                                
  398.783  36% 332.157 Lip20                                               
  681.573  26% 567.699 MM20                                                
  817.880  26% 681.234 MM12                                                
  703.033  32% 585.574 MM14                                                
  309.080  43% 257.441 MM17                                                
 1.88E+03  28% 1.6E+03 Lip13a+Lip13b                                       
 3.40E+03  11% 2.8E+03 MM14+Lip13a+Lip13b+MM12                             
 1.99E+03   9% 1.7E+03 MM09+Lip09                                          
 1.08E+03  16% 899.856 MM20+Lip20                                          
   6 lines in following misc. output table
  FWHM = 0.031 ppm    S/N =   4                                            
  Data shift = 0.015 ppm                                                   
  Ph:  40 deg      21.9 deg/ppm                                            
  alphaB,S = 1.1E+00,   1.1E+01                                            
   14 spline knots.   Ns = 5(1)                                            
  ( 6) 3 infls.   ( 6) 2 extrs.                                            
  498 points on ppm-axis = NY
      4.000000     3.992357     3.984714     3.977070     3.969427     3.961784     3.954141     3.946497     3.938854     3.931211
      3.923568     3.915925     3.908281     3.900638     3.892995     3.885352     3.877708     3.870065     3.862422     3.854779
      3.847136     3.839492     3.831849     3.824206     3.816563     3.808919     3.801276     3.793633     3.785990     3.778347
      3.770703     3.763060     3.755417     3.747774     3.740130     3.732487     3.724844     3.717201     3.709558     3.701914
      3.694271     3.686628     3.678985     3.671341     3.663698     3.656055     3.648412     3.640769     3.633125     3.625482
      3.617839     3.610196     3.602552     3.594909     3.587266     3.579623     3.571980     3.564336     3.556693     3.549050
      3.541407     3.533763     3.526120     3.518477     3.510834     3.503191     3.495547     3.487904     3.480261     3.472618
      3.464974     3.457331     3.449688     3.442045     3.434402     3.426758     3.419115     3.411472     3.403829     3.396185
      3.388542     3.380899     3.373256     3.365613     3.357969     3.350326     3.342683     3.335040     3.327396     3.319753
      3.312110     3.304467     3.296824     3.289180     3.281537     3.273894     3.266251     3.258607     3.250964     3.243321
      3.235678     3.228034     3.220391     3.212748     3.205105     3.197462     3.189818     3.182175     3.174532     3.166889
      3.159245     3.151602     3.143959     3.136316     3.128673     3.121029     3.113386     3.105743     3.098100     3.090456
      3.082813     3.075170     3.067527     3.059884     3.052240     3.044597     3.036954     3.029311     3.021667     3.014024
      3.006381     2.998738     2.991095     2.983451     2.975808     2.968165     2.960522     2.952878     2.945235     2.937592
      2.929949     2.922306     2.914662     2.907019     2.899376     2.891733     2.884089     2.876446     2.868803     2.861160
      2.853517     2.845873     2.838230     2.830587     2.822944     2.815300     2.807657     2.800014     2.792371     2.784728
      2.777084     2.769441     2.761798     2.754155     2.746511     2.738868     2.731225     2.723582     2.715939     2.708295
      2.700652     2.693009     2.685366     2.677722     2.670079     2.662436     2.654793     2.647150     2.639506     2.631863
      2.624220     2.616577     2.608933     2.601290     2.593647     2.586004     2.578361     2.570717     2.563074     2.555431
      2.547788     2.540144     2.532501     2.524858     2.517215     2.509572     2.501928     2.494285     2.486642     2.478999
      2.471355     2.463712     2.456069     2.448426     2.440783     2.433139     2.425496     2.417853     2.410210     2.402566
      2.394923     2.387280     2.379637     2.371994     2.364350     2.356707     2.349064     2.341421     2.333777     2.326134
      2.318491     2.310848     2.303205     2.295561     2.287918     2.280275     2.272632     2.264988     2.257345     2.249702
      2.242059     2.234416     2.226772     2.219129     2.211486     2.203843     2.196199     2.188556     2.180913     2.173270
      2.165627     2.157983     2.150340     2.142697     2.135054     2.127410     2.119767     2.112124     2.104481     2.096838
      2.089194     2.081551     2.073908     2.066265     2.058621     2.050978     2.043335     2.035692     2.028049     2.020405
      2.012762     2.005119     1.997476     1.989833     1.982190     1.974546     1.966903     1.959260     1.951617     1.943974
      1.936331     1.928688     1.921045     1.913402     1.905759     1.898115     1.890472     1.882829     1.875186     1.867543
      1.859900     1.852257     1.844614     1.836971     1.829327     1.821684     1.814041     1.806398     1.798755     1.791112
      1.783469     1.775826     1.768183     1.760540     1.752896     1.745253     1.737610     1.729967     1.722324     1.714681
      1.707038     1.699395     1.691752     1.684108     1.676465     1.668822     1.661179     1.653536     1.645893     1.638250
      1.630607     1.622964     1.615321     1.607677     1.600034     1.592391     1.584748     1.577105     1.569462     1.561819
      1.554176     1.546533     1.538890     1.531246     1.523603     1.515960     1.508317     1.500674     1.493031     1.485388
      1.477745     1.470102     1.462458     1.454815     1.447172     1.439529     1.431886     1.424243     1.416600     1.408957
      1.401314     1.393671     1.386027     1.378384     1.370741     1.363098     1.355455     1.347812     1.340169     1.332526
      1.324883     1.317240     1.309596     1.301953     1.294310     1.286667     1.279024     1.271381     1.263738     1.256095
      1.248452     1.240808     1.233165     1.225522     1.217879     1.210236     1.202593     1.194950     1.187307     1.179664
      1.172021     1.164377     1.156734     1.149091     1.141448     1.133805     1.126162     1.118519     1.110876     1.103233
      1.095590     1.087946     1.080303     1.072660     1.065017     1.057374     1.049731     1.042088     1.034445     1.026802
      1.019158     1.011515     1.003872     0.996229     0.988586     0.980943     0.973300     0.965657     0.958014     0.950371
      0.942727     0.935084     0.927441     0.919798     0.912155     0.904512     0.896869     0.889226     0.881583     0.873940
      0.866296     0.858653     0.851010     0.843367     0.835724     0.828081     0.820438     0.812795     0.805152     0.797508
      0.789865     0.782222     0.774579     0.766936     0.759293     0.751650     0.744007     0.736364     0.728721     0.721077
      0.713434     0.705791     0.698148     0.690505     0.682862     0.675219     0.667576     0.659933     0.652290     0.644646
      0.637003     0.629360     0.621717     0.614074     0.606431     0.598788     0.591145     0.583502     0.575858     0.568215
      0.560572     0.552929     0.545286     0.537643     0.530000     0.522357     0.514714     0.507071     0.499427     0.491784
      0.484141     0.476498     0.468855     0.461212     0.453569     0.445925     0.438282     0.430639     0.422996     0.415353
      0.407710     0.400067     0.392424     0.384780     0.377137     0.369494     0.361851     0.354208     0.346565     0.338922
      0.331278     0.323635     0.315992     0.308349     0.300706     0.293063     0.285420     0.277777     0.270133     0.262490
      0.254847     0.247204     0.239561     0.231918     0.224275     0.216631     0.208988     0.201345
 NY phased data points follow
  -2.09277E-01  5.84595E-01 -9.37618E-01  1.04757E+00  4.98808E-01 -1.08287E+00  1.19917E+00  7.45229E-01  1.77494E+00  8.55728E-02
  -1.90471E-01  9.43658E-01  3.89544E-01  8.90108E-01  3.79046E-01 -1.08353E+00  1.04001E+00 -1.92805E+00 -3.24658E-01  1.69313E+00
  -1.47087E+00 -4.32811E-02  1.25579E+00 -7.01106E-01 -6.00000E-01  6.75557E-01  1.64476E+00 -3.11931E-02  1.50834E+00 -7.56322E-02
  -1.99861E+00 -2.24524E-01  9.23983E-01  1.13099E+00  3.86967E-01  2.26390E-01 -6.37234E-01  1.07330E+00  1.05812E-01 -2.23162E+00
   1.34686E+00  3.30230E+00  4.23796E-02 -1.44050E-01 -1.05089E+00  1.63000E+00  6.44645E-01 -1.31875E-03  6.53422E-01  7.58106E-01
   1.68137E+00 -3.37767E+00 -1.85228E-01 -2.19859E+00 -8.20103E-01  4.27110E-01 -8.24486E-02 -1.60357E+00  1.20955E+00  1.11642E+00
   2.81409E-01  5.91480E-01  1.47842E+00 -1.03027E+00  4.98364E-01  8.31201E-02 -5.21939E-01 -1.15428E+00 -1.17503E+00  1.39923E-01
   8.00744E-01 -7.94163E-01 -1.02727E+00 -9.01227E-01  1.34695E-01  9.70994E-01  4.39297E-01 -2.48087E-01 -8.05632E-02 -2.00437E+00
   3.03502E-01 -8.68188E-01 -8.90382E-01 -1.38081E+00  1.62446E+00  3.33981E-01  1.02031E+00 -1.44022E+00  1.07866E-01  1.25744E-01
  -8.38583E-01  8.22841E-01  7.19753E-01  1.12764E+00 -1.60402E+00  1.10613E-01 -3.97706E-01  1.54685E+00 -1.05375E+00 -2.66717E-01
   5.34239E-01  1.56781E+00 -9.26319E-01  1.44432E+00  9.05628E-01 -3.43730E-01  1.25357E-01 -1.76697E+00 -7.40389E-01  5.55764E-01
   1.35036E+00  2.96741E-01  1.90219E-01  7.37204E-01 -1.99493E+00 -1.72653E+00  4.73862E-01 -8.02382E-01  1.38437E-01 -2.33322E-01
   1.47726E+00  5.36317E-01 -3.78360E-01 -2.98737E-01  1.40203E+00 -3.80886E-01  4.79299E-01  7.05452E-01 -1.34147E+00 -9.21787E-01
  -2.93972E+00 -3.58755E+00 -2.21592E+00  1.03570E+00 -8.73105E-01  9.23378E-02  1.25916E+00 -4.56038E-02 -2.02343E+00  8.54928E-02
  -4.80870E-01  9.55362E-01 -3.89724E-01 -4.65827E-01 -1.16536E+00  9.18540E-01  1.20320E-01 -1.07076E+00  1.70285E+00 -6.63492E-01
  -2.05897E+00  1.67141E-01  1.31276E+00 -2.78072E-01  5.79756E-01  7.28925E-01 -1.81429E-01  1.21718E+00  1.54482E+00 -5.90252E-01
   5.78685E-01  2.16453E-01  1.04104E-01 -2.36439E-01 -4.53498E-02  1.65964E+00  3.28400E+00  3.31361E-01  1.51114E+00  1.11711E+00
   5.90438E-01 -9.98085E-01  2.09635E+00 -2.42359E-01  1.80900E+00  1.33462E+00  3.17358E-01 -2.53842E-01  3.20205E+00  7.44361E-01
   3.22277E-01  5.15355E-01 -1.70688E+00  1.28604E+00  1.58779E+00  2.73308E+00  3.52141E+00  1.36678E+00  3.22635E+00  2.69313E+00
   1.89577E+00 -3.70949E-01 -1.56228E-01  9.81796E-01  3.31433E+00  2.39294E+00  1.94856E+00  1.36769E+00  1.45386E+00  7.54754E-01
   2.54245E-01  2.44727E-01  9.55777E-01 -2.18753E-01 -4.30462E-01  2.71818E+00  1.66352E+00 -2.04870E-01  2.93742E-01 -9.49813E-01
   8.30659E-01  2.46336E+00 -5.97361E-01  7.65426E-01  2.62336E+00  1.36640E+00  5.89559E-01  3.75837E+00  1.17581E+00 -1.28762E+00
  -7.73528E-02  1.42075E+00  1.49153E+00 -1.72780E-01  8.36603E-01  8.09099E-01  2.17001E+00  3.29753E+00  2.99829E+00  1.08818E+00
   2.76527E+00  1.79113E+00  9.50656E-01  3.74687E+00  2.40840E+00  3.22182E+00  1.96398E+00  3.41780E+00  4.99750E+00  3.91239E+00
   3.40716E+00  3.11643E+00  3.85584E+00  3.00526E+00  5.20976E+00  2.32858E+00  2.13882E+00  3.79646E+00  4.16929E+00  3.15204E+00
   3.04449E+00  4.03208E+00  3.46640E+00  5.29389E+00  5.61781E+00  4.21275E+00  5.59083E+00  5.90605E+00  7.05416E+00  8.18557E+00
   8.89126E+00  8.61366E+00  4.67301E+00  1.63294E+00  9.04116E-01  3.45844E+00  5.17730E+00  3.11261E+00  1.26973E+00  3.19503E+00
   3.94163E+00  7.90288E-01  1.48107E+00  1.35728E+00  3.56699E+00  3.47074E-01  4.99614E-01  2.05805E+00  1.73147E+00  2.33471E+00
   3.09235E+00  1.59121E+00  2.40293E+00  2.30658E+00  2.27069E+00  3.30874E-01  1.28588E+00 -9.33502E-01  1.65380E+00  3.05915E+00
   1.57371E+00  2.93641E+00  1.84999E+00 -1.17296E+00  1.56925E-01  9.14823E-01  1.49622E+00  7.71667E-01  4.81803E+00  1.46212E+00
   2.93643E+00  2.00967E+00  3.92598E+00  2.09184E+00  2.22179E-01  1.85165E+00  2.74616E+00  4.57658E+00  7.07828E-01  3.14601E+00
   3.35393E+00  4.86055E+00  2.55206E+00  3.23949E+00  1.06328E+00  3.16865E+00  2.56728E+00  3.69736E+00  2.33358E+00  4.00450E+00
   5.25865E+00  3.17024E+00  2.77347E+00  3.70052E+00  4.08201E+00  2.96333E+00  4.58856E+00  4.25818E+00  5.65860E+00  3.87377E+00
   5.03727E+00  7.51529E+00  4.96260E+00  7.53147E+00  5.35203E+00  7.47007E+00  4.54212E+00  8.76982E+00  6.52723E+00  5.49104E+00
   6.40567E+00  6.39015E+00  5.96173E+00  8.63558E+00  6.22215E+00  6.64696E+00  7.74989E+00  9.97905E+00  9.48603E+00  4.64534E+00
   6.41839E+00  6.34289E+00  5.16592E+00  8.58121E+00  6.29880E+00  5.85734E+00  9.22983E+00  8.20561E+00  8.90479E+00  7.25459E+00
   1.03883E+01  8.61839E+00  7.56927E+00  8.58476E+00  8.85710E+00  9.07900E+00  7.10203E+00  9.51759E+00  8.73452E+00  1.00908E+01
   8.08825E+00  7.66664E+00  9.87661E+00  1.24187E+01  1.10011E+01  1.10110E+01  9.47851E+00  9.14131E+00  1.01183E+01  1.01180E+01
   1.09757E+01  1.01803E+01  1.03172E+01  1.19477E+01  9.04671E+00  8.76133E+00  9.12454E+00  9.10850E+00  9.47397E+00  9.96405E+00
   1.03723E+01  7.38801E+00  8.06136E+00  9.83037E+00  1.14609E+01  9.70624E+00  9.71512E+00  1.10250E+01  8.07294E+00  1.19333E+01
   9.82540E+00  1.05536E+01  1.01623E+01  1.07851E+01  9.55140E+00  8.76454E+00  9.45888E+00  6.48342E+00  6.64312E+00  6.82660E+00
   6.52515E+00  6.33848E+00  6.14508E+00  6.40275E+00  5.99382E+00  7.03228E+00  7.08972E+00  4.62008E+00  4.44316E+00  2.99176E+00
   3.23170E+00  3.01796E+00  3.38815E+00  1.17676E+00  1.67163E+00  3.13043E+00  1.98978E+00  1.16068E+00  2.38966E+00  1.60093E+00
   2.69026E+00 -2.54978E-04  1.77218E+00  3.11857E+00  2.05836E+00  9.45015E-02  2.76542E+00  1.31725E+00  2.55632E+00  5.61777E-01
   1.81758E+00  4.95986E-01  2.74131E+00  7.31209E-01  1.39009E+00 -6.16740E-01  3.32675E-01 -4.33127E-01 -1.60031E-01  5.41166E-01
   1.47545E+00 -1.74980E+00 -4.11901E-02 -8.46347E-01 -1.45903E+00 -1.36767E+00  4.40543E-01 -1.09977E+00 -6.70966E-01 -5.03526E-01
   7.26007E-02  1.61348E-01 -2.49612E+00 -2.29313E+00 -1.80006E+00 -1.92059E+00 -1.44072E+00 -8.36326E-01 -3.09954E+00 -3.00500E+00
  -2.50691E+00 -3.20450E+00 -4.69562E+00 -1.56770E+00 -1.09932E+00 -3.63123E+00 -4.13550E+00 -4.65472E+00 -2.61802E+00 -2.64324E+00
  -1.70073E+00 -3.13977E+00 -3.54735E+00 -4.93311E+00 -1.92047E+00 -5.23442E+00 -4.26245E+00 -4.38186E+00 -3.51860E+00 -1.59206E+00
  -5.94322E+00 -3.87826E+00 -3.91027E+00 -3.43159E+00 -4.20458E+00 -4.78606E+00 -4.37490E+00 -3.65321E+00
 NY points of the fit to the data follow
  -1.02666E-01 -5.45568E-02 -2.34013E-02 -1.90556E-02 -1.58834E-02 -6.46604E-03  1.65038E-03  4.52110E-03  1.90111E-03 -4.07074E-03
  -1.21357E-02 -2.05199E-02 -2.68070E-02 -2.91384E-02 -2.80930E-02 -2.67924E-02 -2.56912E-02 -3.06560E-02 -4.28032E-02 -4.73732E-02
  -2.97813E-02  1.00116E-02  5.90280E-02  9.67303E-02  1.06081E-01  6.99552E-02 -2.48168E-02 -1.69805E-01 -2.98723E-01 -2.99326E-01
  -1.14874E-01  1.81479E-01  4.36578E-01  5.33991E-01  4.50292E-01  2.14424E-01 -6.77348E-02 -2.58418E-01 -3.01458E-01 -2.35781E-01
  -1.23013E-01 -1.54908E-02  6.58310E-02  1.30412E-01  2.36999E-01  4.34351E-01  6.70847E-01  8.23596E-01  7.58786E-01  4.34385E-01
  -1.06827E-03 -3.03179E-01 -3.52578E-01 -2.46038E-01 -1.36309E-01 -6.29727E-02  4.08346E-03  8.33252E-02  1.70726E-01  2.51458E-01
   2.87364E-01  2.36265E-01  1.01614E-01 -5.11991E-02 -1.41007E-01 -1.44019E-01 -8.61464E-02 -3.69537E-03  6.61134E-02  1.12819E-01
   1.39621E-01  1.57843E-01  1.70764E-01  1.63448E-01  1.30352E-01  8.68354E-02  5.28910E-02  2.83086E-02  2.44355E-04 -1.68770E-02
  -9.94626E-03  1.30644E-02  3.67357E-02  4.85912E-02  3.43089E-02 -1.58968E-02 -1.02311E-01 -2.08684E-01 -2.87952E-01 -2.84051E-01
  -1.89976E-01 -6.70629E-02  1.39039E-02  4.29341E-02  4.45606E-02  3.56881E-02  1.75547E-02 -4.27465E-03  5.63763E-03  9.42211E-02
   2.85461E-01  5.47031E-01  7.76204E-01  8.31105E-01  6.29431E-01  2.76431E-01  1.18209E-02 -2.92832E-02  5.98653E-02  1.15366E-01
   1.37317E-01  1.59894E-01  1.83621E-01  2.07886E-01  2.29423E-01  2.49272E-01  2.68643E-01  2.88482E-01  3.09267E-01  3.31826E-01
   3.57407E-01  3.87774E-01  4.24385E-01  4.67209E-01  5.16910E-01  5.71652E-01  6.22640E-01  6.54087E-01  6.57204E-01  6.43657E-01
   6.34530E-01  6.40031E-01  6.51368E-01  6.57835E-01  6.64790E-01  6.77505E-01  6.93523E-01  7.07968E-01  7.18819E-01  7.26465E-01
   7.31394E-01  7.33965E-01  7.36578E-01  7.45403E-01  7.60955E-01  7.75156E-01  7.80165E-01  7.75116E-01  7.67661E-01  7.64990E-01
   7.67640E-01  7.70947E-01  7.70012E-01  7.66655E-01  7.66504E-01  7.71738E-01  7.75295E-01  7.62911E-01  7.22426E-01  6.57896E-01
   5.96925E-01  5.77797E-01  6.22571E-01  7.02944E-01  7.50176E-01  7.12689E-01  6.07853E-01  5.03849E-01  4.45200E-01  4.33825E-01
   4.36062E-01  4.18683E-01  3.81285E-01  3.26106E-01  2.64937E-01  2.26107E-01  2.33070E-01  2.81510E-01  3.27369E-01  3.17037E-01
   2.46627E-01  1.80015E-01  1.81952E-01  2.34491E-01  2.71757E-01  2.67871E-01  2.53210E-01  2.83794E-01  3.68472E-01  4.57606E-01
   4.90886E-01  4.61925E-01  4.24091E-01  4.22608E-01  4.47718E-01  4.76728E-01  4.91572E-01  4.73233E-01  4.26786E-01  3.95380E-01
   4.19462E-01  5.02038E-01  6.08022E-01  6.96091E-01  7.38820E-01  7.04869E-01  6.01336E-01  4.75287E-01  3.73702E-01  3.16898E-01
   3.18764E-01  4.27734E-01  6.75198E-01  1.04983E+00  1.46459E+00  1.75878E+00  1.78477E+00  1.46443E+00  9.21374E-01  4.24543E-01
   1.55988E-01  1.28731E-01  2.84644E-01  6.60243E-01  1.24062E+00  1.80070E+00  2.09958E+00  2.10927E+00  2.00881E+00  1.94827E+00
   1.93005E+00  1.93516E+00  1.99697E+00  2.11685E+00  2.26092E+00  2.38753E+00  2.47232E+00  2.52213E+00  2.54794E+00  2.56472E+00
   2.59671E+00  2.67351E+00  2.81982E+00  3.03686E+00  3.29136E+00  3.51243E+00  3.64119E+00  3.66834E+00  3.63643E+00  3.60910E+00
   3.61457E+00  3.70149E+00  3.92175E+00  4.26136E+00  4.62785E+00  5.02171E+00  5.54110E+00  6.27160E+00  7.24220E+00  8.26155E+00
   8.73468E+00  7.87037E+00  5.69807E+00  3.49442E+00  2.49463E+00  2.61205E+00  2.80727E+00  2.70625E+00  2.56818E+00  2.43429E+00
   2.30145E+00  2.18798E+00  2.10875E+00  2.04606E+00  1.98094E+00  1.89633E+00  1.78758E+00  1.66967E+00  1.56617E+00  1.48511E+00
   1.42042E+00  1.36929E+00  1.33403E+00  1.31350E+00  1.30080E+00  1.29070E+00  1.28527E+00  1.28969E+00  1.30516E+00  1.33236E+00
   1.37271E+00  1.42609E+00  1.48953E+00  1.55977E+00  1.63461E+00  1.71367E+00  1.79757E+00  1.88600E+00  1.97685E+00  2.06882E+00
   2.16120E+00  2.25193E+00  2.33794E+00  2.41664E+00  2.48712E+00  2.54964E+00  2.60432E+00  2.65180E+00  2.69331E+00  2.73010E+00
   2.76379E+00  2.79646E+00  2.83045E+00  2.86827E+00  2.91249E+00  2.96562E+00  3.02989E+00  3.10721E+00  3.19902E+00  3.30631E+00
   3.42957E+00  3.56870E+00  3.72299E+00  3.89120E+00  4.07160E+00  4.26202E+00  4.45994E+00  4.66255E+00  4.86691E+00  5.07011E+00
   5.26934E+00  5.46203E+00  5.64591E+00  5.81918E+00  5.98061E+00  6.12960E+00  6.26625E+00  6.39139E+00  6.50673E+00  6.61518E+00
   6.72143E+00  6.83390E+00  6.97079E+00  7.15444E+00  7.37135E+00  7.56856E+00  7.65271E+00  7.52458E+00  7.14109E+00  6.62250E+00
   6.26959E+00  6.32036E+00  6.72651E+00  7.26061E+00  7.81512E+00  8.42450E+00  8.92074E+00  9.08862E+00  8.95289E+00  8.77585E+00
   8.78385E+00  8.93183E+00  9.06371E+00  9.16984E+00  9.25815E+00  9.32831E+00  9.37901E+00  9.40929E+00  9.41895E+00  9.40882E+00
   9.38065E+00  9.33707E+00  9.28138E+00  9.21754E+00  9.15003E+00  9.08375E+00  9.02369E+00  8.97462E+00  8.94086E+00  8.92608E+00
   8.93320E+00  8.96419E+00  9.01988E+00  9.09987E+00  9.20246E+00  9.32483E+00  9.46312E+00  9.61259E+00  9.76771E+00  9.92239E+00
   1.00703E+01  1.02052E+01  1.03210E+01  1.04125E+01  1.04748E+01  1.05042E+01  1.04978E+01  1.04540E+01  1.03722E+01  1.02531E+01
   1.00980E+01  9.90897E+00  9.68903E+00  9.44148E+00  9.16998E+00  8.87825E+00  8.56992E+00  8.24846E+00  7.91714E+00  7.57891E+00
   7.23639E+00  6.89179E+00  6.54700E+00  6.20361E+00  5.86300E+00  5.52639E+00  5.19476E+00  4.86896E+00  4.54975E+00  4.23782E+00
   3.93388E+00  3.63851E+00  3.35226E+00  3.07555E+00  2.80876E+00  2.55223E+00  2.30623E+00  2.07091E+00  1.84630E+00  1.63233E+00
   1.42886E+00  1.23574E+00  1.05270E+00  8.79407E-01  7.15447E-01  5.60383E-01  4.13779E-01  2.75203E-01  1.44196E-01  2.02741E-02
  -9.70517E-02 -2.08235E-01 -3.13680E-01 -4.13776E-01 -5.08911E-01 -5.99476E-01 -6.85831E-01 -7.68284E-01 -8.47103E-01 -9.22544E-01
  -9.94873E-01 -1.06435E+00 -1.13118E+00 -1.19555E+00 -1.25762E+00 -1.31754E+00 -1.37548E+00 -1.43161E+00 -1.48604E+00 -1.53886E+00
  -1.59017E+00 -1.64007E+00 -1.68867E+00 -1.73608E+00 -1.78234E+00 -1.82751E+00 -1.87164E+00 -1.91482E+00 -1.95712E+00 -1.99859E+00
  -2.03926E+00 -2.07915E+00 -2.11831E+00 -2.15680E+00 -2.19467E+00 -2.23194E+00 -2.26862E+00 -2.30472E+00 -2.34031E+00 -2.37541E+00
  -2.41005E+00 -2.44424E+00 -2.47797E+00 -2.51128E+00 -2.54420E+00 -2.57676E+00 -2.60896E+00 -2.64081E+00 -2.67230E+00 -2.70346E+00
  -2.73432E+00 -2.76491E+00 -2.79521E+00 -2.82521E+00 -2.85493E+00 -2.88440E+00 -2.91363E+00 -2.94263E+00
 NY background values follow
    -2.560E-02   -2.636E-02   -2.713E-02   -2.790E-02   -2.867E-02   -2.944E-02   -3.021E-02   -3.099E-02   -3.176E-02   -3.253E-02
    -3.331E-02   -3.408E-02   -3.486E-02   -3.563E-02   -3.640E-02   -3.716E-02   -3.793E-02   -3.869E-02   -3.945E-02   -4.020E-02
    -4.095E-02   -4.170E-02   -4.244E-02   -4.317E-02   -4.390E-02   -4.462E-02   -4.534E-02   -4.605E-02   -4.676E-02   -4.745E-02
    -4.814E-02   -4.882E-02   -4.949E-02   -5.015E-02   -5.080E-02   -5.145E-02   -5.208E-02   -5.270E-02   -5.331E-02   -5.391E-02
    -5.450E-02   -5.507E-02   -5.564E-02   -5.619E-02   -5.672E-02   -5.725E-02   -5.776E-02   -5.825E-02   -5.873E-02   -5.920E-02
    -5.965E-02   -6.008E-02   -6.050E-02   -6.090E-02   -6.128E-02   -6.165E-02   -6.200E-02   -6.233E-02   -6.264E-02   -6.294E-02
    -6.321E-02   -6.347E-02   -6.370E-02   -6.392E-02   -6.411E-02   -6.428E-02   -6.444E-02   -6.457E-02   -6.467E-02   -6.476E-02
    -6.482E-02   -6.486E-02   -6.488E-02   -6.487E-02   -6.484E-02   -6.478E-02   -6.470E-02   -6.459E-02   -6.445E-02   -6.429E-02
    -6.411E-02   -6.389E-02   -6.365E-02   -6.339E-02   -6.309E-02   -6.276E-02   -6.241E-02   -6.203E-02   -6.162E-02   -6.117E-02
    -6.070E-02   -6.020E-02   -5.966E-02   -5.910E-02   -5.850E-02   -5.788E-02   -5.722E-02   -5.654E-02   -5.582E-02   -5.507E-02
    -5.429E-02   -5.349E-02   -5.265E-02   -5.178E-02   -5.088E-02   -4.996E-02   -4.900E-02   -4.801E-02   -4.699E-02   -4.595E-02
    -4.487E-02   -4.377E-02   -4.263E-02   -4.147E-02   -4.027E-02   -3.905E-02   -3.780E-02   -3.651E-02   -3.520E-02   -3.386E-02
    -3.250E-02   -3.110E-02   -2.967E-02   -2.822E-02   -2.673E-02   -2.522E-02   -2.368E-02   -2.211E-02   -2.051E-02   -1.888E-02
    -1.723E-02   -1.554E-02   -1.383E-02   -1.209E-02   -1.033E-02   -8.530E-03   -6.706E-03   -4.855E-03   -2.980E-03   -1.081E-03
     8.393E-04    2.778E-03    4.735E-03    6.706E-03    8.690E-03    1.069E-02    1.269E-02    1.470E-02    1.672E-02    1.874E-02
     2.076E-02    2.278E-02    2.480E-02    2.682E-02    2.882E-02    3.082E-02    3.281E-02    3.478E-02    3.674E-02    3.869E-02
     4.061E-02    4.252E-02    4.440E-02    4.626E-02    4.809E-02    4.989E-02    5.166E-02    5.340E-02    5.511E-02    5.678E-02
     5.841E-02    6.000E-02    6.154E-02    6.305E-02    6.450E-02    6.591E-02    6.727E-02    6.858E-02    6.983E-02    7.102E-02
     7.216E-02    7.324E-02    7.425E-02    7.521E-02    7.609E-02    7.692E-02    7.768E-02    7.838E-02    7.901E-02    7.957E-02
     8.007E-02    8.050E-02    8.086E-02    8.115E-02    8.137E-02    8.152E-02    8.161E-02    8.162E-02    8.155E-02    8.142E-02
     8.121E-02    8.093E-02    8.057E-02    8.013E-02    7.963E-02    7.904E-02    7.838E-02    7.763E-02    7.681E-02    7.592E-02
     7.494E-02    7.388E-02    7.274E-02    7.151E-02    7.021E-02    6.882E-02    6.735E-02    6.579E-02    6.415E-02    6.242E-02
     6.061E-02    5.871E-02    5.672E-02    5.464E-02    5.247E-02    5.022E-02    4.787E-02    4.544E-02    4.291E-02    4.029E-02
     3.758E-02    3.478E-02    3.189E-02    2.891E-02    2.584E-02    2.268E-02    1.943E-02    1.609E-02    1.266E-02    9.144E-03
     5.535E-03    1.836E-03   -1.953E-03   -5.831E-03   -9.799E-03   -1.386E-02   -1.800E-02   -2.224E-02   -2.656E-02   -3.097E-02
    -3.548E-02   -4.007E-02   -4.474E-02   -4.951E-02   -5.437E-02   -5.931E-02   -6.435E-02   -6.947E-02   -7.468E-02   -7.997E-02
    -8.536E-02   -9.083E-02   -9.639E-02   -1.020E-01   -1.078E-01   -1.136E-01   -1.195E-01   -1.255E-01   -1.316E-01   -1.378E-01
    -1.440E-01   -1.504E-01   -1.568E-01   -1.633E-01   -1.699E-01   -1.766E-01   -1.834E-01   -1.903E-01   -1.972E-01   -2.043E-01
    -2.114E-01   -2.186E-01   -2.259E-01   -2.333E-01   -2.407E-01   -2.483E-01   -2.559E-01   -2.636E-01   -2.714E-01   -2.793E-01
    -2.873E-01   -2.953E-01   -3.035E-01   -3.117E-01   -3.200E-01   -3.284E-01   -3.368E-01   -3.454E-01   -3.540E-01   -3.627E-01
    -3.715E-01   -3.804E-01   -3.893E-01   -3.983E-01   -4.075E-01   -4.167E-01   -4.259E-01   -4.353E-01   -4.447E-01   -4.543E-01
    -4.638E-01   -4.735E-01   -4.833E-01   -4.931E-01   -5.030E-01   -5.130E-01   -5.231E-01   -5.332E-01   -5.435E-01   -5.538E-01
    -5.642E-01   -5.746E-01   -5.852E-01   -5.958E-01   -6.065E-01   -6.172E-01   -6.281E-01   -6.390E-01   -6.500E-01   -6.611E-01
    -6.723E-01   -6.835E-01   -6.948E-01   -7.062E-01   -7.176E-01   -7.292E-01   -7.408E-01   -7.525E-01   -7.642E-01   -7.761E-01
    -7.880E-01   -8.000E-01   -8.120E-01   -8.241E-01   -8.364E-01   -8.486E-01   -8.610E-01   -8.734E-01   -8.859E-01   -8.985E-01
    -9.112E-01   -9.239E-01   -9.367E-01   -9.496E-01   -9.625E-01   -9.755E-01   -9.886E-01   -1.002E+00   -1.015E+00   -1.028E+00
    -1.042E+00   -1.055E+00   -1.069E+00   -1.082E+00   -1.096E+00   -1.110E+00   -1.123E+00   -1.137E+00   -1.151E+00   -1.165E+00
    -1.179E+00   -1.194E+00   -1.208E+00   -1.222E+00   -1.236E+00   -1.251E+00   -1.265E+00   -1.280E+00   -1.295E+00   -1.309E+00
    -1.324E+00   -1.339E+00   -1.354E+00   -1.369E+00   -1.384E+00   -1.399E+00   -1.414E+00   -1.430E+00   -1.445E+00   -1.460E+00
    -1.476E+00   -1.491E+00   -1.507E+00   -1.523E+00   -1.539E+00   -1.554E+00   -1.570E+00   -1.586E+00   -1.602E+00   -1.618E+00
    -1.635E+00   -1.651E+00   -1.667E+00   -1.684E+00   -1.700E+00   -1.717E+00   -1.733E+00   -1.750E+00   -1.766E+00   -1.783E+00
    -1.800E+00   -1.817E+00   -1.834E+00   -1.851E+00   -1.868E+00   -1.885E+00   -1.903E+00   -1.920E+00   -1.937E+00   -1.955E+00
    -1.972E+00   -1.990E+00   -2.008E+00   -2.025E+00   -2.043E+00   -2.061E+00   -2.079E+00   -2.097E+00   -2.115E+00   -2.133E+00
    -2.151E+00   -2.169E+00   -2.187E+00   -2.206E+00   -2.224E+00   -2.243E+00   -2.261E+00   -2.280E+00   -2.298E+00   -2.317E+00
    -2.336E+00   -2.354E+00   -2.373E+00   -2.392E+00   -2.411E+00   -2.430E+00   -2.449E+00   -2.468E+00   -2.487E+00   -2.507E+00
    -2.526E+00   -2.545E+00   -2.565E+00   -2.584E+00   -2.604E+00   -2.623E+00   -2.643E+00   -2.662E+00   -2.682E+00   -2.702E+00
    -2.722E+00   -2.741E+00   -2.761E+00   -2.781E+00   -2.801E+00   -2.821E+00   -2.841E+00   -2.861E+00   -2.881E+00   -2.901E+00
    -2.922E+00   -2.942E+00   -2.962E+00   -2.982E+00   -3.002E+00   -3.023E+00   -3.043E+00   -3.063E+00   -3.083E+00   -3.104E+00
    -3.124E+00   -3.145E+00   -3.165E+00   -3.185E+00   -3.206E+00   -3.226E+00   -3.246E+00   -3.267E+00   -3.287E+00   -3.308E+00
    -3.328E+00   -3.349E+00   -3.369E+00   -3.389E+00   -3.410E+00   -3.430E+00   -3.451E+00   -3.471E+00
 Asp      Conc. = 6.04E+00
