 LCModel (Version 6.3-1L) Copyright: S.W. Provencher.          Ref.: Magn. Reson. Med. 30:672-679 (1993).                
 Slice#1 Row#4 Col#7  PD_05_press_1_raw_act
 36 lines in following concentration table = NCONC+1
    Conc.  %SD /Cr+PCr  Metabolite                                         
   10.279 892% 1.1E-02 Ala                                                 
    0.000 999%   0.000 Asp                                                 
  754.487  25%   0.776 Cr                                                  
  217.958  89%   0.224 PCr                                                 
   17.930 663% 1.8E-02 GABA                                                
  108.026 109%   0.111 Glc                                                 
  312.200  62%   0.321 Gln                                                 
 1.03E+03  22%   1.063 Glu                                                 
  424.103   4%   0.436 GPC                                                 
    0.000 999%   0.000 PCh                                                 
  323.203  19%   0.332 GSH                                                 
 1.40E+03  14%   1.440 Ins                                                 
   43.815 230% 4.5E-02 Lac                                                 
 1.33E+03   7%   1.371 NAA                                                 
  442.336  23%   0.455 NAAG                                                
  111.158  20%   0.114 Scyllo                                              
  106.696 149%   0.110 Tau                                                 
  212.357  40%   0.218 -CrCH2                                              
  424.103   4%   0.436 GPC+PCh                                             
 1.78E+03   4%   1.826 NAA+NAAG                                            
  972.445   5%   1.000 Cr+PCr                                              
 1.35E+03  24%   1.384 Glu+Gln                                             
 1.67E+03  19%   1.718 Lip13a                                              
    0.000 999%   0.000 Lip13b                                              
  182.667 103%   0.188 Lip09                                               
  821.070  23%   0.844 MM09                                                
  318.924  49%   0.328 Lip20                                               
 1.63E+03  16%   1.681 MM20                                                
  295.839  37%   0.304 MM12                                                
    0.000 999%   0.000 MM14                                                
  516.176  27%   0.531 MM17                                                
 1.67E+03  19%   1.718 Lip13a+Lip13b                                       
 1.97E+03  15%   2.022 MM14+Lip13a+Lip13b+MM12                             
 1.00E+03  13%   1.032 MM09+Lip09                                          
 1.95E+03  13%   2.009 MM20+Lip20                                          
   6 lines in following misc. output table
  FWHM = 0.061 ppm    S/N =  10                                            
  Data shift =-0.046 ppm                                                   
  Ph: -32 deg     -11.7 deg/ppm                                            
  alphaB,S = 8.5E+01,   1.9E+02                                            
   14 spline knots.   Ns = 7(1)                                            
   2 inflections.     1 extrema                                            
  498 points on ppm-axis = NY
      4.000000     3.992357     3.984714     3.977070     3.969427     3.961784     3.954141     3.946497     3.938854     3.931211
      3.923568     3.915925     3.908281     3.900638     3.892995     3.885352     3.877708     3.870065     3.862422     3.854779
      3.847136     3.839492     3.831849     3.824206     3.816563     3.808919     3.801276     3.793633     3.785990     3.778347
      3.770703     3.763060     3.755417     3.747774     3.740130     3.732487     3.724844     3.717201     3.709558     3.701914
      3.694271     3.686628     3.678985     3.671341     3.663698     3.656055     3.648412     3.640769     3.633125     3.625482
      3.617839     3.610196     3.602552     3.594909     3.587266     3.579623     3.571980     3.564336     3.556693     3.549050
      3.541407     3.533763     3.526120     3.518477     3.510834     3.503191     3.495547     3.487904     3.480261     3.472618
      3.464974     3.457331     3.449688     3.442045     3.434402     3.426758     3.419115     3.411472     3.403829     3.396185
      3.388542     3.380899     3.373256     3.365613     3.357969     3.350326     3.342683     3.335040     3.327396     3.319753
      3.312110     3.304467     3.296824     3.289180     3.281537     3.273894     3.266251     3.258607     3.250964     3.243321
      3.235678     3.228034     3.220391     3.212748     3.205105     3.197462     3.189818     3.182175     3.174532     3.166889
      3.159245     3.151602     3.143959     3.136316     3.128673     3.121029     3.113386     3.105743     3.098100     3.090456
      3.082813     3.075170     3.067527     3.059884     3.052240     3.044597     3.036954     3.029311     3.021667     3.014024
      3.006381     2.998738     2.991095     2.983451     2.975808     2.968165     2.960522     2.952878     2.945235     2.937592
      2.929949     2.922306     2.914662     2.907019     2.899376     2.891733     2.884089     2.876446     2.868803     2.861160
      2.853517     2.845873     2.838230     2.830587     2.822944     2.815300     2.807657     2.800014     2.792371     2.784728
      2.777084     2.769441     2.761798     2.754155     2.746511     2.738868     2.731225     2.723582     2.715939     2.708295
      2.700652     2.693009     2.685366     2.677722     2.670079     2.662436     2.654793     2.647150     2.639506     2.631863
      2.624220     2.616577     2.608933     2.601290     2.593647     2.586004     2.578361     2.570717     2.563074     2.555431
      2.547788     2.540144     2.532501     2.524858     2.517215     2.509572     2.501928     2.494285     2.486642     2.478999
      2.471355     2.463712     2.456069     2.448426     2.440783     2.433139     2.425496     2.417853     2.410210     2.402566
      2.394923     2.387280     2.379637     2.371994     2.364350     2.356707     2.349064     2.341421     2.333777     2.326134
      2.318491     2.310848     2.303205     2.295561     2.287918     2.280275     2.272632     2.264988     2.257345     2.249702
      2.242059     2.234416     2.226772     2.219129     2.211486     2.203843     2.196199     2.188556     2.180913     2.173270
      2.165627     2.157983     2.150340     2.142697     2.135054     2.127410     2.119767     2.112124     2.104481     2.096838
      2.089194     2.081551     2.073908     2.066265     2.058621     2.050978     2.043335     2.035692     2.028049     2.020405
      2.012762     2.005119     1.997476     1.989833     1.982190     1.974546     1.966903     1.959260     1.951617     1.943974
      1.936331     1.928688     1.921045     1.913402     1.905759     1.898115     1.890472     1.882829     1.875186     1.867543
      1.859900     1.852257     1.844614     1.836971     1.829327     1.821684     1.814041     1.806398     1.798755     1.791112
      1.783469     1.775826     1.768183     1.760540     1.752896     1.745253     1.737610     1.729967     1.722324     1.714681
      1.707038     1.699395     1.691752     1.684108     1.676465     1.668822     1.661179     1.653536     1.645893     1.638250
      1.630607     1.622964     1.615321     1.607677     1.600034     1.592391     1.584748     1.577105     1.569462     1.561819
      1.554176     1.546533     1.538890     1.531246     1.523603     1.515960     1.508317     1.500674     1.493031     1.485388
      1.477745     1.470102     1.462458     1.454815     1.447172     1.439529     1.431886     1.424243     1.416600     1.408957
      1.401314     1.393671     1.386027     1.378384     1.370741     1.363098     1.355455     1.347812     1.340169     1.332526
      1.324883     1.317240     1.309596     1.301953     1.294310     1.286667     1.279024     1.271381     1.263738     1.256095
      1.248452     1.240808     1.233165     1.225522     1.217879     1.210236     1.202593     1.194950     1.187307     1.179664
      1.172021     1.164377     1.156734     1.149091     1.141448     1.133805     1.126162     1.118519     1.110876     1.103233
      1.095590     1.087946     1.080303     1.072660     1.065017     1.057374     1.049731     1.042088     1.034445     1.026802
      1.019158     1.011515     1.003872     0.996229     0.988586     0.980943     0.973300     0.965657     0.958014     0.950371
      0.942727     0.935084     0.927441     0.919798     0.912155     0.904512     0.896869     0.889226     0.881583     0.873940
      0.866296     0.858653     0.851010     0.843367     0.835724     0.828081     0.820438     0.812795     0.805152     0.797508
      0.789865     0.782222     0.774579     0.766936     0.759293     0.751650     0.744007     0.736364     0.728721     0.721077
      0.713434     0.705791     0.698148     0.690505     0.682862     0.675219     0.667576     0.659933     0.652290     0.644646
      0.637003     0.629360     0.621717     0.614074     0.606431     0.598788     0.591145     0.583502     0.575858     0.568215
      0.560572     0.552929     0.545286     0.537643     0.530000     0.522357     0.514714     0.507071     0.499427     0.491784
      0.484141     0.476498     0.468855     0.461212     0.453569     0.445925     0.438282     0.430639     0.422996     0.415353
      0.407710     0.400067     0.392424     0.384780     0.377137     0.369494     0.361851     0.354208     0.346565     0.338922
      0.331278     0.323635     0.315992     0.308349     0.300706     0.293063     0.285420     0.277777     0.270133     0.262490
      0.254847     0.247204     0.239561     0.231918     0.224275     0.216631     0.208988     0.201345
 NY phased data points follow
  -3.00741E+00 -5.01630E+00 -6.91070E-01 -2.33137E+00  7.53912E-01  2.67912E+00  6.74887E+00  9.03176E+00  1.43180E+01  1.57506E+01
   2.01050E+01  1.52163E+01  1.18578E+01  6.09548E+00  8.36654E+00  5.32146E+00  1.67258E+00 -1.94621E-01 -3.37429E+00 -1.08697E+00
  -4.47442E+00 -3.15363E+00  4.79199E+00  1.40937E+00  2.14155E+00  4.87452E+00  3.49716E+00  5.00140E+00  4.76254E+00  2.60754E+00
   7.02240E+00  6.64786E+00  3.31919E+00  2.07333E+00  5.72837E+00 -1.42010E+00  4.08766E+00  2.83198E-02  5.23544E+00  2.68750E+00
   3.65336E+00  3.02782E-01  6.37826E+00  4.90912E+00  6.33928E+00  4.99432E+00  1.18089E+01  7.43156E+00  8.43104E+00  6.81794E+00
   5.66150E+00  5.72996E+00  4.73718E+00  3.83354E+00  1.37266E+00  1.89482E+00  1.13148E+00  3.46604E+00  3.17752E+00  4.59247E+00
   1.57079E-01  1.85464E+00  3.17294E+00 -1.99272E+00 -6.55960E-01 -5.51331E+00  1.91231E-01 -3.86566E+00 -2.90830E-01 -4.10967E+00
   1.86399E+00 -1.96228E+00  2.66643E+00  3.05995E+00 -1.29031E+00  1.60097E+00 -2.39455E+00  1.67390E+00  3.93727E-01 -1.26434E+00
   7.52516E-01 -3.10485E-01  2.09716E+00  2.45542E+00  2.41201E+00  2.46869E+00  4.88807E+00  2.75108E+00  1.77138E+00  2.36635E+00
   2.60128E-01 -1.15748E+00  1.88305E+00  8.00447E-01  3.06798E+00  9.29515E+00  8.89576E+00  4.95897E+00  1.13043E+01  2.10671E+01
   2.61937E+01  3.23742E+01  3.56614E+01  3.79986E+01  3.08351E+01  1.87456E+01  1.94660E+01  1.21494E+01  7.58157E+00  4.95130E+00
   2.60106E+00 -2.05541E+00 -3.25111E+00  6.66411E-02  1.20125E+00 -1.13020E+00 -1.45504E+00  7.31065E-01  2.19053E+00  3.17000E+00
   5.74734E+00  1.01980E+01  1.28777E+01  1.35366E+01  2.42855E+01  2.33945E+01  3.25593E+01  3.08902E+01  2.62875E+01  1.96489E+01
   1.68847E+01  7.02624E+00  6.44751E+00  9.13315E+00  4.07397E+00 -4.13461E+00  1.54210E+00 -2.32843E+00  1.01021E+00 -1.92040E+00
   2.73070E+00 -1.17002E+00  1.21841E+00  1.42110E+00 -2.77713E+00  1.43887E+00 -7.93660E-01 -4.05904E-01  1.18948E+00 -1.10329E-01
   9.19613E-01  1.05780E+00 -2.28099E+00 -1.55859E+00 -2.64968E-01  2.41498E+00  1.20178E+00 -5.65855E-01 -5.36647E-01  4.81029E+00
  -2.39347E-01 -2.71595E+00 -3.64315E+00 -4.92921E+00  1.69774E-01 -2.43597E+00 -3.18150E-01 -4.33400E+00 -3.96140E+00 -6.76310E+00
  -6.07477E+00 -9.59149E+00 -6.89346E+00 -8.69749E+00 -8.53869E+00 -1.12528E+01 -7.13879E+00 -5.58650E+00 -3.33678E+00 -6.65613E+00
  -9.79506E+00 -4.19053E+00 -6.14238E+00 -9.35919E+00 -9.36590E+00 -6.44242E+00 -4.85551E+00 -8.36471E+00 -7.93697E+00 -4.74736E-01
  -2.85209E+00 -2.18700E+00  6.65839E-01 -1.21129E+00 -3.02780E+00 -3.04287E+00 -4.56561E+00 -3.29879E+00 -5.24926E+00  2.40277E+00
  -2.45517E+00 -2.13292E+00  9.42645E-01 -4.07989E-01  8.27065E-01  3.73577E+00 -1.32081E+00 -1.07637E+00  9.45031E-01 -5.68405E-01
   1.65887E-01 -3.32108E-01  2.70313E+00  7.05861E+00  2.18837E+00  5.44437E+00  7.33159E+00  6.10752E+00  6.56425E-01  2.56793E+00
  -4.59310E-01 -4.30610E+00 -2.28095E+00  1.79662E+00 -5.53327E-01  3.42441E+00  6.57373E+00  7.97394E+00  6.04979E+00  5.48762E+00
   6.51793E+00  8.01217E+00  5.22810E+00  7.27324E+00  1.74555E+00  5.54307E+00  6.56141E+00  2.53745E+00  1.80045E+00  2.17805E+00
   2.77644E+00  2.81701E+00  1.71469E+00  5.32431E-01  3.05833E+00  6.99466E+00  4.25788E+00  7.41048E+00  7.35866E+00  1.17990E+01
   7.53136E+00  1.64516E+01  1.98480E+01  2.22874E+01  2.83675E+01  3.20481E+01  3.23003E+01  4.19919E+01  5.20652E+01  5.75702E+01
   5.93837E+01  4.97554E+01  4.49623E+01  3.89599E+01  3.20305E+01  2.36099E+01  1.40910E+01  7.12577E+00  5.11267E+00  3.77620E+00
   6.81004E+00  3.96559E+00  5.88108E+00  6.65660E+00  7.18619E+00  1.05516E+01  7.36275E+00  8.57000E+00  4.84684E+00  8.22115E+00
   2.86472E+00  3.51107E+00  9.35564E+00  3.71641E+00  2.34584E+00  3.84294E+00  1.42077E+00  6.26950E-01  5.85598E+00  5.48387E+00
   3.05402E+00  4.68537E+00  2.24498E+00  7.95331E+00 -1.71621E-01  4.20283E+00  2.49303E-01  4.71800E+00  7.03307E+00  4.97530E+00
   5.35531E+00  2.18660E+00  3.79214E+00  4.17753E+00 -2.84844E-01  1.61627E+00  7.81402E+00  8.17211E+00  5.10325E+00  5.03236E+00
   6.78157E+00  3.54031E+00  6.70968E+00  3.16759E+00  5.35593E+00  8.92067E+00  6.76730E+00  7.64587E+00  7.29005E+00  1.03151E+00
   3.83983E+00  2.86177E+00  1.49167E+00  3.70738E+00  4.68477E+00  4.13449E+00  1.73274E+00  7.15956E+00  4.86234E+00  3.73738E+00
   3.88725E+00  3.38369E+00  1.57137E+00  3.24147E+00  3.74782E+00  2.73994E+00  3.62535E+00  3.32496E+00  4.03340E+00  3.24199E+00
   4.20952E+00  1.84744E+00  9.07789E+00  6.49974E+00  9.54949E+00  7.74401E+00  9.07495E+00  6.00018E+00  1.12573E+01  9.02707E+00
   8.29767E+00  8.55527E+00  8.16682E+00  7.03145E+00  9.86679E+00  4.46232E+00  6.11139E+00  1.04960E+01  1.24675E+01  8.06396E+00
   1.24331E+01  1.00174E+01  7.01275E+00  8.42699E+00  1.10300E+01  8.22057E+00  8.64805E+00  4.68830E+00  6.67804E+00  1.03197E+01
   6.75663E+00  1.36719E+01  9.26528E+00  1.43510E+01  9.28954E+00  1.35870E+01  9.38774E+00  8.35067E+00  9.22687E+00  8.03404E+00
   1.08989E+01  1.16641E+01  7.04660E+00  6.42678E+00  1.00725E+01  1.18908E+01  6.84830E+00  6.99828E+00  8.97033E+00  4.64454E+00
   8.02495E+00  9.79715E+00  7.35125E+00  1.04165E+01  7.82161E+00  9.67507E+00  7.93551E+00  5.90994E+00  1.07724E+01  9.28037E+00
   1.12568E+01  9.61861E+00  1.36465E+01  1.16084E+01  8.17512E+00  6.00439E+00  9.89088E+00  1.04612E+01  1.60503E+01  9.24945E+00
   8.57203E+00  8.85338E+00  9.37681E+00  1.15632E+01  6.92922E+00  7.18935E+00  8.59897E+00  7.61564E+00  4.89748E+00  4.86325E+00
   5.09360E+00  5.75590E+00  7.34888E+00  3.62359E+00  5.81746E+00  8.40904E+00  4.16440E+00  4.42749E+00  6.53301E+00  3.54422E+00
   5.79936E+00  1.52038E+00  4.75192E+00  7.55499E+00  9.28853E+00  2.96960E+00  5.18134E+00  7.30834E+00  7.15606E+00  2.83957E+00
   5.70249E+00  6.37210E+00  2.63712E+00  6.80090E+00  3.92028E+00  6.47278E+00  3.96882E+00  4.00906E+00  3.77156E+00  4.41351E+00
   3.83932E+00  7.57275E+00  6.23505E+00  3.52848E+00  3.48133E+00  7.66993E+00  5.55409E+00  8.96154E+00  2.51229E+00  5.46850E+00
   5.87838E+00  6.13072E+00  2.52140E+00  1.16399E+00  2.98091E+00  8.45987E+00  4.87940E+00 -1.79821E+00  3.57728E+00  6.01713E+00
   6.32071E+00  8.38276E+00  4.48406E+00  3.15361E-01  5.58610E+00  1.88053E+00  6.32386E+00  6.07502E+00  6.16812E+00  5.49989E+00
   7.75039E+00  5.70805E+00  4.82629E+00  5.46091E+00  6.13484E+00  5.30928E+00  2.93669E+00  3.35986E+00  3.19770E+00  4.70577E+00
   8.21613E+00  3.79478E+00  7.30611E+00  8.17362E-01 -1.11183E+00  3.96071E+00  5.99471E+00  1.72834E+00
 NY points of the fit to the data follow
  -2.54040E-01 -5.04728E-01 -3.76703E-01  4.67421E-01  2.19910E+00  4.42647E+00  7.02362E+00  9.93018E+00  1.27807E+01  1.49322E+01
   1.57776E+01  1.50860E+01  1.31635E+01  1.06073E+01  7.90994E+00  5.36341E+00  3.16919E+00  1.46977E+00  3.51469E-01 -2.03272E-01
  -4.25968E-01 -5.95515E-01 -5.73484E-01 -2.09944E-01  3.49087E-01  1.18247E+00  2.37131E+00  3.82879E+00  5.28166E+00  6.41404E+00
   7.01217E+00  7.00222E+00  6.42845E+00  5.40606E+00  4.08157E+00  2.70829E+00  1.51195E+00  5.62216E-01 -5.27568E-02 -2.23203E-01
   1.41768E-01  1.08041E+00  2.43610E+00  4.04480E+00  5.76554E+00  7.36792E+00  8.46527E+00  8.68734E+00  7.91873E+00  6.37135E+00
   4.42769E+00  2.47201E+00  8.44367E-01 -2.54348E-01 -7.59363E-01 -6.81282E-01 -1.55454E-01  6.03142E-01  1.32551E+00  1.77852E+00
   1.84517E+00  1.52431E+00  9.48115E-01  2.90154E-01 -2.69588E-01 -5.64743E-01 -5.79874E-01 -3.61792E-01  5.52654E-02  5.95668E-01
   1.12970E+00  1.54506E+00  1.77273E+00  1.79920E+00  1.65646E+00  1.40187E+00  1.08340E+00  7.51012E-01  4.85098E-01  4.42200E-01
   7.23399E-01  1.15336E+00  1.65122E+00  2.20618E+00  2.69663E+00  2.91402E+00  2.69982E+00  2.07686E+00  1.24252E+00  4.68932E-01
  -9.69194E-02 -4.47148E-01 -5.78411E-01 -4.86470E-01 -7.06751E-02  1.36413E+00  4.63270E+00  8.99339E+00  1.42543E+01  2.05114E+01
   2.70829E+01  3.24958E+01  3.52030E+01  3.44185E+01  3.05640E+01  2.48915E+01  1.86169E+01  1.25267E+01  7.21735E+00  3.12918E+00
   4.21310E-01 -9.52580E-01 -1.35474E+00 -1.42634E+00 -1.41382E+00 -1.35952E+00 -1.26537E+00 -1.08727E+00 -6.57970E-01  7.32471E-01
   3.62034E+00  7.46434E+00  1.21241E+01  1.75467E+01  2.30627E+01  2.74591E+01  2.95846E+01  2.89065E+01  2.58151E+01  2.13260E+01
   1.63476E+01  1.14224E+01  6.99369E+00  3.39424E+00  8.37038E-01 -5.96060E-01 -1.12691E+00 -1.18299E+00 -9.65649E-01 -6.00530E-01
  -2.15009E-01  9.16379E-02  2.65570E-01  2.84039E-01  1.69146E-01 -2.67946E-02 -2.61069E-01 -5.10439E-01 -7.48481E-01 -9.55309E-01
  -1.12702E+00 -1.26334E+00 -1.35300E+00 -1.40083E+00 -1.44280E+00 -1.48447E+00 -1.53555E+00 -1.62856E+00 -1.75837E+00 -1.92726E+00
  -2.09824E+00 -2.20207E+00 -2.23286E+00 -2.26109E+00 -2.34298E+00 -2.49968E+00 -2.72016E+00 -2.96605E+00 -3.21586E+00 -3.48200E+00
  -3.75625E+00 -3.98652E+00 -4.18981E+00 -4.38212E+00 -4.55477E+00 -4.66630E+00 -4.66932E+00 -4.58530E+00 -4.50143E+00 -4.45788E+00
  -4.44461E+00 -4.38209E+00 -4.19982E+00 -3.90342E+00 -3.48877E+00 -2.90591E+00 -2.13251E+00 -1.21089E+00 -2.62250E-01  5.29763E-01
   1.00160E+00  1.08910E+00  8.67095E-01  4.43903E-01 -5.16394E-02 -4.68706E-01 -6.68350E-01 -5.32069E-01 -5.76507E-02  6.56186E-01
   1.44798E+00  2.17777E+00  2.67002E+00  2.72874E+00  2.33179E+00  1.53031E+00  3.97330E-01 -8.18917E-01 -1.76532E+00 -2.09847E+00
  -1.79352E+00 -9.06297E-01  4.49408E-01  2.00032E+00  3.31091E+00  3.89990E+00  3.55038E+00  2.43245E+00  8.47165E-01 -8.85578E-01
  -2.33821E+00 -3.12887E+00 -3.03701E+00 -2.10907E+00 -6.74429E-01  8.93584E-01  2.28595E+00  3.32343E+00  3.94604E+00  4.19909E+00
   4.26850E+00  4.32091E+00  4.46384E+00  4.72990E+00  5.06047E+00  5.31231E+00  5.33949E+00  5.14387E+00  4.79670E+00  4.36970E+00
   3.98149E+00  3.81287E+00  3.96413E+00  4.41503E+00  5.05592E+00  5.74528E+00  6.38243E+00  6.93362E+00  7.61434E+00  8.86930E+00
   1.05993E+01  1.27450E+01  1.55615E+01  1.99607E+01  2.61337E+01  3.26018E+01  3.89518E+01  4.52840E+01  5.10509E+01  5.49361E+01
   5.55496E+01  5.23676E+01  4.61934E+01  3.85374E+01  3.06818E+01  2.33654E+01  1.70540E+01  1.21360E+01  8.77603E+00  6.94083E+00
   6.15956E+00  5.75331E+00  5.49483E+00  5.29396E+00  5.08687E+00  4.85204E+00  4.59918E+00  4.34114E+00  4.09232E+00  3.87071E+00
   3.69047E+00  3.55656E+00  3.46455E+00  3.39893E+00  3.34378E+00  3.29468E+00  3.25139E+00  3.21854E+00  3.20494E+00  3.21961E+00
   3.26774E+00  3.34709E+00  3.44706E+00  3.55811E+00  3.67281E+00  3.78695E+00  3.89911E+00  4.01093E+00  4.12646E+00  4.24904E+00
   4.37937E+00  4.51436E+00  4.64711E+00  4.77056E+00  4.87853E+00  4.96604E+00  5.02981E+00  5.06791E+00  5.08012E+00  5.06836E+00
   5.03457E+00  4.98087E+00  4.90994E+00  4.82484E+00  4.72895E+00  4.62593E+00  4.51949E+00  4.41341E+00  4.31160E+00  4.21844E+00
   4.13903E+00  4.07258E+00  4.01630E+00  3.97091E+00  3.93497E+00  3.90410E+00  3.87432E+00  3.84534E+00  3.82586E+00  3.82873E+00
   3.85991E+00  3.92343E+00  4.02290E+00  4.15912E+00  4.32756E+00  4.51953E+00  4.72590E+00  4.94069E+00  5.16459E+00  5.40484E+00
   5.67487E+00  5.97072E+00  6.27114E+00  6.57310E+00  6.86804E+00  7.13216E+00  7.33868E+00  7.47760E+00  7.58219E+00  7.69758E+00
   7.84760E+00  8.05048E+00  8.31772E+00  8.64577E+00  9.00856E+00  9.36347E+00  9.66884E+00  9.89685E+00  1.00410E+01  1.01111E+01
   1.01175E+01  1.00727E+01  9.98940E+00  9.87921E+00  9.75297E+00  9.61353E+00  9.45827E+00  9.28778E+00  9.10453E+00  8.91181E+00
   8.71328E+00  8.51274E+00  8.31405E+00  8.12102E+00  7.93739E+00  7.76667E+00  7.61218E+00  7.47691E+00  7.36364E+00  7.27486E+00
   7.21280E+00  7.17933E+00  7.17595E+00  7.20373E+00  7.26335E+00  7.35498E+00  7.47825E+00  7.63207E+00  7.81465E+00  8.02343E+00
   8.25506E+00  8.50539E+00  8.76950E+00  9.04169E+00  9.31567E+00  9.58472E+00  9.84193E+00  1.00804E+01  1.02934E+01  1.04748E+01
   1.06192E+01  1.07223E+01  1.07808E+01  1.07930E+01  1.07583E+01  1.06777E+01  1.05532E+01  1.03883E+01  1.01874E+01  9.95538E+00
   9.69796E+00  9.42095E+00  9.13020E+00  8.83141E+00  8.52989E+00  8.23039E+00  7.93702E+00  7.65322E+00  7.38175E+00  7.12469E+00
   6.88348E+00  6.65892E+00  6.45135E+00  6.26066E+00  6.08647E+00  5.92812E+00  5.78475E+00  5.65536E+00  5.53890E+00  5.43431E+00
   5.34057E+00  5.25669E+00  5.18170E+00  5.11468E+00  5.05482E+00  5.00138E+00  4.95374E+00  4.91127E+00  4.87343E+00  4.83972E+00
   4.80973E+00  4.78311E+00  4.75953E+00  4.73870E+00  4.72033E+00  4.70419E+00  4.69009E+00  4.67786E+00  4.66736E+00  4.65840E+00
   4.65087E+00  4.64462E+00  4.63960E+00  4.63571E+00  4.63288E+00  4.63099E+00  4.62999E+00  4.62979E+00  4.63039E+00  4.63171E+00
   4.63371E+00  4.63632E+00  4.63950E+00  4.64322E+00  4.64749E+00  4.65224E+00  4.65745E+00  4.66306E+00  4.66906E+00  4.67545E+00
   4.68221E+00  4.68930E+00  4.69671E+00  4.70440E+00  4.71237E+00  4.72061E+00  4.72912E+00  4.73786E+00  4.74681E+00  4.75594E+00
   4.76528E+00  4.77481E+00  4.78452E+00  4.79437E+00  4.80436E+00  4.81447E+00  4.82473E+00  4.83510E+00  4.84559E+00  4.85614E+00
   4.86676E+00  4.87744E+00  4.88820E+00  4.89900E+00  4.90983E+00  4.92065E+00  4.93147E+00  4.94227E+00
 NY background values follow
    -5.122E+00   -5.104E+00   -5.085E+00   -5.066E+00   -5.048E+00   -5.029E+00   -5.010E+00   -4.992E+00   -4.973E+00   -4.954E+00
    -4.936E+00   -4.917E+00   -4.898E+00   -4.880E+00   -4.861E+00   -4.842E+00   -4.824E+00   -4.805E+00   -4.786E+00   -4.768E+00
    -4.749E+00   -4.730E+00   -4.712E+00   -4.693E+00   -4.674E+00   -4.656E+00   -4.637E+00   -4.618E+00   -4.599E+00   -4.581E+00
    -4.562E+00   -4.543E+00   -4.525E+00   -4.506E+00   -4.487E+00   -4.468E+00   -4.450E+00   -4.431E+00   -4.412E+00   -4.393E+00
    -4.375E+00   -4.356E+00   -4.337E+00   -4.318E+00   -4.300E+00   -4.281E+00   -4.262E+00   -4.243E+00   -4.225E+00   -4.206E+00
    -4.187E+00   -4.168E+00   -4.150E+00   -4.131E+00   -4.112E+00   -4.093E+00   -4.074E+00   -4.056E+00   -4.037E+00   -4.018E+00
    -3.999E+00   -3.980E+00   -3.962E+00   -3.943E+00   -3.924E+00   -3.905E+00   -3.887E+00   -3.868E+00   -3.849E+00   -3.830E+00
    -3.811E+00   -3.792E+00   -3.774E+00   -3.755E+00   -3.736E+00   -3.717E+00   -3.698E+00   -3.680E+00   -3.661E+00   -3.642E+00
    -3.623E+00   -3.604E+00   -3.585E+00   -3.567E+00   -3.548E+00   -3.529E+00   -3.510E+00   -3.491E+00   -3.472E+00   -3.454E+00
    -3.435E+00   -3.416E+00   -3.397E+00   -3.378E+00   -3.359E+00   -3.340E+00   -3.322E+00   -3.303E+00   -3.284E+00   -3.265E+00
    -3.246E+00   -3.227E+00   -3.208E+00   -3.190E+00   -3.171E+00   -3.152E+00   -3.133E+00   -3.114E+00   -3.095E+00   -3.076E+00
    -3.058E+00   -3.039E+00   -3.020E+00   -3.001E+00   -2.982E+00   -2.963E+00   -2.944E+00   -2.925E+00   -2.906E+00   -2.888E+00
    -2.869E+00   -2.850E+00   -2.831E+00   -2.812E+00   -2.793E+00   -2.774E+00   -2.755E+00   -2.736E+00   -2.718E+00   -2.699E+00
    -2.680E+00   -2.661E+00   -2.642E+00   -2.623E+00   -2.604E+00   -2.585E+00   -2.566E+00   -2.547E+00   -2.528E+00   -2.510E+00
    -2.491E+00   -2.472E+00   -2.453E+00   -2.434E+00   -2.415E+00   -2.396E+00   -2.377E+00   -2.358E+00   -2.339E+00   -2.320E+00
    -2.301E+00   -2.283E+00   -2.264E+00   -2.245E+00   -2.226E+00   -2.207E+00   -2.188E+00   -2.169E+00   -2.150E+00   -2.131E+00
    -2.112E+00   -2.093E+00   -2.074E+00   -2.055E+00   -2.036E+00   -2.018E+00   -1.999E+00   -1.980E+00   -1.961E+00   -1.942E+00
    -1.923E+00   -1.904E+00   -1.885E+00   -1.866E+00   -1.847E+00   -1.828E+00   -1.809E+00   -1.790E+00   -1.771E+00   -1.752E+00
    -1.733E+00   -1.715E+00   -1.696E+00   -1.677E+00   -1.658E+00   -1.639E+00   -1.620E+00   -1.601E+00   -1.582E+00   -1.563E+00
    -1.544E+00   -1.525E+00   -1.506E+00   -1.487E+00   -1.468E+00   -1.449E+00   -1.430E+00   -1.411E+00   -1.392E+00   -1.373E+00
    -1.355E+00   -1.336E+00   -1.317E+00   -1.298E+00   -1.279E+00   -1.260E+00   -1.241E+00   -1.222E+00   -1.203E+00   -1.184E+00
    -1.165E+00   -1.146E+00   -1.127E+00   -1.108E+00   -1.089E+00   -1.070E+00   -1.051E+00   -1.032E+00   -1.013E+00   -9.945E-01
    -9.755E-01   -9.566E-01   -9.376E-01   -9.187E-01   -8.997E-01   -8.808E-01   -8.618E-01   -8.429E-01   -8.239E-01   -8.050E-01
    -7.860E-01   -7.671E-01   -7.481E-01   -7.292E-01   -7.102E-01   -6.913E-01   -6.723E-01   -6.534E-01   -6.344E-01   -6.155E-01
    -5.965E-01   -5.776E-01   -5.587E-01   -5.397E-01   -5.208E-01   -5.018E-01   -4.829E-01   -4.639E-01   -4.450E-01   -4.261E-01
    -4.071E-01   -3.882E-01   -3.692E-01   -3.503E-01   -3.314E-01   -3.124E-01   -2.935E-01   -2.746E-01   -2.556E-01   -2.367E-01
    -2.177E-01   -1.988E-01   -1.799E-01   -1.609E-01   -1.420E-01   -1.231E-01   -1.042E-01   -8.523E-02   -6.630E-02   -4.737E-02
    -2.844E-02   -9.517E-03    9.408E-03    2.833E-02    4.726E-02    6.618E-02    8.510E-02    1.040E-01    1.229E-01    1.419E-01
     1.608E-01    1.797E-01    1.986E-01    2.175E-01    2.364E-01    2.554E-01    2.743E-01    2.932E-01    3.121E-01    3.310E-01
     3.499E-01    3.688E-01    3.877E-01    4.066E-01    4.255E-01    4.444E-01    4.633E-01    4.822E-01    5.011E-01    5.200E-01
     5.389E-01    5.578E-01    5.767E-01    5.956E-01    6.145E-01    6.334E-01    6.523E-01    6.712E-01    6.900E-01    7.089E-01
     7.278E-01    7.467E-01    7.656E-01    7.845E-01    8.033E-01    8.222E-01    8.411E-01    8.600E-01    8.788E-01    8.977E-01
     9.166E-01    9.354E-01    9.543E-01    9.732E-01    9.920E-01    1.011E+00    1.030E+00    1.049E+00    1.067E+00    1.086E+00
     1.105E+00    1.124E+00    1.143E+00    1.162E+00    1.181E+00    1.199E+00    1.218E+00    1.237E+00    1.256E+00    1.275E+00
     1.294E+00    1.312E+00    1.331E+00    1.350E+00    1.369E+00    1.388E+00    1.407E+00    1.425E+00    1.444E+00    1.463E+00
     1.482E+00    1.501E+00    1.519E+00    1.538E+00    1.557E+00    1.576E+00    1.595E+00    1.613E+00    1.632E+00    1.651E+00
     1.670E+00    1.689E+00    1.707E+00    1.726E+00    1.745E+00    1.764E+00    1.783E+00    1.801E+00    1.820E+00    1.839E+00
     1.858E+00    1.877E+00    1.895E+00    1.914E+00    1.933E+00    1.952E+00    1.970E+00    1.989E+00    2.008E+00    2.027E+00
     2.045E+00    2.064E+00    2.083E+00    2.102E+00    2.120E+00    2.139E+00    2.158E+00    2.177E+00    2.195E+00    2.214E+00
     2.233E+00    2.251E+00    2.270E+00    2.289E+00    2.308E+00    2.326E+00    2.345E+00    2.364E+00    2.382E+00    2.401E+00
     2.420E+00    2.439E+00    2.457E+00    2.476E+00    2.495E+00    2.513E+00    2.532E+00    2.551E+00    2.569E+00    2.588E+00
     2.607E+00    2.625E+00    2.644E+00    2.663E+00    2.681E+00    2.700E+00    2.719E+00    2.737E+00    2.756E+00    2.775E+00
     2.793E+00    2.812E+00    2.831E+00    2.849E+00    2.868E+00    2.887E+00    2.905E+00    2.924E+00    2.942E+00    2.961E+00
     2.980E+00    2.998E+00    3.017E+00    3.035E+00    3.054E+00    3.073E+00    3.091E+00    3.110E+00    3.128E+00    3.147E+00
     3.166E+00    3.184E+00    3.203E+00    3.221E+00    3.240E+00    3.258E+00    3.277E+00    3.296E+00    3.314E+00    3.333E+00
     3.351E+00    3.370E+00    3.388E+00    3.407E+00    3.425E+00    3.444E+00    3.463E+00    3.481E+00    3.500E+00    3.518E+00
     3.537E+00    3.555E+00    3.574E+00    3.592E+00    3.611E+00    3.629E+00    3.648E+00    3.666E+00    3.685E+00    3.703E+00
     3.722E+00    3.740E+00    3.759E+00    3.777E+00    3.795E+00    3.814E+00    3.832E+00    3.851E+00    3.869E+00    3.888E+00
     3.906E+00    3.925E+00    3.943E+00    3.962E+00    3.980E+00    3.998E+00    4.017E+00    4.035E+00    4.054E+00    4.072E+00
     4.090E+00    4.109E+00    4.127E+00    4.146E+00    4.164E+00    4.182E+00    4.201E+00    4.219E+00
 Ala      Conc. = 1.03E+01
