 LCModel (Version 6.3-1L) Copyright: S.W. Provencher.          Ref.: Magn. Reson. Med. 30:672-679 (1993).                
 Slice#1 Row#1 Col#13  PD_05_press_1_raw_act
 36 lines in following concentration table = NCONC+1
    Conc.  %SD /Cr+PCr  Metabolite                                         
 2.64E+03  24%  83.135 Ala                                                 
    2.674 319% 8.4E-02 Asp                                                 
    0.000 999%   0.000 Cr                                                  
   31.773 132%   1.000 PCr                                                 
    1.274 402% 4.0E-02 GABA                                                
    1.479 348% 4.7E-02 Glc                                                 
    0.000 999%   0.000 Gln                                                 
    0.000 999%   0.000 Glu                                                 
    0.000 999%   0.000 GPC                                                 
    5.846 276%   0.184 PCh                                                 
    0.000 999%   0.000 GSH                                                 
    0.000 999%   0.000 Ins                                                 
 1.12E+04  15% 353.841 Lac                                                 
    0.000 999%   0.000 NAA                                                 
    0.000 999%   0.000 NAAG                                                
    0.526 327% 1.7E-02 Scyllo                                              
    2.737 310% 8.6E-02 Tau                                                 
    3.794 205%   0.119 -CrCH2                                              
    5.846 276%   0.184 GPC+PCh                                             
    0.000 999%   0.000 NAA+NAAG                                            
   31.773 132%   1.000 Cr+PCr                                              
    0.000 999%   0.000 Glu+Gln                                             
 9.67E+03  18% 304.298 Lip13a                                              
 3.43E+03  39% 108.070 Lip13b                                              
 2.24E+03  16%  70.622 Lip09                                               
  628.895  20%  19.794 MM09                                                
  854.713  26%  26.901 Lip20                                               
    0.000 999%   0.000-MM20                                                
  194.144  40%   6.110 MM12                                                
  958.545  29%  30.169 MM14                                                
  738.834  20%  23.254 MM17                                                
 1.31E+04  10% 412.368 Lip13a+Lip13b                                       
 1.43E+04   9% 448.647 MM14+Lip13a+Lip13b+MM12                             
 2.87E+03  12%  90.416 MM09+Lip09                                          
  854.713  26%  26.901 MM20+Lip20                                          
   6 lines in following misc. output table
  FWHM = 0.138 ppm    S/N =  24                                            
  Data shift = 0.130 ppm                                                   
  Ph:  38 deg       6.1 deg/ppm                                            
  alphaB,S = 8.5E+01,   4.1E+02                                            
    6 spline knots.   Ns = 9(2)                                            
   2 inflections.     1 extrema                                            
  498 points on ppm-axis = NY
      4.000000     3.992357     3.984714     3.977070     3.969427     3.961784     3.954141     3.946497     3.938854     3.931211
      3.923568     3.915925     3.908281     3.900638     3.892995     3.885352     3.877708     3.870065     3.862422     3.854779
      3.847136     3.839492     3.831849     3.824206     3.816563     3.808919     3.801276     3.793633     3.785990     3.778347
      3.770703     3.763060     3.755417     3.747774     3.740130     3.732487     3.724844     3.717201     3.709558     3.701914
      3.694271     3.686628     3.678985     3.671341     3.663698     3.656055     3.648412     3.640769     3.633125     3.625482
      3.617839     3.610196     3.602552     3.594909     3.587266     3.579623     3.571980     3.564336     3.556693     3.549050
      3.541407     3.533763     3.526120     3.518477     3.510834     3.503191     3.495547     3.487904     3.480261     3.472618
      3.464974     3.457331     3.449688     3.442045     3.434402     3.426758     3.419115     3.411472     3.403829     3.396185
      3.388542     3.380899     3.373256     3.365613     3.357969     3.350326     3.342683     3.335040     3.327396     3.319753
      3.312110     3.304467     3.296824     3.289180     3.281537     3.273894     3.266251     3.258607     3.250964     3.243321
      3.235678     3.228034     3.220391     3.212748     3.205105     3.197462     3.189818     3.182175     3.174532     3.166889
      3.159245     3.151602     3.143959     3.136316     3.128673     3.121029     3.113386     3.105743     3.098100     3.090456
      3.082813     3.075170     3.067527     3.059884     3.052240     3.044597     3.036954     3.029311     3.021667     3.014024
      3.006381     2.998738     2.991095     2.983451     2.975808     2.968165     2.960522     2.952878     2.945235     2.937592
      2.929949     2.922306     2.914662     2.907019     2.899376     2.891733     2.884089     2.876446     2.868803     2.861160
      2.853517     2.845873     2.838230     2.830587     2.822944     2.815300     2.807657     2.800014     2.792371     2.784728
      2.777084     2.769441     2.761798     2.754155     2.746511     2.738868     2.731225     2.723582     2.715939     2.708295
      2.700652     2.693009     2.685366     2.677722     2.670079     2.662436     2.654793     2.647150     2.639506     2.631863
      2.624220     2.616577     2.608933     2.601290     2.593647     2.586004     2.578361     2.570717     2.563074     2.555431
      2.547788     2.540144     2.532501     2.524858     2.517215     2.509572     2.501928     2.494285     2.486642     2.478999
      2.471355     2.463712     2.456069     2.448426     2.440783     2.433139     2.425496     2.417853     2.410210     2.402566
      2.394923     2.387280     2.379637     2.371994     2.364350     2.356707     2.349064     2.341421     2.333777     2.326134
      2.318491     2.310848     2.303205     2.295561     2.287918     2.280275     2.272632     2.264988     2.257345     2.249702
      2.242059     2.234416     2.226772     2.219129     2.211486     2.203843     2.196199     2.188556     2.180913     2.173270
      2.165627     2.157983     2.150340     2.142697     2.135054     2.127410     2.119767     2.112124     2.104481     2.096838
      2.089194     2.081551     2.073908     2.066265     2.058621     2.050978     2.043335     2.035692     2.028049     2.020405
      2.012762     2.005119     1.997476     1.989833     1.982190     1.974546     1.966903     1.959260     1.951617     1.943974
      1.936331     1.928688     1.921045     1.913402     1.905759     1.898115     1.890472     1.882829     1.875186     1.867543
      1.859900     1.852257     1.844614     1.836971     1.829327     1.821684     1.814041     1.806398     1.798755     1.791112
      1.783469     1.775826     1.768183     1.760540     1.752896     1.745253     1.737610     1.729967     1.722324     1.714681
      1.707038     1.699395     1.691752     1.684108     1.676465     1.668822     1.661179     1.653536     1.645893     1.638250
      1.630607     1.622964     1.615321     1.607677     1.600034     1.592391     1.584748     1.577105     1.569462     1.561819
      1.554176     1.546533     1.538890     1.531246     1.523603     1.515960     1.508317     1.500674     1.493031     1.485388
      1.477745     1.470102     1.462458     1.454815     1.447172     1.439529     1.431886     1.424243     1.416600     1.408957
      1.401314     1.393671     1.386027     1.378384     1.370741     1.363098     1.355455     1.347812     1.340169     1.332526
      1.324883     1.317240     1.309596     1.301953     1.294310     1.286667     1.279024     1.271381     1.263738     1.256095
      1.248452     1.240808     1.233165     1.225522     1.217879     1.210236     1.202593     1.194950     1.187307     1.179664
      1.172021     1.164377     1.156734     1.149091     1.141448     1.133805     1.126162     1.118519     1.110876     1.103233
      1.095590     1.087946     1.080303     1.072660     1.065017     1.057374     1.049731     1.042088     1.034445     1.026802
      1.019158     1.011515     1.003872     0.996229     0.988586     0.980943     0.973300     0.965657     0.958014     0.950371
      0.942727     0.935084     0.927441     0.919798     0.912155     0.904512     0.896869     0.889226     0.881583     0.873940
      0.866296     0.858653     0.851010     0.843367     0.835724     0.828081     0.820438     0.812795     0.805152     0.797508
      0.789865     0.782222     0.774579     0.766936     0.759293     0.751650     0.744007     0.736364     0.728721     0.721077
      0.713434     0.705791     0.698148     0.690505     0.682862     0.675219     0.667576     0.659933     0.652290     0.644646
      0.637003     0.629360     0.621717     0.614074     0.606431     0.598788     0.591145     0.583502     0.575858     0.568215
      0.560572     0.552929     0.545286     0.537643     0.530000     0.522357     0.514714     0.507071     0.499427     0.491784
      0.484141     0.476498     0.468855     0.461212     0.453569     0.445925     0.438282     0.430639     0.422996     0.415353
      0.407710     0.400067     0.392424     0.384780     0.377137     0.369494     0.361851     0.354208     0.346565     0.338922
      0.331278     0.323635     0.315992     0.308349     0.300706     0.293063     0.285420     0.277777     0.270133     0.262490
      0.254847     0.247204     0.239561     0.231918     0.224275     0.216631     0.208988     0.201345
 NY phased data points follow
   1.78941E+00  4.04681E+00  2.68184E+00 -1.81579E-01  3.51629E+00  3.86071E+00  2.09003E+00  1.76238E+00  2.89123E+00  1.65799E+00
   3.25520E+00  1.97404E+00  2.10778E+00  2.75357E+00  2.02232E+00 -1.59339E-01  1.64460E+00  1.61830E+00  9.50863E-01  1.51915E+00
   1.19907E+00  8.50577E-01  3.99971E+00  1.23147E+00  1.20738E+00  1.55584E+00  1.88566E+00  3.78553E+00  2.83472E+00 -1.19725E+00
   1.44550E+00 -6.87085E-01  1.38695E+00  1.75991E+00  3.37600E+00  1.84040E+00  2.28317E+00  2.07498E+00  9.23837E-01  5.37498E-01
  -3.41355E-01  6.01216E-01  1.93022E+00  3.22869E+00  1.75304E+00  2.39029E+00  3.48827E+00  1.18717E+00  1.93790E+00 -1.79885E-01
   2.58321E+00  1.24151E+00  1.29809E+00  1.38132E+00  2.22969E+00  2.15512E+00  2.57307E+00  7.71005E-01 -1.65233E+00 -2.30039E-01
   3.60236E+00  2.99993E+00  3.63959E+00  3.85505E+00  3.82429E+00  1.23801E+00  3.13707E+00  2.31909E+00  1.20090E+00  1.80650E+00
   2.05067E+00  3.75331E+00  3.50868E+00  8.28293E-01  2.10720E+00  1.01475E+00  1.62059E+00  1.43928E+00  2.08637E+00  2.62166E+00
   4.29600E+00  2.38853E+00  3.89960E+00  1.06310E+00 -4.09734E-01  2.81468E+00  3.75305E+00  5.15545E-01  1.54749E+00  2.11863E+00
   2.46085E+00  3.63927E+00  4.93308E-01  3.34750E+00  1.17332E+00  1.57184E+00  7.32128E-01  1.38440E-01  3.71388E+00  2.16843E+00
   1.61618E+00  2.20870E+00 -2.81334E-01  3.40269E-01  4.76871E+00  1.50977E+00  4.74210E+00  3.21443E+00  2.39817E+00  2.32599E+00
   2.28329E+00  2.50142E+00  2.34456E+00  2.67589E+00  1.63626E+00  1.51242E+00  1.45833E+00  4.53044E-01 -3.92449E-01  2.88867E+00
   3.63767E-01  3.92933E+00  4.48406E-01  3.68109E+00  4.17389E+00  9.88003E-01  3.56854E+00  4.29796E+00  4.35248E+00  1.56665E+00
   2.28331E+00  1.61242E+00  4.00780E+00  3.17942E+00  5.13050E+00  2.44057E+00  3.01533E+00  9.59328E-01  1.73101E+00  4.28378E+00
   1.58328E+00  1.51461E+00  2.28685E+00  1.52960E+00  1.36396E+00  2.94731E+00  2.11869E+00  2.60235E+00  2.03264E+00  2.20619E+00
   1.20953E+00 -1.48180E+00  9.92951E-01  2.85302E+00  1.12345E+00  4.70671E+00  2.17280E+00  1.66495E+00  3.41846E+00  3.81873E+00
   3.56363E+00  3.05524E+00  3.45133E+00  4.77062E+00  3.23558E+00  2.64685E+00  2.55665E+00  3.57868E+00  1.43269E+00  2.57658E+00
   3.56661E+00  4.20564E+00  2.74540E+00  2.59088E+00  4.22367E+00  3.12283E+00  1.07791E+00  2.46372E+00  2.70421E+00  4.46825E+00
   1.07037E+00  2.14985E+00  4.44291E+00  2.20897E+00  2.56919E+00  3.91016E+00  1.38984E+00  2.68832E+00  3.20689E+00  3.73023E+00
   4.14579E+00  3.28725E+00  4.01424E+00  4.34997E+00  2.96644E+00  1.10000E+00  2.31521E+00  2.75072E+00  4.09338E+00  1.43302E+00
   1.74921E+00  1.74541E+00  1.51210E+00  4.69604E+00  4.31846E+00  1.66439E+00  3.74833E+00  3.11565E+00  2.93890E+00  2.71517E+00
   2.99631E+00  2.29435E+00  2.70615E+00  1.40884E+00  3.10998E+00  1.48424E+00  3.53275E+00  3.74321E+00  2.51484E+00  2.56938E+00
   3.58004E+00  2.53535E+00  3.05275E+00  5.64338E+00  5.11726E+00  3.19860E+00  1.99771E+00  4.75100E+00  2.92723E+00  3.47220E+00
   4.70542E+00  5.18850E+00  4.96898E+00  5.16379E+00  3.64837E+00  5.47886E+00  2.46821E+00  5.37194E+00  3.56123E+00  3.26879E+00
   1.59330E+00  2.14025E+00  2.45637E+00  4.08759E+00  1.61663E+00  1.92101E+00  1.71241E+00  3.04657E+00  3.18011E+00  3.28470E+00
   2.27070E+00  4.87489E+00  5.59199E+00  1.12995E+00  2.69462E+00  2.97493E+00  3.34775E+00  4.70529E+00  5.10008E+00  7.50739E+00
   3.84902E+00  3.33785E+00  4.59317E+00  5.63186E+00  5.42464E+00  5.93103E+00  6.78196E+00  6.74887E+00  5.46934E+00  6.81143E+00
   6.40571E+00  6.38127E+00  7.17687E+00  6.34889E+00  6.59112E+00  7.67315E+00  7.81431E+00  6.85357E+00  8.65547E+00  7.62308E+00
   3.23226E+00  1.00798E+01  9.50534E+00  9.14645E+00  6.83031E+00  7.24687E+00  8.20597E+00  8.94820E+00  7.66386E+00  7.89887E+00
   9.76788E+00  7.93003E+00  1.02115E+01  8.70665E+00  1.10094E+01  1.03450E+01  1.20289E+01  1.26261E+01  1.00344E+01  1.17702E+01
   1.03868E+01  9.99679E+00  1.04185E+01  1.22119E+01  1.26325E+01  1.43613E+01  1.22630E+01  1.45005E+01  1.36143E+01  1.49369E+01
   1.28118E+01  1.44952E+01  1.36661E+01  1.65252E+01  1.69749E+01  1.50462E+01  1.78173E+01  1.88991E+01  1.99441E+01  1.91291E+01
   2.22598E+01  2.20883E+01  2.24727E+01  2.47036E+01  2.55502E+01  2.75341E+01  2.91590E+01  3.07839E+01  3.41574E+01  3.38049E+01
   3.87471E+01  3.75567E+01  4.21660E+01  4.41820E+01  4.83556E+01  5.22636E+01  5.26236E+01  5.60118E+01  6.08834E+01  6.31399E+01
   6.80296E+01  7.37319E+01  7.39396E+01  7.74058E+01  8.12534E+01  8.01676E+01  8.36439E+01  8.18632E+01  7.99677E+01  7.68035E+01
   7.72787E+01  7.36553E+01  7.26390E+01  6.78455E+01  6.81222E+01  6.61694E+01  6.37264E+01  6.31617E+01  6.11397E+01  5.92605E+01
   5.88862E+01  5.78141E+01  5.48452E+01  5.64300E+01  5.29740E+01  5.19464E+01  4.76121E+01  4.58528E+01  4.81212E+01  4.41771E+01
   4.29558E+01  3.84637E+01  3.93409E+01  3.72455E+01  3.65662E+01  3.35252E+01  3.17193E+01  2.98380E+01  3.10980E+01  2.80498E+01
   2.63356E+01  2.69168E+01  2.63917E+01  2.45320E+01  2.42022E+01  2.45044E+01  2.24702E+01  2.30587E+01  2.11360E+01  2.09597E+01
   1.94210E+01  1.77384E+01  1.82966E+01  1.69593E+01  1.99765E+01  1.84046E+01  1.71169E+01  1.65172E+01  1.63617E+01  1.65596E+01
   1.61312E+01  1.41022E+01  1.54173E+01  1.53859E+01  1.29648E+01  1.37223E+01  9.02370E+00  1.31857E+01  1.26789E+01  1.04711E+01
   9.89674E+00  1.37442E+01  1.34125E+01  1.25960E+01  1.10556E+01  1.15444E+01  1.02627E+01  8.06693E+00  6.85444E+00  8.51538E+00
   8.45303E+00  7.79595E+00  8.35322E+00  8.34217E+00  7.27192E+00  7.84912E+00  7.31306E+00  7.43933E+00  7.30274E+00  7.83861E+00
   7.28191E+00  6.21561E+00  6.90229E+00  6.24057E+00  6.33929E+00  6.80237E+00  5.60868E+00  5.58921E+00  6.07774E+00  3.59969E+00
   3.84921E+00  2.95893E+00  1.92391E+00  2.97585E+00  4.03503E+00  3.51315E+00  4.12493E+00  4.25598E+00  1.85164E+00  1.46526E+00
   3.64009E-01  1.68597E+00  2.60939E+00  1.55612E+00  2.21792E+00  3.47529E-01  2.43732E+00  2.94682E+00  4.51106E-01  1.26948E+00
   1.15916E+00  5.59886E-01  6.29123E-01  1.59923E+00  2.47474E+00  5.00086E-01  3.11606E+00 -1.68241E-01 -7.34705E-01  2.31302E+00
   1.45479E+00  4.83280E-01  1.68739E+00  1.82193E+00  1.09608E+00 -5.54920E-01  3.26426E-01 -5.53340E-01  7.84321E-01 -1.46884E+00
   7.02234E-01  5.67015E-01  1.90353E-01 -1.21859E+00 -7.33780E-01  1.77756E+00  3.89946E-01 -1.24774E+00 -1.43158E-01 -2.33776E+00
  -9.68734E-01 -2.53394E+00 -3.03558E+00 -9.46462E-01 -3.10553E+00 -2.16072E+00 -2.85818E+00 -1.92052E-01
 NY points of the fit to the data follow
   9.60597E-01  2.62886E+00  1.01496E+00  2.38598E+00  1.42047E+00  2.79941E+00  1.99435E+00  3.08316E+00  2.41774E+00  3.08031E+00
   2.45621E+00  2.58887E+00  2.00446E+00  2.36666E+00  1.93877E+00  2.37939E+00  2.13977E+00  2.58583E+00  2.47473E+00  2.76032E+00
   2.51295E+00  2.71878E+00  2.45474E+00  2.52077E+00  2.28088E+00  2.20168E+00  2.02811E+00  1.83472E+00  1.83186E+00  1.56625E+00
   1.77547E+00  1.47285E+00  1.88713E+00  1.53278E+00  2.07153E+00  1.61719E+00  2.21914E+00  1.69028E+00  2.30143E+00  1.70715E+00
   2.25130E+00  1.67733E+00  2.18647E+00  1.64607E+00  2.10080E+00  1.64342E+00  2.08619E+00  1.79342E+00  2.10568E+00  1.85440E+00
   2.08877E+00  1.88627E+00  2.03241E+00  1.84445E+00  1.87676E+00  1.80435E+00  1.86748E+00  1.84271E+00  1.90248E+00  1.90851E+00
   1.96163E+00  1.98999E+00  1.99393E+00  1.99397E+00  1.98913E+00  1.98585E+00  1.97948E+00  1.97561E+00  1.96952E+00  1.96585E+00
   1.96019E+00  1.95666E+00  1.95168E+00  1.94813E+00  1.94401E+00  1.94045E+00  1.93698E+00  1.93332E+00  1.93050E+00  1.92683E+00
   1.92487E+00  1.92150E+00  1.92016E+00  1.91739E+00  1.91778E+00  1.92199E+00  1.92768E+00  1.93195E+00  1.94067E+00  1.94488E+00
   1.95736E+00  1.96189E+00  1.97886E+00  1.98213E+00  2.00364E+00  2.00535E+00  2.03174E+00  2.03197E+00  2.06354E+00  2.05903E+00
   2.09375E+00  2.08191E+00  2.11717E+00  2.09595E+00  2.12864E+00  2.09775E+00  2.12543E+00  2.08994E+00  2.11851E+00  2.09737E+00
   2.12026E+00  2.10894E+00  2.12541E+00  2.12681E+00  2.13731E+00  2.15621E+00  2.16020E+00  2.19654E+00  2.19464E+00  2.24959E+00
   2.24258E+00  2.31487E+00  2.29910E+00  2.38272E+00  2.35694E+00  2.45176E+00  2.41831E+00  2.50697E+00  2.46340E+00  2.53744E+00
   2.48913E+00  2.54813E+00  2.50132E+00  2.54724E+00  2.50765E+00  2.54478E+00  2.51467E+00  2.54373E+00  2.52553E+00  2.55047E+00
   2.54481E+00  2.56843E+00  2.57438E+00  2.59894E+00  2.61253E+00  2.63440E+00  2.65277E+00  2.67084E+00  2.69808E+00  2.72626E+00
   2.75240E+00  2.77691E+00  2.79823E+00  2.81741E+00  2.83264E+00  2.84551E+00  2.85382E+00  2.85976E+00  2.86082E+00  2.85964E+00
   2.85354E+00  2.84553E+00  2.83270E+00  2.81837E+00  2.79949E+00  2.77972E+00  2.75603E+00  2.73199E+00  2.70467E+00  2.67752E+00
   2.64785E+00  2.61891E+00  2.58821E+00  2.55871E+00  2.52816E+00  2.49922E+00  2.47000E+00  2.44270E+00  2.41573E+00  2.39084E+00
   2.36678E+00  2.34489E+00  2.32425E+00  2.30585E+00  2.28892E+00  2.27416E+00  2.26108E+00  2.25008E+00  2.24103E+00  2.23393E+00
   2.22893E+00  2.22570E+00  2.22479E+00  2.22553E+00  2.22872E+00  2.23347E+00  2.24074E+00  2.24959E+00  2.26101E+00  2.27411E+00
   2.28978E+00  2.30728E+00  2.32735E+00  2.34949E+00  2.37425E+00  2.40134E+00  2.43108E+00  2.46333E+00  2.49809E+00  2.53555E+00
   2.57542E+00  2.61803E+00  2.66272E+00  2.71011E+00  2.75926E+00  2.81093E+00  2.86394E+00  2.91903E+00  2.97481E+00  3.03211E+00
   3.08942E+00  3.14759E+00  3.20500E+00  3.26254E+00  3.31864E+00  3.37430E+00  3.42811E+00  3.48111E+00  3.53208E+00  3.58212E+00
   3.63030E+00  3.67781E+00  3.72397E+00  3.76994E+00  3.81522E+00  3.86100E+00  3.90696E+00  3.95420E+00  4.00246E+00  4.05260E+00
   4.10433E+00  4.15831E+00  4.21413E+00  4.27216E+00  4.33180E+00  4.39311E+00  4.45529E+00  4.51809E+00  4.58060E+00  4.64239E+00
   4.70240E+00  4.76009E+00  4.81449E+00  4.86524E+00  4.91159E+00  4.95331E+00  4.98983E+00  5.02126E+00  5.04748E+00  5.06899E+00
   5.08604E+00  5.09951E+00  5.11002E+00  5.11885E+00  5.12707E+00  5.13630E+00  5.14782E+00  5.16350E+00  5.18483E+00  5.21391E+00
   5.25235E+00  5.30231E+00  5.36531E+00  5.44339E+00  5.53794E+00  5.65077E+00  5.78290E+00  5.93554E+00  6.10899E+00  6.30360E+00
   6.51877E+00  6.75378E+00  7.00679E+00  7.27574E+00  7.55745E+00  7.84869E+00  8.14527E+00  8.44314E+00  8.73747E+00  9.02403E+00
   9.29819E+00  9.55646E+00  9.79546E+00  1.00133E+01  1.02085E+01  1.03814E+01  1.05330E+01  1.06663E+01  1.07849E+01  1.08945E+01
   1.10010E+01  1.11123E+01  1.12369E+01  1.13851E+01  1.15687E+01  1.18032E+01  1.21093E+01  1.25240E+01  1.31313E+01  1.40099E+01
   1.45477E+01  1.53561E+01  1.58489E+01  1.66491E+01  1.70796E+01  1.78038E+01  1.80162E+01  1.89791E+01  1.95519E+01  2.05888E+01
   2.13847E+01  2.24256E+01  2.33811E+01  2.43109E+01  2.55634E+01  2.63436E+01  2.80835E+01  2.89787E+01  3.20471E+01  3.43993E+01
   3.78706E+01  3.94950E+01  4.34454E+01  4.47038E+01  4.90627E+01  4.96868E+01  5.39344E+01  5.57556E+01  6.08044E+01  6.31226E+01
   6.81793E+01  7.07884E+01  7.50836E+01  7.73377E+01  8.03729E+01  8.11606E+01  8.22777E+01  8.11358E+01  8.05170E+01  7.83234E+01
   7.65414E+01  7.38334E+01  7.18018E+01  6.94047E+01  6.77244E+01  6.58018E+01  6.42930E+01  6.24154E+01  6.15221E+01  5.96782E+01
   5.90445E+01  5.71222E+01  5.64939E+01  5.46642E+01  5.37318E+01  5.11656E+01  4.98823E+01  4.71571E+01  4.64308E+01  4.52020E+01
   4.38226E+01  4.18826E+01  4.02171E+01  3.77262E+01  3.57446E+01  3.23903E+01  3.01292E+01  2.85851E+01  2.74233E+01  2.65049E+01
   2.57544E+01  2.51227E+01  2.45734E+01  2.40787E+01  2.36154E+01  2.31655E+01  2.27142E+01  2.22511E+01  2.17692E+01  2.12657E+01
   2.07403E+01  2.01958E+01  1.96369E+01  1.90701E+01  1.85025E+01  1.79419E+01  1.73952E+01  1.68685E+01  1.63666E+01  1.58929E+01
   1.54491E+01  1.50357E+01  1.46513E+01  1.42937E+01  1.39594E+01  1.36448E+01  1.33457E+01  1.30581E+01  1.27778E+01  1.25013E+01
   1.22252E+01  1.19472E+01  1.16651E+01  1.13777E+01  1.10839E+01  1.07836E+01  1.04767E+01  1.01641E+01  9.84644E+00  9.52490E+00
   9.20052E+00  8.87484E+00  8.54908E+00  8.22485E+00  7.90329E+00  7.58579E+00  7.27329E+00  6.96700E+00  6.66765E+00  6.37620E+00
   6.09304E+00  5.81882E+00  5.55367E+00  5.29803E+00  5.05185E+00  4.81538E+00  4.58833E+00  4.37075E+00  4.16226E+00  3.96285E+00
   3.77207E+00  3.58983E+00  3.41558E+00  3.24917E+00  3.09008E+00  2.93820E+00  2.79300E+00  2.65434E+00  2.52165E+00  2.39482E+00
   2.27338E+00  2.15725E+00  2.04595E+00  1.93940E+00  1.83711E+00  1.73907E+00  1.64487E+00  1.55451E+00  1.46757E+00  1.38404E+00
   1.30354E+00  1.22612E+00  1.15143E+00  1.07954E+00  1.01008E+00  9.43099E-01  8.78289E-01  8.15750E-01  7.55190E-01  6.96690E-01
   6.39941E-01  5.85038E-01  5.31721E-01  4.80119E-01  4.29968E-01  3.81372E-01  3.34059E-01  2.88159E-01  2.43444E-01  2.00060E-01
   1.57757E-01  1.16662E-01  7.65279E-02  3.75181E-02 -5.83729E-04 -3.76157E-02 -7.38205E-02 -1.09047E-01 -1.43517E-01 -1.77044E-01
  -2.09835E-01 -2.41711E-01 -2.72899E-01 -3.03210E-01 -3.32837E-01 -3.61551E-01 -3.89523E-01 -4.16509E-01
 NY background values follow
     1.589E+00    1.585E+00    1.580E+00    1.576E+00    1.571E+00    1.566E+00    1.562E+00    1.557E+00    1.553E+00    1.548E+00
     1.544E+00    1.539E+00    1.535E+00    1.530E+00    1.525E+00    1.521E+00    1.516E+00    1.512E+00    1.507E+00    1.503E+00
     1.498E+00    1.494E+00    1.489E+00    1.485E+00    1.480E+00    1.475E+00    1.471E+00    1.466E+00    1.462E+00    1.457E+00
     1.453E+00    1.448E+00    1.444E+00    1.439E+00    1.435E+00    1.430E+00    1.425E+00    1.421E+00    1.416E+00    1.412E+00
     1.407E+00    1.403E+00    1.398E+00    1.394E+00    1.389E+00    1.384E+00    1.380E+00    1.375E+00    1.371E+00    1.366E+00
     1.362E+00    1.357E+00    1.353E+00    1.348E+00    1.343E+00    1.339E+00    1.334E+00    1.330E+00    1.325E+00    1.320E+00
     1.316E+00    1.311E+00    1.307E+00    1.302E+00    1.297E+00    1.293E+00    1.288E+00    1.284E+00    1.279E+00    1.274E+00
     1.270E+00    1.265E+00    1.260E+00    1.256E+00    1.251E+00    1.246E+00    1.242E+00    1.237E+00    1.232E+00    1.228E+00
     1.223E+00    1.218E+00    1.214E+00    1.209E+00    1.204E+00    1.200E+00    1.195E+00    1.190E+00    1.186E+00    1.181E+00
     1.176E+00    1.171E+00    1.167E+00    1.162E+00    1.157E+00    1.152E+00    1.148E+00    1.143E+00    1.138E+00    1.133E+00
     1.129E+00    1.124E+00    1.119E+00    1.114E+00    1.109E+00    1.105E+00    1.100E+00    1.095E+00    1.090E+00    1.085E+00
     1.080E+00    1.076E+00    1.071E+00    1.066E+00    1.061E+00    1.056E+00    1.051E+00    1.046E+00    1.041E+00    1.037E+00
     1.032E+00    1.027E+00    1.022E+00    1.017E+00    1.012E+00    1.007E+00    1.002E+00    9.969E-01    9.919E-01    9.869E-01
     9.819E-01    9.769E-01    9.719E-01    9.668E-01    9.618E-01    9.568E-01    9.517E-01    9.466E-01    9.416E-01    9.365E-01
     9.314E-01    9.263E-01    9.211E-01    9.160E-01    9.109E-01    9.057E-01    9.006E-01    8.954E-01    8.902E-01    8.851E-01
     8.799E-01    8.747E-01    8.694E-01    8.642E-01    8.590E-01    8.537E-01    8.485E-01    8.432E-01    8.379E-01    8.326E-01
     8.273E-01    8.220E-01    8.167E-01    8.113E-01    8.060E-01    8.006E-01    7.953E-01    7.899E-01    7.845E-01    7.791E-01
     7.736E-01    7.682E-01    7.628E-01    7.573E-01    7.519E-01    7.464E-01    7.409E-01    7.354E-01    7.299E-01    7.243E-01
     7.188E-01    7.133E-01    7.077E-01    7.021E-01    6.965E-01    6.909E-01    6.853E-01    6.797E-01    6.741E-01    6.684E-01
     6.628E-01    6.571E-01    6.514E-01    6.458E-01    6.401E-01    6.343E-01    6.286E-01    6.229E-01    6.171E-01    6.114E-01
     6.056E-01    5.998E-01    5.940E-01    5.882E-01    5.824E-01    5.766E-01    5.707E-01    5.649E-01    5.590E-01    5.531E-01
     5.472E-01    5.413E-01    5.354E-01    5.295E-01    5.236E-01    5.176E-01    5.116E-01    5.057E-01    4.997E-01    4.937E-01
     4.877E-01    4.817E-01    4.756E-01    4.696E-01    4.635E-01    4.575E-01    4.514E-01    4.453E-01    4.392E-01    4.331E-01
     4.270E-01    4.208E-01    4.147E-01    4.085E-01    4.023E-01    3.961E-01    3.899E-01    3.837E-01    3.775E-01    3.713E-01
     3.650E-01    3.588E-01    3.525E-01    3.462E-01    3.399E-01    3.336E-01    3.273E-01    3.210E-01    3.146E-01    3.083E-01
     3.019E-01    2.955E-01    2.892E-01    2.828E-01    2.763E-01    2.699E-01    2.635E-01    2.570E-01    2.506E-01    2.441E-01
     2.376E-01    2.311E-01    2.246E-01    2.181E-01    2.116E-01    2.050E-01    1.985E-01    1.919E-01    1.853E-01    1.787E-01
     1.721E-01    1.655E-01    1.589E-01    1.523E-01    1.456E-01    1.389E-01    1.323E-01    1.256E-01    1.189E-01    1.122E-01
     1.054E-01    9.871E-02    9.196E-02    8.520E-02    7.843E-02    7.165E-02    6.486E-02    5.805E-02    5.123E-02    4.440E-02
     3.756E-02    3.070E-02    2.384E-02    1.696E-02    1.007E-02    3.163E-03   -3.752E-03   -1.068E-02   -1.762E-02   -2.457E-02
    -3.153E-02   -3.851E-02   -4.549E-02   -5.249E-02   -5.950E-02   -6.653E-02   -7.356E-02   -8.061E-02   -8.767E-02   -9.474E-02
    -1.018E-01   -1.089E-01   -1.160E-01   -1.231E-01   -1.303E-01   -1.374E-01   -1.446E-01   -1.517E-01   -1.589E-01   -1.661E-01
    -1.733E-01   -1.805E-01   -1.878E-01   -1.950E-01   -2.023E-01   -2.095E-01   -2.168E-01   -2.241E-01   -2.314E-01   -2.387E-01
    -2.460E-01   -2.534E-01   -2.607E-01   -2.681E-01   -2.754E-01   -2.828E-01   -2.902E-01   -2.976E-01   -3.051E-01   -3.125E-01
    -3.199E-01   -3.274E-01   -3.349E-01   -3.423E-01   -3.498E-01   -3.573E-01   -3.648E-01   -3.724E-01   -3.799E-01   -3.874E-01
    -3.950E-01   -4.026E-01   -4.101E-01   -4.177E-01   -4.253E-01   -4.329E-01   -4.405E-01   -4.482E-01   -4.558E-01   -4.635E-01
    -4.711E-01   -4.788E-01   -4.865E-01   -4.942E-01   -5.019E-01   -5.096E-01   -5.173E-01   -5.250E-01   -5.328E-01   -5.405E-01
    -5.483E-01   -5.560E-01   -5.638E-01   -5.716E-01   -5.794E-01   -5.872E-01   -5.950E-01   -6.028E-01   -6.107E-01   -6.185E-01
    -6.263E-01   -6.342E-01   -6.421E-01   -6.499E-01   -6.578E-01   -6.657E-01   -6.736E-01   -6.815E-01   -6.894E-01   -6.974E-01
    -7.053E-01   -7.132E-01   -7.212E-01   -7.291E-01   -7.371E-01   -7.451E-01   -7.530E-01   -7.610E-01   -7.690E-01   -7.770E-01
    -7.850E-01   -7.930E-01   -8.011E-01   -8.091E-01   -8.171E-01   -8.252E-01   -8.332E-01   -8.413E-01   -8.493E-01   -8.574E-01
    -8.655E-01   -8.736E-01   -8.817E-01   -8.898E-01   -8.979E-01   -9.060E-01   -9.141E-01   -9.222E-01   -9.303E-01   -9.385E-01
    -9.466E-01   -9.547E-01   -9.629E-01   -9.710E-01   -9.792E-01   -9.874E-01   -9.955E-01   -1.004E+00   -1.012E+00   -1.020E+00
    -1.028E+00   -1.036E+00   -1.045E+00   -1.053E+00   -1.061E+00   -1.069E+00   -1.078E+00   -1.086E+00   -1.094E+00   -1.102E+00
    -1.110E+00   -1.119E+00   -1.127E+00   -1.135E+00   -1.143E+00   -1.152E+00   -1.160E+00   -1.168E+00   -1.177E+00   -1.185E+00
    -1.193E+00   -1.201E+00   -1.210E+00   -1.218E+00   -1.226E+00   -1.235E+00   -1.243E+00   -1.251E+00   -1.260E+00   -1.268E+00
    -1.276E+00   -1.284E+00   -1.293E+00   -1.301E+00   -1.309E+00   -1.318E+00   -1.326E+00   -1.334E+00   -1.343E+00   -1.351E+00
    -1.359E+00   -1.368E+00   -1.376E+00   -1.384E+00   -1.393E+00   -1.401E+00   -1.410E+00   -1.418E+00   -1.426E+00   -1.435E+00
    -1.443E+00   -1.451E+00   -1.460E+00   -1.468E+00   -1.476E+00   -1.485E+00   -1.493E+00   -1.502E+00   -1.510E+00   -1.518E+00
    -1.527E+00   -1.535E+00   -1.543E+00   -1.552E+00   -1.560E+00   -1.569E+00   -1.577E+00   -1.585E+00
 Ala      Conc. = 2.64E+03
