 LCModel (Version 6.3-1L) Copyright: S.W. Provencher.          Ref.: Magn. Reson. Med. 30:672-679 (1993).                
 Slice#2 Row#14 Col#10  PD_05_press_1_raw_act
 36 lines in following concentration table = NCONC+1
    Conc.  %SD /Cr+PCr  Metabolite                                         
   85.005  69%   1.286 Ala                                                 
   10.196 164%   0.154 Asp                                                 
    0.000 999%   0.000 Cr                                                  
   66.117  22%   1.000 PCr                                                 
    6.011 168% 9.1E-02 GABA                                                
    5.890 171% 8.9E-02 Glc                                                 
  664.040  21%  10.043 Gln                                                 
  599.069  25%   9.061 Glu                                                 
    0.000 999%   0.000 GPC                                                 
   14.281  40%   0.216 PCh                                                 
   22.818 115%   0.345 GSH                                                 
  214.126  34%   3.239 Ins                                                 
  136.860  57%   2.070 Lac                                                 
   70.157  24%   1.061 NAA                                                 
    0.000 999%   0.000 NAAG                                                
    2.210 144% 3.3E-02 Scyllo                                              
    7.374 223%   0.112 Tau                                                 
    0.000 999%   0.000 -CrCH2                                              
   14.281  40%   0.216 GPC+PCh                                             
   70.157  24%   1.061 NAA+NAAG                                            
   66.117  22%   1.000 Cr+PCr                                              
 1.26E+03  20%  19.104 Glu+Gln                                             
    0.000 999%   0.000 Lip13a                                              
   82.497  59%   1.248 Lip13b                                              
   21.358  76%   0.323 Lip09                                               
   22.065 139%   0.334 MM09                                                
   12.176  82%   0.184 Lip20                                               
   34.923 137%   0.528 MM20                                                
    6.271 165% 9.5E-02 MM12                                                
   11.862 255%   0.179 MM14                                                
   12.514 140%   0.189 MM17                                                
   82.497  59%   1.248 Lip13a+Lip13b                                       
  100.630  51%   1.522 MM14+Lip13a+Lip13b+MM12                             
   43.423  66%   0.657 MM09+Lip09                                          
   47.099  98%   0.712 MM20+Lip20                                          
   6 lines in following misc. output table
  FWHM = 0.092 ppm    S/N =   1                                            
  Data shift =-0.061 ppm                                                   
  Ph: 170 deg       5.6 deg/ppm                                            
  alphaB,S = 2.3E+00,   1.4E+02                                            
   14 spline knots.   Ns = 9(1)                                            
  ( 5) 6 infls.   ( 5) 1 extrs.                                            
  498 points on ppm-axis = NY
      4.000000     3.992357     3.984714     3.977070     3.969427     3.961784     3.954141     3.946497     3.938854     3.931211
      3.923568     3.915925     3.908281     3.900638     3.892995     3.885352     3.877708     3.870065     3.862422     3.854779
      3.847136     3.839492     3.831849     3.824206     3.816563     3.808919     3.801276     3.793633     3.785990     3.778347
      3.770703     3.763060     3.755417     3.747774     3.740130     3.732487     3.724844     3.717201     3.709558     3.701914
      3.694271     3.686628     3.678985     3.671341     3.663698     3.656055     3.648412     3.640769     3.633125     3.625482
      3.617839     3.610196     3.602552     3.594909     3.587266     3.579623     3.571980     3.564336     3.556693     3.549050
      3.541407     3.533763     3.526120     3.518477     3.510834     3.503191     3.495547     3.487904     3.480261     3.472618
      3.464974     3.457331     3.449688     3.442045     3.434402     3.426758     3.419115     3.411472     3.403829     3.396185
      3.388542     3.380899     3.373256     3.365613     3.357969     3.350326     3.342683     3.335040     3.327396     3.319753
      3.312110     3.304467     3.296824     3.289180     3.281537     3.273894     3.266251     3.258607     3.250964     3.243321
      3.235678     3.228034     3.220391     3.212748     3.205105     3.197462     3.189818     3.182175     3.174532     3.166889
      3.159245     3.151602     3.143959     3.136316     3.128673     3.121029     3.113386     3.105743     3.098100     3.090456
      3.082813     3.075170     3.067527     3.059884     3.052240     3.044597     3.036954     3.029311     3.021667     3.014024
      3.006381     2.998738     2.991095     2.983451     2.975808     2.968165     2.960522     2.952878     2.945235     2.937592
      2.929949     2.922306     2.914662     2.907019     2.899376     2.891733     2.884089     2.876446     2.868803     2.861160
      2.853517     2.845873     2.838230     2.830587     2.822944     2.815300     2.807657     2.800014     2.792371     2.784728
      2.777084     2.769441     2.761798     2.754155     2.746511     2.738868     2.731225     2.723582     2.715939     2.708295
      2.700652     2.693009     2.685366     2.677722     2.670079     2.662436     2.654793     2.647150     2.639506     2.631863
      2.624220     2.616577     2.608933     2.601290     2.593647     2.586004     2.578361     2.570717     2.563074     2.555431
      2.547788     2.540144     2.532501     2.524858     2.517215     2.509572     2.501928     2.494285     2.486642     2.478999
      2.471355     2.463712     2.456069     2.448426     2.440783     2.433139     2.425496     2.417853     2.410210     2.402566
      2.394923     2.387280     2.379637     2.371994     2.364350     2.356707     2.349064     2.341421     2.333777     2.326134
      2.318491     2.310848     2.303205     2.295561     2.287918     2.280275     2.272632     2.264988     2.257345     2.249702
      2.242059     2.234416     2.226772     2.219129     2.211486     2.203843     2.196199     2.188556     2.180913     2.173270
      2.165627     2.157983     2.150340     2.142697     2.135054     2.127410     2.119767     2.112124     2.104481     2.096838
      2.089194     2.081551     2.073908     2.066265     2.058621     2.050978     2.043335     2.035692     2.028049     2.020405
      2.012762     2.005119     1.997476     1.989833     1.982190     1.974546     1.966903     1.959260     1.951617     1.943974
      1.936331     1.928688     1.921045     1.913402     1.905759     1.898115     1.890472     1.882829     1.875186     1.867543
      1.859900     1.852257     1.844614     1.836971     1.829327     1.821684     1.814041     1.806398     1.798755     1.791112
      1.783469     1.775826     1.768183     1.760540     1.752896     1.745253     1.737610     1.729967     1.722324     1.714681
      1.707038     1.699395     1.691752     1.684108     1.676465     1.668822     1.661179     1.653536     1.645893     1.638250
      1.630607     1.622964     1.615321     1.607677     1.600034     1.592391     1.584748     1.577105     1.569462     1.561819
      1.554176     1.546533     1.538890     1.531246     1.523603     1.515960     1.508317     1.500674     1.493031     1.485388
      1.477745     1.470102     1.462458     1.454815     1.447172     1.439529     1.431886     1.424243     1.416600     1.408957
      1.401314     1.393671     1.386027     1.378384     1.370741     1.363098     1.355455     1.347812     1.340169     1.332526
      1.324883     1.317240     1.309596     1.301953     1.294310     1.286667     1.279024     1.271381     1.263738     1.256095
      1.248452     1.240808     1.233165     1.225522     1.217879     1.210236     1.202593     1.194950     1.187307     1.179664
      1.172021     1.164377     1.156734     1.149091     1.141448     1.133805     1.126162     1.118519     1.110876     1.103233
      1.095590     1.087946     1.080303     1.072660     1.065017     1.057374     1.049731     1.042088     1.034445     1.026802
      1.019158     1.011515     1.003872     0.996229     0.988586     0.980943     0.973300     0.965657     0.958014     0.950371
      0.942727     0.935084     0.927441     0.919798     0.912155     0.904512     0.896869     0.889226     0.881583     0.873940
      0.866296     0.858653     0.851010     0.843367     0.835724     0.828081     0.820438     0.812795     0.805152     0.797508
      0.789865     0.782222     0.774579     0.766936     0.759293     0.751650     0.744007     0.736364     0.728721     0.721077
      0.713434     0.705791     0.698148     0.690505     0.682862     0.675219     0.667576     0.659933     0.652290     0.644646
      0.637003     0.629360     0.621717     0.614074     0.606431     0.598788     0.591145     0.583502     0.575858     0.568215
      0.560572     0.552929     0.545286     0.537643     0.530000     0.522357     0.514714     0.507071     0.499427     0.491784
      0.484141     0.476498     0.468855     0.461212     0.453569     0.445925     0.438282     0.430639     0.422996     0.415353
      0.407710     0.400067     0.392424     0.384780     0.377137     0.369494     0.361851     0.354208     0.346565     0.338922
      0.331278     0.323635     0.315992     0.308349     0.300706     0.293063     0.285420     0.277777     0.270133     0.262490
      0.254847     0.247204     0.239561     0.231918     0.224275     0.216631     0.208988     0.201345
 NY phased data points follow
   7.00711E+00  5.13968E+00  5.55454E+00  6.25820E+00  5.42119E+00  5.75928E+00  5.50555E+00  5.92082E+00  5.76238E+00  5.01899E+00
   5.70838E+00  5.67880E+00  4.80567E+00  4.99540E+00  4.97393E+00  4.31037E+00  6.91448E+00  5.39525E+00  4.60688E+00  3.50255E+00
   3.96269E+00  4.92882E+00  4.02883E+00  5.33892E+00  6.27295E+00  3.58083E+00  6.12649E+00  4.83323E+00  5.02359E+00  4.39738E+00
   5.44785E+00  5.00055E+00  4.61407E+00  4.54046E+00  4.47110E+00  3.46576E+00  3.41912E+00  5.28720E+00  4.98110E+00  5.29449E+00
   6.04394E+00  4.67968E+00  3.20335E+00  3.54977E+00  4.23790E+00  4.61036E+00  4.32286E+00  4.95779E+00  3.87676E+00  2.54480E+00
   2.91305E+00  4.42462E+00  4.94643E+00  2.54983E+00  4.73807E+00  2.79795E+00  4.54783E+00  4.29550E+00  3.69356E+00  3.65137E+00
   3.08965E+00  3.77308E+00  2.72949E+00  3.05763E+00  3.56854E+00  3.46918E+00  3.56742E+00  3.96858E+00  2.60925E+00  3.94560E+00
   5.57721E+00  3.27501E+00  4.70600E+00  3.23390E+00  3.03486E+00  3.64061E+00  2.22958E+00  3.84995E+00  2.54318E+00  2.83639E+00
   2.69171E+00  2.82793E+00  4.47155E+00  2.95959E+00  4.09125E+00  2.61032E+00  3.99444E+00  2.40615E+00  2.13955E+00  1.20780E+00
   3.33171E+00  3.32902E+00  3.86104E+00  2.78975E+00  2.32647E+00  2.91573E+00  2.32223E+00  2.51161E+00  3.01888E+00  1.66379E+00
   2.01501E+00  2.17272E+00  2.24241E+00  2.89610E+00  3.05959E+00  3.91529E+00  4.55644E+00  3.80248E+00  4.57886E+00  2.35168E+00
   3.21356E+00  4.44240E+00  3.71331E+00  3.67501E+00  3.62846E+00  2.90493E+00  2.92696E+00  1.01984E+00  2.83717E+00  1.97298E+00
   3.41646E+00  1.83210E+00  2.98057E+00  1.74476E+00  1.66123E+00  1.74891E+00  2.88799E+00  3.10360E+00  4.30659E+00  3.62244E+00
   5.03018E+00  2.95061E+00  2.42632E+00  2.98452E+00  3.19397E+00  2.57987E+00  3.34839E+00  3.16577E+00  3.17138E+00  3.82315E+00
   3.05772E+00  2.61128E+00  4.51454E+00  1.99165E+00  1.21789E+00  2.31859E+00  1.00635E+00  2.55691E+00  2.93047E+00  1.07113E+00
   1.45789E+00  2.03856E+00  2.69717E+00  4.10262E-01  2.42064E+00  2.40162E+00  2.09091E+00  2.72125E+00  8.98689E-01  2.00049E+00
   2.20002E+00  1.21993E+00  2.78670E+00  1.62874E+00  1.02651E+00  3.08932E+00  1.94163E+00  2.16056E+00  1.44021E+00  2.07368E+00
   2.82864E+00  2.58231E+00  1.87271E+00  1.75383E+00  7.72041E-01  2.20309E+00  2.23228E+00  2.04289E+00  1.56342E+00  1.56704E+00
   1.98530E+00  1.64608E+00  1.10067E+00  7.08708E-01  1.42517E+00  1.59838E+00  2.29240E+00  8.53765E-01  7.39998E-01  5.59715E-01
   3.84883E-01  1.29478E+00  2.22360E+00  1.49047E+00  2.17944E-01  6.49478E-01  7.39572E-01  4.50405E-01  5.89033E-01  2.08710E+00
   3.14967E+00  2.75673E-01  8.21484E-01  1.09554E+00  1.32863E+00  2.10355E+00  1.68308E+00  1.49587E+00  2.18745E+00  2.34109E-01
   8.17736E-01  1.10868E+00  2.19008E+00  6.19189E-01  2.55648E+00  2.08730E+00  2.11607E+00  2.35204E+00  2.67382E+00  1.48387E+00
   8.37092E-01  2.67083E+00  7.40656E-01  6.89683E-02  3.41538E+00  1.50409E+00  2.56520E+00  2.03134E+00  1.68370E+00  2.72478E+00
   8.19031E-01  2.25760E+00  1.84221E+00  1.72536E+00  1.75952E+00  5.80505E-01  1.71019E+00  2.93666E+00  2.87691E+00  2.18102E+00
   2.50153E+00  8.96697E-01  2.03523E+00  2.13623E+00  2.87186E+00  1.94843E-01  2.15277E+00  1.46750E+00  2.19629E+00  2.70775E+00
   6.47846E-01  7.55687E-01  1.49208E+00  1.01988E+00  3.09470E+00  2.45132E+00  2.07131E+00  2.15460E+00  3.03305E+00  3.09215E+00
   2.79000E+00  2.68871E+00  4.16382E+00  3.01568E+00  3.69713E+00  4.03195E+00  4.59607E+00  3.67624E+00  1.44349E+00  2.64943E+00
   2.31319E+00  4.45214E+00  4.08147E+00  2.62431E+00  7.73281E-01  1.08400E+00  2.72652E+00  1.42955E+00  2.01886E+00  5.69308E-01
   2.56553E+00  1.14535E+00  2.64956E+00  8.60548E-01  2.11804E+00  2.05043E+00  2.18764E+00  1.59906E+00  1.94882E+00  1.17552E+00
   6.33843E-01  2.12815E+00  1.15694E+00  2.72866E+00  1.72532E+00  3.79448E-01  2.49708E+00  1.54486E+00  1.43999E+00  2.74205E+00
   2.75236E+00  2.71811E+00  1.39399E+00  1.33400E+00  2.71054E+00  1.34475E+00  2.60690E+00  2.40970E+00  2.74381E+00  1.35915E+00
   1.76599E+00  8.43370E-01  9.72404E-01  7.98714E-01  7.28919E-01  7.23963E-01  2.34194E+00  2.07548E+00  1.28337E+00  2.16608E+00
   1.26660E+00  2.12792E+00  1.21274E+00  1.33551E+00  1.35831E+00  6.49341E-01 -1.35278E-01  2.30323E+00  1.14031E+00  3.19472E-02
  -8.89289E-01  7.80751E-01  1.59435E+00  2.88255E+00  1.47843E+00  1.00444E+00  2.12062E+00  1.39023E+00  2.14206E+00  2.26298E+00
   2.03451E-01  2.98853E+00  1.75936E+00  3.04884E+00  3.68134E+00  1.96159E+00  2.34675E+00  2.80267E+00  2.20294E+00  1.02260E+00
   1.20843E+00  1.52346E+00  2.59794E+00  2.04823E+00  1.68807E+00  3.03695E+00  2.31254E+00  1.87636E+00  2.79194E+00  2.49445E+00
   1.24739E+00  2.02199E+00  2.86314E+00  2.06258E+00  1.98891E+00  1.76553E+00  2.50171E+00  1.48978E+00  1.26139E+00  3.04681E-01
   6.23626E-01  8.37937E-02  1.42072E+00 -1.41641E-01  2.30255E+00 -1.10990E-01  8.77971E-01  1.50850E+00  1.19016E+00  6.03830E-01
   1.28727E+00  1.37096E+00 -8.33660E-01  6.21729E-01  1.89897E+00 -9.20279E-02  2.13250E-01  7.22027E-01  1.16088E+00  3.38398E-01
   1.66867E+00 -2.30510E-01  2.01606E+00  1.98469E-01  5.92285E-01  1.82606E+00  1.38596E+00  1.63576E+00  4.48213E-01  1.14458E+00
   7.97321E-01  1.84860E+00  8.71929E-01  1.47775E+00  7.52241E-01  1.28093E+00  2.64591E+00  5.84310E-01 -1.81796E-01  2.53420E+00
   7.72021E-01  1.22226E+00  2.69906E+00 -2.28451E-01  1.51407E-01  4.04973E-01  1.38989E+00  1.11746E+00  9.83085E-01 -4.85953E-01
   5.39593E-01  1.76042E+00 -2.52193E-01  2.88027E-01  4.64416E-01 -3.26297E-01  1.02237E+00 -7.52675E-01  1.86237E-01  4.21364E-01
   6.75711E-01  7.77331E-01  6.93114E-01  1.82242E+00  1.67185E+00  1.95387E+00  2.97915E-01  5.87359E-01  6.58184E-01  1.07855E+00
   5.69676E-01  1.95516E+00  2.60073E+00  1.95688E+00  4.35863E-01 -4.59421E-02  4.76691E-01 -5.18593E-01  8.89257E-01 -4.62117E-01
   1.43370E+00  4.52033E-01  1.20543E+00 -1.20154E+00  2.47254E-01  5.81029E-01  5.05622E-01  1.46887E+00  1.28100E+00 -1.87728E-03
   1.48702E+00  7.74565E-02  1.19599E+00  1.48066E+00 -1.80669E-01  1.98184E+00  6.61015E-01  8.59918E-01  6.12401E-01  9.90077E-01
   1.76918E+00  7.26490E-01  1.20379E+00 -2.06976E-01  8.56183E-03  4.00463E-01  7.24496E-01  9.94326E-01  1.09904E+00  9.55145E-01
   2.91562E-01  1.46521E+00 -8.08639E-01  3.02613E-01  8.43558E-01  6.79543E-01 -2.61451E-02  2.04939E-01 -2.77671E-02  1.66619E+00
   1.39490E-01 -1.53852E-01 -1.85648E-01  8.74076E-01  4.59893E-01  6.43143E-02 -3.83519E-01  8.22243E-01
 NY points of the fit to the data follow
   4.56205E+00  4.51865E+00  4.47069E+00  4.42626E+00  4.42099E+00  4.45896E+00  4.53401E+00  4.64210E+00  4.74529E+00  4.80125E+00
   4.80655E+00  4.77679E+00  4.73497E+00  4.70405E+00  4.69742E+00  4.71560E+00  4.74826E+00  4.73047E+00  4.61017E+00  4.42598E+00
   4.29499E+00  4.25520E+00  4.26127E+00  4.33696E+00  4.42449E+00  4.45434E+00  4.42895E+00  4.41979E+00  4.49557E+00  4.66417E+00
   4.90664E+00  5.12279E+00  5.17627E+00  5.02331E+00  4.74878E+00  4.52132E+00  4.47799E+00  4.58604E+00  4.73021E+00  4.80415E+00
   4.72571E+00  4.47286E+00  4.16184E+00  4.02430E+00  4.11341E+00  4.35892E+00  4.63662E+00  4.82838E+00  4.84999E+00  4.69807E+00
   4.49444E+00  4.33044E+00  4.21598E+00  4.14118E+00  4.07199E+00  3.97697E+00  3.84689E+00  3.70309E+00  3.60376E+00  3.58788E+00
   3.62096E+00  3.64860E+00  3.64968E+00  3.63844E+00  3.62783E+00  3.62029E+00  3.61522E+00  3.61030E+00  3.59744E+00  3.56859E+00
   3.53553E+00  3.51512E+00  3.50894E+00  3.51496E+00  3.52041E+00  3.51670E+00  3.50140E+00  3.47642E+00  3.43738E+00  3.38015E+00
   3.30753E+00  3.22821E+00  3.14881E+00  3.07862E+00  3.01152E+00  2.94128E+00  2.87130E+00  2.81049E+00  2.76660E+00  2.73808E+00
   2.72291E+00  2.71644E+00  2.71325E+00  2.71061E+00  2.71873E+00  2.77190E+00  2.85416E+00  2.93728E+00  3.00973E+00  3.07933E+00
   3.15757E+00  3.24578E+00  3.32806E+00  3.38226E+00  3.39301E+00  3.36108E+00  3.30199E+00  3.24012E+00  3.19328E+00  3.15652E+00
   3.11227E+00  3.03858E+00  2.92505E+00  2.78111E+00  2.64894E+00  2.58573E+00  2.56901E+00  2.58235E+00  2.66728E+00  2.80233E+00
   2.92518E+00  3.03041E+00  3.14627E+00  3.29664E+00  3.47857E+00  3.66135E+00  3.80158E+00  3.86778E+00  3.85381E+00  3.77826E+00
   3.67480E+00  3.57246E+00  3.47949E+00  3.37675E+00  3.23122E+00  3.02569E+00  2.77471E+00  2.54150E+00  2.42032E+00  2.38701E+00
   2.37184E+00  2.35715E+00  2.34005E+00  2.32335E+00  2.31323E+00  2.31117E+00  2.30977E+00  2.30426E+00  2.29227E+00  2.27246E+00
   2.24802E+00  2.22268E+00  2.19738E+00  2.17442E+00  2.15381E+00  2.13562E+00  2.11995E+00  2.10470E+00  2.08762E+00  2.06972E+00
   2.05378E+00  2.04106E+00  2.03104E+00  2.02250E+00  2.01359E+00  2.00215E+00  1.98714E+00  1.96925E+00  1.95109E+00  1.93722E+00
   1.92756E+00  1.91742E+00  1.90042E+00  1.87725E+00  1.85426E+00  1.83607E+00  1.82390E+00  1.81343E+00  1.80246E+00  1.79357E+00
   1.78912E+00  1.78955E+00  1.79484E+00  1.80478E+00  1.81269E+00  1.80256E+00  1.77962E+00  1.73210E+00  1.66002E+00  1.57821E+00
   1.48913E+00  1.39377E+00  1.31972E+00  1.29555E+00  1.31853E+00  1.38014E+00  1.51837E+00  1.73415E+00  1.97631E+00  2.21022E+00
   2.35895E+00  2.32191E+00  2.20405E+00  2.11506E+00  2.00912E+00  1.82268E+00  1.59012E+00  1.38562E+00  1.20918E+00  1.09954E+00
   1.11385E+00  1.26507E+00  1.50306E+00  1.70025E+00  1.78142E+00  1.80159E+00  1.86332E+00  1.96968E+00  2.10028E+00  2.24695E+00
   2.30480E+00  2.16804E+00  1.97600E+00  1.82717E+00  1.69850E+00  1.59672E+00  1.55750E+00  1.58899E+00  1.66972E+00  1.85553E+00
   2.14474E+00  2.45961E+00  2.69554E+00  2.71851E+00  2.53621E+00  2.34824E+00  2.24787E+00  2.20439E+00  2.18174E+00  2.13185E+00
   2.00380E+00  1.78847E+00  1.54074E+00  1.34744E+00  1.27668E+00  1.31318E+00  1.34804E+00  1.26892E+00  1.13546E+00  1.02640E+00
   9.99427E-01  1.15112E+00  1.52805E+00  1.93466E+00  2.21862E+00  2.45126E+00  2.67772E+00  2.90980E+00  3.16141E+00  3.40577E+00
   3.55852E+00  3.56825E+00  3.45462E+00  3.27664E+00  3.10998E+00  3.00224E+00  2.94758E+00  2.88809E+00  2.75949E+00  2.52772E+00
   2.23754E+00  2.01808E+00  1.92955E+00  1.89323E+00  1.87989E+00  1.88200E+00  1.87506E+00  1.86155E+00  1.85386E+00  1.85116E+00
   1.84981E+00  1.84446E+00  1.82707E+00  1.79641E+00  1.76325E+00  1.73544E+00  1.71236E+00  1.69379E+00  1.68066E+00  1.67270E+00
   1.66778E+00  1.66180E+00  1.65379E+00  1.64532E+00  1.63705E+00  1.62916E+00  1.62190E+00  1.61560E+00  1.61007E+00  1.60464E+00
   1.59950E+00  1.59500E+00  1.59069E+00  1.58637E+00  1.58214E+00  1.57786E+00  1.57358E+00  1.56943E+00  1.56561E+00  1.56232E+00
   1.55982E+00  1.55844E+00  1.55862E+00  1.56115E+00  1.56731E+00  1.57889E+00  1.59948E+00  1.63836E+00  1.70554E+00  1.76099E+00
   1.77831E+00  1.77613E+00  1.77315E+00  1.76757E+00  1.73684E+00  1.65727E+00  1.55453E+00  1.45484E+00  1.34825E+00  1.24002E+00
   1.15519E+00  1.11956E+00  1.14009E+00  1.19920E+00  1.27274E+00  1.34707E+00  1.42941E+00  1.55751E+00  1.77644E+00  2.00695E+00
   2.16010E+00  2.26145E+00  2.34053E+00  2.38625E+00  2.35013E+00  2.19935E+00  2.03506E+00  1.92342E+00  1.82181E+00  1.72801E+00
   1.68082E+00  1.71990E+00  1.84918E+00  2.02457E+00  2.18209E+00  2.27523E+00  2.29562E+00  2.28626E+00  2.31476E+00  2.35879E+00
   2.36091E+00  2.33942E+00  2.29150E+00  2.19079E+00  2.00789E+00  1.75447E+00  1.53521E+00  1.39895E+00  1.30917E+00  1.24608E+00
   1.20009E+00  1.16545E+00  1.13847E+00  1.11675E+00  1.09874E+00  1.08342E+00  1.07017E+00  1.05859E+00  1.04845E+00  1.03962E+00
   1.03203E+00  1.02563E+00  1.02042E+00  1.01639E+00  1.01358E+00  1.01202E+00  1.01173E+00  1.01273E+00  1.01503E+00  1.01860E+00
   1.02341E+00  1.02940E+00  1.03646E+00  1.04441E+00  1.05307E+00  1.06220E+00  1.07150E+00  1.08066E+00  1.08933E+00  1.09714E+00
   1.10373E+00  1.10874E+00  1.11185E+00  1.11279E+00  1.11135E+00  1.10736E+00  1.10078E+00  1.09160E+00  1.07993E+00  1.06593E+00
   1.04983E+00  1.03191E+00  1.01249E+00  9.91920E-01  9.70548E-01  9.48713E-01  9.26733E-01  9.04896E-01  8.83454E-01  8.62614E-01
   8.42537E-01  8.23341E-01  8.05102E-01  7.87860E-01  7.71624E-01  7.56377E-01  7.42082E-01  7.28684E-01  7.16121E-01  7.04325E-01
   6.93227E-01  6.82759E-01  6.72852E-01  6.63443E-01  6.54475E-01  6.45896E-01  6.37660E-01  6.29726E-01  6.22056E-01  6.14619E-01
   6.07386E-01  6.00335E-01  5.93444E-01  5.86694E-01  5.80069E-01  5.73556E-01  5.67143E-01  5.60821E-01  5.54580E-01  5.48412E-01
   5.42309E-01  5.36265E-01  5.30276E-01  5.24336E-01  5.18443E-01  5.12590E-01  5.06776E-01  5.00997E-01  4.95253E-01  4.89539E-01
   4.83854E-01  4.78197E-01  4.72564E-01  4.66957E-01  4.61372E-01  4.55808E-01  4.50262E-01  4.44735E-01  4.39225E-01  4.33734E-01
   4.28259E-01  4.22799E-01  4.17353E-01  4.11921E-01  4.06502E-01  4.01095E-01  3.95700E-01  3.90317E-01  3.84945E-01  3.79585E-01
   3.74235E-01  3.68897E-01  3.63568E-01  3.58250E-01  3.52940E-01  3.47641E-01  3.42351E-01  3.37073E-01  3.31804E-01  3.26545E-01
   3.21297E-01  3.16061E-01  3.10837E-01  3.05627E-01  3.00430E-01  2.95247E-01  2.90081E-01  2.84935E-01
 NY background values follow
     3.637E+00    3.628E+00    3.619E+00    3.610E+00    3.600E+00    3.591E+00    3.582E+00    3.573E+00    3.564E+00    3.555E+00
     3.546E+00    3.537E+00    3.527E+00    3.518E+00    3.509E+00    3.500E+00    3.491E+00    3.482E+00    3.473E+00    3.464E+00
     3.455E+00    3.445E+00    3.436E+00    3.427E+00    3.418E+00    3.409E+00    3.400E+00    3.391E+00    3.382E+00    3.373E+00
     3.364E+00    3.354E+00    3.345E+00    3.336E+00    3.327E+00    3.318E+00    3.309E+00    3.300E+00    3.291E+00    3.282E+00
     3.273E+00    3.264E+00    3.255E+00    3.246E+00    3.237E+00    3.228E+00    3.219E+00    3.210E+00    3.201E+00    3.192E+00
     3.183E+00    3.174E+00    3.165E+00    3.156E+00    3.147E+00    3.138E+00    3.129E+00    3.120E+00    3.111E+00    3.102E+00
     3.093E+00    3.084E+00    3.075E+00    3.066E+00    3.057E+00    3.048E+00    3.039E+00    3.031E+00    3.022E+00    3.013E+00
     3.004E+00    2.995E+00    2.986E+00    2.977E+00    2.969E+00    2.960E+00    2.951E+00    2.942E+00    2.933E+00    2.925E+00
     2.916E+00    2.907E+00    2.898E+00    2.889E+00    2.881E+00    2.872E+00    2.863E+00    2.855E+00    2.846E+00    2.837E+00
     2.828E+00    2.820E+00    2.811E+00    2.802E+00    2.794E+00    2.785E+00    2.777E+00    2.768E+00    2.759E+00    2.751E+00
     2.742E+00    2.734E+00    2.725E+00    2.717E+00    2.708E+00    2.699E+00    2.691E+00    2.682E+00    2.674E+00    2.665E+00
     2.657E+00    2.649E+00    2.640E+00    2.632E+00    2.623E+00    2.615E+00    2.606E+00    2.598E+00    2.590E+00    2.581E+00
     2.573E+00    2.565E+00    2.556E+00    2.548E+00    2.540E+00    2.531E+00    2.523E+00    2.515E+00    2.507E+00    2.498E+00
     2.490E+00    2.482E+00    2.474E+00    2.466E+00    2.457E+00    2.449E+00    2.441E+00    2.433E+00    2.425E+00    2.417E+00
     2.409E+00    2.401E+00    2.393E+00    2.384E+00    2.376E+00    2.368E+00    2.360E+00    2.352E+00    2.344E+00    2.336E+00
     2.329E+00    2.321E+00    2.313E+00    2.305E+00    2.297E+00    2.289E+00    2.281E+00    2.273E+00    2.265E+00    2.258E+00
     2.250E+00    2.242E+00    2.234E+00    2.226E+00    2.219E+00    2.211E+00    2.203E+00    2.196E+00    2.188E+00    2.180E+00
     2.173E+00    2.165E+00    2.157E+00    2.150E+00    2.142E+00    2.135E+00    2.127E+00    2.119E+00    2.112E+00    2.104E+00
     2.097E+00    2.089E+00    2.082E+00    2.075E+00    2.067E+00    2.060E+00    2.052E+00    2.045E+00    2.037E+00    2.030E+00
     2.023E+00    2.015E+00    2.008E+00    2.001E+00    1.994E+00    1.986E+00    1.979E+00    1.972E+00    1.965E+00    1.957E+00
     1.950E+00    1.943E+00    1.936E+00    1.929E+00    1.922E+00    1.914E+00    1.907E+00    1.900E+00    1.893E+00    1.886E+00
     1.879E+00    1.872E+00    1.865E+00    1.858E+00    1.851E+00    1.844E+00    1.837E+00    1.830E+00    1.823E+00    1.816E+00
     1.810E+00    1.803E+00    1.796E+00    1.789E+00    1.782E+00    1.775E+00    1.769E+00    1.762E+00    1.755E+00    1.748E+00
     1.741E+00    1.735E+00    1.728E+00    1.721E+00    1.715E+00    1.708E+00    1.701E+00    1.695E+00    1.688E+00    1.681E+00
     1.675E+00    1.668E+00    1.662E+00    1.655E+00    1.648E+00    1.642E+00    1.635E+00    1.629E+00    1.622E+00    1.616E+00
     1.609E+00    1.603E+00    1.596E+00    1.590E+00    1.583E+00    1.577E+00    1.571E+00    1.564E+00    1.558E+00    1.551E+00
     1.545E+00    1.539E+00    1.532E+00    1.526E+00    1.520E+00    1.513E+00    1.507E+00    1.501E+00    1.495E+00    1.488E+00
     1.482E+00    1.476E+00    1.470E+00    1.463E+00    1.457E+00    1.451E+00    1.445E+00    1.438E+00    1.432E+00    1.426E+00
     1.420E+00    1.414E+00    1.408E+00    1.402E+00    1.395E+00    1.389E+00    1.383E+00    1.377E+00    1.371E+00    1.365E+00
     1.359E+00    1.353E+00    1.347E+00    1.341E+00    1.335E+00    1.329E+00    1.323E+00    1.317E+00    1.311E+00    1.305E+00
     1.299E+00    1.293E+00    1.287E+00    1.281E+00    1.275E+00    1.269E+00    1.263E+00    1.257E+00    1.252E+00    1.246E+00
     1.240E+00    1.234E+00    1.228E+00    1.222E+00    1.216E+00    1.211E+00    1.205E+00    1.199E+00    1.193E+00    1.187E+00
     1.182E+00    1.176E+00    1.170E+00    1.164E+00    1.159E+00    1.153E+00    1.147E+00    1.142E+00    1.136E+00    1.130E+00
     1.124E+00    1.119E+00    1.113E+00    1.107E+00    1.102E+00    1.096E+00    1.091E+00    1.085E+00    1.079E+00    1.074E+00
     1.068E+00    1.063E+00    1.057E+00    1.051E+00    1.046E+00    1.040E+00    1.035E+00    1.029E+00    1.024E+00    1.018E+00
     1.013E+00    1.007E+00    1.002E+00    9.962E-01    9.907E-01    9.852E-01    9.797E-01    9.743E-01    9.688E-01    9.634E-01
     9.580E-01    9.526E-01    9.471E-01    9.417E-01    9.363E-01    9.309E-01    9.256E-01    9.202E-01    9.148E-01    9.094E-01
     9.041E-01    8.987E-01    8.934E-01    8.881E-01    8.827E-01    8.774E-01    8.721E-01    8.668E-01    8.615E-01    8.562E-01
     8.509E-01    8.457E-01    8.404E-01    8.351E-01    8.299E-01    8.246E-01    8.194E-01    8.141E-01    8.089E-01    8.037E-01
     7.984E-01    7.932E-01    7.880E-01    7.828E-01    7.776E-01    7.724E-01    7.672E-01    7.621E-01    7.569E-01    7.517E-01
     7.466E-01    7.414E-01    7.362E-01    7.311E-01    7.260E-01    7.208E-01    7.157E-01    7.106E-01    7.054E-01    7.003E-01
     6.952E-01    6.901E-01    6.850E-01    6.799E-01    6.748E-01    6.697E-01    6.646E-01    6.596E-01    6.545E-01    6.494E-01
     6.444E-01    6.393E-01    6.342E-01    6.292E-01    6.241E-01    6.191E-01    6.140E-01    6.090E-01    6.039E-01    5.989E-01
     5.939E-01    5.888E-01    5.838E-01    5.788E-01    5.738E-01    5.687E-01    5.637E-01    5.587E-01    5.537E-01    5.487E-01
     5.437E-01    5.387E-01    5.336E-01    5.286E-01    5.236E-01    5.186E-01    5.136E-01    5.086E-01    5.036E-01    4.986E-01
     4.937E-01    4.887E-01    4.837E-01    4.787E-01    4.737E-01    4.687E-01    4.637E-01    4.587E-01    4.537E-01    4.487E-01
     4.438E-01    4.388E-01    4.338E-01    4.288E-01    4.238E-01    4.188E-01    4.138E-01    4.089E-01    4.039E-01    3.989E-01
     3.939E-01    3.889E-01    3.840E-01    3.790E-01    3.740E-01    3.690E-01    3.640E-01    3.591E-01    3.541E-01    3.491E-01
     3.441E-01    3.391E-01    3.342E-01    3.292E-01    3.242E-01    3.192E-01    3.143E-01    3.093E-01    3.043E-01    2.993E-01
     2.943E-01    2.894E-01    2.844E-01    2.794E-01    2.744E-01    2.694E-01    2.645E-01    2.595E-01
 Ala      Conc. = 8.50E+01
