 LCModel (Version 6.3-1L) Copyright: S.W. Provencher.          Ref.: Magn. Reson. Med. 30:672-679 (1993).                
 Slice#2 Row#11 Col#12  PD_05_press_1_raw_act
 36 lines in following concentration table = NCONC+1
    Conc.  %SD /Cr+PCr  Metabolite                                         
    0.000 999%   0.000 Ala                                                 
    0.000 999%   0.000 Asp                                                 
   58.621  26%   1.000 Cr                                                  
    0.000 999%   0.000 PCr                                                 
    2.341 903% 4.0E-02 GABA                                                
    1.363 999% 2.3E-02 Glc                                                 
    0.000 999%   0.000 Gln                                                 
   12.396 318%   0.211 Glu                                                 
   11.846  35%   0.202 GPC                                                 
    0.000 999%   0.000 PCh                                                 
    8.376 149%   0.143 GSH                                                 
   20.146 218%   0.344 Ins                                                 
   41.168  59%   0.702 Lac                                                 
  146.136  24%   2.493 NAA                                                 
   17.710  98%   0.302 NAAG                                                
    6.071  74%   0.104 Scyllo                                              
   17.239 188%   0.294 Tau                                                 
   55.759  35%   0.951 -CrCH2                                              
   11.846  35%   0.202 GPC+PCh                                             
  163.846  21%   2.795 NAA+NAAG                                            
   58.621  26%   1.000 Cr+PCr                                              
   12.396 318%   0.211 Glu+Gln                                             
 4.00E+03  12%  68.306 Lip13a                                              
   49.461 170%   0.844 Lip13b                                              
 1.04E+03  14%  17.670 Lip09                                               
    0.000 999%   0.000 MM09                                                
  528.216  17%   9.011 Lip20                                               
    0.000 999%   0.000 MM20                                                
    8.966 574%   0.153 MM12                                                
 1.14E+03  17%  19.488+MM14                                                
  589.197  22%  10.051+MM17                                                
 4.05E+03  12%  69.150 Lip13a+Lip13b                                       
 5.20E+03   8%  88.790 MM14+Lip13a+Lip13b+MM12                             
 1.04E+03  14%  17.670 MM09+Lip09                                          
  528.216  17%   9.011 MM20+Lip20                                          
   6 lines in following misc. output table
  FWHM = 0.046 ppm    S/N =   8                                            
  Data shift = 0.015 ppm                                                   
  Ph:  -3 deg     -35.3 deg/ppm                                            
  alphaB,S = 4.3E-01,   6.4E+00                                            
   14 spline knots.   Ns = 7(2)                                            
  ( 9) 7 infls.   ( 6) 6 extrs.                                            
  498 points on ppm-axis = NY
      4.000000     3.992357     3.984714     3.977070     3.969427     3.961784     3.954141     3.946497     3.938854     3.931211
      3.923568     3.915925     3.908281     3.900638     3.892995     3.885352     3.877708     3.870065     3.862422     3.854779
      3.847136     3.839492     3.831849     3.824206     3.816563     3.808919     3.801276     3.793633     3.785990     3.778347
      3.770703     3.763060     3.755417     3.747774     3.740130     3.732487     3.724844     3.717201     3.709558     3.701914
      3.694271     3.686628     3.678985     3.671341     3.663698     3.656055     3.648412     3.640769     3.633125     3.625482
      3.617839     3.610196     3.602552     3.594909     3.587266     3.579623     3.571980     3.564336     3.556693     3.549050
      3.541407     3.533763     3.526120     3.518477     3.510834     3.503191     3.495547     3.487904     3.480261     3.472618
      3.464974     3.457331     3.449688     3.442045     3.434402     3.426758     3.419115     3.411472     3.403829     3.396185
      3.388542     3.380899     3.373256     3.365613     3.357969     3.350326     3.342683     3.335040     3.327396     3.319753
      3.312110     3.304467     3.296824     3.289180     3.281537     3.273894     3.266251     3.258607     3.250964     3.243321
      3.235678     3.228034     3.220391     3.212748     3.205105     3.197462     3.189818     3.182175     3.174532     3.166889
      3.159245     3.151602     3.143959     3.136316     3.128673     3.121029     3.113386     3.105743     3.098100     3.090456
      3.082813     3.075170     3.067527     3.059884     3.052240     3.044597     3.036954     3.029311     3.021667     3.014024
      3.006381     2.998738     2.991095     2.983451     2.975808     2.968165     2.960522     2.952878     2.945235     2.937592
      2.929949     2.922306     2.914662     2.907019     2.899376     2.891733     2.884089     2.876446     2.868803     2.861160
      2.853517     2.845873     2.838230     2.830587     2.822944     2.815300     2.807657     2.800014     2.792371     2.784728
      2.777084     2.769441     2.761798     2.754155     2.746511     2.738868     2.731225     2.723582     2.715939     2.708295
      2.700652     2.693009     2.685366     2.677722     2.670079     2.662436     2.654793     2.647150     2.639506     2.631863
      2.624220     2.616577     2.608933     2.601290     2.593647     2.586004     2.578361     2.570717     2.563074     2.555431
      2.547788     2.540144     2.532501     2.524858     2.517215     2.509572     2.501928     2.494285     2.486642     2.478999
      2.471355     2.463712     2.456069     2.448426     2.440783     2.433139     2.425496     2.417853     2.410210     2.402566
      2.394923     2.387280     2.379637     2.371994     2.364350     2.356707     2.349064     2.341421     2.333777     2.326134
      2.318491     2.310848     2.303205     2.295561     2.287918     2.280275     2.272632     2.264988     2.257345     2.249702
      2.242059     2.234416     2.226772     2.219129     2.211486     2.203843     2.196199     2.188556     2.180913     2.173270
      2.165627     2.157983     2.150340     2.142697     2.135054     2.127410     2.119767     2.112124     2.104481     2.096838
      2.089194     2.081551     2.073908     2.066265     2.058621     2.050978     2.043335     2.035692     2.028049     2.020405
      2.012762     2.005119     1.997476     1.989833     1.982190     1.974546     1.966903     1.959260     1.951617     1.943974
      1.936331     1.928688     1.921045     1.913402     1.905759     1.898115     1.890472     1.882829     1.875186     1.867543
      1.859900     1.852257     1.844614     1.836971     1.829327     1.821684     1.814041     1.806398     1.798755     1.791112
      1.783469     1.775826     1.768183     1.760540     1.752896     1.745253     1.737610     1.729967     1.722324     1.714681
      1.707038     1.699395     1.691752     1.684108     1.676465     1.668822     1.661179     1.653536     1.645893     1.638250
      1.630607     1.622964     1.615321     1.607677     1.600034     1.592391     1.584748     1.577105     1.569462     1.561819
      1.554176     1.546533     1.538890     1.531246     1.523603     1.515960     1.508317     1.500674     1.493031     1.485388
      1.477745     1.470102     1.462458     1.454815     1.447172     1.439529     1.431886     1.424243     1.416600     1.408957
      1.401314     1.393671     1.386027     1.378384     1.370741     1.363098     1.355455     1.347812     1.340169     1.332526
      1.324883     1.317240     1.309596     1.301953     1.294310     1.286667     1.279024     1.271381     1.263738     1.256095
      1.248452     1.240808     1.233165     1.225522     1.217879     1.210236     1.202593     1.194950     1.187307     1.179664
      1.172021     1.164377     1.156734     1.149091     1.141448     1.133805     1.126162     1.118519     1.110876     1.103233
      1.095590     1.087946     1.080303     1.072660     1.065017     1.057374     1.049731     1.042088     1.034445     1.026802
      1.019158     1.011515     1.003872     0.996229     0.988586     0.980943     0.973300     0.965657     0.958014     0.950371
      0.942727     0.935084     0.927441     0.919798     0.912155     0.904512     0.896869     0.889226     0.881583     0.873940
      0.866296     0.858653     0.851010     0.843367     0.835724     0.828081     0.820438     0.812795     0.805152     0.797508
      0.789865     0.782222     0.774579     0.766936     0.759293     0.751650     0.744007     0.736364     0.728721     0.721077
      0.713434     0.705791     0.698148     0.690505     0.682862     0.675219     0.667576     0.659933     0.652290     0.644646
      0.637003     0.629360     0.621717     0.614074     0.606431     0.598788     0.591145     0.583502     0.575858     0.568215
      0.560572     0.552929     0.545286     0.537643     0.530000     0.522357     0.514714     0.507071     0.499427     0.491784
      0.484141     0.476498     0.468855     0.461212     0.453569     0.445925     0.438282     0.430639     0.422996     0.415353
      0.407710     0.400067     0.392424     0.384780     0.377137     0.369494     0.361851     0.354208     0.346565     0.338922
      0.331278     0.323635     0.315992     0.308349     0.300706     0.293063     0.285420     0.277777     0.270133     0.262490
      0.254847     0.247204     0.239561     0.231918     0.224275     0.216631     0.208988     0.201345
 NY phased data points follow
   4.13015E+00  4.91727E+00  4.30084E+00  4.43557E+00  5.13251E+00  1.30901E+00  1.94143E+00  3.59833E+00  4.20502E+00  2.92040E+00
   4.56101E+00  3.12427E+00  3.75777E+00  4.46083E+00  3.66406E+00  4.24956E+00  3.53225E+00  1.64479E+00  3.91875E+00  4.01915E+00
   1.80582E+00  3.48713E+00  3.54775E+00  3.19862E+00  2.21966E+00  4.44351E+00  2.49060E+00  3.72661E+00  3.71136E+00  2.46016E+00
   3.67932E+00  4.26262E+00  2.75572E+00  1.66687E+00  3.15994E+00  1.66777E+00  2.94653E+00  3.15363E+00  2.57927E+00  2.63432E+00
   2.02476E+00  4.74838E+00  4.26575E+00  2.49898E+00  2.84001E+00  2.43597E+00  3.37989E+00  2.45963E+00  1.96606E+00  2.58455E+00
   3.26467E+00  2.67712E+00  4.04917E+00  2.67132E+00  3.33185E+00  2.01308E+00  3.34767E+00  2.19033E+00  2.48260E+00  3.26559E+00
   2.82698E+00  3.37692E+00  4.20365E+00  2.16198E+00  2.74035E+00  1.72477E+00  2.24773E+00  1.40588E+00  2.03667E+00  3.33690E+00
   3.07117E+00  3.11229E+00  2.35606E+00  2.58398E+00  1.53762E+00  1.88627E+00  3.02529E+00  3.95279E+00  2.59938E+00  8.99891E-01
   2.22455E+00  3.10879E+00  2.55425E+00  2.34622E+00  1.90144E+00  1.46087E+00  2.30870E+00  4.47079E+00  1.07341E+00  2.23855E+00
   1.90039E+00  2.10818E+00  3.11493E+00  8.05180E-01  2.14275E+00  1.24635E+00  3.67926E+00  3.52279E+00  3.04804E+00  3.07911E+00
   3.69284E+00  3.32083E+00  4.79071E+00  4.61746E+00  3.88308E+00  3.38423E+00  4.28513E+00  3.30914E+00  2.00516E+00  2.58271E+00
   4.86212E-01  2.28725E+00  1.63134E+00  3.90054E+00  1.53293E+00  1.85776E+00  3.36357E+00  1.16245E+00  1.67230E+00  2.47587E+00
   2.58061E+00  1.09183E+00  3.54879E+00  2.92444E+00  2.66246E+00  3.54917E+00  3.83610E+00  4.65334E+00  6.17872E+00  6.58961E+00
   5.86793E+00  4.00320E+00  2.91643E+00  3.41869E+00  3.72082E+00  3.99767E+00  2.84194E+00  2.19481E+00  4.80297E+00  3.53489E+00
   2.56017E+00  9.70593E-01  2.55394E+00  2.15223E+00  2.77641E+00  1.97435E+00  3.85447E+00  3.11408E+00  1.83460E+00  3.03358E+00
   3.43349E+00  3.45226E+00  1.73706E+00  3.01135E+00  2.71132E+00  2.02803E+00  3.42346E+00  2.86767E+00  3.26492E+00  1.94824E+00
   4.13809E+00  8.17742E-01  2.26203E+00  2.69011E+00  3.11482E+00  1.15471E+00  1.18824E-01  2.22258E+00  1.31485E+00  7.30554E-01
   4.93797E-01  6.67452E-01  9.43723E-01  8.51206E-01  6.67405E-01 -5.97296E-01  1.67166E+00  2.28161E+00 -4.78477E-01  1.23450E+00
   6.38997E-01  8.45956E-02 -6.59914E-01  6.92532E-01 -1.29260E-01  7.96273E-01 -5.19166E-01  8.19419E-01 -2.99061E-01  1.50753E-01
  -3.97862E-01  7.44414E-01  1.08995E+00  4.52703E-01  3.73255E-01  1.09090E+00  7.68755E-01  5.38801E-02  5.72478E-01 -6.60987E-01
  -5.46296E-01  1.77195E-01 -7.66130E-01 -3.29904E-02  1.56469E+00  1.01312E+00 -2.37230E-01  1.42235E+00 -8.24154E-01 -3.53944E-01
  -2.45287E+00 -8.56550E-01 -5.97304E-01  5.55695E-01 -1.26241E-01 -1.21859E-01 -1.43534E+00  1.01822E+00 -6.97392E-02  1.00914E+00
   3.84982E-01 -2.70851E-01 -1.27682E+00 -2.79547E-01 -1.18819E+00 -1.25878E+00 -5.02071E-01 -1.59276E+00 -7.78879E-01 -5.93199E-01
  -4.77143E-01 -1.43665E+00  1.43851E-01  3.70731E-03  8.19660E-02 -1.70075E-01  1.90578E-01 -1.36411E-01 -1.80358E+00 -1.20656E+00
  -6.56929E-01 -1.05856E+00 -2.14806E+00 -2.33035E+00 -9.57253E-01 -1.10031E+00 -3.00806E+00 -2.66888E+00 -3.45542E+00 -2.45978E+00
  -2.41638E+00 -2.75572E+00 -2.83726E+00 -2.82197E+00 -1.33725E+00 -2.49084E+00  8.60299E-01  2.26580E+00  2.43414E+00  4.79548E+00
   7.48186E+00  7.72291E+00  7.30968E+00  8.41039E+00  8.94536E+00  6.87375E+00  4.25214E+00  2.49474E+00  2.13941E+00  4.67991E+00
   3.48033E+00  3.73916E+00  4.35975E+00  4.40572E+00  4.61841E+00  4.34481E+00  3.42623E+00  1.80012E+00  2.79452E+00  3.43229E+00
   1.88713E+00  4.09257E+00  4.25052E+00  4.27944E+00  2.04397E+00  3.66415E+00  1.62486E+00  2.34475E+00  3.66075E+00  2.68503E+00
   2.00021E+00  2.79090E+00  2.78654E+00  3.30357E+00  3.10583E+00  2.63605E+00  3.14778E+00  4.34252E+00  4.95841E+00  3.13504E+00
   5.91495E+00  4.60849E+00  5.06163E+00  5.23622E+00  4.35227E+00  5.22444E+00  7.13056E+00  6.99110E+00  6.57900E+00  7.43191E+00
   9.92595E+00  7.68880E+00  7.92323E+00  8.65908E+00  9.78113E+00  8.40147E+00  7.64731E+00  8.77124E+00  1.09449E+01  1.05828E+01
   9.16099E+00  1.10581E+01  1.13308E+01  1.22756E+01  1.15537E+01  1.23485E+01  1.31191E+01  1.33555E+01  1.32912E+01  1.38717E+01
   1.68541E+01  1.54440E+01  1.54422E+01  1.46077E+01  1.51487E+01  1.60353E+01  1.72353E+01  1.66156E+01  1.97464E+01  1.82811E+01
   1.68787E+01  1.89081E+01  1.83537E+01  1.89860E+01  1.92912E+01  2.00482E+01  1.85196E+01  1.97592E+01  2.04636E+01  1.96777E+01
   1.99404E+01  1.69894E+01  1.87585E+01  1.95542E+01  1.94854E+01  1.79960E+01  1.92494E+01  1.86259E+01  1.82434E+01  1.68319E+01
   1.77561E+01  1.67578E+01  1.70540E+01  1.48158E+01  1.33702E+01  1.20816E+01  1.18783E+01  1.15788E+01  1.35891E+01  1.11211E+01
   1.01153E+01  9.84456E+00  9.41427E+00  1.01671E+01  1.02294E+01  9.35684E+00  7.84271E+00  7.49893E+00  7.98657E+00  8.38886E+00
   9.32132E+00  6.49318E+00  6.07409E+00  6.25406E+00  7.93492E+00  7.20386E+00  9.09923E+00  5.63696E+00  7.01234E+00  6.14320E+00
   5.47796E+00  6.83666E+00  7.32248E+00  6.74474E+00  9.10599E+00  6.87915E+00  6.05169E+00  8.11940E+00  6.75175E+00  6.17186E+00
   8.31488E+00  6.60756E+00  3.86543E+00  6.42038E+00  6.78739E+00  5.21232E+00  6.20427E+00  7.68748E+00  7.85703E+00  6.45637E+00
   5.66704E+00  6.38195E+00  7.93962E+00  6.86421E+00  6.40740E+00  8.39935E+00  6.04337E+00  8.32797E+00  5.79836E+00  7.23843E+00
   7.23556E+00  8.30378E+00  5.68288E+00  7.52542E+00  5.13340E+00  6.83876E+00  6.33355E+00  5.51050E+00  4.57391E+00  5.93422E+00
   6.02033E+00  6.08787E+00  5.33654E+00  4.64198E+00  3.86271E+00  4.72808E+00  5.58542E+00  5.72792E+00  6.12039E+00  3.67590E+00
   6.04718E+00  6.17193E+00  4.82100E+00  6.43288E+00  6.49600E+00  6.22474E+00  5.12806E+00  2.96059E+00  4.61992E+00  5.30923E+00
   5.01826E+00  4.84218E+00  4.35224E+00  4.39355E+00  3.11025E+00  4.48848E+00  6.14527E+00  2.80070E+00  3.22741E+00  2.94597E+00
   3.88611E+00  2.74196E+00  4.17415E+00  3.80139E+00  5.14491E+00  4.68570E+00  3.16261E+00  4.20914E+00  2.62473E+00  4.97104E+00
   2.20798E+00  2.91305E+00  3.41511E+00  3.72528E+00  2.25873E+00  4.11981E+00  3.55832E+00  2.87831E+00  3.65845E+00  4.48568E+00
   1.78102E+00  4.26112E+00  3.35893E+00  1.51152E+00  3.53216E+00  2.37067E+00  2.23052E+00  1.01428E+00  2.28614E+00  3.31362E+00
   3.74667E+00  3.54561E+00  2.68427E+00  2.42836E+00  2.89863E+00  3.05594E+00  1.03802E+00  4.82043E+00
 NY points of the fit to the data follow
   3.48886E+00  3.50586E+00  3.50203E+00  3.36064E+00  3.51418E+00  3.05447E+00  3.50371E+00  3.08891E+00  3.42622E+00  2.84835E+00
   3.42198E+00  3.24680E+00  3.59713E+00  3.82468E+00  3.82515E+00  4.26863E+00  3.62591E+00  3.41231E+00  3.32092E+00  3.19095E+00
   3.21925E+00  3.07708E+00  3.19566E+00  3.36650E+00  3.29732E+00  3.74778E+00  3.34840E+00  3.29501E+00  3.26432E+00  3.32519E+00
   3.40233E+00  3.39755E+00  3.42492E+00  3.35683E+00  3.30753E+00  3.21188E+00  3.08757E+00  3.08912E+00  3.06081E+00  3.08197E+00
   3.06216E+00  3.09850E+00  3.13106E+00  3.15600E+00  3.16874E+00  3.17388E+00  3.11668E+00  3.16205E+00  3.14355E+00  3.17483E+00
   3.15472E+00  3.13046E+00  3.04611E+00  2.97710E+00  2.89838E+00  2.87246E+00  2.88624E+00  2.91434E+00  2.90986E+00  2.93855E+00
   2.95758E+00  2.91350E+00  2.87874E+00  2.83684E+00  2.79557E+00  2.77952E+00  2.76285E+00  2.76962E+00  2.72913E+00  2.77132E+00
   2.72387E+00  2.76242E+00  2.61278E+00  2.57604E+00  2.58444E+00  2.56813E+00  2.60087E+00  2.57062E+00  2.53328E+00  2.49144E+00
   2.51643E+00  2.50062E+00  2.60986E+00  2.68852E+00  2.78585E+00  2.85173E+00  3.00306E+00  3.00141E+00  2.57055E+00  2.38532E+00
   2.23434E+00  2.07170E+00  1.95159E+00  1.84117E+00  1.84638E+00  1.83387E+00  1.99354E+00  2.11427E+00  2.57291E+00  2.85985E+00
   3.15064E+00  3.44809E+00  3.71970E+00  3.99390E+00  4.05202E+00  4.17108E+00  3.81395E+00  3.70192E+00  3.01054E+00  2.83856E+00
   2.76706E+00  2.59245E+00  1.89136E+00  1.75792E+00  1.74166E+00  1.79871E+00  1.73832E+00  1.66520E+00  1.11025E+00  9.78811E-01
   1.09704E+00  1.30831E+00  2.00948E+00  2.37023E+00  3.02223E+00  3.42553E+00  4.32281E+00  4.65127E+00  5.00669E+00  5.01955E+00
   4.60398E+00  4.24301E+00  3.19159E+00  2.91437E+00  2.86073E+00  2.87923E+00  3.05607E+00  3.15111E+00  3.42594E+00  3.44199E+00
   3.27947E+00  3.08500E+00  2.39442E+00  2.21079E+00  2.17648E+00  2.13090E+00  2.12636E+00  2.14097E+00  2.11116E+00  2.09401E+00
   2.02868E+00  1.98523E+00  2.00050E+00  2.02245E+00  2.04250E+00  2.03686E+00  2.01889E+00  1.93790E+00  1.91925E+00  1.86351E+00
   1.86634E+00  1.82925E+00  1.84007E+00  1.77514E+00  1.69436E+00  1.67874E+00  1.59538E+00  1.68291E+00  1.55948E+00  1.48572E+00
   1.28682E+00  1.15055E+00  1.01743E+00  9.87929E-01  8.51619E-01  7.50158E-01  6.13755E-01  5.24053E-01  4.27367E-01  3.22734E-01
   2.76277E-01  1.10447E-01  1.09120E-01 -6.04050E-02 -5.63788E-02 -1.46598E-01 -8.96858E-02 -1.11525E-01 -2.26031E-02 -6.21779E-02
   3.52042E-02  1.02536E-01  2.35917E-01  3.02742E-01  2.41330E-01  2.25398E-01  1.66722E-01  2.17517E-01  1.51208E-01  2.64188E-01
   2.29424E-01  3.10100E-01  2.85960E-01  3.66486E-01  4.20877E-01  4.20042E-01  4.32946E-01  3.82831E-01  3.35081E-01  2.19795E-01
   8.75257E-02  9.90584E-03 -4.28244E-02 -1.30107E-01 -4.63669E-02 -7.21094E-02  6.65951E-02  6.87935E-02  1.71975E-01  1.50845E-01
   1.16931E-01  4.58570E-02 -1.46525E-03 -2.25443E-02  5.94129E-03  4.17359E-02  1.34622E-01  2.09454E-01  3.19715E-01  4.05326E-01
   4.04409E-01  3.86029E-01  3.60320E-01  3.82027E-01  4.01722E-01  4.64762E-01  5.09854E-01  5.95197E-01  6.17449E-01  6.22611E-01
   5.71351E-01  4.36343E-01  1.58837E-01  1.31695E-01 -1.15219E-02 -2.90248E-01 -1.91484E+00 -2.72167E+00 -2.68682E+00 -2.87089E+00
  -2.32928E+00 -2.35840E+00 -2.10186E+00 -2.21319E+00 -1.35319E+00 -9.32845E-01  1.27286E+00  2.24077E+00  4.02632E+00  5.08994E+00
   6.96367E+00  8.13578E+00  8.30280E+00  8.94963E+00  7.49881E+00  7.13245E+00  4.44321E+00  3.68833E+00  3.56727E+00  3.66929E+00
   3.96734E+00  4.30736E+00  4.58722E+00  5.00669E+00  4.33967E+00  4.10262E+00  2.27439E+00  1.66427E+00  1.53512E+00  1.50261E+00
   1.49498E+00  1.51723E+00  1.55237E+00  1.60891E+00  1.67518E+00  1.75613E+00  1.84602E+00  1.94421E+00  2.05454E+00  2.17251E+00
   2.30805E+00  2.46036E+00  2.63386E+00  2.82708E+00  3.03932E+00  3.26612E+00  3.51117E+00  3.76828E+00  4.03596E+00  4.31205E+00
   4.59912E+00  4.89176E+00  5.18743E+00  5.48380E+00  5.77761E+00  6.06627E+00  6.34366E+00  6.61226E+00  6.86577E+00  7.11308E+00
   7.35069E+00  7.58638E+00  7.81982E+00  8.05989E+00  8.30637E+00  8.57010E+00  8.84708E+00  9.14905E+00  9.47166E+00  9.82358E+00
   1.01983E+01  1.06014E+01  1.10235E+01  1.14674E+01  1.19212E+01  1.23857E+01  1.28478E+01  1.33076E+01  1.37516E+01  1.41798E+01
   1.45786E+01  1.49450E+01  1.52519E+01  1.54539E+01  1.57179E+01  1.62478E+01  1.65500E+01  1.70570E+01  1.73281E+01  1.77627E+01
   1.80590E+01  1.83988E+01  1.84581E+01  1.89338E+01  1.90732E+01  1.93974E+01  1.95824E+01  1.97332E+01  1.97936E+01  1.95599E+01
   1.94739E+01  1.90770E+01  1.90272E+01  1.85843E+01  1.85481E+01  1.85361E+01  1.86670E+01  1.84120E+01  1.84153E+01  1.77975E+01
   1.74776E+01  1.63637E+01  1.55506E+01  1.45222E+01  1.38408E+01  1.32572E+01  1.27558E+01  1.22483E+01  1.19011E+01  1.13924E+01
   1.10473E+01  1.04412E+01  9.90095E+00  9.45501E+00  9.06084E+00  8.71238E+00  8.39834E+00  8.12138E+00  7.87310E+00  7.65724E+00
   7.46584E+00  7.30284E+00  7.16056E+00  7.04316E+00  6.94320E+00  6.86495E+00  6.80109E+00  6.75605E+00  6.72272E+00  6.70567E+00
   6.69792E+00  6.70405E+00  6.71714E+00  6.74176E+00  6.77110E+00  6.80970E+00  6.85073E+00  6.89863E+00  6.94655E+00  6.99891E+00
   7.04887E+00  7.10085E+00  7.14801E+00  7.19474E+00  7.23431E+00  7.27124E+00  7.29899E+00  7.32221E+00  7.33456E+00  7.34091E+00
   7.33523E+00  7.32269E+00  7.29761E+00  7.26542E+00  7.22076E+00  7.16936E+00  7.10620E+00  7.03726E+00  6.95778E+00  6.87389E+00
   6.78098E+00  6.68533E+00  6.58244E+00  6.47860E+00  6.36931E+00  6.26077E+00  6.14845E+00  6.03846E+00  5.92618E+00  5.81756E+00
   5.70783E+00  5.60275E+00  5.49746E+00  5.39756E+00  5.29808E+00  5.20444E+00  5.11154E+00  5.02469E+00  4.93873E+00  4.85888E+00
   4.77990E+00  4.70691E+00  4.63465E+00  4.56816E+00  4.50221E+00  4.44181E+00  4.38169E+00  4.32683E+00  4.27195E+00  4.22205E+00
   4.17189E+00  4.12643E+00  4.08045E+00  4.03889E+00  3.99656E+00  3.95844E+00  3.91938E+00  3.88432E+00  3.84814E+00  3.81574E+00
   3.78207E+00  3.75205E+00  3.72063E+00  3.69271E+00  3.66326E+00  3.63717E+00  3.60945E+00  3.58502E+00  3.55887E+00  3.53589E+00
   3.51112E+00  3.48943E+00  3.46589E+00  3.44539E+00  3.42299E+00  3.40352E+00  3.38212E+00  3.36360E+00  3.34313E+00  3.32551E+00
   3.30588E+00  3.28905E+00  3.27019E+00  3.25411E+00  3.23599E+00  3.22062E+00  3.20318E+00  3.18845E+00  3.17165E+00  3.15754E+00
   3.14138E+00  3.12788E+00  3.11229E+00  3.09934E+00  3.08432E+00  3.07194E+00  3.05749E+00  3.04563E+00
 NY background values follow
     3.541E+00    3.524E+00    3.507E+00    3.491E+00    3.474E+00    3.457E+00    3.440E+00    3.424E+00    3.407E+00    3.391E+00
     3.374E+00    3.357E+00    3.341E+00    3.325E+00    3.308E+00    3.292E+00    3.276E+00    3.259E+00    3.243E+00    3.227E+00
     3.211E+00    3.195E+00    3.180E+00    3.164E+00    3.148E+00    3.133E+00    3.117E+00    3.102E+00    3.087E+00    3.072E+00
     3.057E+00    3.042E+00    3.027E+00    3.013E+00    2.998E+00    2.984E+00    2.970E+00    2.956E+00    2.942E+00    2.929E+00
     2.915E+00    2.902E+00    2.888E+00    2.875E+00    2.863E+00    2.850E+00    2.838E+00    2.825E+00    2.813E+00    2.801E+00
     2.789E+00    2.778E+00    2.766E+00    2.755E+00    2.744E+00    2.733E+00    2.722E+00    2.711E+00    2.700E+00    2.689E+00
     2.679E+00    2.668E+00    2.658E+00    2.647E+00    2.637E+00    2.627E+00    2.617E+00    2.606E+00    2.596E+00    2.586E+00
     2.576E+00    2.566E+00    2.556E+00    2.546E+00    2.536E+00    2.526E+00    2.516E+00    2.505E+00    2.495E+00    2.485E+00
     2.475E+00    2.464E+00    2.454E+00    2.443E+00    2.433E+00    2.422E+00    2.411E+00    2.401E+00    2.390E+00    2.379E+00
     2.367E+00    2.356E+00    2.345E+00    2.333E+00    2.321E+00    2.309E+00    2.297E+00    2.285E+00    2.273E+00    2.260E+00
     2.247E+00    2.234E+00    2.221E+00    2.207E+00    2.194E+00    2.180E+00    2.165E+00    2.151E+00    2.136E+00    2.121E+00
     2.106E+00    2.091E+00    2.075E+00    2.059E+00    2.042E+00    2.025E+00    2.008E+00    1.991E+00    1.973E+00    1.955E+00
     1.937E+00    1.918E+00    1.899E+00    1.879E+00    1.859E+00    1.839E+00    1.818E+00    1.797E+00    1.775E+00    1.753E+00
     1.731E+00    1.708E+00    1.685E+00    1.661E+00    1.637E+00    1.612E+00    1.587E+00    1.561E+00    1.535E+00    1.509E+00
     1.481E+00    1.454E+00    1.426E+00    1.398E+00    1.369E+00    1.340E+00    1.311E+00    1.281E+00    1.251E+00    1.221E+00
     1.190E+00    1.159E+00    1.128E+00    1.096E+00    1.064E+00    1.032E+00    9.998E-01    9.673E-01    9.345E-01    9.016E-01
     8.685E-01    8.352E-01    8.017E-01    7.682E-01    7.344E-01    7.006E-01    6.667E-01    6.326E-01    5.985E-01    5.643E-01
     5.301E-01    4.958E-01    4.615E-01    4.272E-01    3.929E-01    3.586E-01    3.243E-01    2.900E-01    2.558E-01    2.217E-01
     1.876E-01    1.536E-01    1.197E-01    8.599E-02    5.239E-02    1.897E-02   -1.427E-02   -4.728E-02   -8.006E-02   -1.126E-01
    -1.448E-01   -1.767E-01   -2.083E-01   -2.395E-01   -2.703E-01   -3.008E-01   -3.308E-01   -3.604E-01   -3.895E-01   -4.181E-01
    -4.462E-01   -4.737E-01   -5.007E-01   -5.271E-01   -5.529E-01   -5.780E-01   -6.025E-01   -6.264E-01   -6.495E-01   -6.719E-01
    -6.935E-01   -7.144E-01   -7.345E-01   -7.538E-01   -7.722E-01   -7.898E-01   -8.065E-01   -8.223E-01   -8.371E-01   -8.510E-01
    -8.639E-01   -8.758E-01   -8.867E-01   -8.966E-01   -9.054E-01   -9.130E-01   -9.196E-01   -9.251E-01   -9.294E-01   -9.326E-01
    -9.348E-01   -9.358E-01   -9.359E-01   -9.349E-01   -9.328E-01   -9.298E-01   -9.258E-01   -9.209E-01   -9.150E-01   -9.081E-01
    -9.004E-01   -8.917E-01   -8.822E-01   -8.718E-01   -8.606E-01   -8.485E-01   -8.356E-01   -8.220E-01   -8.075E-01   -7.923E-01
    -7.764E-01   -7.597E-01   -7.423E-01   -7.243E-01   -7.055E-01   -6.861E-01   -6.661E-01   -6.454E-01   -6.241E-01   -6.023E-01
    -5.798E-01   -5.568E-01   -5.333E-01   -5.092E-01   -4.847E-01   -4.596E-01   -4.341E-01   -4.081E-01   -3.817E-01   -3.549E-01
    -3.277E-01   -3.001E-01   -2.721E-01   -2.438E-01   -2.151E-01   -1.861E-01   -1.568E-01   -1.272E-01   -9.732E-02   -6.719E-02
    -3.681E-02   -6.195E-03    2.464E-02    5.567E-02    8.688E-02    1.183E-01    1.498E-01    1.815E-01    2.133E-01    2.452E-01
     2.773E-01    3.094E-01    3.415E-01    3.737E-01    4.060E-01    4.383E-01    4.705E-01    5.028E-01    5.350E-01    5.672E-01
     5.994E-01    6.314E-01    6.634E-01    6.953E-01    7.271E-01    7.587E-01    7.902E-01    8.215E-01    8.526E-01    8.836E-01
     9.143E-01    9.449E-01    9.752E-01    1.005E+00    1.035E+00    1.064E+00    1.094E+00    1.122E+00    1.151E+00    1.179E+00
     1.207E+00    1.235E+00    1.262E+00    1.289E+00    1.316E+00    1.342E+00    1.368E+00    1.394E+00    1.420E+00    1.445E+00
     1.470E+00    1.494E+00    1.519E+00    1.543E+00    1.566E+00    1.590E+00    1.613E+00    1.636E+00    1.658E+00    1.681E+00
     1.703E+00    1.725E+00    1.746E+00    1.767E+00    1.788E+00    1.809E+00    1.829E+00    1.849E+00    1.869E+00    1.889E+00
     1.908E+00    1.927E+00    1.946E+00    1.965E+00    1.983E+00    2.001E+00    2.019E+00    2.037E+00    2.054E+00    2.071E+00
     2.088E+00    2.105E+00    2.121E+00    2.137E+00    2.153E+00    2.169E+00    2.184E+00    2.199E+00    2.214E+00    2.229E+00
     2.244E+00    2.258E+00    2.272E+00    2.286E+00    2.300E+00    2.313E+00    2.327E+00    2.340E+00    2.353E+00    2.365E+00
     2.378E+00    2.390E+00    2.402E+00    2.414E+00    2.426E+00    2.438E+00    2.449E+00    2.460E+00    2.472E+00    2.482E+00
     2.493E+00    2.504E+00    2.514E+00    2.525E+00    2.535E+00    2.545E+00    2.554E+00    2.564E+00    2.574E+00    2.583E+00
     2.592E+00    2.601E+00    2.610E+00    2.619E+00    2.628E+00    2.637E+00    2.645E+00    2.653E+00    2.662E+00    2.670E+00
     2.678E+00    2.686E+00    2.693E+00    2.701E+00    2.708E+00    2.716E+00    2.723E+00    2.730E+00    2.737E+00    2.743E+00
     2.750E+00    2.756E+00    2.762E+00    2.768E+00    2.774E+00    2.780E+00    2.785E+00    2.791E+00    2.796E+00    2.801E+00
     2.806E+00    2.810E+00    2.814E+00    2.818E+00    2.822E+00    2.826E+00    2.829E+00    2.833E+00    2.836E+00    2.839E+00
     2.841E+00    2.843E+00    2.845E+00    2.847E+00    2.849E+00    2.850E+00    2.851E+00    2.852E+00    2.853E+00    2.853E+00
     2.853E+00    2.853E+00    2.852E+00    2.852E+00    2.851E+00    2.849E+00    2.848E+00    2.846E+00    2.844E+00    2.841E+00
     2.839E+00    2.836E+00    2.833E+00    2.830E+00    2.827E+00    2.823E+00    2.820E+00    2.816E+00    2.812E+00    2.808E+00
     2.803E+00    2.799E+00    2.794E+00    2.789E+00    2.785E+00    2.780E+00    2.775E+00    2.769E+00    2.764E+00    2.759E+00
     2.753E+00    2.748E+00    2.742E+00    2.737E+00    2.731E+00    2.725E+00    2.720E+00    2.714E+00    2.708E+00    2.703E+00
     2.697E+00    2.691E+00    2.685E+00    2.680E+00    2.674E+00    2.668E+00    2.663E+00    2.657E+00
 Cr       Conc. = 5.86E+01
