 LCModel (Version 6.3-1L) Copyright: S.W. Provencher.          Ref.: Magn. Reson. Med. 30:672-679 (1993).                
 Slice#3 Row#8 Col#4  PD_05_press_1_raw_act
 36 lines in following concentration table = NCONC+1
    Conc.  %SD /Cr+PCr  Metabolite                                         
    0.000 999%   0.000 Ala                                                 
    0.000 999%   0.000 Asp                                                 
  142.032 121%   0.121 Cr                                                  
 1.03E+03  17%   0.879 PCr                                                 
   42.168 257% 3.6E-02 GABA                                                
    0.000 999%   0.000 Glc                                                 
  487.430  38%   0.417 Gln                                                 
 1.08E+03  20%   0.925 Glu                                                 
  290.236   4%   0.248 GPC                                                 
    0.000 999%   0.000 PCh                                                 
  310.253  15%   0.265 GSH                                                 
    0.000 999%   0.000 Ins                                                 
    0.000 999%   0.000 Lac                                                 
 1.67E+03   7%   1.429 NAA                                                 
   85.565 139% 7.3E-02 NAAG                                                
    0.000 999%   0.000 Scyllo                                              
    0.000 999%   0.000 Tau                                                 
    0.000 999%   0.000 -CrCH2                                              
  290.236   4%   0.248 GPC+PCh                                             
 1.76E+03   3%   1.502 NAA+NAAG                                            
 1.17E+03   3%   1.000 Cr+PCr                                              
 1.57E+03  21%   1.341 Glu+Gln                                             
    0.000 999%   0.000 Lip13a                                              
    0.000 999%   0.000 Lip13b                                              
    0.000 999%   0.000 Lip09                                               
  770.187  16%   0.658 MM09                                                
 6.78E-03 999% 5.8E-06 Lip20                                               
 1.74E+03  12%   1.488 MM20                                                
  192.452  37%   0.165 MM12                                                
  478.607  33%   0.409 MM14                                                
  499.811  25%   0.427 MM17                                                
    0.000 999%   0.000 Lip13a+Lip13b                                       
  671.059  29%   0.574 MM14+Lip13a+Lip13b+MM12                             
  770.187  16%   0.658 MM09+Lip09                                          
 1.74E+03  12%   1.488 MM20+Lip20                                          
   6 lines in following misc. output table
  FWHM = 0.061 ppm    S/N =  14                                            
  Data shift = 0.023 ppm                                                   
  Ph: -11 deg      -6.3 deg/ppm                                            
  alphaB,S = 5.5E-01,   2.0E+02                                            
   14 spline knots.   Ns = 9(1)                                            
  (16) 3 infls.   (13) 1 extrs.                                            
  498 points on ppm-axis = NY
      4.000000     3.992357     3.984714     3.977070     3.969427     3.961784     3.954141     3.946497     3.938854     3.931211
      3.923568     3.915925     3.908281     3.900638     3.892995     3.885352     3.877708     3.870065     3.862422     3.854779
      3.847136     3.839492     3.831849     3.824206     3.816563     3.808919     3.801276     3.793633     3.785990     3.778347
      3.770703     3.763060     3.755417     3.747774     3.740130     3.732487     3.724844     3.717201     3.709558     3.701914
      3.694271     3.686628     3.678985     3.671341     3.663698     3.656055     3.648412     3.640769     3.633125     3.625482
      3.617839     3.610196     3.602552     3.594909     3.587266     3.579623     3.571980     3.564336     3.556693     3.549050
      3.541407     3.533763     3.526120     3.518477     3.510834     3.503191     3.495547     3.487904     3.480261     3.472618
      3.464974     3.457331     3.449688     3.442045     3.434402     3.426758     3.419115     3.411472     3.403829     3.396185
      3.388542     3.380899     3.373256     3.365613     3.357969     3.350326     3.342683     3.335040     3.327396     3.319753
      3.312110     3.304467     3.296824     3.289180     3.281537     3.273894     3.266251     3.258607     3.250964     3.243321
      3.235678     3.228034     3.220391     3.212748     3.205105     3.197462     3.189818     3.182175     3.174532     3.166889
      3.159245     3.151602     3.143959     3.136316     3.128673     3.121029     3.113386     3.105743     3.098100     3.090456
      3.082813     3.075170     3.067527     3.059884     3.052240     3.044597     3.036954     3.029311     3.021667     3.014024
      3.006381     2.998738     2.991095     2.983451     2.975808     2.968165     2.960522     2.952878     2.945235     2.937592
      2.929949     2.922306     2.914662     2.907019     2.899376     2.891733     2.884089     2.876446     2.868803     2.861160
      2.853517     2.845873     2.838230     2.830587     2.822944     2.815300     2.807657     2.800014     2.792371     2.784728
      2.777084     2.769441     2.761798     2.754155     2.746511     2.738868     2.731225     2.723582     2.715939     2.708295
      2.700652     2.693009     2.685366     2.677722     2.670079     2.662436     2.654793     2.647150     2.639506     2.631863
      2.624220     2.616577     2.608933     2.601290     2.593647     2.586004     2.578361     2.570717     2.563074     2.555431
      2.547788     2.540144     2.532501     2.524858     2.517215     2.509572     2.501928     2.494285     2.486642     2.478999
      2.471355     2.463712     2.456069     2.448426     2.440783     2.433139     2.425496     2.417853     2.410210     2.402566
      2.394923     2.387280     2.379637     2.371994     2.364350     2.356707     2.349064     2.341421     2.333777     2.326134
      2.318491     2.310848     2.303205     2.295561     2.287918     2.280275     2.272632     2.264988     2.257345     2.249702
      2.242059     2.234416     2.226772     2.219129     2.211486     2.203843     2.196199     2.188556     2.180913     2.173270
      2.165627     2.157983     2.150340     2.142697     2.135054     2.127410     2.119767     2.112124     2.104481     2.096838
      2.089194     2.081551     2.073908     2.066265     2.058621     2.050978     2.043335     2.035692     2.028049     2.020405
      2.012762     2.005119     1.997476     1.989833     1.982190     1.974546     1.966903     1.959260     1.951617     1.943974
      1.936331     1.928688     1.921045     1.913402     1.905759     1.898115     1.890472     1.882829     1.875186     1.867543
      1.859900     1.852257     1.844614     1.836971     1.829327     1.821684     1.814041     1.806398     1.798755     1.791112
      1.783469     1.775826     1.768183     1.760540     1.752896     1.745253     1.737610     1.729967     1.722324     1.714681
      1.707038     1.699395     1.691752     1.684108     1.676465     1.668822     1.661179     1.653536     1.645893     1.638250
      1.630607     1.622964     1.615321     1.607677     1.600034     1.592391     1.584748     1.577105     1.569462     1.561819
      1.554176     1.546533     1.538890     1.531246     1.523603     1.515960     1.508317     1.500674     1.493031     1.485388
      1.477745     1.470102     1.462458     1.454815     1.447172     1.439529     1.431886     1.424243     1.416600     1.408957
      1.401314     1.393671     1.386027     1.378384     1.370741     1.363098     1.355455     1.347812     1.340169     1.332526
      1.324883     1.317240     1.309596     1.301953     1.294310     1.286667     1.279024     1.271381     1.263738     1.256095
      1.248452     1.240808     1.233165     1.225522     1.217879     1.210236     1.202593     1.194950     1.187307     1.179664
      1.172021     1.164377     1.156734     1.149091     1.141448     1.133805     1.126162     1.118519     1.110876     1.103233
      1.095590     1.087946     1.080303     1.072660     1.065017     1.057374     1.049731     1.042088     1.034445     1.026802
      1.019158     1.011515     1.003872     0.996229     0.988586     0.980943     0.973300     0.965657     0.958014     0.950371
      0.942727     0.935084     0.927441     0.919798     0.912155     0.904512     0.896869     0.889226     0.881583     0.873940
      0.866296     0.858653     0.851010     0.843367     0.835724     0.828081     0.820438     0.812795     0.805152     0.797508
      0.789865     0.782222     0.774579     0.766936     0.759293     0.751650     0.744007     0.736364     0.728721     0.721077
      0.713434     0.705791     0.698148     0.690505     0.682862     0.675219     0.667576     0.659933     0.652290     0.644646
      0.637003     0.629360     0.621717     0.614074     0.606431     0.598788     0.591145     0.583502     0.575858     0.568215
      0.560572     0.552929     0.545286     0.537643     0.530000     0.522357     0.514714     0.507071     0.499427     0.491784
      0.484141     0.476498     0.468855     0.461212     0.453569     0.445925     0.438282     0.430639     0.422996     0.415353
      0.407710     0.400067     0.392424     0.384780     0.377137     0.369494     0.361851     0.354208     0.346565     0.338922
      0.331278     0.323635     0.315992     0.308349     0.300706     0.293063     0.285420     0.277777     0.270133     0.262490
      0.254847     0.247204     0.239561     0.231918     0.224275     0.216631     0.208988     0.201345
 NY phased data points follow
   4.49186E+01  4.44277E+01  4.68965E+01  4.77571E+01  5.02244E+01  4.92519E+01  5.19031E+01  5.62810E+01  5.73194E+01  5.97327E+01
   5.95670E+01  6.21676E+01  5.81095E+01  5.48539E+01  5.39454E+01  4.90669E+01  4.72483E+01  4.51225E+01  4.09607E+01  3.82080E+01
   4.03286E+01  4.01432E+01  3.74616E+01  3.94054E+01  4.12278E+01  3.74451E+01  3.90432E+01  3.64000E+01  3.73311E+01  3.85099E+01
   3.70310E+01  3.84898E+01  3.76058E+01  3.67072E+01  3.51658E+01  3.57347E+01  3.41031E+01  3.44974E+01  3.29000E+01  2.96009E+01
   3.21495E+01  2.92189E+01  2.93250E+01  3.24082E+01  3.14053E+01  3.34715E+01  3.17194E+01  2.94832E+01  3.22970E+01  3.45665E+01
   3.12032E+01  2.63088E+01  2.92738E+01  2.90026E+01  2.67826E+01  2.68544E+01  2.72019E+01  2.80173E+01  2.75722E+01  2.65247E+01
   2.49626E+01  2.34883E+01  2.14478E+01  2.01693E+01  2.22295E+01  1.86670E+01  1.86660E+01  1.90081E+01  1.66845E+01  1.87661E+01
   1.68099E+01  1.85070E+01  1.81346E+01  1.83140E+01  2.01548E+01  1.70573E+01  1.88266E+01  1.70914E+01  1.90180E+01  1.69325E+01
   1.76258E+01  1.88698E+01  1.89793E+01  1.68514E+01  1.86003E+01  1.65723E+01  1.95860E+01  1.60143E+01  1.87050E+01  1.91825E+01
   1.68545E+01  1.89828E+01  1.96421E+01  1.91005E+01  1.88588E+01  1.98224E+01  2.13392E+01  2.36201E+01  2.59168E+01  2.79414E+01
   3.02836E+01  3.21471E+01  3.56406E+01  3.68029E+01  3.85827E+01  3.63836E+01  3.19691E+01  2.72749E+01  2.74807E+01  2.35767E+01
   2.08056E+01  2.07910E+01  1.74837E+01  1.83015E+01  1.80914E+01  1.66350E+01  1.75182E+01  1.81272E+01  1.72969E+01  1.84042E+01
   1.87307E+01  2.03675E+01  2.45730E+01  2.81695E+01  2.98323E+01  3.31841E+01  4.06319E+01  4.42441E+01  4.26280E+01  4.34488E+01
   4.05771E+01  3.42239E+01  2.98677E+01  2.50112E+01  2.23483E+01  1.78967E+01  1.61696E+01  1.47425E+01  1.23494E+01  1.30216E+01
   1.46763E+01  1.30847E+01  1.25518E+01  1.39547E+01  1.20045E+01  1.37378E+01  1.27915E+01  1.27515E+01  1.25192E+01  1.33243E+01
   1.13046E+01  9.46631E+00  9.84077E+00  1.02981E+01  1.01191E+01  9.51122E+00  1.04843E+01  9.31029E+00  7.31556E+00  5.95884E+00
   7.84175E+00  8.41603E+00  9.22646E+00  9.48888E+00  7.55582E+00  6.25280E+00  1.00903E+01  1.12922E+01  6.51973E+00  4.45946E+00
   5.07796E+00  6.17031E+00  4.34079E+00  2.27106E+00  7.51173E-01  6.82090E-01  1.12333E-01  1.59959E+00  1.45093E+00  1.21373E-02
   3.78651E+00  7.37234E-01  1.22976E+00  2.53910E+00  2.99100E+00  2.01871E+00  3.71631E+00  4.50185E+00  6.10187E+00  5.09698E+00
   7.44184E+00  8.87803E+00  1.09437E+01  1.21376E+01  1.06399E+01  1.12101E+01  1.00123E+01  9.40943E+00  6.30542E+00  7.11540E+00
   6.10639E+00  7.69473E+00  7.23567E+00  8.20721E+00  9.23932E+00  8.78334E+00  7.81449E+00  6.51489E+00  7.06167E+00  3.78556E+00
   8.67121E+00  6.37728E+00  7.26064E+00  8.51902E+00  1.10977E+01  1.18054E+01  1.30853E+01  1.08131E+01  8.67488E+00  9.56610E+00
   7.92525E+00  5.34366E+00  9.41275E+00  6.64723E+00  5.30590E+00  7.86282E+00  7.28688E+00  1.00512E+01  1.14614E+01  1.00955E+01
   8.82135E+00  1.18426E+01  1.27348E+01  9.33296E+00  9.01907E+00  9.19396E+00  1.12208E+01  1.11113E+01  1.02587E+01  9.03123E+00
   9.47172E+00  8.24996E+00  1.09821E+01  1.06483E+01  8.90957E+00  8.85031E+00  1.23505E+01  1.27808E+01  1.15597E+01  1.60006E+01
   1.53434E+01  1.80494E+01  2.27541E+01  2.21436E+01  2.79365E+01  2.92261E+01  3.51996E+01  3.83643E+01  4.59218E+01  5.53996E+01
   5.73701E+01  5.62248E+01  5.03926E+01  4.60577E+01  3.81040E+01  3.09235E+01  2.46904E+01  1.74728E+01  1.66672E+01  1.25897E+01
   1.24951E+01  1.24867E+01  9.46201E+00  8.15205E+00  7.31617E+00  1.08943E+01  8.45537E+00  8.82544E+00  8.36433E+00  5.45123E+00
   6.79940E+00  6.71335E+00  5.37628E+00  6.39385E+00  6.22736E+00  4.37156E+00  4.95596E+00  8.46541E+00  5.79287E+00  3.07248E+00
   6.31941E+00  6.40990E+00  5.12878E+00  3.36298E+00  5.53381E+00  4.41690E+00  4.27249E+00  5.59281E+00  4.67019E+00  4.28330E+00
   6.65493E+00  4.17782E+00  4.89270E+00  6.46726E+00  5.50047E+00  7.14286E+00  6.37226E+00  5.91170E+00  5.86519E+00  7.94084E+00
   5.01968E+00  6.18555E+00  8.18986E+00  4.20037E+00  5.15325E+00  9.48200E+00  6.78405E+00  6.93489E+00  5.04424E+00  5.86360E+00
   5.74037E+00  8.47142E+00  5.59455E+00  4.43580E+00  6.94875E+00  6.94894E+00  8.85176E+00  3.65689E+00  4.54326E+00  5.88932E+00
   3.94344E+00  5.98905E+00  3.61131E+00  7.10261E+00  5.34562E+00  3.84043E+00  2.47619E+00  2.23047E+00  2.95703E+00  2.61766E+00
   2.47079E+00  2.70492E+00  1.59357E+00  1.24266E+00  2.67317E+00  3.22305E+00  1.88122E+00  1.42113E+00  8.17371E-01  1.99358E+00
   8.33902E-01  4.11132E-01 -1.95338E+00  1.29856E+00 -1.34298E+00 -2.01413E-01  1.37619E+00 -1.14383E-01  2.11350E+00  1.75516E+00
   1.69046E+00 -4.24296E-01 -9.61470E-01  1.86913E+00  1.85881E+00  5.89067E-01  1.50554E+00  1.33734E+00  3.16663E+00  4.07466E-01
   2.47880E+00  1.00728E+00  2.40873E+00  3.30748E+00  3.30803E+00  2.88829E+00  1.52057E+00  3.38053E+00  1.66646E+00  2.85529E+00
   2.01511E+00  2.10651E+00  1.69494E+00  2.51585E+00  2.19088E+00  3.02011E+00  2.36133E+00  4.40454E+00  2.35012E+00  1.83941E+00
   2.35993E+00  3.42549E+00  3.52961E+00  4.87588E+00  2.02881E+00  4.51119E+00  2.94851E+00  4.35962E+00  3.80511E+00  3.05508E+00
   4.28177E+00  1.19468E+00  4.29777E+00  4.72786E+00  4.79822E+00  5.24238E+00  5.01595E+00  4.12977E+00  4.10155E+00  3.17691E+00
   5.98672E+00  2.84248E+00  4.57517E+00  6.35990E+00  2.81152E+00  3.45502E+00  1.40511E+00  3.75977E+00  2.42310E+00  4.77706E+00
   3.13377E+00  6.65380E-01  4.58899E+00  1.66450E+00  2.57792E+00  8.14295E-01  1.40502E+00  2.05573E+00  3.34603E+00  1.20787E+00
   3.26157E+00  3.64142E+00  1.54722E+00  1.32195E+00  6.28134E-01  1.18005E+00  1.48216E+00  3.57077E+00  2.63976E+00  1.02558E+00
   2.75468E+00  1.04035E+00  9.69723E-01  1.72942E+00  1.88455E+00  1.07163E+00  1.91396E+00  1.88726E+00 -4.81016E-01  2.76072E+00
   2.04716E+00  1.55295E+00  3.66937E-01 -2.60670E-01  7.73727E-01  3.78336E+00  1.50741E+00 -2.24163E+00  2.32215E+00  3.36029E+00
   2.44179E-01  1.70689E+00  2.65827E+00  1.31745E+00  2.09250E+00  1.14039E+00  2.73330E+00  1.30276E+00  9.64863E-01  1.59103E+00
   5.40120E-01  1.90849E+00  2.82280E+00  1.71582E+00  2.85167E-01  8.67380E-01 -1.71118E-01  7.01448E-01  1.09626E+00  4.25237E+00
  -8.63945E-01  2.34484E+00  2.76132E+00  2.16561E+00  2.67113E+00  3.22955E+00  4.06078E-01  1.17662E+00  2.73156E+00  3.81829E+00
   1.43683E+00  3.29176E+00  2.24700E+00  3.29756E+00  2.49534E+00  1.87993E+00  2.70685E+00  4.54347E-01
 NY points of the fit to the data follow
   4.26017E+01  4.37507E+01  4.51163E+01  4.64765E+01  4.78953E+01  4.95541E+01  5.16733E+01  5.43080E+01  5.71170E+01  5.93538E+01
   6.03184E+01  5.97418E+01  5.77811E+01  5.48986E+01  5.16562E+01  4.85058E+01  4.57253E+01  4.33935E+01  4.14268E+01  3.96803E+01
   3.83620E+01  3.77734E+01  3.75377E+01  3.74215E+01  3.73419E+01  3.72990E+01  3.73512E+01  3.75862E+01  3.80763E+01  3.87005E+01
   3.92330E+01  3.94871E+01  3.92605E+01  3.84799E+01  3.72559E+01  3.57812E+01  3.42991E+01  3.30688E+01  3.22064E+01  3.16148E+01
   3.12405E+01  3.11029E+01  3.10429E+01  3.09402E+01  3.07582E+01  3.05046E+01  3.01861E+01  2.98103E+01  2.94117E+01  2.90050E+01
   2.86019E+01  2.82180E+01  2.78241E+01  2.74099E+01  2.69911E+01  2.65646E+01  2.61253E+01  2.56984E+01  2.52958E+01  2.49034E+01
   2.45198E+01  2.41627E+01  2.38337E+01  2.35253E+01  2.32312E+01  2.29475E+01  2.26752E+01  2.24127E+01  2.21571E+01  2.19071E+01
   2.16622E+01  2.14223E+01  2.11867E+01  2.09552E+01  2.07274E+01  2.05034E+01  2.02831E+01  2.00667E+01  1.98540E+01  1.96447E+01
   1.94388E+01  1.92364E+01  1.90382E+01  1.88444E+01  1.86556E+01  1.84721E+01  1.82947E+01  1.81248E+01  1.79643E+01  1.78166E+01
   1.76873E+01  1.75894E+01  1.75616E+01  1.77998E+01  1.88575E+01  2.04629E+01  2.19868E+01  2.34306E+01  2.50477E+01  2.71229E+01
   2.98596E+01  3.30951E+01  3.60941E+01  3.78941E+01  3.79496E+01  3.63019E+01  3.33972E+01  2.98821E+01  2.63662E+01  2.32514E+01
   2.07107E+01  1.87024E+01  1.70589E+01  1.57644E+01  1.50869E+01  1.48867E+01  1.48766E+01  1.51226E+01  1.62428E+01  1.83987E+01
   2.06363E+01  2.27180E+01  2.49455E+01  2.77004E+01  3.13364E+01  3.58162E+01  4.03221E+01  4.35446E+01  4.45263E+01  4.31091E+01
   3.97762E+01  3.53326E+01  3.05919E+01  2.61322E+01  2.22344E+01  1.89821E+01  1.62784E+01  1.40858E+01  1.27514E+01  1.23455E+01
   1.23104E+01  1.23628E+01  1.23740E+01  1.22921E+01  1.21296E+01  1.19110E+01  1.16429E+01  1.13550E+01  1.10663E+01  1.07781E+01
   1.05013E+01  1.02166E+01  9.90142E+00  9.61114E+00  9.37533E+00  9.20815E+00  9.09145E+00  8.92921E+00  8.68260E+00  8.38099E+00
   8.09244E+00  7.88264E+00  7.77440E+00  7.72971E+00  7.66533E+00  7.50736E+00  7.22236E+00  6.81683E+00  6.39236E+00  6.03970E+00
   5.76054E+00  5.49442E+00  5.16726E+00  4.82331E+00  4.52412E+00  4.33911E+00  4.28307E+00  4.27615E+00  4.25215E+00  4.24920E+00
   4.29509E+00  4.39760E+00  4.55571E+00  4.75379E+00  4.97510E+00  5.24294E+00  5.61592E+00  6.11089E+00  6.70793E+00  7.30748E+00
   7.84431E+00  8.23225E+00  8.40509E+00  8.38688E+00  8.25726E+00  8.10059E+00  7.97259E+00  7.93185E+00  8.01201E+00  8.24994E+00
   8.59146E+00  8.91202E+00  9.20913E+00  9.37547E+00  9.24391E+00  8.81125E+00  8.15138E+00  7.44714E+00  6.75140E+00  6.13571E+00
   5.80821E+00  5.89367E+00  6.40231E+00  7.18964E+00  8.06846E+00  8.86504E+00  9.35052E+00  9.31185E+00  8.72801E+00  7.73407E+00
   6.54991E+00  5.47264E+00  4.83503E+00  4.78835E+00  5.29628E+00  6.18930E+00  7.21691E+00  8.20691E+00  9.02696E+00  9.58107E+00
   9.87219E+00  1.00104E+01  1.01077E+01  1.01556E+01  1.01609E+01  1.02584E+01  1.04874E+01  1.07304E+01  1.08598E+01  1.08243E+01
   1.06257E+01  1.03289E+01  1.00492E+01  9.92017E+00  1.00500E+01  1.04214E+01  1.09440E+01  1.15584E+01  1.21946E+01  1.28237E+01
   1.39162E+01  1.67144E+01  2.04771E+01  2.40416E+01  2.74401E+01  3.11049E+01  3.55135E+01  4.10180E+01  4.72909E+01  5.28760E+01
   5.59546E+01  5.55996E+01  5.19748E+01  4.59772E+01  3.88764E+01  3.18353E+01  2.56068E+01  2.05303E+01  1.64836E+01  1.30846E+01
   1.03732E+01  8.93701E+00  8.34063E+00  7.98967E+00  7.73828E+00  7.53545E+00  7.33744E+00  7.11794E+00  6.88204E+00  6.63523E+00
   6.38900E+00  6.15660E+00  5.94551E+00  5.75670E+00  5.59351E+00  5.45765E+00  5.34458E+00  5.24932E+00  5.16923E+00  5.10401E+00
   5.05474E+00  5.02168E+00  5.00359E+00  5.00144E+00  5.01592E+00  5.04646E+00  5.09219E+00  5.15322E+00  5.22912E+00  5.31874E+00
   5.42068E+00  5.53267E+00  5.65117E+00  5.77254E+00  5.89273E+00  6.00725E+00  6.11212E+00  6.20401E+00  6.28027E+00  6.33871E+00
   6.37761E+00  6.39632E+00  6.39495E+00  6.37423E+00  6.33572E+00  6.28148E+00  6.21383E+00  6.13533E+00  6.04855E+00  5.95595E+00
   5.85967E+00  5.76142E+00  5.66238E+00  5.56319E+00  5.46396E+00  5.36432E+00  5.26352E+00  5.16052E+00  5.05412E+00  4.94311E+00
   4.82642E+00  4.70320E+00  4.57290E+00  4.43533E+00  4.29066E+00  4.13948E+00  3.98277E+00  3.82179E+00  3.65809E+00  3.49335E+00
   3.32936E+00  3.16794E+00  3.01086E+00  2.85977E+00  2.71611E+00  2.58111E+00  2.45578E+00  2.34087E+00  2.23684E+00  2.14393E+00
   2.06209E+00  1.99104E+00  1.93031E+00  1.87927E+00  1.83713E+00  1.80297E+00  1.77577E+00  1.75448E+00  1.73802E+00  1.72532E+00
   1.71537E+00  1.70719E+00  1.69993E+00  1.69283E+00  1.68532E+00  1.67696E+00  1.66750E+00  1.65688E+00  1.64523E+00  1.63287E+00
   1.62030E+00  1.60821E+00  1.59740E+00  1.58878E+00  1.58340E+00  1.58237E+00  1.58689E+00  1.59814E+00  1.61733E+00  1.64567E+00
   1.68432E+00  1.73440E+00  1.79695E+00  1.87288E+00  1.96295E+00  2.06774E+00  2.18762E+00  2.32267E+00  2.47264E+00  2.63688E+00
   2.81434E+00  3.00348E+00  3.20231E+00  3.40833E+00  3.61854E+00  3.82952E+00  4.03746E+00  4.23831E+00  4.42787E+00  4.60192E+00
   4.75640E+00  4.88755E+00  4.99211E+00  5.06743E+00  5.11161E+00  5.12356E+00  5.10309E+00  5.05085E+00  4.96837E+00  4.85796E+00
   4.72255E+00  4.56560E+00  4.39092E+00  4.20253E+00  4.00449E+00  3.80076E+00  3.59503E+00  3.39067E+00  3.19062E+00  2.99737E+00
   2.81293E+00  2.63881E+00  2.47610E+00  2.32542E+00  2.18708E+00  2.06105E+00  1.94708E+00  1.84471E+00  1.75333E+00  1.67225E+00
   1.60072E+00  1.53800E+00  1.48333E+00  1.43597E+00  1.39521E+00  1.36041E+00  1.33098E+00  1.30636E+00  1.28608E+00  1.26967E+00
   1.25674E+00  1.24694E+00  1.23995E+00  1.23550E+00  1.23334E+00  1.23324E+00  1.23499E+00  1.23844E+00  1.24343E+00  1.24981E+00
   1.25746E+00  1.26627E+00  1.27612E+00  1.28695E+00  1.29866E+00  1.31121E+00  1.32451E+00  1.33852E+00  1.35319E+00  1.36847E+00
   1.38432E+00  1.40071E+00  1.41760E+00  1.43494E+00  1.45273E+00  1.47093E+00  1.48952E+00  1.50847E+00  1.52777E+00  1.54738E+00
   1.56730E+00  1.58752E+00  1.60801E+00  1.62876E+00  1.64975E+00  1.67098E+00  1.69243E+00  1.71410E+00  1.73597E+00  1.75802E+00
   1.78025E+00  1.80265E+00  1.82522E+00  1.84795E+00  1.87082E+00  1.89383E+00  1.91697E+00  1.94025E+00  1.96365E+00  1.98718E+00
   2.01081E+00  2.03454E+00  2.05838E+00  2.08233E+00  2.10637E+00  2.13051E+00  2.15474E+00  2.17906E+00
 NY background values follow
     4.058E+01    4.029E+01    3.999E+01    3.970E+01    3.941E+01    3.911E+01    3.882E+01    3.852E+01    3.823E+01    3.794E+01
     3.764E+01    3.735E+01    3.706E+01    3.676E+01    3.647E+01    3.618E+01    3.588E+01    3.559E+01    3.530E+01    3.501E+01
     3.472E+01    3.442E+01    3.413E+01    3.384E+01    3.356E+01    3.327E+01    3.298E+01    3.269E+01    3.240E+01    3.212E+01
     3.183E+01    3.155E+01    3.127E+01    3.098E+01    3.070E+01    3.042E+01    3.014E+01    2.986E+01    2.958E+01    2.931E+01
     2.903E+01    2.876E+01    2.849E+01    2.821E+01    2.794E+01    2.767E+01    2.741E+01    2.714E+01    2.688E+01    2.661E+01
     2.635E+01    2.609E+01    2.583E+01    2.557E+01    2.532E+01    2.506E+01    2.481E+01    2.456E+01    2.431E+01    2.406E+01
     2.381E+01    2.357E+01    2.332E+01    2.308E+01    2.284E+01    2.260E+01    2.237E+01    2.213E+01    2.190E+01    2.167E+01
     2.144E+01    2.121E+01    2.099E+01    2.076E+01    2.054E+01    2.032E+01    2.010E+01    1.989E+01    1.967E+01    1.946E+01
     1.925E+01    1.905E+01    1.884E+01    1.864E+01    1.844E+01    1.824E+01    1.804E+01    1.784E+01    1.765E+01    1.746E+01
     1.727E+01    1.709E+01    1.690E+01    1.672E+01    1.654E+01    1.637E+01    1.619E+01    1.602E+01    1.585E+01    1.568E+01
     1.551E+01    1.535E+01    1.519E+01    1.503E+01    1.487E+01    1.471E+01    1.456E+01    1.440E+01    1.425E+01    1.410E+01
     1.396E+01    1.381E+01    1.367E+01    1.353E+01    1.339E+01    1.325E+01    1.311E+01    1.298E+01    1.284E+01    1.271E+01
     1.258E+01    1.245E+01    1.232E+01    1.220E+01    1.207E+01    1.195E+01    1.183E+01    1.171E+01    1.159E+01    1.148E+01
     1.136E+01    1.125E+01    1.113E+01    1.102E+01    1.091E+01    1.080E+01    1.069E+01    1.059E+01    1.048E+01    1.038E+01
     1.027E+01    1.017E+01    1.007E+01    9.969E+00    9.870E+00    9.773E+00    9.677E+00    9.582E+00    9.489E+00    9.396E+00
     9.305E+00    9.215E+00    9.126E+00    9.039E+00    8.953E+00    8.868E+00    8.784E+00    8.702E+00    8.621E+00    8.541E+00
     8.462E+00    8.385E+00    8.309E+00    8.234E+00    8.160E+00    8.088E+00    8.017E+00    7.948E+00    7.880E+00    7.813E+00
     7.747E+00    7.683E+00    7.619E+00    7.558E+00    7.497E+00    7.438E+00    7.381E+00    7.324E+00    7.269E+00    7.215E+00
     7.163E+00    7.112E+00    7.062E+00    7.014E+00    6.967E+00    6.921E+00    6.876E+00    6.833E+00    6.790E+00    6.749E+00
     6.709E+00    6.670E+00    6.631E+00    6.594E+00    6.557E+00    6.522E+00    6.487E+00    6.453E+00    6.419E+00    6.387E+00
     6.354E+00    6.323E+00    6.292E+00    6.262E+00    6.232E+00    6.203E+00    6.174E+00    6.145E+00    6.117E+00    6.089E+00
     6.062E+00    6.034E+00    6.007E+00    5.980E+00    5.953E+00    5.926E+00    5.900E+00    5.873E+00    5.846E+00    5.819E+00
     5.792E+00    5.765E+00    5.738E+00    5.710E+00    5.682E+00    5.654E+00    5.626E+00    5.597E+00    5.568E+00    5.538E+00
     5.508E+00    5.478E+00    5.447E+00    5.416E+00    5.384E+00    5.353E+00    5.320E+00    5.288E+00    5.255E+00    5.222E+00
     5.188E+00    5.154E+00    5.119E+00    5.084E+00    5.049E+00    5.014E+00    4.978E+00    4.941E+00    4.905E+00    4.868E+00
     4.830E+00    4.792E+00    4.754E+00    4.715E+00    4.677E+00    4.637E+00    4.598E+00    4.557E+00    4.517E+00    4.476E+00
     4.435E+00    4.394E+00    4.352E+00    4.309E+00    4.267E+00    4.224E+00    4.180E+00    4.136E+00    4.092E+00    4.048E+00
     4.003E+00    3.958E+00    3.912E+00    3.866E+00    3.820E+00    3.773E+00    3.726E+00    3.679E+00    3.631E+00    3.583E+00
     3.535E+00    3.487E+00    3.438E+00    3.390E+00    3.341E+00    3.291E+00    3.242E+00    3.192E+00    3.143E+00    3.093E+00
     3.043E+00    2.992E+00    2.942E+00    2.892E+00    2.841E+00    2.791E+00    2.740E+00    2.690E+00    2.639E+00    2.589E+00
     2.538E+00    2.487E+00    2.437E+00    2.386E+00    2.336E+00    2.286E+00    2.235E+00    2.185E+00    2.135E+00    2.085E+00
     2.035E+00    1.985E+00    1.936E+00    1.886E+00    1.837E+00    1.788E+00    1.739E+00    1.691E+00    1.643E+00    1.594E+00
     1.547E+00    1.499E+00    1.452E+00    1.405E+00    1.359E+00    1.313E+00    1.267E+00    1.221E+00    1.176E+00    1.132E+00
     1.088E+00    1.044E+00    1.001E+00    9.579E-01    9.157E-01    8.739E-01    8.327E-01    7.920E-01    7.519E-01    7.124E-01
     6.735E-01    6.351E-01    5.974E-01    5.603E-01    5.239E-01    4.882E-01    4.531E-01    4.188E-01    3.852E-01    3.523E-01
     3.201E-01    2.888E-01    2.582E-01    2.284E-01    1.994E-01    1.712E-01    1.439E-01    1.175E-01    9.194E-02    6.728E-02
     4.352E-02    2.069E-02   -1.196E-03   -2.214E-02   -4.215E-02   -6.123E-02   -7.940E-02   -9.666E-02   -1.130E-01   -1.285E-01
    -1.431E-01   -1.568E-01   -1.697E-01   -1.817E-01   -1.928E-01   -2.032E-01   -2.127E-01   -2.214E-01   -2.293E-01   -2.364E-01
    -2.427E-01   -2.482E-01   -2.529E-01   -2.569E-01   -2.602E-01   -2.627E-01   -2.644E-01   -2.655E-01   -2.658E-01   -2.654E-01
    -2.644E-01   -2.626E-01   -2.602E-01   -2.571E-01   -2.533E-01   -2.489E-01   -2.439E-01   -2.382E-01   -2.319E-01   -2.250E-01
    -2.175E-01   -2.094E-01   -2.007E-01   -1.914E-01   -1.815E-01   -1.711E-01   -1.602E-01   -1.487E-01   -1.367E-01   -1.242E-01
    -1.111E-01   -9.759E-02   -8.356E-02   -6.905E-02   -5.407E-02   -3.864E-02   -2.276E-02   -6.434E-03    1.031E-02    2.748E-02
     4.505E-02    6.302E-02    8.138E-02    1.001E-01    1.192E-01    1.387E-01    1.585E-01    1.786E-01    1.991E-01    2.199E-01
     2.409E-01    2.623E-01    2.840E-01    3.059E-01    3.281E-01    3.506E-01    3.733E-01    3.963E-01    4.194E-01    4.428E-01
     4.664E-01    4.902E-01    5.141E-01    5.382E-01    5.625E-01    5.870E-01    6.116E-01    6.363E-01    6.611E-01    6.861E-01
     7.112E-01    7.363E-01    7.615E-01    7.868E-01    8.122E-01    8.377E-01    8.632E-01    8.888E-01    9.144E-01    9.401E-01
     9.659E-01    9.917E-01    1.018E+00    1.044E+00    1.070E+00    1.096E+00    1.122E+00    1.148E+00    1.174E+00    1.200E+00
     1.227E+00    1.253E+00    1.280E+00    1.306E+00    1.333E+00    1.359E+00    1.386E+00    1.412E+00    1.439E+00    1.466E+00
     1.492E+00    1.519E+00    1.546E+00    1.573E+00    1.600E+00    1.627E+00    1.653E+00    1.680E+00    1.707E+00    1.734E+00
     1.761E+00    1.788E+00    1.815E+00    1.842E+00    1.869E+00    1.896E+00    1.924E+00    1.951E+00
 Cr       Conc. = 1.42E+02
