 LCModel (Version 6.3-1L) Copyright: S.W. Provencher.          Ref.: Magn. Reson. Med. 30:672-679 (1993).                
 Slice#3 Row#8 Col#13  PD_05_press_1_raw_act
 36 lines in following concentration table = NCONC+1
    Conc.  %SD /Cr+PCr  Metabolite                                         
    5.209 303%   0.647 Ala                                                 
    5.473 132%   0.679 Asp                                                 
    4.979 353%   0.618 Cr                                                  
    3.078 576%   0.382 PCr                                                 
    3.472 124%   0.431 GABA                                                
    3.624 120%   0.450 Glc                                                 
   14.908 200%   1.850 Gln                                                 
   21.425 156%   2.659 Glu                                                 
    0.000 999%   0.000 GPC                                                 
    6.942  56%   0.862 PCh                                                 
   10.594 114%   1.315 GSH                                                 
    0.000 999%   0.000 Ins                                                 
    0.000 999%   0.000 Lac                                                 
   84.077  36%  10.435 NAA                                                 
    5.685 479%   0.706 NAAG                                                
    1.012 139%   0.126 Scyllo                                              
    7.022 102%   0.871 Tau                                                 
    1.055 342%   0.131 -CrCH2                                              
    6.942  56%   0.862 GPC+PCh                                             
   89.762  19%  11.141 NAA+NAAG                                            
    8.057 111%   1.000 Cr+PCr                                              
   36.333 119%   4.510 Glu+Gln                                             
 1.94E+04  13% 2.4E+03 Lip13a                                              
 7.54E+03  31% 936.048 Lip13b                                              
 2.56E+03  19% 317.265 Lip09                                               
    0.000 999%   0.000 MM09                                                
   31.905 427%   3.960 Lip20                                               
    0.000 999%   0.000 MM20                                                
  324.908 152%  40.326 MM12                                                
 2.35E+03  30% 291.358 MM14                                                
 1.67E+03  31% 206.721 MM17                                                
 2.69E+04   6% 3.3E+03 Lip13a+Lip13b                                       
 2.96E+04   4% 3.7E+03 MM14+Lip13a+Lip13b+MM12                             
 2.56E+03  19% 317.265 MM09+Lip09                                          
   31.905 427%   3.960 MM20+Lip20                                          
   6 lines in following misc. output table
  FWHM = 0.031 ppm    S/N =  46                                            
  Data shift =-0.046 ppm                                                   
  Ph: -95 deg     -45.1 deg/ppm                                            
  alphaB,S = 1.6E+00,   6.0E+00                                            
   14 spline knots.   Ns = 5(1)                                            
   2 inflections.     1 extrema                                            
  498 points on ppm-axis = NY
      4.000000     3.992357     3.984714     3.977070     3.969427     3.961784     3.954141     3.946497     3.938854     3.931211
      3.923568     3.915925     3.908281     3.900638     3.892995     3.885352     3.877708     3.870065     3.862422     3.854779
      3.847136     3.839492     3.831849     3.824206     3.816563     3.808919     3.801276     3.793633     3.785990     3.778347
      3.770703     3.763060     3.755417     3.747774     3.740130     3.732487     3.724844     3.717201     3.709558     3.701914
      3.694271     3.686628     3.678985     3.671341     3.663698     3.656055     3.648412     3.640769     3.633125     3.625482
      3.617839     3.610196     3.602552     3.594909     3.587266     3.579623     3.571980     3.564336     3.556693     3.549050
      3.541407     3.533763     3.526120     3.518477     3.510834     3.503191     3.495547     3.487904     3.480261     3.472618
      3.464974     3.457331     3.449688     3.442045     3.434402     3.426758     3.419115     3.411472     3.403829     3.396185
      3.388542     3.380899     3.373256     3.365613     3.357969     3.350326     3.342683     3.335040     3.327396     3.319753
      3.312110     3.304467     3.296824     3.289180     3.281537     3.273894     3.266251     3.258607     3.250964     3.243321
      3.235678     3.228034     3.220391     3.212748     3.205105     3.197462     3.189818     3.182175     3.174532     3.166889
      3.159245     3.151602     3.143959     3.136316     3.128673     3.121029     3.113386     3.105743     3.098100     3.090456
      3.082813     3.075170     3.067527     3.059884     3.052240     3.044597     3.036954     3.029311     3.021667     3.014024
      3.006381     2.998738     2.991095     2.983451     2.975808     2.968165     2.960522     2.952878     2.945235     2.937592
      2.929949     2.922306     2.914662     2.907019     2.899376     2.891733     2.884089     2.876446     2.868803     2.861160
      2.853517     2.845873     2.838230     2.830587     2.822944     2.815300     2.807657     2.800014     2.792371     2.784728
      2.777084     2.769441     2.761798     2.754155     2.746511     2.738868     2.731225     2.723582     2.715939     2.708295
      2.700652     2.693009     2.685366     2.677722     2.670079     2.662436     2.654793     2.647150     2.639506     2.631863
      2.624220     2.616577     2.608933     2.601290     2.593647     2.586004     2.578361     2.570717     2.563074     2.555431
      2.547788     2.540144     2.532501     2.524858     2.517215     2.509572     2.501928     2.494285     2.486642     2.478999
      2.471355     2.463712     2.456069     2.448426     2.440783     2.433139     2.425496     2.417853     2.410210     2.402566
      2.394923     2.387280     2.379637     2.371994     2.364350     2.356707     2.349064     2.341421     2.333777     2.326134
      2.318491     2.310848     2.303205     2.295561     2.287918     2.280275     2.272632     2.264988     2.257345     2.249702
      2.242059     2.234416     2.226772     2.219129     2.211486     2.203843     2.196199     2.188556     2.180913     2.173270
      2.165627     2.157983     2.150340     2.142697     2.135054     2.127410     2.119767     2.112124     2.104481     2.096838
      2.089194     2.081551     2.073908     2.066265     2.058621     2.050978     2.043335     2.035692     2.028049     2.020405
      2.012762     2.005119     1.997476     1.989833     1.982190     1.974546     1.966903     1.959260     1.951617     1.943974
      1.936331     1.928688     1.921045     1.913402     1.905759     1.898115     1.890472     1.882829     1.875186     1.867543
      1.859900     1.852257     1.844614     1.836971     1.829327     1.821684     1.814041     1.806398     1.798755     1.791112
      1.783469     1.775826     1.768183     1.760540     1.752896     1.745253     1.737610     1.729967     1.722324     1.714681
      1.707038     1.699395     1.691752     1.684108     1.676465     1.668822     1.661179     1.653536     1.645893     1.638250
      1.630607     1.622964     1.615321     1.607677     1.600034     1.592391     1.584748     1.577105     1.569462     1.561819
      1.554176     1.546533     1.538890     1.531246     1.523603     1.515960     1.508317     1.500674     1.493031     1.485388
      1.477745     1.470102     1.462458     1.454815     1.447172     1.439529     1.431886     1.424243     1.416600     1.408957
      1.401314     1.393671     1.386027     1.378384     1.370741     1.363098     1.355455     1.347812     1.340169     1.332526
      1.324883     1.317240     1.309596     1.301953     1.294310     1.286667     1.279024     1.271381     1.263738     1.256095
      1.248452     1.240808     1.233165     1.225522     1.217879     1.210236     1.202593     1.194950     1.187307     1.179664
      1.172021     1.164377     1.156734     1.149091     1.141448     1.133805     1.126162     1.118519     1.110876     1.103233
      1.095590     1.087946     1.080303     1.072660     1.065017     1.057374     1.049731     1.042088     1.034445     1.026802
      1.019158     1.011515     1.003872     0.996229     0.988586     0.980943     0.973300     0.965657     0.958014     0.950371
      0.942727     0.935084     0.927441     0.919798     0.912155     0.904512     0.896869     0.889226     0.881583     0.873940
      0.866296     0.858653     0.851010     0.843367     0.835724     0.828081     0.820438     0.812795     0.805152     0.797508
      0.789865     0.782222     0.774579     0.766936     0.759293     0.751650     0.744007     0.736364     0.728721     0.721077
      0.713434     0.705791     0.698148     0.690505     0.682862     0.675219     0.667576     0.659933     0.652290     0.644646
      0.637003     0.629360     0.621717     0.614074     0.606431     0.598788     0.591145     0.583502     0.575858     0.568215
      0.560572     0.552929     0.545286     0.537643     0.530000     0.522357     0.514714     0.507071     0.499427     0.491784
      0.484141     0.476498     0.468855     0.461212     0.453569     0.445925     0.438282     0.430639     0.422996     0.415353
      0.407710     0.400067     0.392424     0.384780     0.377137     0.369494     0.361851     0.354208     0.346565     0.338922
      0.331278     0.323635     0.315992     0.308349     0.300706     0.293063     0.285420     0.277777     0.270133     0.262490
      0.254847     0.247204     0.239561     0.231918     0.224275     0.216631     0.208988     0.201345
 NY phased data points follow
   1.00303E+00  6.15983E-01 -5.22572E-02 -1.01427E-02 -1.47874E+00  6.03975E-01  1.08896E+00  2.36645E+00  1.42033E+00  4.63398E-01
   1.25093E+00 -2.42599E-01  8.05820E-01  2.25085E+00  1.26285E+00  1.61081E+00  2.44033E-01  1.38345E+00  2.29097E+00  2.11912E+00
   2.06549E+00  1.93372E+00  1.73200E+00  1.91235E+00  1.58894E+00 -1.48076E-01  2.09628E+00  1.79909E+00  2.59387E+00  2.26624E+00
   2.29621E+00  3.14097E+00  2.40682E+00  3.20298E+00  2.67707E+00  3.42934E+00  2.95140E+00  4.15761E+00  2.48466E+00  2.34637E+00
   3.02722E+00  3.04941E+00  3.04253E+00  4.25566E+00  3.24592E+00  3.36713E+00  3.33709E+00  3.74260E+00  3.52056E+00  3.12519E+00
   3.68368E+00  3.70986E+00  3.60251E+00  4.98375E+00  5.31730E+00  4.08233E+00  5.92285E+00  5.71263E+00  6.86295E+00  4.03652E+00
   4.49612E+00  5.22758E+00  6.14213E+00  5.05250E+00  5.65179E+00  7.89752E+00  6.87264E+00  4.52592E+00  5.92848E+00  6.26859E+00
   6.33345E+00  6.10266E+00  6.35716E+00  6.53710E+00  8.82596E+00  8.31592E+00  6.80884E+00  7.99929E+00  7.76832E+00  7.75877E+00
   8.48549E+00  8.31950E+00  9.02698E+00  7.61890E+00  6.81329E+00  9.15374E+00  8.82881E+00  9.96028E+00  8.23343E+00  8.72949E+00
   7.70455E+00  1.09366E+01  9.55360E+00  8.28935E+00  1.05831E+01  1.12441E+01  1.02287E+01  8.79311E+00  9.70285E+00  1.05047E+01
   1.04489E+01  1.11925E+01  1.16538E+01  9.66659E+00  1.15533E+01  1.25149E+01  1.27286E+01  1.16243E+01  1.23584E+01  1.20138E+01
   1.25158E+01  1.10713E+01  1.36049E+01  1.15866E+01  1.23166E+01  1.24392E+01  1.31919E+01  1.18327E+01  1.35676E+01  1.31902E+01
   1.22632E+01  1.34423E+01  1.19405E+01  1.26255E+01  1.39738E+01  1.43720E+01  1.25671E+01  1.49921E+01  1.33539E+01  1.54563E+01
   1.57466E+01  1.45705E+01  1.50529E+01  1.40246E+01  1.49925E+01  1.55658E+01  1.56456E+01  1.66066E+01  1.72213E+01  1.52792E+01
   1.63259E+01  1.56702E+01  1.61626E+01  1.64644E+01  1.56303E+01  1.66455E+01  1.54814E+01  1.68336E+01  1.79477E+01  1.73073E+01
   1.87808E+01  1.74242E+01  1.60253E+01  1.84430E+01  1.95221E+01  1.84411E+01  1.77565E+01  1.77673E+01  1.97383E+01  1.78651E+01
   1.91868E+01  1.90334E+01  1.97549E+01  1.90075E+01  2.05941E+01  2.02523E+01  2.05828E+01  1.99456E+01  2.04341E+01  2.05180E+01
   2.13347E+01  2.06466E+01  2.00822E+01  2.02315E+01  2.07927E+01  2.15709E+01  2.20426E+01  2.26495E+01  2.12890E+01  2.16555E+01
   2.22927E+01  2.13165E+01  2.19745E+01  2.27139E+01  2.25560E+01  2.25471E+01  2.24791E+01  2.25685E+01  2.30393E+01  2.39933E+01
   2.29669E+01  2.47444E+01  2.50090E+01  2.38645E+01  2.39457E+01  2.68217E+01  2.47306E+01  2.47019E+01  2.55027E+01  2.40147E+01
   2.46013E+01  2.57130E+01  2.77033E+01  2.39893E+01  2.77296E+01  2.73916E+01  2.77092E+01  2.74573E+01  2.60702E+01  2.89896E+01
   2.62805E+01  2.91691E+01  2.81972E+01  2.80393E+01  2.92899E+01  2.84424E+01  2.77200E+01  2.93052E+01  2.86867E+01  2.95501E+01
   3.10496E+01  2.85767E+01  2.97758E+01  2.97948E+01  2.97377E+01  3.09292E+01  2.97061E+01  3.08372E+01  3.09198E+01  3.11990E+01
   3.08956E+01  3.06015E+01  3.22773E+01  3.12175E+01  3.20821E+01  3.14121E+01  3.18932E+01  3.16947E+01  3.43311E+01  3.28481E+01
   3.23382E+01  3.35507E+01  3.27457E+01  3.30848E+01  3.31438E+01  3.25101E+01  3.50281E+01  3.33746E+01  3.38294E+01  3.35402E+01
   3.42615E+01  3.42013E+01  3.53171E+01  3.48070E+01  3.58813E+01  3.51806E+01  3.71935E+01  3.53185E+01  3.70638E+01  3.65458E+01
   3.85367E+01  3.82977E+01  3.88028E+01  4.08807E+01  4.29144E+01  4.10587E+01  4.06972E+01  3.78787E+01  3.85455E+01  3.97618E+01
   3.93848E+01  4.01399E+01  3.76955E+01  3.98041E+01  3.98643E+01  3.94707E+01  3.95564E+01  4.04158E+01  4.08929E+01  4.01868E+01
   4.18402E+01  4.13925E+01  4.22017E+01  4.12724E+01  4.18163E+01  4.29887E+01  4.27789E+01  4.39497E+01  4.20748E+01  4.28974E+01
   4.33156E+01  4.48168E+01  4.46050E+01  4.45887E+01  4.47766E+01  4.54719E+01  4.62643E+01  4.76702E+01  4.71935E+01  4.63887E+01
   4.82487E+01  5.01516E+01  4.94665E+01  4.88193E+01  5.01107E+01  5.09588E+01  5.08701E+01  5.13176E+01  5.20492E+01  5.39426E+01
   5.40165E+01  5.47403E+01  5.56679E+01  5.62970E+01  5.54499E+01  5.73741E+01  5.70762E+01  5.76374E+01  5.78630E+01  5.88475E+01
   5.98114E+01  6.07497E+01  6.05263E+01  6.29869E+01  6.25221E+01  6.35764E+01  6.50566E+01  6.58530E+01  6.76415E+01  6.71744E+01
   6.76310E+01  6.82310E+01  7.03595E+01  7.21666E+01  7.18926E+01  7.04693E+01  7.37280E+01  7.49036E+01  7.57859E+01  7.61040E+01
   7.72838E+01  8.03568E+01  8.11813E+01  8.12438E+01  8.49249E+01  8.48494E+01  8.76164E+01  8.80649E+01  8.88717E+01  9.19972E+01
   9.55909E+01  9.66731E+01  9.88346E+01  1.02950E+02  1.05221E+02  1.07150E+02  1.09375E+02  1.11847E+02  1.14347E+02  1.16460E+02
   1.19282E+02  1.19734E+02  1.19437E+02  1.19543E+02  1.19139E+02  1.19395E+02  1.19968E+02  1.16591E+02  1.13528E+02  1.12181E+02
   1.09048E+02  1.06575E+02  1.02067E+02  1.00397E+02  9.77424E+01  9.41739E+01  9.22154E+01  8.97156E+01  8.64463E+01  8.43303E+01
   8.14556E+01  7.91672E+01  7.59974E+01  7.47136E+01  7.34318E+01  7.25089E+01  7.17299E+01  6.96683E+01  7.02284E+01  6.66817E+01
   6.48797E+01  6.52572E+01  6.36790E+01  6.27209E+01  6.25568E+01  6.23252E+01  6.10573E+01  6.02979E+01  5.90408E+01  5.84349E+01
   5.96373E+01  5.72028E+01  5.90940E+01  5.77276E+01  5.72598E+01  5.67158E+01  5.69815E+01  5.62089E+01  5.50336E+01  5.49249E+01
   5.41804E+01  5.51418E+01  5.41970E+01  5.42995E+01  5.21380E+01  5.29603E+01  5.26217E+01  5.19859E+01  5.03128E+01  5.23907E+01
   5.14471E+01  5.12820E+01  4.91276E+01  4.84240E+01  4.92775E+01  4.83958E+01  4.74429E+01  4.65676E+01  4.73720E+01  4.60830E+01
   4.53970E+01  4.56161E+01  4.42488E+01  4.45485E+01  4.36854E+01  4.45218E+01  4.29181E+01  4.31192E+01  4.17600E+01  4.18277E+01
   4.15553E+01  4.13535E+01  3.91781E+01  3.90805E+01  3.85726E+01  3.89870E+01  3.84255E+01  3.90387E+01  3.59080E+01  3.69115E+01
   3.54487E+01  3.61223E+01  3.64339E+01  3.47958E+01  3.47844E+01  3.54924E+01  3.35496E+01  3.52880E+01  3.45272E+01  3.38840E+01
   3.30419E+01  3.41001E+01  3.21952E+01  3.19012E+01  3.28461E+01  3.14995E+01  3.19463E+01  3.15829E+01  3.21110E+01  3.11932E+01
   3.18539E+01  3.01735E+01  2.99399E+01  2.87017E+01  3.01048E+01  2.73280E+01  2.77740E+01  3.00191E+01  2.84689E+01  2.80382E+01
   2.65371E+01  2.72630E+01  2.76693E+01  2.72464E+01  2.64363E+01  2.62434E+01  2.58570E+01  2.68275E+01  2.64767E+01  2.50702E+01
   2.56097E+01  2.56703E+01  2.68967E+01  2.50908E+01  2.50970E+01  2.46388E+01  2.33870E+01  2.48353E+01
 NY points of the fit to the data follow
   3.59929E-01  4.15476E-01  4.72818E-01  5.31814E-01  5.91927E-01  6.53477E-01  7.18509E-01  7.89940E-01  8.69728E-01  9.50037E-01
   1.02861E+00  1.11097E+00  1.20292E+00  1.29417E+00  1.34458E+00  1.33259E+00  1.30371E+00  1.30199E+00  1.37789E+00  1.47922E+00
   1.56860E+00  1.65388E+00  1.74845E+00  1.85858E+00  1.96626E+00  2.05156E+00  2.12412E+00  2.20427E+00  2.29269E+00  2.37774E+00
   2.47595E+00  2.63982E+00  2.88260E+00  3.07262E+00  3.09957E+00  2.98792E+00  2.86305E+00  2.85199E+00  2.86973E+00  2.92761E+00
   3.04526E+00  3.21560E+00  3.39965E+00  3.55590E+00  3.66992E+00  3.74232E+00  3.81096E+00  3.90012E+00  4.00282E+00  4.11233E+00
   4.22161E+00  4.33303E+00  4.44226E+00  4.55050E+00  4.66333E+00  4.77943E+00  4.89549E+00  5.00836E+00  5.11349E+00  5.21850E+00
   5.32762E+00  5.44035E+00  5.55792E+00  5.68002E+00  5.80191E+00  5.92196E+00  6.04227E+00  6.16448E+00  6.28828E+00  6.40916E+00
   6.52445E+00  6.63726E+00  6.75270E+00  6.87709E+00  7.00974E+00  7.14447E+00  7.28671E+00  7.43068E+00  7.56911E+00  7.68805E+00
   7.78104E+00  7.86297E+00  7.97133E+00  8.11687E+00  8.27971E+00  8.44391E+00  8.59696E+00  8.74085E+00  8.88904E+00  9.03358E+00
   9.14748E+00  9.23156E+00  9.31601E+00  9.44161E+00  9.58754E+00  9.72786E+00  9.85987E+00  9.99051E+00  1.01288E+01  1.02961E+01
   1.05204E+01  1.07837E+01  1.10283E+01  1.12326E+01  1.14740E+01  1.18538E+01  1.22326E+01  1.22938E+01  1.19804E+01  1.15424E+01
   1.14085E+01  1.15820E+01  1.17746E+01  1.19473E+01  1.21099E+01  1.22726E+01  1.24322E+01  1.25884E+01  1.27430E+01  1.28970E+01
   1.30497E+01  1.31978E+01  1.33402E+01  1.34921E+01  1.36705E+01  1.38661E+01  1.40619E+01  1.42587E+01  1.44958E+01  1.47748E+01
   1.49914E+01  1.50536E+01  1.49969E+01  1.49530E+01  1.50641E+01  1.52350E+01  1.53946E+01  1.55233E+01  1.56224E+01  1.57209E+01
   1.58606E+01  1.60590E+01  1.62810E+01  1.65024E+01  1.67010E+01  1.68574E+01  1.69868E+01  1.71131E+01  1.72482E+01  1.73969E+01
   1.75439E+01  1.76898E+01  1.78375E+01  1.79903E+01  1.81441E+01  1.82975E+01  1.84540E+01  1.86110E+01  1.87663E+01  1.89221E+01
   1.90791E+01  1.92332E+01  1.93728E+01  1.94894E+01  1.96045E+01  1.97624E+01  1.99840E+01  2.02384E+01  2.04383E+01  2.05597E+01
   2.06456E+01  2.07427E+01  2.08943E+01  2.10645E+01  2.12274E+01  2.13915E+01  2.15563E+01  2.17082E+01  2.18385E+01  2.19755E+01
   2.21694E+01  2.24207E+01  2.26630E+01  2.28207E+01  2.29095E+01  2.30447E+01  2.32517E+01  2.34907E+01  2.36865E+01  2.38339E+01
   2.40023E+01  2.42442E+01  2.45360E+01  2.48130E+01  2.50092E+01  2.51330E+01  2.52356E+01  2.53413E+01  2.54763E+01  2.56419E+01
   2.58091E+01  2.59721E+01  2.61614E+01  2.63851E+01  2.66378E+01  2.68731E+01  2.70939E+01  2.72881E+01  2.74271E+01  2.75064E+01
   2.75518E+01  2.76134E+01  2.77000E+01  2.78457E+01  2.80653E+01  2.83316E+01  2.86080E+01  2.88692E+01  2.91472E+01  2.94085E+01
   2.95507E+01  2.96033E+01  2.96556E+01  2.97710E+01  2.99073E+01  3.00617E+01  3.02821E+01  3.05743E+01  3.08766E+01  3.11101E+01
   3.12701E+01  3.14116E+01  3.15568E+01  3.16838E+01  3.18098E+01  3.19701E+01  3.21814E+01  3.24176E+01  3.26302E+01  3.28162E+01
   3.30082E+01  3.31979E+01  3.33596E+01  3.34821E+01  3.36004E+01  3.37382E+01  3.38896E+01  3.40698E+01  3.42963E+01  3.45458E+01
   3.47592E+01  3.49407E+01  3.51109E+01  3.52959E+01  3.54941E+01  3.56757E+01  3.58242E+01  3.60880E+01  3.66106E+01  3.72396E+01
   3.77498E+01  3.82404E+01  3.92801E+01  4.09804E+01  4.21431E+01  4.16902E+01  3.98447E+01  3.81398E+01  3.78254E+01  3.79480E+01
   3.81305E+01  3.83340E+01  3.85444E+01  3.87572E+01  3.89818E+01  3.92206E+01  3.94724E+01  3.97313E+01  3.99936E+01  4.02551E+01
   4.05172E+01  4.07863E+01  4.10659E+01  4.13587E+01  4.16666E+01  4.19903E+01  4.23303E+01  4.26865E+01  4.30574E+01  4.34430E+01
   4.38430E+01  4.42565E+01  4.46831E+01  4.51240E+01  4.55790E+01  4.60470E+01  4.65258E+01  4.70132E+01  4.75068E+01  4.80062E+01
   4.85107E+01  4.90179E+01  4.95267E+01  5.00367E+01  5.05474E+01  5.10586E+01  5.15698E+01  5.20816E+01  5.25957E+01  5.31139E+01
   5.36385E+01  5.41724E+01  5.47186E+01  5.52800E+01  5.58594E+01  5.64596E+01  5.70828E+01  5.77310E+01  5.84055E+01  5.91067E+01
   5.98344E+01  6.05875E+01  6.13643E+01  6.21647E+01  6.29903E+01  6.38369E+01  6.46964E+01  6.55650E+01  6.64482E+01  6.73497E+01
   6.82448E+01  6.90993E+01  6.99223E+01  7.07614E+01  7.16689E+01  7.26306E+01  7.36101E+01  7.46334E+01  7.57338E+01  7.69043E+01
   7.81104E+01  7.93276E+01  8.05858E+01  8.19450E+01  8.34113E+01  8.49882E+01  8.66829E+01  8.85026E+01  9.04529E+01  9.25368E+01
   9.47530E+01  9.70945E+01  9.95467E+01  1.02086E+02  1.04678E+02  1.07277E+02  1.09828E+02  1.12263E+02  1.14510E+02  1.16493E+02
   1.18135E+02  1.19368E+02  1.20136E+02  1.20399E+02  1.20139E+02  1.19358E+02  1.18081E+02  1.16352E+02  1.14230E+02  1.11786E+02
   1.09094E+02  1.06231E+02  1.03269E+02  1.00271E+02  9.72926E+01  9.43767E+01  9.15569E+01  8.88568E+01  8.62914E+01  8.38690E+01
   8.15924E+01  7.94606E+01  7.74696E+01  7.56141E+01  7.38877E+01  7.22835E+01  7.07944E+01  6.94137E+01  6.81348E+01  6.69515E+01
   6.58578E+01  6.48481E+01  6.39171E+01  6.30595E+01  6.22704E+01  6.15448E+01  6.08781E+01  6.02654E+01  5.97019E+01  5.91828E+01
   5.87034E+01  5.82589E+01  5.78443E+01  5.74548E+01  5.70856E+01  5.67321E+01  5.63896E+01  5.60538E+01  5.57204E+01  5.53856E+01
   5.50458E+01  5.46979E+01  5.43392E+01  5.39676E+01  5.35813E+01  5.31789E+01  5.27600E+01  5.23241E+01  5.18716E+01  5.14031E+01
   5.09195E+01  5.04223E+01  4.99129E+01  4.93933E+01  4.88653E+01  4.83308E+01  4.77919E+01  4.72506E+01  4.67087E+01  4.61680E+01
   4.56303E+01  4.50968E+01  4.45690E+01  4.40480E+01  4.35348E+01  4.30301E+01  4.25346E+01  4.20487E+01  4.15728E+01  4.11070E+01
   4.06514E+01  4.02061E+01  3.97709E+01  3.93457E+01  3.89302E+01  3.85243E+01  3.81276E+01  3.77398E+01  3.73605E+01  3.69895E+01
   3.66264E+01  3.62709E+01  3.59226E+01  3.55812E+01  3.52464E+01  3.49179E+01  3.45953E+01  3.42785E+01  3.39672E+01  3.36610E+01
   3.33597E+01  3.30632E+01  3.27712E+01  3.24835E+01  3.21999E+01  3.19203E+01  3.16444E+01  3.13721E+01  3.11033E+01  3.08378E+01
   3.05755E+01  3.03162E+01  3.00599E+01  2.98064E+01  2.95557E+01  2.93075E+01  2.90620E+01  2.88188E+01  2.85781E+01  2.83396E+01
   2.81034E+01  2.78694E+01  2.76375E+01  2.74076E+01  2.71797E+01  2.69538E+01  2.67298E+01  2.65076E+01  2.62872E+01  2.60686E+01
   2.58518E+01  2.56366E+01  2.54231E+01  2.52113E+01  2.50010E+01  2.47924E+01  2.45853E+01  2.43798E+01
 NY background values follow
    -6.489E+00   -6.442E+00   -6.393E+00   -6.344E+00   -6.293E+00   -6.241E+00   -6.187E+00   -6.133E+00   -6.077E+00   -6.020E+00
    -5.962E+00   -5.903E+00   -5.843E+00   -5.781E+00   -5.719E+00   -5.655E+00   -5.590E+00   -5.524E+00   -5.457E+00   -5.388E+00
    -5.319E+00   -5.248E+00   -5.177E+00   -5.104E+00   -5.030E+00   -4.955E+00   -4.879E+00   -4.801E+00   -4.723E+00   -4.644E+00
    -4.563E+00   -4.482E+00   -4.399E+00   -4.315E+00   -4.231E+00   -4.145E+00   -4.058E+00   -3.970E+00   -3.881E+00   -3.791E+00
    -3.700E+00   -3.608E+00   -3.515E+00   -3.421E+00   -3.326E+00   -3.230E+00   -3.133E+00   -3.035E+00   -2.937E+00   -2.837E+00
    -2.736E+00   -2.634E+00   -2.531E+00   -2.428E+00   -2.323E+00   -2.218E+00   -2.112E+00   -2.005E+00   -1.897E+00   -1.788E+00
    -1.678E+00   -1.567E+00   -1.456E+00   -1.344E+00   -1.231E+00   -1.117E+00   -1.002E+00   -8.872E-01   -7.711E-01   -6.543E-01
    -5.367E-01   -4.185E-01   -2.995E-01   -1.798E-01   -5.950E-02    6.152E-02    1.832E-01    3.055E-01    4.285E-01    5.520E-01
     6.762E-01    8.010E-01    9.264E-01    1.052E+00    1.179E+00    1.306E+00    1.433E+00    1.561E+00    1.690E+00    1.819E+00
     1.949E+00    2.079E+00    2.209E+00    2.340E+00    2.471E+00    2.603E+00    2.736E+00    2.868E+00    3.001E+00    3.135E+00
     3.269E+00    3.403E+00    3.538E+00    3.674E+00    3.809E+00    3.946E+00    4.082E+00    4.219E+00    4.357E+00    4.494E+00
     4.633E+00    4.771E+00    4.910E+00    5.050E+00    5.190E+00    5.330E+00    5.471E+00    5.612E+00    5.753E+00    5.895E+00
     6.038E+00    6.180E+00    6.324E+00    6.467E+00    6.611E+00    6.755E+00    6.900E+00    7.045E+00    7.191E+00    7.336E+00
     7.483E+00    7.629E+00    7.776E+00    7.924E+00    8.072E+00    8.220E+00    8.368E+00    8.517E+00    8.667E+00    8.816E+00
     8.967E+00    9.117E+00    9.268E+00    9.419E+00    9.571E+00    9.723E+00    9.876E+00    1.003E+01    1.018E+01    1.034E+01
     1.049E+01    1.064E+01    1.080E+01    1.095E+01    1.111E+01    1.126E+01    1.142E+01    1.158E+01    1.173E+01    1.189E+01
     1.205E+01    1.221E+01    1.237E+01    1.253E+01    1.269E+01    1.285E+01    1.301E+01    1.317E+01    1.333E+01    1.349E+01
     1.365E+01    1.381E+01    1.397E+01    1.414E+01    1.430E+01    1.446E+01    1.463E+01    1.479E+01    1.496E+01    1.512E+01
     1.529E+01    1.545E+01    1.562E+01    1.579E+01    1.595E+01    1.612E+01    1.629E+01    1.646E+01    1.663E+01    1.680E+01
     1.696E+01    1.713E+01    1.730E+01    1.747E+01    1.764E+01    1.781E+01    1.798E+01    1.815E+01    1.832E+01    1.849E+01
     1.866E+01    1.883E+01    1.900E+01    1.917E+01    1.935E+01    1.952E+01    1.969E+01    1.986E+01    2.003E+01    2.020E+01
     2.037E+01    2.054E+01    2.070E+01    2.087E+01    2.104E+01    2.121E+01    2.138E+01    2.155E+01    2.172E+01    2.188E+01
     2.205E+01    2.222E+01    2.238E+01    2.255E+01    2.271E+01    2.288E+01    2.304E+01    2.321E+01    2.337E+01    2.353E+01
     2.370E+01    2.386E+01    2.402E+01    2.418E+01    2.434E+01    2.450E+01    2.465E+01    2.481E+01    2.497E+01    2.512E+01
     2.528E+01    2.543E+01    2.558E+01    2.574E+01    2.589E+01    2.604E+01    2.618E+01    2.633E+01    2.648E+01    2.662E+01
     2.677E+01    2.691E+01    2.705E+01    2.719E+01    2.733E+01    2.746E+01    2.760E+01    2.773E+01    2.787E+01    2.800E+01
     2.813E+01    2.825E+01    2.838E+01    2.851E+01    2.863E+01    2.875E+01    2.887E+01    2.899E+01    2.910E+01    2.922E+01
     2.933E+01    2.944E+01    2.955E+01    2.966E+01    2.976E+01    2.986E+01    2.996E+01    3.006E+01    3.016E+01    3.026E+01
     3.035E+01    3.044E+01    3.053E+01    3.062E+01    3.070E+01    3.079E+01    3.087E+01    3.095E+01    3.102E+01    3.110E+01
     3.117E+01    3.125E+01    3.132E+01    3.139E+01    3.145E+01    3.152E+01    3.158E+01    3.164E+01    3.170E+01    3.176E+01
     3.181E+01    3.186E+01    3.192E+01    3.197E+01    3.201E+01    3.206E+01    3.210E+01    3.215E+01    3.219E+01    3.222E+01
     3.226E+01    3.230E+01    3.233E+01    3.236E+01    3.239E+01    3.242E+01    3.244E+01    3.247E+01    3.249E+01    3.251E+01
     3.253E+01    3.254E+01    3.256E+01    3.257E+01    3.258E+01    3.259E+01    3.260E+01    3.261E+01    3.261E+01    3.262E+01
     3.262E+01    3.262E+01    3.261E+01    3.261E+01    3.260E+01    3.260E+01    3.259E+01    3.258E+01    3.256E+01    3.255E+01
     3.253E+01    3.252E+01    3.250E+01    3.247E+01    3.245E+01    3.243E+01    3.240E+01    3.237E+01    3.235E+01    3.231E+01
     3.228E+01    3.225E+01    3.221E+01    3.218E+01    3.214E+01    3.210E+01    3.205E+01    3.201E+01    3.197E+01    3.192E+01
     3.187E+01    3.182E+01    3.177E+01    3.172E+01    3.167E+01    3.161E+01    3.155E+01    3.149E+01    3.143E+01    3.137E+01
     3.131E+01    3.125E+01    3.118E+01    3.111E+01    3.104E+01    3.097E+01    3.090E+01    3.083E+01    3.076E+01    3.068E+01
     3.060E+01    3.053E+01    3.045E+01    3.037E+01    3.028E+01    3.020E+01    3.012E+01    3.003E+01    2.994E+01    2.986E+01
     2.977E+01    2.968E+01    2.958E+01    2.949E+01    2.940E+01    2.930E+01    2.920E+01    2.911E+01    2.901E+01    2.891E+01
     2.880E+01    2.870E+01    2.860E+01    2.849E+01    2.839E+01    2.828E+01    2.817E+01    2.806E+01    2.795E+01    2.784E+01
     2.773E+01    2.762E+01    2.750E+01    2.739E+01    2.727E+01    2.716E+01    2.704E+01    2.692E+01    2.680E+01    2.668E+01
     2.656E+01    2.643E+01    2.631E+01    2.619E+01    2.606E+01    2.594E+01    2.581E+01    2.568E+01    2.555E+01    2.543E+01
     2.530E+01    2.517E+01    2.504E+01    2.490E+01    2.477E+01    2.464E+01    2.450E+01    2.437E+01    2.423E+01    2.410E+01
     2.396E+01    2.383E+01    2.369E+01    2.355E+01    2.341E+01    2.327E+01    2.313E+01    2.299E+01    2.285E+01    2.271E+01
     2.257E+01    2.243E+01    2.229E+01    2.214E+01    2.200E+01    2.186E+01    2.171E+01    2.157E+01    2.142E+01    2.128E+01
     2.113E+01    2.099E+01    2.084E+01    2.069E+01    2.055E+01    2.040E+01    2.026E+01    2.011E+01    1.996E+01    1.981E+01
     1.967E+01    1.952E+01    1.937E+01    1.923E+01    1.908E+01    1.893E+01    1.879E+01    1.864E+01    1.849E+01    1.834E+01
     1.820E+01    1.805E+01    1.790E+01    1.776E+01    1.761E+01    1.747E+01    1.732E+01    1.718E+01    1.703E+01    1.689E+01
     1.674E+01    1.660E+01    1.645E+01    1.631E+01    1.617E+01    1.602E+01    1.588E+01    1.574E+01
 Ala      Conc. = 5.21E+00
