 LCModel (Version 6.3-1L) Copyright: S.W. Provencher.          Ref.: Magn. Reson. Med. 30:672-679 (1993).                
 Slice#1 Row#6 Col#9  PD_05_press_1_raw_act
 36 lines in following concentration table = NCONC+1
    Conc.  %SD /Cr+PCr  Metabolite                                         
  125.727  53%   0.260 Ala                                                 
   82.452 133%   0.170 Asp                                                 
  218.014  53%   0.451 Cr                                                  
  265.890  45%   0.549 PCr                                                 
   62.833 109%   0.130 GABA                                                
   84.094  82%   0.174 Glc                                                 
  367.047  38%   0.759 Gln                                                 
  678.984  23%   1.403 Glu                                                 
  270.297   6%   0.559 GPC                                                 
    0.000 999%   0.000 PCh                                                 
  190.489  25%   0.394 GSH                                                 
  605.968  25%   1.252 Ins                                                 
    0.000 999%   0.000 Lac                                                 
 1.02E+03   7%   2.100 NAA                                                 
   82.435  99%   0.170 NAAG                                                
   30.231  52% 6.2E-02 Scyllo                                              
   98.096 103%   0.203 Tau                                                 
  161.697  39%   0.334 -CrCH2                                              
  270.297   6%   0.559 GPC+PCh                                             
 1.10E+03   5%   2.270 NAA+NAAG                                            
  483.903   8%   1.000 Cr+PCr                                              
 1.05E+03  21%   2.162 Glu+Gln                                             
    0.000 999%   0.000 Lip13a                                              
  175.340  59%   0.362 Lip13b                                              
    0.000 999%   0.000 Lip09                                               
  719.655  14%   1.487 MM09                                                
   31.839 130% 6.6E-02 Lip20                                               
 1.56E+03  12%   3.230 MM20                                                
  192.111  34%   0.397 MM12                                                
  221.775  65%   0.458 MM14                                                
  331.725  34%   0.686 MM17                                                
  175.340  59%   0.362 Lip13a+Lip13b                                       
  589.226  27%   1.218 MM14+Lip13a+Lip13b+MM12                             
  719.655  14%   1.487 MM09+Lip09                                          
 1.59E+03  12%   3.296 MM20+Lip20                                          
   6 lines in following misc. output table
  FWHM = 0.038 ppm    S/N =   8                                            
  Data shift =-0.023 ppm                                                   
  Ph: -17 deg       5.8 deg/ppm                                            
  alphaB,S = 8.5E+01,   3.5E+01                                            
   14 spline knots.   Ns = 6(1)                                            
   2 inflections.     1 extrema                                            
  498 points on ppm-axis = NY
      4.000000     3.992357     3.984714     3.977070     3.969427     3.961784     3.954141     3.946497     3.938854     3.931211
      3.923568     3.915925     3.908281     3.900638     3.892995     3.885352     3.877708     3.870065     3.862422     3.854779
      3.847136     3.839492     3.831849     3.824206     3.816563     3.808919     3.801276     3.793633     3.785990     3.778347
      3.770703     3.763060     3.755417     3.747774     3.740130     3.732487     3.724844     3.717201     3.709558     3.701914
      3.694271     3.686628     3.678985     3.671341     3.663698     3.656055     3.648412     3.640769     3.633125     3.625482
      3.617839     3.610196     3.602552     3.594909     3.587266     3.579623     3.571980     3.564336     3.556693     3.549050
      3.541407     3.533763     3.526120     3.518477     3.510834     3.503191     3.495547     3.487904     3.480261     3.472618
      3.464974     3.457331     3.449688     3.442045     3.434402     3.426758     3.419115     3.411472     3.403829     3.396185
      3.388542     3.380899     3.373256     3.365613     3.357969     3.350326     3.342683     3.335040     3.327396     3.319753
      3.312110     3.304467     3.296824     3.289180     3.281537     3.273894     3.266251     3.258607     3.250964     3.243321
      3.235678     3.228034     3.220391     3.212748     3.205105     3.197462     3.189818     3.182175     3.174532     3.166889
      3.159245     3.151602     3.143959     3.136316     3.128673     3.121029     3.113386     3.105743     3.098100     3.090456
      3.082813     3.075170     3.067527     3.059884     3.052240     3.044597     3.036954     3.029311     3.021667     3.014024
      3.006381     2.998738     2.991095     2.983451     2.975808     2.968165     2.960522     2.952878     2.945235     2.937592
      2.929949     2.922306     2.914662     2.907019     2.899376     2.891733     2.884089     2.876446     2.868803     2.861160
      2.853517     2.845873     2.838230     2.830587     2.822944     2.815300     2.807657     2.800014     2.792371     2.784728
      2.777084     2.769441     2.761798     2.754155     2.746511     2.738868     2.731225     2.723582     2.715939     2.708295
      2.700652     2.693009     2.685366     2.677722     2.670079     2.662436     2.654793     2.647150     2.639506     2.631863
      2.624220     2.616577     2.608933     2.601290     2.593647     2.586004     2.578361     2.570717     2.563074     2.555431
      2.547788     2.540144     2.532501     2.524858     2.517215     2.509572     2.501928     2.494285     2.486642     2.478999
      2.471355     2.463712     2.456069     2.448426     2.440783     2.433139     2.425496     2.417853     2.410210     2.402566
      2.394923     2.387280     2.379637     2.371994     2.364350     2.356707     2.349064     2.341421     2.333777     2.326134
      2.318491     2.310848     2.303205     2.295561     2.287918     2.280275     2.272632     2.264988     2.257345     2.249702
      2.242059     2.234416     2.226772     2.219129     2.211486     2.203843     2.196199     2.188556     2.180913     2.173270
      2.165627     2.157983     2.150340     2.142697     2.135054     2.127410     2.119767     2.112124     2.104481     2.096838
      2.089194     2.081551     2.073908     2.066265     2.058621     2.050978     2.043335     2.035692     2.028049     2.020405
      2.012762     2.005119     1.997476     1.989833     1.982190     1.974546     1.966903     1.959260     1.951617     1.943974
      1.936331     1.928688     1.921045     1.913402     1.905759     1.898115     1.890472     1.882829     1.875186     1.867543
      1.859900     1.852257     1.844614     1.836971     1.829327     1.821684     1.814041     1.806398     1.798755     1.791112
      1.783469     1.775826     1.768183     1.760540     1.752896     1.745253     1.737610     1.729967     1.722324     1.714681
      1.707038     1.699395     1.691752     1.684108     1.676465     1.668822     1.661179     1.653536     1.645893     1.638250
      1.630607     1.622964     1.615321     1.607677     1.600034     1.592391     1.584748     1.577105     1.569462     1.561819
      1.554176     1.546533     1.538890     1.531246     1.523603     1.515960     1.508317     1.500674     1.493031     1.485388
      1.477745     1.470102     1.462458     1.454815     1.447172     1.439529     1.431886     1.424243     1.416600     1.408957
      1.401314     1.393671     1.386027     1.378384     1.370741     1.363098     1.355455     1.347812     1.340169     1.332526
      1.324883     1.317240     1.309596     1.301953     1.294310     1.286667     1.279024     1.271381     1.263738     1.256095
      1.248452     1.240808     1.233165     1.225522     1.217879     1.210236     1.202593     1.194950     1.187307     1.179664
      1.172021     1.164377     1.156734     1.149091     1.141448     1.133805     1.126162     1.118519     1.110876     1.103233
      1.095590     1.087946     1.080303     1.072660     1.065017     1.057374     1.049731     1.042088     1.034445     1.026802
      1.019158     1.011515     1.003872     0.996229     0.988586     0.980943     0.973300     0.965657     0.958014     0.950371
      0.942727     0.935084     0.927441     0.919798     0.912155     0.904512     0.896869     0.889226     0.881583     0.873940
      0.866296     0.858653     0.851010     0.843367     0.835724     0.828081     0.820438     0.812795     0.805152     0.797508
      0.789865     0.782222     0.774579     0.766936     0.759293     0.751650     0.744007     0.736364     0.728721     0.721077
      0.713434     0.705791     0.698148     0.690505     0.682862     0.675219     0.667576     0.659933     0.652290     0.644646
      0.637003     0.629360     0.621717     0.614074     0.606431     0.598788     0.591145     0.583502     0.575858     0.568215
      0.560572     0.552929     0.545286     0.537643     0.530000     0.522357     0.514714     0.507071     0.499427     0.491784
      0.484141     0.476498     0.468855     0.461212     0.453569     0.445925     0.438282     0.430639     0.422996     0.415353
      0.407710     0.400067     0.392424     0.384780     0.377137     0.369494     0.361851     0.354208     0.346565     0.338922
      0.331278     0.323635     0.315992     0.308349     0.300706     0.293063     0.285420     0.277777     0.270133     0.262490
      0.254847     0.247204     0.239561     0.231918     0.224275     0.216631     0.208988     0.201345
 NY phased data points follow
  -1.08157E+01 -1.18628E+01 -5.45206E+00 -1.06713E+01 -2.08424E+00 -2.47901E+00 -1.93677E+00 -1.61563E+00 -2.40159E+00 -4.57021E+00
   2.01559E+00  2.33016E+00 -3.56195E-01 -3.18286E-03 -1.29472E+00 -2.02768E+00 -5.68626E+00 -5.56135E+00 -8.75077E+00 -4.79521E+00
  -6.17630E+00 -4.96143E+00 -3.79732E+00 -8.41435E+00 -4.30580E+00  6.01816E-01 -3.03418E+00 -6.18791E+00 -3.48750E+00 -2.82077E+00
  -6.03483E+00 -2.47056E+00 -1.83672E-01  5.24153E-01 -4.95621E+00 -3.26820E+00 -2.77509E+00 -5.76518E+00 -5.44465E+00 -5.36292E+00
  -3.92306E+00 -1.39579E+00 -2.62909E+00 -6.83302E+00 -5.95967E+00  9.48080E-02  2.88581E+00 -6.53389E-01 -1.73101E-01 -3.74950E+00
  -2.33570E+00 -3.34109E+00 -2.14642E+00 -5.93334E+00 -3.66477E+00 -3.85739E+00 -6.77185E+00 -7.24504E+00 -6.68229E+00 -5.70036E+00
  -5.27932E+00 -8.63225E+00 -9.14482E+00 -7.64956E+00 -9.29649E+00 -7.97072E+00 -8.13589E+00 -9.90794E+00 -5.44683E+00 -7.85344E+00
  -2.96169E+00 -7.31108E+00 -4.35236E+00 -4.06093E+00 -5.55974E+00 -2.09517E+00 -6.26227E+00 -7.94064E+00 -5.50483E+00 -6.96280E+00
  -7.34697E+00 -5.97597E+00 -6.46037E+00 -1.11299E+01 -7.86591E+00 -4.61586E+00 -3.94272E+00 -6.18552E+00 -3.72531E+00 -6.86278E+00
  -8.40471E+00 -7.35656E+00 -6.14283E+00 -4.98406E+00 -5.29419E+00 -2.61039E+00 -6.42372E+00  6.41811E-02 -4.50677E+00  3.11728E+00
   4.33311E+00  1.15910E+01  2.09171E+01  2.20817E+01  2.32482E+01  1.52869E+01  9.38571E+00  1.52578E+00  3.59210E+00 -8.04754E-01
  -7.54767E+00 -5.52272E+00 -7.94640E-01 -1.37071E+00 -5.14363E+00 -9.48318E+00 -8.32608E+00 -6.02905E+00 -3.50769E+00 -5.63200E+00
  -6.68158E+00 -4.14925E+00 -2.71446E+00 -3.59914E+00  3.67697E+00  4.95080E+00  7.49250E+00  1.42533E+01  1.07600E+01  1.16298E+01
   8.32921E+00 -5.33821E-01 -7.68276E-01 -4.86716E+00 -4.95867E+00 -5.70910E+00 -6.79050E+00 -6.72263E+00 -6.79441E+00 -7.64684E+00
  -9.57027E+00 -7.59683E+00 -1.11206E+01 -5.41689E+00 -5.09265E+00 -7.97060E+00 -8.22559E+00 -5.67261E+00 -7.25223E+00 -8.75765E+00
  -6.99329E+00 -7.59078E+00 -5.67397E+00 -6.33289E+00 -8.78270E+00 -6.42276E+00 -4.92570E+00 -3.40060E+00 -1.04989E+01 -5.03212E+00
  -9.13926E+00 -1.19873E+01 -5.62842E+00 -1.12768E+01 -8.86965E+00 -7.52210E+00 -1.19652E+01 -7.41102E+00 -8.10383E+00 -9.12203E+00
  -9.81821E+00 -9.09480E+00 -7.04498E+00 -1.28978E+01 -1.36437E+01 -1.19090E+01 -1.16300E+01 -1.17938E+01 -1.14178E+01 -1.29827E+01
  -1.13655E+01 -1.52539E+01 -1.14931E+01 -1.06052E+01 -1.57419E+01 -1.07404E+01 -9.76768E+00 -9.29863E+00 -9.14495E+00 -6.20581E+00
  -5.71716E+00 -5.58033E+00 -5.58113E+00 -3.38729E+00 -6.95312E+00 -6.38670E+00 -7.35309E+00 -9.72334E+00 -9.14044E+00 -1.22492E+01
  -1.19481E+01 -5.44107E+00 -4.77507E+00  5.10971E-02 -4.10215E+00 -2.76258E+00 -7.09086E+00 -5.51708E+00 -9.24712E+00 -1.00055E+01
  -6.24200E+00 -5.96101E+00 -6.56118E+00 -2.39500E+00 -5.01815E-01  1.25153E+00 -1.15647E+00  1.79244E+00 -6.17117E-01 -4.24537E+00
  -2.70759E+00 -6.75172E+00 -8.99384E+00 -8.47765E+00 -1.00356E+00 -1.79005E+00 -5.58718E+00  6.19550E-01 -4.24403E+00 -7.57506E-01
  -3.70867E-02 -3.19287E+00 -2.29048E+00 -4.13439E+00 -1.57730E+00 -2.13968E+00  1.80421E+00 -3.71598E+00 -3.67196E+00 -1.78180E+00
  -5.54018E-01 -1.40943E+00 -2.77478E+00 -1.00520E+00 -3.67115E+00 -1.29306E+00 -1.82578E+00  1.05654E+00  3.59361E+00  2.33077E+00
   4.50876E+00  1.92203E+00  2.60128E+00  2.59828E+00  3.30532E+00  6.79714E+00  1.16234E+01  2.28863E+01  2.66190E+01  3.34489E+01
   3.16470E+01  4.16021E+01  3.39538E+01  2.50145E+01  1.24138E+01  5.86075E+00  3.18882E+00 -4.95700E+00  2.89042E+00 -3.77818E-01
  -4.01265E+00  4.74083E-02 -2.99722E+00 -4.44850E+00  7.93855E-01 -4.40660E+00 -1.43609E+00  3.25823E-01 -4.21228E+00 -2.30044E+00
  -6.62800E+00 -4.21059E+00 -3.58115E+00 -2.54248E+00 -4.64549E+00 -4.73962E+00 -4.35432E+00 -2.73789E+00 -4.53267E+00 -9.84287E-01
  -5.09984E+00 -5.41801E+00 -3.12233E+00 -2.63791E+00 -4.84819E+00 -6.71876E+00 -4.56227E+00 -6.04742E+00 -4.25386E+00 -4.97505E+00
  -1.45594E+00 -4.84014E+00 -1.77184E+00 -4.83255E+00 -1.88394E+00 -1.43505E+00 -5.90741E-01 -3.20477E+00 -5.67052E+00 -6.33670E+00
  -7.01980E-01 -7.41307E+00 -2.85976E+00 -4.16767E+00 -7.21215E+00 -3.53300E+00 -3.39244E+00 -3.92575E-01 -5.38312E+00 -3.97773E+00
  -5.55354E+00 -3.79605E+00 -7.80696E-01 -3.64556E+00 -5.56278E+00 -6.08021E+00 -2.24330E+00 -8.10084E+00 -1.07262E+00 -7.29333E+00
  -1.02045E+01 -5.06418E+00 -8.74201E+00 -3.29189E+00 -5.50627E+00 -3.22818E+00 -4.71479E+00 -3.72401E+00 -3.81859E+00 -6.60934E+00
  -8.66871E-01 -4.93955E+00 -3.07122E+00 -1.13697E+00 -3.14471E+00 -6.04518E+00 -2.88267E+00 -4.61432E+00 -3.80390E+00 -1.92724E+00
  -2.39926E+00  3.56436E-01 -6.31251E-01 -3.41419E+00 -2.64756E-01  5.59179E+00 -5.23207E+00 -3.54459E+00 -8.31985E+00 -3.67025E+00
  -3.14541E+00 -1.94511E+00 -6.24720E+00 -3.59493E+00 -7.11179E-01  1.20286E+00 -2.84179E+00 -1.68339E-01 -3.77952E+00 -1.33076E+00
  -2.56982E+00 -1.52970E+00 -1.93923E+00 -6.11731E+00 -1.16033E+01 -4.22820E+00 -4.41206E+00 -5.89334E+00 -8.92036E+00 -6.87261E+00
  -5.79324E+00 -8.47415E+00 -1.10486E+01 -7.09661E+00 -1.01467E+01 -6.72400E+00 -8.26840E+00 -1.02685E+01 -1.11481E+01 -6.19467E+00
  -4.94430E+00 -4.97577E+00 -3.93430E+00 -4.78417E+00 -4.99397E+00  3.82420E-01 -6.23963E-01 -4.19733E+00 -2.24404E-01 -2.36473E+00
  -2.39557E+00  2.30292E-01 -3.62847E+00 -2.42453E+00  5.15554E-01 -9.84885E-01 -1.58923E+00 -1.87839E+00  4.82512E+00  3.14239E+00
   4.29930E+00  4.55190E+00  3.14107E+00  4.19419E+00 -3.50724E-01  3.64053E+00  2.60052E-01  7.20404E-01  1.24654E-01  1.96094E+00
  -3.77872E+00 -3.90155E+00 -1.30611E+00 -2.78520E+00 -1.22461E+00 -4.39877E+00 -6.62927E+00 -3.47224E+00 -5.70316E+00 -3.02818E+00
  -2.52996E-01 -4.87748E+00 -2.97650E+00 -3.47162E+00  5.27102E-01 -5.22895E+00 -4.08815E+00 -6.16601E+00 -4.59094E+00 -5.95456E+00
  -1.53366E+00 -3.00452E+00 -7.06891E+00 -1.06057E+00 -6.21542E+00 -5.71192E+00 -4.59068E+00 -1.31219E+00 -1.22564E+00 -3.62681E+00
  -6.83000E+00 -3.91567E+00 -7.16195E+00 -6.53238E+00 -2.56391E+00 -3.04564E+00 -5.38321E+00 -5.91579E+00 -5.96462E+00 -3.95383E+00
  -4.66100E+00 -1.05196E+01 -3.52170E+00 -2.61930E+00 -8.16480E+00 -6.21794E-01 -8.65634E+00 -4.41689E+00 -8.49887E-02 -3.76488E+00
  -2.94231E+00  3.47301E-01 -1.50808E+00 -3.40353E+00 -3.95755E+00 -4.03098E+00 -2.57382E+00 -3.11014E+00 -2.79392E+00 -2.55869E+00
  -1.69392E+00 -2.40274E+00 -4.26230E+00 -3.19386E+00 -2.78155E+00 -2.37765E+00 -3.02508E+00 -2.45122E+00 -3.93171E+00 -3.76323E+00
  -9.58969E-01 -5.45908E+00  6.48744E-01 -5.80630E+00 -2.18681E+00 -1.03422E+00 -6.96009E+00 -5.11936E+00
 NY points of the fit to the data follow
  -6.69338E+00 -6.75738E+00 -6.64465E+00 -6.32320E+00 -5.79147E+00 -5.00680E+00 -3.94117E+00 -2.70556E+00 -1.33581E+00 -7.32443E-03
   1.00080E+00  1.40653E+00  1.08271E+00  4.52098E-02 -1.54917E+00 -3.21673E+00 -4.42668E+00 -5.11902E+00 -5.59751E+00 -5.87388E+00
  -5.91697E+00 -5.82740E+00 -5.74096E+00 -5.73883E+00 -5.79451E+00 -5.89247E+00 -5.81926E+00 -5.38212E+00 -4.52002E+00 -3.23988E+00
  -1.70175E+00 -4.05702E-01 -2.56643E-02 -6.89105E-01 -1.92976E+00 -3.37199E+00 -4.85331E+00 -6.03540E+00 -6.63343E+00 -6.72860E+00
  -6.46792E+00 -5.96465E+00 -5.31117E+00 -4.50870E+00 -3.54510E+00 -2.56766E+00 -1.78027E+00 -1.27429E+00 -1.26863E+00 -2.05519E+00
  -3.45880E+00 -4.87264E+00 -5.88193E+00 -6.47010E+00 -6.73181E+00 -6.67611E+00 -6.37407E+00 -5.97397E+00 -5.58668E+00 -5.27635E+00
  -5.09908E+00 -5.16355E+00 -5.52947E+00 -6.05296E+00 -6.52629E+00 -6.80071E+00 -6.82857E+00 -6.65466E+00 -6.36705E+00 -6.04536E+00
  -5.74760E+00 -5.51045E+00 -5.31568E+00 -5.18577E+00 -5.17100E+00 -5.27650E+00 -5.43755E+00 -5.64089E+00 -5.92148E+00 -6.19004E+00
  -6.30337E+00 -6.26321E+00 -6.12922E+00 -5.92592E+00 -5.75110E+00 -5.71350E+00 -5.83651E+00 -6.11120E+00 -6.53841E+00 -6.99187E+00
  -7.20800E+00 -7.09734E+00 -6.82375E+00 -6.54761E+00 -6.28313E+00 -5.97606E+00 -5.38999E+00 -3.89967E+00 -1.51539E+00  2.18772E+00
   7.37296E+00  1.32114E+01  1.84582E+01  2.18954E+01  2.20927E+01  1.77819E+01  1.03662E+01  3.40384E+00 -1.06301E+00 -3.92413E+00
  -5.83578E+00 -6.61669E+00 -6.76485E+00 -6.76089E+00 -6.72260E+00 -6.67254E+00 -6.61547E+00 -6.55607E+00 -6.47825E+00 -6.34348E+00
  -6.01637E+00 -5.11790E+00 -3.57826E+00 -1.21548E+00  2.09179E+00  5.86974E+00  9.36743E+00  1.18148E+01  1.23427E+01  1.01325E+01
   5.82989E+00  1.50702E+00 -1.46327E+00 -3.50901E+00 -5.13738E+00 -6.21781E+00 -6.88638E+00 -7.27766E+00 -7.29930E+00 -7.00204E+00
  -6.55501E+00 -6.11596E+00 -5.82162E+00 -5.74400E+00 -5.84928E+00 -6.04646E+00 -6.26340E+00 -6.46156E+00 -6.65450E+00 -6.83270E+00
  -6.97637E+00 -7.09796E+00 -7.20486E+00 -7.28492E+00 -7.33771E+00 -7.39147E+00 -7.45037E+00 -7.54656E+00 -7.70363E+00 -7.90218E+00
  -8.10937E+00 -8.23506E+00 -8.20892E+00 -8.00796E+00 -7.73955E+00 -7.58800E+00 -7.66019E+00 -7.90779E+00 -8.19578E+00 -8.41661E+00
  -8.57302E+00 -8.72363E+00 -8.86864E+00 -9.01631E+00 -9.16482E+00 -9.28652E+00 -9.32129E+00 -9.24882E+00 -9.06236E+00 -8.85585E+00
  -8.78482E+00 -8.87205E+00 -8.93234E+00 -8.84883E+00 -8.66537E+00 -8.42728E+00 -8.12017E+00 -7.66272E+00 -7.00701E+00 -6.21700E+00
  -5.52681E+00 -5.16954E+00 -5.21686E+00 -5.54181E+00 -6.05739E+00 -6.61491E+00 -7.00493E+00 -7.11472E+00 -6.92775E+00 -6.41872E+00
  -5.56144E+00 -4.53754E+00 -3.64226E+00 -3.13032E+00 -3.14805E+00 -3.70901E+00 -4.81805E+00 -6.30644E+00 -7.79166E+00 -8.90318E+00
  -9.32115E+00 -8.91447E+00 -7.61012E+00 -5.69745E+00 -3.80429E+00 -2.40862E+00 -1.72580E+00 -2.01049E+00 -3.38254E+00 -5.34860E+00
  -7.17303E+00 -8.33764E+00 -8.75221E+00 -8.36228E+00 -7.11225E+00 -5.34826E+00 -3.73198E+00 -2.76467E+00 -2.44242E+00 -2.49973E+00
  -2.78853E+00 -3.14664E+00 -3.35299E+00 -3.25839E+00 -2.84339E+00 -2.25382E+00 -1.71206E+00 -1.30998E+00 -9.85564E-01 -8.96812E-01
  -1.17719E+00 -1.67598E+00 -2.06040E+00 -2.21743E+00 -2.13642E+00 -1.71184E+00 -1.03808E+00 -4.16203E-01 -1.80063E-02  3.03197E-01
   6.87338E-01  1.16253E+00  1.88023E+00  3.09360E+00  5.40952E+00  8.74190E+00  1.32925E+01  1.94547E+01  2.63389E+01  3.26258E+01
   3.71322E+01  3.82475E+01  3.37772E+01  2.44286E+01  1.46379E+01  7.83173E+00  3.35395E+00  2.15879E-02 -1.80644E+00 -2.55541E+00
  -2.99257E+00 -3.27552E+00 -3.40558E+00 -3.43238E+00 -3.41669E+00 -3.41118E+00 -3.46739E+00 -3.60699E+00 -3.80317E+00 -4.01575E+00
  -4.21781E+00 -4.38706E+00 -4.50720E+00 -4.57240E+00 -4.59070E+00 -4.58171E+00 -4.55949E+00 -4.52740E+00 -4.49153E+00 -4.45409E+00
  -4.40846E+00 -4.35060E+00 -4.28432E+00 -4.21262E+00 -4.13734E+00 -4.06348E+00 -3.99332E+00 -3.92484E+00 -3.85900E+00 -3.79871E+00
  -3.74397E+00 -3.69495E+00 -3.65464E+00 -3.62698E+00 -3.61449E+00 -3.61721E+00 -3.63486E+00 -3.66636E+00 -3.70925E+00 -3.76096E+00
  -3.81900E+00 -3.88055E+00 -3.94302E+00 -4.00375E+00 -4.05991E+00 -4.10849E+00 -4.14622E+00 -4.16942E+00 -4.17350E+00 -4.15096E+00
  -4.08549E+00 -3.95269E+00 -3.78324E+00 -3.58523E+00 -3.39704E+00 -3.32030E+00 -3.44138E+00 -3.80713E+00 -4.43711E+00 -5.24198E+00
  -5.96801E+00 -6.33360E+00 -6.24273E+00 -5.83975E+00 -5.22190E+00 -4.43626E+00 -3.63627E+00 -3.06767E+00 -2.90021E+00 -3.04136E+00
  -3.24760E+00 -3.42100E+00 -3.58292E+00 -3.69017E+00 -3.71792E+00 -3.68693E+00 -3.60651E+00 -3.47965E+00 -3.30971E+00 -3.10326E+00
  -2.87173E+00 -2.63150E+00 -2.40289E+00 -2.20768E+00 -2.06614E+00 -1.99372E+00 -1.99863E+00 -2.08034E+00 -2.22982E+00 -2.43119E+00
  -2.66473E+00 -2.91009E+00 -3.14940E+00 -3.36911E+00 -3.56096E+00 -3.72160E+00 -3.85183E+00 -3.95519E+00 -4.03670E+00 -4.10156E+00
  -4.15441E+00 -4.19885E+00 -4.23751E+00 -4.27205E+00 -4.30343E+00 -4.33191E+00 -4.35734E+00 -4.37921E+00 -4.39691E+00 -4.40976E+00
  -4.41703E+00 -4.41776E+00 -4.41094E+00 -4.39535E+00 -4.36973E+00 -4.33262E+00 -4.28239E+00 -4.21701E+00 -4.13429E+00 -4.03177E+00
  -3.90698E+00 -3.75730E+00 -3.58022E+00 -3.37330E+00 -3.13463E+00 -2.86299E+00 -2.55817E+00 -2.22113E+00 -1.85425E+00 -1.46145E+00
  -1.04849E+00 -6.22844E-01 -1.93716E-01  2.28436E-01  6.32169E-01  1.00563E+00  1.33698E+00  1.61517E+00  1.83050E+00  1.97541E+00
   2.04477E+00  2.03631E+00  1.95064E+00  1.79127E+00  1.56441E+00  1.27862E+00  9.44155E-01  5.72405E-01  1.75112E-01 -2.36085E-01
  -6.50272E-01 -1.05761E+00 -1.44983E+00 -1.82034E+00 -2.16435E+00 -2.47873E+00 -2.76186E+00 -3.01340E+00 -3.23417E+00 -3.42583E+00
  -3.59064E+00 -3.73114E+00 -3.85001E+00 -3.94989E+00 -4.03341E+00 -4.10299E+00 -4.16082E+00 -4.20877E+00 -4.24845E+00 -4.28121E+00
  -4.30827E+00 -4.33061E+00 -4.34907E+00 -4.36422E+00 -4.37660E+00 -4.38661E+00 -4.39468E+00 -4.40110E+00 -4.40611E+00 -4.40984E+00
  -4.41246E+00 -4.41409E+00 -4.41493E+00 -4.41505E+00 -4.41452E+00 -4.41334E+00 -4.41161E+00 -4.40939E+00 -4.40678E+00 -4.40379E+00
  -4.40045E+00 -4.39672E+00 -4.39269E+00 -4.38839E+00 -4.38388E+00 -4.37914E+00 -4.37416E+00 -4.36893E+00 -4.36354E+00 -4.35799E+00
  -4.35233E+00 -4.34649E+00 -4.34050E+00 -4.33433E+00 -4.32807E+00 -4.32173E+00 -4.31530E+00 -4.30873E+00 -4.30205E+00 -4.29526E+00
  -4.28844E+00 -4.28155E+00 -4.27461E+00 -4.26754E+00 -4.26040E+00 -4.25319E+00 -4.24597E+00 -4.23871E+00 -4.23139E+00 -4.22396E+00
  -4.21650E+00 -4.20900E+00 -4.20151E+00 -4.19397E+00 -4.18636E+00 -4.17868E+00 -4.17098E+00 -4.16327E+00
 NY background values follow
    -8.908E+00   -8.899E+00   -8.890E+00   -8.881E+00   -8.872E+00   -8.863E+00   -8.854E+00   -8.845E+00   -8.836E+00   -8.827E+00
    -8.818E+00   -8.809E+00   -8.800E+00   -8.791E+00   -8.781E+00   -8.772E+00   -8.763E+00   -8.754E+00   -8.745E+00   -8.736E+00
    -8.727E+00   -8.718E+00   -8.709E+00   -8.700E+00   -8.691E+00   -8.682E+00   -8.673E+00   -8.664E+00   -8.655E+00   -8.646E+00
    -8.637E+00   -8.628E+00   -8.619E+00   -8.610E+00   -8.601E+00   -8.592E+00   -8.583E+00   -8.574E+00   -8.565E+00   -8.556E+00
    -8.547E+00   -8.538E+00   -8.529E+00   -8.519E+00   -8.510E+00   -8.501E+00   -8.492E+00   -8.483E+00   -8.474E+00   -8.465E+00
    -8.456E+00   -8.447E+00   -8.438E+00   -8.429E+00   -8.420E+00   -8.411E+00   -8.402E+00   -8.393E+00   -8.384E+00   -8.375E+00
    -8.366E+00   -8.356E+00   -8.347E+00   -8.338E+00   -8.329E+00   -8.320E+00   -8.311E+00   -8.302E+00   -8.293E+00   -8.284E+00
    -8.275E+00   -8.266E+00   -8.257E+00   -8.248E+00   -8.238E+00   -8.229E+00   -8.220E+00   -8.211E+00   -8.202E+00   -8.193E+00
    -8.184E+00   -8.175E+00   -8.166E+00   -8.157E+00   -8.148E+00   -8.139E+00   -8.129E+00   -8.120E+00   -8.111E+00   -8.102E+00
    -8.093E+00   -8.084E+00   -8.075E+00   -8.066E+00   -8.057E+00   -8.048E+00   -8.038E+00   -8.029E+00   -8.020E+00   -8.011E+00
    -8.002E+00   -7.993E+00   -7.984E+00   -7.975E+00   -7.966E+00   -7.957E+00   -7.947E+00   -7.938E+00   -7.929E+00   -7.920E+00
    -7.911E+00   -7.902E+00   -7.893E+00   -7.884E+00   -7.875E+00   -7.865E+00   -7.856E+00   -7.847E+00   -7.838E+00   -7.829E+00
    -7.820E+00   -7.811E+00   -7.802E+00   -7.792E+00   -7.783E+00   -7.774E+00   -7.765E+00   -7.756E+00   -7.747E+00   -7.738E+00
    -7.729E+00   -7.719E+00   -7.710E+00   -7.701E+00   -7.692E+00   -7.683E+00   -7.674E+00   -7.665E+00   -7.655E+00   -7.646E+00
    -7.637E+00   -7.628E+00   -7.619E+00   -7.610E+00   -7.601E+00   -7.591E+00   -7.582E+00   -7.573E+00   -7.564E+00   -7.555E+00
    -7.546E+00   -7.537E+00   -7.527E+00   -7.518E+00   -7.509E+00   -7.500E+00   -7.491E+00   -7.482E+00   -7.472E+00   -7.463E+00
    -7.454E+00   -7.445E+00   -7.436E+00   -7.427E+00   -7.418E+00   -7.408E+00   -7.399E+00   -7.390E+00   -7.381E+00   -7.372E+00
    -7.363E+00   -7.353E+00   -7.344E+00   -7.335E+00   -7.326E+00   -7.317E+00   -7.308E+00   -7.298E+00   -7.289E+00   -7.280E+00
    -7.271E+00   -7.262E+00   -7.253E+00   -7.243E+00   -7.234E+00   -7.225E+00   -7.216E+00   -7.207E+00   -7.197E+00   -7.188E+00
    -7.179E+00   -7.170E+00   -7.161E+00   -7.152E+00   -7.142E+00   -7.133E+00   -7.124E+00   -7.115E+00   -7.106E+00   -7.096E+00
    -7.087E+00   -7.078E+00   -7.069E+00   -7.060E+00   -7.050E+00   -7.041E+00   -7.032E+00   -7.023E+00   -7.014E+00   -7.005E+00
    -6.995E+00   -6.986E+00   -6.977E+00   -6.968E+00   -6.959E+00   -6.949E+00   -6.940E+00   -6.931E+00   -6.922E+00   -6.913E+00
    -6.903E+00   -6.894E+00   -6.885E+00   -6.876E+00   -6.867E+00   -6.857E+00   -6.848E+00   -6.839E+00   -6.830E+00   -6.820E+00
    -6.811E+00   -6.802E+00   -6.793E+00   -6.784E+00   -6.774E+00   -6.765E+00   -6.756E+00   -6.747E+00   -6.738E+00   -6.728E+00
    -6.719E+00   -6.710E+00   -6.701E+00   -6.691E+00   -6.682E+00   -6.673E+00   -6.664E+00   -6.655E+00   -6.645E+00   -6.636E+00
    -6.627E+00   -6.618E+00   -6.608E+00   -6.599E+00   -6.590E+00   -6.581E+00   -6.572E+00   -6.562E+00   -6.553E+00   -6.544E+00
    -6.535E+00   -6.525E+00   -6.516E+00   -6.507E+00   -6.498E+00   -6.489E+00   -6.479E+00   -6.470E+00   -6.461E+00   -6.452E+00
    -6.442E+00   -6.433E+00   -6.424E+00   -6.415E+00   -6.405E+00   -6.396E+00   -6.387E+00   -6.378E+00   -6.368E+00   -6.359E+00
    -6.350E+00   -6.341E+00   -6.331E+00   -6.322E+00   -6.313E+00   -6.304E+00   -6.295E+00   -6.285E+00   -6.276E+00   -6.267E+00
    -6.258E+00   -6.248E+00   -6.239E+00   -6.230E+00   -6.221E+00   -6.211E+00   -6.202E+00   -6.193E+00   -6.184E+00   -6.174E+00
    -6.165E+00   -6.156E+00   -6.147E+00   -6.137E+00   -6.128E+00   -6.119E+00   -6.110E+00   -6.100E+00   -6.091E+00   -6.082E+00
    -6.073E+00   -6.063E+00   -6.054E+00   -6.045E+00   -6.035E+00   -6.026E+00   -6.017E+00   -6.008E+00   -5.998E+00   -5.989E+00
    -5.980E+00   -5.971E+00   -5.961E+00   -5.952E+00   -5.943E+00   -5.934E+00   -5.924E+00   -5.915E+00   -5.906E+00   -5.897E+00
    -5.887E+00   -5.878E+00   -5.869E+00   -5.859E+00   -5.850E+00   -5.841E+00   -5.832E+00   -5.822E+00   -5.813E+00   -5.804E+00
    -5.795E+00   -5.785E+00   -5.776E+00   -5.767E+00   -5.757E+00   -5.748E+00   -5.739E+00   -5.730E+00   -5.720E+00   -5.711E+00
    -5.702E+00   -5.693E+00   -5.683E+00   -5.674E+00   -5.665E+00   -5.655E+00   -5.646E+00   -5.637E+00   -5.628E+00   -5.618E+00
    -5.609E+00   -5.600E+00   -5.590E+00   -5.581E+00   -5.572E+00   -5.563E+00   -5.553E+00   -5.544E+00   -5.535E+00   -5.526E+00
    -5.516E+00   -5.507E+00   -5.498E+00   -5.488E+00   -5.479E+00   -5.470E+00   -5.461E+00   -5.451E+00   -5.442E+00   -5.433E+00
    -5.423E+00   -5.414E+00   -5.405E+00   -5.395E+00   -5.386E+00   -5.377E+00   -5.368E+00   -5.358E+00   -5.349E+00   -5.340E+00
    -5.330E+00   -5.321E+00   -5.312E+00   -5.303E+00   -5.293E+00   -5.284E+00   -5.275E+00   -5.265E+00   -5.256E+00   -5.247E+00
    -5.237E+00   -5.228E+00   -5.219E+00   -5.210E+00   -5.200E+00   -5.191E+00   -5.182E+00   -5.172E+00   -5.163E+00   -5.154E+00
    -5.145E+00   -5.135E+00   -5.126E+00   -5.117E+00   -5.107E+00   -5.098E+00   -5.089E+00   -5.079E+00   -5.070E+00   -5.061E+00
    -5.051E+00   -5.042E+00   -5.033E+00   -5.024E+00   -5.014E+00   -5.005E+00   -4.996E+00   -4.986E+00   -4.977E+00   -4.968E+00
    -4.958E+00   -4.949E+00   -4.940E+00   -4.931E+00   -4.921E+00   -4.912E+00   -4.903E+00   -4.893E+00   -4.884E+00   -4.875E+00
    -4.865E+00   -4.856E+00   -4.847E+00   -4.837E+00   -4.828E+00   -4.819E+00   -4.810E+00   -4.800E+00   -4.791E+00   -4.782E+00
    -4.772E+00   -4.763E+00   -4.754E+00   -4.744E+00   -4.735E+00   -4.726E+00   -4.716E+00   -4.707E+00   -4.698E+00   -4.688E+00
    -4.679E+00   -4.670E+00   -4.661E+00   -4.651E+00   -4.642E+00   -4.633E+00   -4.623E+00   -4.614E+00   -4.605E+00   -4.595E+00
    -4.586E+00   -4.577E+00   -4.567E+00   -4.558E+00   -4.549E+00   -4.539E+00   -4.530E+00   -4.521E+00   -4.511E+00   -4.502E+00
    -4.493E+00   -4.484E+00   -4.474E+00   -4.465E+00   -4.456E+00   -4.446E+00   -4.437E+00   -4.428E+00   -4.418E+00   -4.409E+00
    -4.400E+00   -4.390E+00   -4.381E+00   -4.372E+00   -4.362E+00   -4.353E+00   -4.344E+00   -4.334E+00
 Ala      Conc. = 1.26E+02
