 LCModel (Version 6.3-1L) Copyright: S.W. Provencher.          Ref.: Magn. Reson. Med. 30:672-679 (1993).                
 Slice#3 Row#7 Col#2  PD_05_press_1_raw_act
 36 lines in following concentration table = NCONC+1
    Conc.  %SD /Cr+PCr  Metabolite                                         
    0.000 999%   0.000 Ala                                                 
    1.363 199%   0.000 Asp                                                 
    0.000 999%   0.000 Cr                                                  
    0.000 999%   0.000 PCr                                                 
    0.989 164%   0.000 GABA                                                
    0.960 170%   0.000 Glc                                                 
  148.037  53%   0.000 Gln                                                 
   50.077 166%   0.000 Glu                                                 
    8.782  74%   0.000 GPC                                                 
    0.000 999%   0.000 PCh                                                 
    8.390 293%   0.000 GSH                                                 
  119.893  73%   0.000 Ins                                                 
    0.000 999%   0.000 Lac                                                 
    4.153 469%   0.000 NAA                                                 
    0.000 999%   0.000 NAAG                                                
    0.302 180%   0.000 Scyllo                                              
    1.516 179%   0.000 Tau                                                 
 5.49E-02 999%   0.000 -CrCH2                                              
    8.782  74%   0.000 GPC+PCh                                             
    4.153 469%   0.000 NAA+NAAG                                            
    0.000 999%   0.000 Cr+PCr                                              
  198.113  61%   0.000 Glu+Gln                                             
    0.000 999%   0.000 Lip13a                                              
   26.575 149%   0.000 Lip13b                                              
   22.274 263%   0.000 Lip09                                               
   34.158 205%   0.000 MM09                                                
   16.284 269%   0.000 Lip20                                               
   26.243 419%   0.000 MM20                                                
    2.904 999%   0.000 MM12                                                
    4.556 999%   0.000 MM14                                                
  168.042  37%   0.000 MM17                                                
   26.575 149%   0.000 Lip13a+Lip13b                                       
   34.036 323%   0.000 MM14+Lip13a+Lip13b+MM12                             
   56.432 114%   0.000 MM09+Lip09                                          
   42.526 264%   0.000 MM20+Lip20                                          
   6 lines in following misc. output table
  FWHM = 0.054 ppm    S/N =   0                                            
  Data shift = 0.153 ppm                                                   
  Ph: -94 deg       1.1 deg/ppm                                            
  alphaB,S = 4.1E-01,   2.5E+01                                            
   14 spline knots.   Ns = 5(1)                                            
  ( 6) 2 infls.   ( 3) 1 extrs.                                            
  498 points on ppm-axis = NY
      4.000000     3.992357     3.984714     3.977070     3.969427     3.961784     3.954141     3.946497     3.938854     3.931211
      3.923568     3.915925     3.908281     3.900638     3.892995     3.885352     3.877708     3.870065     3.862422     3.854779
      3.847136     3.839492     3.831849     3.824206     3.816563     3.808919     3.801276     3.793633     3.785990     3.778347
      3.770703     3.763060     3.755417     3.747774     3.740130     3.732487     3.724844     3.717201     3.709558     3.701914
      3.694271     3.686628     3.678985     3.671341     3.663698     3.656055     3.648412     3.640769     3.633125     3.625482
      3.617839     3.610196     3.602552     3.594909     3.587266     3.579623     3.571980     3.564336     3.556693     3.549050
      3.541407     3.533763     3.526120     3.518477     3.510834     3.503191     3.495547     3.487904     3.480261     3.472618
      3.464974     3.457331     3.449688     3.442045     3.434402     3.426758     3.419115     3.411472     3.403829     3.396185
      3.388542     3.380899     3.373256     3.365613     3.357969     3.350326     3.342683     3.335040     3.327396     3.319753
      3.312110     3.304467     3.296824     3.289180     3.281537     3.273894     3.266251     3.258607     3.250964     3.243321
      3.235678     3.228034     3.220391     3.212748     3.205105     3.197462     3.189818     3.182175     3.174532     3.166889
      3.159245     3.151602     3.143959     3.136316     3.128673     3.121029     3.113386     3.105743     3.098100     3.090456
      3.082813     3.075170     3.067527     3.059884     3.052240     3.044597     3.036954     3.029311     3.021667     3.014024
      3.006381     2.998738     2.991095     2.983451     2.975808     2.968165     2.960522     2.952878     2.945235     2.937592
      2.929949     2.922306     2.914662     2.907019     2.899376     2.891733     2.884089     2.876446     2.868803     2.861160
      2.853517     2.845873     2.838230     2.830587     2.822944     2.815300     2.807657     2.800014     2.792371     2.784728
      2.777084     2.769441     2.761798     2.754155     2.746511     2.738868     2.731225     2.723582     2.715939     2.708295
      2.700652     2.693009     2.685366     2.677722     2.670079     2.662436     2.654793     2.647150     2.639506     2.631863
      2.624220     2.616577     2.608933     2.601290     2.593647     2.586004     2.578361     2.570717     2.563074     2.555431
      2.547788     2.540144     2.532501     2.524858     2.517215     2.509572     2.501928     2.494285     2.486642     2.478999
      2.471355     2.463712     2.456069     2.448426     2.440783     2.433139     2.425496     2.417853     2.410210     2.402566
      2.394923     2.387280     2.379637     2.371994     2.364350     2.356707     2.349064     2.341421     2.333777     2.326134
      2.318491     2.310848     2.303205     2.295561     2.287918     2.280275     2.272632     2.264988     2.257345     2.249702
      2.242059     2.234416     2.226772     2.219129     2.211486     2.203843     2.196199     2.188556     2.180913     2.173270
      2.165627     2.157983     2.150340     2.142697     2.135054     2.127410     2.119767     2.112124     2.104481     2.096838
      2.089194     2.081551     2.073908     2.066265     2.058621     2.050978     2.043335     2.035692     2.028049     2.020405
      2.012762     2.005119     1.997476     1.989833     1.982190     1.974546     1.966903     1.959260     1.951617     1.943974
      1.936331     1.928688     1.921045     1.913402     1.905759     1.898115     1.890472     1.882829     1.875186     1.867543
      1.859900     1.852257     1.844614     1.836971     1.829327     1.821684     1.814041     1.806398     1.798755     1.791112
      1.783469     1.775826     1.768183     1.760540     1.752896     1.745253     1.737610     1.729967     1.722324     1.714681
      1.707038     1.699395     1.691752     1.684108     1.676465     1.668822     1.661179     1.653536     1.645893     1.638250
      1.630607     1.622964     1.615321     1.607677     1.600034     1.592391     1.584748     1.577105     1.569462     1.561819
      1.554176     1.546533     1.538890     1.531246     1.523603     1.515960     1.508317     1.500674     1.493031     1.485388
      1.477745     1.470102     1.462458     1.454815     1.447172     1.439529     1.431886     1.424243     1.416600     1.408957
      1.401314     1.393671     1.386027     1.378384     1.370741     1.363098     1.355455     1.347812     1.340169     1.332526
      1.324883     1.317240     1.309596     1.301953     1.294310     1.286667     1.279024     1.271381     1.263738     1.256095
      1.248452     1.240808     1.233165     1.225522     1.217879     1.210236     1.202593     1.194950     1.187307     1.179664
      1.172021     1.164377     1.156734     1.149091     1.141448     1.133805     1.126162     1.118519     1.110876     1.103233
      1.095590     1.087946     1.080303     1.072660     1.065017     1.057374     1.049731     1.042088     1.034445     1.026802
      1.019158     1.011515     1.003872     0.996229     0.988586     0.980943     0.973300     0.965657     0.958014     0.950371
      0.942727     0.935084     0.927441     0.919798     0.912155     0.904512     0.896869     0.889226     0.881583     0.873940
      0.866296     0.858653     0.851010     0.843367     0.835724     0.828081     0.820438     0.812795     0.805152     0.797508
      0.789865     0.782222     0.774579     0.766936     0.759293     0.751650     0.744007     0.736364     0.728721     0.721077
      0.713434     0.705791     0.698148     0.690505     0.682862     0.675219     0.667576     0.659933     0.652290     0.644646
      0.637003     0.629360     0.621717     0.614074     0.606431     0.598788     0.591145     0.583502     0.575858     0.568215
      0.560572     0.552929     0.545286     0.537643     0.530000     0.522357     0.514714     0.507071     0.499427     0.491784
      0.484141     0.476498     0.468855     0.461212     0.453569     0.445925     0.438282     0.430639     0.422996     0.415353
      0.407710     0.400067     0.392424     0.384780     0.377137     0.369494     0.361851     0.354208     0.346565     0.338922
      0.331278     0.323635     0.315992     0.308349     0.300706     0.293063     0.285420     0.277777     0.270133     0.262490
      0.254847     0.247204     0.239561     0.231918     0.224275     0.216631     0.208988     0.201345
 NY phased data points follow
  -4.72067E+01 -4.59933E+01 -4.39886E+01 -4.36630E+01 -4.25714E+01 -4.26584E+01 -4.25624E+01 -3.98771E+01 -3.98182E+01 -3.96416E+01
  -4.10430E+01 -3.93843E+01 -4.01173E+01 -4.06916E+01 -3.92136E+01 -3.90822E+01 -3.70112E+01 -3.74175E+01 -3.83746E+01 -3.66330E+01
  -3.66121E+01 -3.69163E+01 -3.45263E+01 -3.48796E+01 -3.50113E+01 -3.41462E+01 -3.24237E+01 -3.47957E+01 -3.21155E+01 -3.49695E+01
  -3.27978E+01 -3.32842E+01 -3.18525E+01 -3.39322E+01 -3.03884E+01 -3.08199E+01 -3.21247E+01 -3.11926E+01 -3.23290E+01 -3.13479E+01
  -3.11125E+01 -2.91671E+01 -2.90147E+01 -2.94708E+01 -3.10104E+01 -2.85790E+01 -2.75261E+01 -2.88719E+01 -2.80579E+01 -2.74907E+01
  -2.59554E+01 -2.68657E+01 -2.66175E+01 -2.54344E+01 -2.71423E+01 -2.67036E+01 -2.74433E+01 -2.62118E+01 -2.62480E+01 -2.52412E+01
  -2.44417E+01 -2.47990E+01 -2.49143E+01 -2.52988E+01 -2.57948E+01 -2.26156E+01 -2.46174E+01 -2.41126E+01 -2.60448E+01 -2.05200E+01
  -2.39913E+01 -2.38984E+01 -2.30399E+01 -2.49311E+01 -2.36913E+01 -2.33124E+01 -2.03332E+01 -2.18304E+01 -2.20835E+01 -2.10538E+01
  -2.10898E+01 -2.20418E+01 -2.08345E+01 -1.93082E+01 -2.30142E+01 -2.09125E+01 -2.33256E+01 -2.04500E+01 -2.13336E+01 -2.13405E+01
  -2.04430E+01 -2.07672E+01 -2.14220E+01 -2.09299E+01 -2.14675E+01 -2.02363E+01 -1.88290E+01 -2.00279E+01 -2.02120E+01 -1.87510E+01
  -1.88877E+01 -1.95693E+01 -2.06196E+01 -1.62628E+01 -1.72178E+01 -1.90566E+01 -1.91258E+01 -2.02216E+01 -1.85734E+01 -1.85338E+01
  -2.02845E+01 -1.87799E+01 -1.73151E+01 -1.88120E+01 -1.72066E+01 -1.84298E+01 -1.83394E+01 -1.89027E+01 -1.80380E+01 -1.79853E+01
  -1.88750E+01 -1.99315E+01 -1.84127E+01 -2.07366E+01 -1.80285E+01 -1.76097E+01 -1.85575E+01 -1.90390E+01 -1.84201E+01 -1.81790E+01
  -1.84713E+01 -1.78712E+01 -1.72226E+01 -1.67533E+01 -1.89149E+01 -1.75881E+01 -1.64088E+01 -1.78651E+01 -1.76447E+01 -1.72891E+01
  -1.80478E+01 -1.88256E+01 -1.86853E+01 -1.84412E+01 -2.07706E+01 -1.77182E+01 -1.98362E+01 -1.95957E+01 -1.66967E+01 -2.07039E+01
  -1.87690E+01 -2.01237E+01 -1.93797E+01 -1.81172E+01 -1.76799E+01 -2.03450E+01 -1.73054E+01 -1.71128E+01 -1.77825E+01 -1.83519E+01
  -2.02829E+01 -1.91288E+01 -1.86217E+01 -2.00825E+01 -1.92921E+01 -1.95438E+01 -2.15218E+01 -1.96739E+01 -2.02446E+01 -2.00341E+01
  -2.21416E+01 -2.07541E+01 -2.15350E+01 -2.12416E+01 -2.14923E+01 -2.20345E+01 -2.27012E+01 -2.15729E+01 -2.03807E+01 -2.08239E+01
  -2.33831E+01 -2.24446E+01 -2.14523E+01 -2.29946E+01 -2.26949E+01 -2.13782E+01 -2.37695E+01 -2.45106E+01 -2.43159E+01 -2.43712E+01
  -2.53175E+01 -2.46595E+01 -2.50084E+01 -2.17713E+01 -2.53438E+01 -2.60645E+01 -2.47075E+01 -2.54370E+01 -2.56888E+01 -2.50948E+01
  -2.56347E+01 -2.57884E+01 -2.46996E+01 -2.76068E+01 -2.42123E+01 -2.62915E+01 -2.69813E+01 -2.62903E+01 -2.72897E+01 -2.61686E+01
  -2.56076E+01 -2.71383E+01 -2.68035E+01 -2.67359E+01 -2.64923E+01 -2.56470E+01 -2.62765E+01 -2.59583E+01 -2.83683E+01 -2.51062E+01
  -2.58294E+01 -2.59028E+01 -2.76084E+01 -2.69392E+01 -2.31553E+01 -2.61339E+01 -2.45692E+01 -2.39512E+01 -2.69396E+01 -2.57279E+01
  -2.52150E+01 -2.55980E+01 -2.53574E+01 -2.54979E+01 -2.29133E+01 -2.36391E+01 -2.42532E+01 -1.95076E+01 -2.15213E+01 -2.30373E+01
  -2.20282E+01 -2.11038E+01 -2.15954E+01 -2.28368E+01 -2.42203E+01 -2.34451E+01 -2.29096E+01 -2.38653E+01 -2.39766E+01 -2.30619E+01
  -2.39901E+01 -2.11287E+01 -2.02694E+01 -2.13485E+01 -2.35017E+01 -2.03976E+01 -2.14673E+01 -2.14164E+01 -1.94700E+01 -2.13208E+01
  -2.17207E+01 -1.94631E+01 -1.78044E+01 -1.86612E+01 -2.02068E+01 -1.84352E+01 -1.90180E+01 -1.91624E+01 -1.97861E+01 -1.79937E+01
  -1.83017E+01 -1.76692E+01 -1.59650E+01 -1.71621E+01 -1.40469E+01 -1.76263E+01 -1.59146E+01 -1.84535E+01 -1.70026E+01 -1.46761E+01
  -1.50851E+01 -1.78095E+01 -1.60403E+01 -1.77274E+01 -1.67347E+01 -1.51213E+01 -1.55205E+01 -1.64601E+01 -1.48992E+01 -1.34030E+01
  -1.49213E+01 -1.38847E+01 -1.40434E+01 -1.44278E+01 -1.20151E+01 -1.32951E+01 -1.28779E+01 -1.41121E+01 -1.35562E+01 -1.19038E+01
  -1.30317E+01 -1.62423E+01 -1.38882E+01 -1.08528E+01 -1.34937E+01 -1.37803E+01 -1.17124E+01 -1.38849E+01 -1.17658E+01 -1.25408E+01
  -1.25585E+01 -9.77355E+00 -1.40097E+01 -1.41938E+01 -1.10898E+01 -1.31059E+01 -1.16327E+01 -1.29494E+01 -1.24379E+01 -8.86221E+00
  -1.39460E+01 -1.19096E+01 -1.15343E+01 -1.19819E+01 -1.15540E+01 -1.34180E+01 -1.22017E+01 -1.17455E+01 -1.33297E+01 -1.29875E+01
  -1.20765E+01 -1.32079E+01 -1.12237E+01 -1.09380E+01 -1.13122E+01 -1.16700E+01 -1.07875E+01 -1.38103E+01 -1.09541E+01 -1.25365E+01
  -1.26498E+01 -1.36083E+01 -1.42491E+01 -1.24519E+01 -1.11875E+01 -1.12795E+01 -1.27992E+01 -1.39000E+01 -1.18571E+01 -1.20835E+01
  -1.15282E+01 -1.14568E+01 -1.17483E+01 -1.11721E+01 -1.20350E+01 -1.22098E+01 -1.11365E+01 -1.13496E+01 -1.11744E+01 -1.08972E+01
  -1.24550E+01 -1.02759E+01 -1.14215E+01 -1.29802E+01 -9.47220E+00 -8.88449E+00 -1.39041E+01 -1.00376E+01 -1.24464E+01 -1.24004E+01
  -1.14876E+01 -1.21333E+01 -1.14238E+01 -1.05418E+01 -1.19240E+01 -1.13149E+01 -1.32671E+01 -1.30800E+01 -1.12787E+01 -1.18729E+01
  -1.24350E+01 -1.10160E+01 -1.11667E+01 -1.14525E+01 -1.11925E+01 -1.25809E+01 -1.13486E+01 -1.11261E+01 -8.75875E+00 -1.18147E+01
  -1.05517E+01 -1.20946E+01 -1.04916E+01 -9.32930E+00 -9.64691E+00 -1.25574E+01 -1.18852E+01 -1.06121E+01 -7.65048E+00 -9.08631E+00
  -1.07342E+01 -1.10716E+01 -1.13331E+01 -1.01379E+01 -1.14056E+01 -1.01305E+01 -6.91620E+00 -1.04984E+01 -1.01153E+01 -9.74099E+00
  -8.54639E+00 -9.44784E+00 -1.03706E+01 -9.51368E+00 -7.90811E+00 -9.59958E+00 -1.06345E+01 -6.59784E+00 -9.25909E+00 -8.83317E+00
  -8.06921E+00 -7.69959E+00 -8.54722E+00 -8.91709E+00 -9.31175E+00 -8.64755E+00 -9.16003E+00 -8.15452E+00 -8.68614E+00 -9.99198E+00
  -9.57084E+00 -8.24400E+00 -7.76923E+00 -1.00964E+01 -6.66336E+00 -8.89600E+00 -9.60845E+00 -8.13451E+00 -8.83931E+00 -7.40397E+00
  -1.03210E+01 -7.57502E+00 -7.13330E+00 -8.63232E+00 -7.33883E+00 -9.13429E+00 -7.90189E+00 -7.33810E+00 -8.38041E+00 -8.48153E+00
  -8.13714E+00 -9.23868E+00 -9.13190E+00 -7.58723E+00 -8.82198E+00 -8.94811E+00 -8.50805E+00 -6.96206E+00 -7.95316E+00 -8.14779E+00
  -6.30570E+00 -7.63421E+00 -8.76832E+00 -6.40024E+00 -6.69201E+00 -6.21364E+00 -7.98535E+00 -7.25009E+00 -6.35914E+00 -6.26529E+00
  -6.72556E+00 -8.11764E+00 -9.96739E+00 -7.61690E+00 -7.27703E+00 -8.07503E+00 -6.51758E+00 -7.13316E+00 -9.88989E+00 -6.38571E+00
  -7.09047E+00 -6.89017E+00 -5.42347E+00 -7.41177E+00 -6.82386E+00 -6.52952E+00 -7.15971E+00 -5.05588E+00 -8.40856E+00 -5.25986E+00
  -6.87277E+00 -5.86982E+00 -6.74242E+00 -7.95682E+00 -8.61882E+00 -7.00848E+00 -8.80022E+00 -4.01493E+00
 NY points of the fit to the data follow
  -4.32907E+01 -4.30226E+01 -4.27365E+01 -4.24233E+01 -4.20932E+01 -4.17574E+01 -4.14195E+01 -4.10802E+01 -4.07408E+01 -4.04032E+01
  -4.00675E+01 -3.97319E+01 -3.93949E+01 -3.90567E+01 -3.87181E+01 -3.83794E+01 -3.80401E+01 -3.76993E+01 -3.73551E+01 -3.70051E+01
  -3.66467E+01 -3.63032E+01 -3.60047E+01 -3.57477E+01 -3.55060E+01 -3.52493E+01 -3.49613E+01 -3.46022E+01 -3.41715E+01 -3.37136E+01
  -3.32572E+01 -3.28157E+01 -3.24115E+01 -3.20908E+01 -3.18670E+01 -3.17228E+01 -3.16279E+01 -3.15294E+01 -3.13718E+01 -3.11164E+01
  -3.07898E+01 -3.04301E+01 -3.00281E+01 -2.95708E+01 -2.91003E+01 -2.86744E+01 -2.83072E+01 -2.79938E+01 -2.77369E+01 -2.75492E+01
  -2.74405E+01 -2.74005E+01 -2.73909E+01 -2.73544E+01 -2.72225E+01 -2.69682E+01 -2.66401E+01 -2.62958E+01 -2.59721E+01 -2.56826E+01
  -2.54315E+01 -2.52193E+01 -2.50406E+01 -2.48878E+01 -2.47519E+01 -2.46195E+01 -2.44674E+01 -2.42696E+01 -2.40316E+01 -2.37756E+01
  -2.35273E+01 -2.32992E+01 -2.30951E+01 -2.29156E+01 -2.27561E+01 -2.26120E+01 -2.24785E+01 -2.23495E+01 -2.22186E+01 -2.20773E+01
  -2.19305E+01 -2.17862E+01 -2.16596E+01 -2.15591E+01 -2.14822E+01 -2.14151E+01 -2.13457E+01 -2.12672E+01 -2.11737E+01 -2.10558E+01
  -2.09078E+01 -2.07277E+01 -2.05233E+01 -2.03207E+01 -2.01463E+01 -2.00085E+01 -1.98990E+01 -1.97825E+01 -1.95958E+01 -1.93668E+01
  -1.91515E+01 -1.89616E+01 -1.87890E+01 -1.86352E+01 -1.85262E+01 -1.84902E+01 -1.85315E+01 -1.86278E+01 -1.87332E+01 -1.87933E+01
  -1.87759E+01 -1.87242E+01 -1.86692E+01 -1.86152E+01 -1.85653E+01 -1.85207E+01 -1.84818E+01 -1.84475E+01 -1.84172E+01 -1.83898E+01
  -1.83645E+01 -1.83406E+01 -1.83185E+01 -1.82984E+01 -1.82807E+01 -1.82659E+01 -1.82547E+01 -1.82473E+01 -1.82420E+01 -1.82380E+01
  -1.82403E+01 -1.82528E+01 -1.82757E+01 -1.83078E+01 -1.83470E+01 -1.83908E+01 -1.84377E+01 -1.84849E+01 -1.85312E+01 -1.85750E+01
  -1.86152E+01 -1.86539E+01 -1.86980E+01 -1.87518E+01 -1.88164E+01 -1.88909E+01 -1.89722E+01 -1.90569E+01 -1.91429E+01 -1.92293E+01
  -1.93177E+01 -1.94082E+01 -1.95005E+01 -1.95943E+01 -1.96898E+01 -1.97873E+01 -1.98866E+01 -1.99876E+01 -2.00902E+01 -2.01943E+01
  -2.02998E+01 -2.04072E+01 -2.05162E+01 -2.06261E+01 -2.07363E+01 -2.08471E+01 -2.09589E+01 -2.10720E+01 -2.11859E+01 -2.13002E+01
  -2.14150E+01 -2.15305E+01 -2.16467E+01 -2.17631E+01 -2.18797E+01 -2.19961E+01 -2.21126E+01 -2.22289E+01 -2.23443E+01 -2.24576E+01
  -2.25690E+01 -2.26798E+01 -2.27897E+01 -2.28976E+01 -2.30029E+01 -2.31043E+01 -2.32007E+01 -2.32920E+01 -2.33825E+01 -2.34842E+01
  -2.35991E+01 -2.37322E+01 -2.38886E+01 -2.40593E+01 -2.42282E+01 -2.43791E+01 -2.44853E+01 -2.45174E+01 -2.44746E+01 -2.43848E+01
  -2.42607E+01 -2.41266E+01 -2.40279E+01 -2.40121E+01 -2.41240E+01 -2.44096E+01 -2.48080E+01 -2.51872E+01 -2.54769E+01 -2.56624E+01
  -2.57345E+01 -2.56648E+01 -2.54532E+01 -2.51481E+01 -2.48217E+01 -2.45486E+01 -2.44060E+01 -2.44376E+01 -2.45727E+01 -2.47156E+01
  -2.48319E+01 -2.49072E+01 -2.49239E+01 -2.48752E+01 -2.47779E+01 -2.46480E+01 -2.45069E+01 -2.43799E+01 -2.42835E+01 -2.42194E+01
  -2.41860E+01 -2.41999E+01 -2.42337E+01 -2.42319E+01 -2.41690E+01 -2.40466E+01 -2.38588E+01 -2.36212E+01 -2.33948E+01 -2.31931E+01
  -2.30139E+01 -2.28804E+01 -2.28266E+01 -2.28591E+01 -2.29272E+01 -2.29727E+01 -2.29460E+01 -2.28137E+01 -2.25762E+01 -2.22784E+01
  -2.19745E+01 -2.16774E+01 -2.14069E+01 -2.11792E+01 -2.09974E+01 -2.08438E+01 -2.07028E+01 -2.05691E+01 -2.04302E+01 -2.02750E+01
  -2.01009E+01 -1.99120E+01 -1.97179E+01 -1.95324E+01 -1.93667E+01 -1.92211E+01 -1.90882E+01 -1.89514E+01 -1.88032E+01 -1.86484E+01
  -1.84891E+01 -1.83266E+01 -1.81632E+01 -1.79990E+01 -1.78335E+01 -1.76686E+01 -1.75060E+01 -1.73466E+01 -1.71905E+01 -1.70366E+01
  -1.68825E+01 -1.67266E+01 -1.65685E+01 -1.64077E+01 -1.62440E+01 -1.60775E+01 -1.59086E+01 -1.57378E+01 -1.55654E+01 -1.53913E+01
  -1.52159E+01 -1.50397E+01 -1.48631E+01 -1.46870E+01 -1.45123E+01 -1.43404E+01 -1.41723E+01 -1.40093E+01 -1.38527E+01 -1.37039E+01
  -1.35641E+01 -1.34343E+01 -1.33152E+01 -1.32074E+01 -1.31112E+01 -1.30265E+01 -1.29529E+01 -1.28898E+01 -1.28365E+01 -1.27917E+01
  -1.27545E+01 -1.27234E+01 -1.26973E+01 -1.26749E+01 -1.26552E+01 -1.26371E+01 -1.26198E+01 -1.26027E+01 -1.25851E+01 -1.25668E+01
  -1.25473E+01 -1.25267E+01 -1.25048E+01 -1.24817E+01 -1.24576E+01 -1.24327E+01 -1.24071E+01 -1.23810E+01 -1.23547E+01 -1.23284E+01
  -1.23023E+01 -1.22765E+01 -1.22511E+01 -1.22263E+01 -1.22022E+01 -1.21787E+01 -1.21559E+01 -1.21339E+01 -1.21126E+01 -1.20917E+01
  -1.20713E+01 -1.20508E+01 -1.20299E+01 -1.20078E+01 -1.19836E+01 -1.19563E+01 -1.19246E+01 -1.18873E+01 -1.18436E+01 -1.17931E+01
  -1.17365E+01 -1.16752E+01 -1.16121E+01 -1.15507E+01 -1.14949E+01 -1.14487E+01 -1.14148E+01 -1.13949E+01 -1.13889E+01 -1.13949E+01
  -1.14099E+01 -1.14298E+01 -1.14509E+01 -1.14696E+01 -1.14834E+01 -1.14909E+01 -1.14914E+01 -1.14851E+01 -1.14729E+01 -1.14557E+01
  -1.14344E+01 -1.14099E+01 -1.13830E+01 -1.13541E+01 -1.13237E+01 -1.12919E+01 -1.12589E+01 -1.12246E+01 -1.11892E+01 -1.11526E+01
  -1.11147E+01 -1.10755E+01 -1.10349E+01 -1.09927E+01 -1.09490E+01 -1.09036E+01 -1.08564E+01 -1.08074E+01 -1.07564E+01 -1.07035E+01
  -1.06486E+01 -1.05918E+01 -1.05332E+01 -1.04729E+01 -1.04111E+01 -1.03481E+01 -1.02842E+01 -1.02198E+01 -1.01553E+01 -1.00913E+01
  -1.00282E+01 -9.96654E+00 -9.90675E+00 -9.84929E+00 -9.79450E+00 -9.74268E+00 -9.69401E+00 -9.64856E+00 -9.60633E+00 -9.56717E+00
  -9.53088E+00 -9.49716E+00 -9.46563E+00 -9.43591E+00 -9.40755E+00 -9.38013E+00 -9.35322E+00 -9.32644E+00 -9.29944E+00 -9.27194E+00
  -9.24368E+00 -9.21450E+00 -9.18427E+00 -9.15290E+00 -9.12037E+00 -9.08670E+00 -9.05191E+00 -9.01608E+00 -8.97927E+00 -8.94159E+00
  -8.90313E+00 -8.86399E+00 -8.82426E+00 -8.78405E+00 -8.74344E+00 -8.70251E+00 -8.66136E+00 -8.62003E+00 -8.57861E+00 -8.53715E+00
  -8.49571E+00 -8.45432E+00 -8.41305E+00 -8.37193E+00 -8.33100E+00 -8.29030E+00 -8.24985E+00 -8.20969E+00 -8.16985E+00 -8.13036E+00
  -8.09124E+00 -8.05252E+00 -8.01422E+00 -7.97635E+00 -7.93892E+00 -7.90191E+00 -7.86532E+00 -7.82913E+00 -7.79333E+00 -7.75792E+00
  -7.72289E+00 -7.68822E+00 -7.65390E+00 -7.61992E+00 -7.58627E+00 -7.55294E+00 -7.51991E+00 -7.48718E+00 -7.45473E+00 -7.42255E+00
  -7.39064E+00 -7.35896E+00 -7.32752E+00 -7.29630E+00 -7.26528E+00 -7.23446E+00 -7.20383E+00 -7.17336E+00 -7.14305E+00 -7.11288E+00
  -7.08285E+00 -7.05293E+00 -7.02312E+00 -6.99340E+00 -6.96376E+00 -6.93418E+00 -6.90466E+00 -6.87518E+00 -6.84572E+00 -6.81628E+00
  -6.78684E+00 -6.75739E+00 -6.72791E+00 -6.69840E+00 -6.66884E+00 -6.63921E+00 -6.60950E+00 -6.57971E+00
 NY background values follow
    -4.358E+01   -4.325E+01   -4.291E+01   -4.257E+01   -4.224E+01   -4.190E+01   -4.157E+01   -4.123E+01   -4.090E+01   -4.056E+01
    -4.023E+01   -3.990E+01   -3.957E+01   -3.923E+01   -3.890E+01   -3.857E+01   -3.825E+01   -3.792E+01   -3.759E+01   -3.727E+01
    -3.695E+01   -3.662E+01   -3.630E+01   -3.599E+01   -3.567E+01   -3.535E+01   -3.504E+01   -3.473E+01   -3.442E+01   -3.411E+01
    -3.380E+01   -3.350E+01   -3.320E+01   -3.290E+01   -3.260E+01   -3.231E+01   -3.201E+01   -3.172E+01   -3.144E+01   -3.115E+01
    -3.087E+01   -3.059E+01   -3.032E+01   -3.004E+01   -2.977E+01   -2.951E+01   -2.924E+01   -2.898E+01   -2.873E+01   -2.847E+01
    -2.822E+01   -2.797E+01   -2.773E+01   -2.749E+01   -2.725E+01   -2.701E+01   -2.678E+01   -2.655E+01   -2.633E+01   -2.610E+01
    -2.588E+01   -2.567E+01   -2.545E+01   -2.524E+01   -2.504E+01   -2.483E+01   -2.463E+01   -2.443E+01   -2.424E+01   -2.405E+01
    -2.386E+01   -2.367E+01   -2.349E+01   -2.331E+01   -2.313E+01   -2.296E+01   -2.279E+01   -2.262E+01   -2.246E+01   -2.229E+01
    -2.214E+01   -2.198E+01   -2.183E+01   -2.168E+01   -2.153E+01   -2.139E+01   -2.125E+01   -2.111E+01   -2.098E+01   -2.084E+01
    -2.072E+01   -2.059E+01   -2.047E+01   -2.035E+01   -2.023E+01   -2.012E+01   -2.001E+01   -1.990E+01   -1.980E+01   -1.969E+01
    -1.960E+01   -1.950E+01   -1.941E+01   -1.932E+01   -1.924E+01   -1.916E+01   -1.908E+01   -1.900E+01   -1.893E+01   -1.886E+01
    -1.880E+01   -1.874E+01   -1.868E+01   -1.863E+01   -1.858E+01   -1.853E+01   -1.849E+01   -1.845E+01   -1.841E+01   -1.838E+01
    -1.835E+01   -1.833E+01   -1.831E+01   -1.829E+01   -1.828E+01   -1.827E+01   -1.827E+01   -1.827E+01   -1.827E+01   -1.828E+01
    -1.829E+01   -1.830E+01   -1.832E+01   -1.835E+01   -1.837E+01   -1.841E+01   -1.844E+01   -1.848E+01   -1.853E+01   -1.857E+01
    -1.863E+01   -1.868E+01   -1.874E+01   -1.880E+01   -1.887E+01   -1.894E+01   -1.901E+01   -1.909E+01   -1.917E+01   -1.925E+01
    -1.933E+01   -1.942E+01   -1.951E+01   -1.960E+01   -1.970E+01   -1.979E+01   -1.989E+01   -1.999E+01   -2.009E+01   -2.019E+01
    -2.030E+01   -2.040E+01   -2.051E+01   -2.062E+01   -2.073E+01   -2.084E+01   -2.095E+01   -2.106E+01   -2.118E+01   -2.129E+01
    -2.140E+01   -2.152E+01   -2.163E+01   -2.174E+01   -2.186E+01   -2.197E+01   -2.209E+01   -2.220E+01   -2.231E+01   -2.242E+01
    -2.253E+01   -2.264E+01   -2.275E+01   -2.286E+01   -2.297E+01   -2.307E+01   -2.318E+01   -2.328E+01   -2.338E+01   -2.348E+01
    -2.357E+01   -2.367E+01   -2.376E+01   -2.385E+01   -2.394E+01   -2.402E+01   -2.410E+01   -2.418E+01   -2.426E+01   -2.433E+01
    -2.440E+01   -2.447E+01   -2.453E+01   -2.460E+01   -2.465E+01   -2.470E+01   -2.475E+01   -2.480E+01   -2.484E+01   -2.488E+01
    -2.491E+01   -2.494E+01   -2.496E+01   -2.498E+01   -2.499E+01   -2.500E+01   -2.500E+01   -2.500E+01   -2.500E+01   -2.498E+01
    -2.497E+01   -2.494E+01   -2.491E+01   -2.488E+01   -2.484E+01   -2.479E+01   -2.474E+01   -2.468E+01   -2.461E+01   -2.454E+01
    -2.446E+01   -2.438E+01   -2.429E+01   -2.420E+01   -2.410E+01   -2.399E+01   -2.388E+01   -2.377E+01   -2.365E+01   -2.353E+01
    -2.340E+01   -2.328E+01   -2.314E+01   -2.300E+01   -2.286E+01   -2.272E+01   -2.257E+01   -2.243E+01   -2.227E+01   -2.212E+01
    -2.196E+01   -2.180E+01   -2.164E+01   -2.148E+01   -2.132E+01   -2.115E+01   -2.099E+01   -2.082E+01   -2.065E+01   -2.048E+01
    -2.031E+01   -2.014E+01   -1.997E+01   -1.980E+01   -1.963E+01   -1.946E+01   -1.929E+01   -1.912E+01   -1.896E+01   -1.879E+01
    -1.863E+01   -1.846E+01   -1.830E+01   -1.814E+01   -1.798E+01   -1.783E+01   -1.767E+01   -1.752E+01   -1.736E+01   -1.722E+01
    -1.707E+01   -1.692E+01   -1.678E+01   -1.663E+01   -1.649E+01   -1.635E+01   -1.622E+01   -1.608E+01   -1.595E+01   -1.582E+01
    -1.569E+01   -1.557E+01   -1.544E+01   -1.532E+01   -1.520E+01   -1.508E+01   -1.496E+01   -1.485E+01   -1.474E+01   -1.463E+01
    -1.452E+01   -1.442E+01   -1.432E+01   -1.422E+01   -1.412E+01   -1.402E+01   -1.393E+01   -1.384E+01   -1.375E+01   -1.367E+01
    -1.359E+01   -1.351E+01   -1.343E+01   -1.335E+01   -1.328E+01   -1.321E+01   -1.314E+01   -1.308E+01   -1.302E+01   -1.296E+01
    -1.290E+01   -1.285E+01   -1.279E+01   -1.274E+01   -1.270E+01   -1.265E+01   -1.261E+01   -1.257E+01   -1.253E+01   -1.249E+01
    -1.245E+01   -1.242E+01   -1.238E+01   -1.235E+01   -1.232E+01   -1.229E+01   -1.227E+01   -1.224E+01   -1.221E+01   -1.219E+01
    -1.217E+01   -1.214E+01   -1.212E+01   -1.210E+01   -1.208E+01   -1.206E+01   -1.204E+01   -1.202E+01   -1.200E+01   -1.198E+01
    -1.197E+01   -1.195E+01   -1.193E+01   -1.191E+01   -1.189E+01   -1.187E+01   -1.186E+01   -1.184E+01   -1.182E+01   -1.180E+01
    -1.177E+01   -1.175E+01   -1.173E+01   -1.171E+01   -1.168E+01   -1.166E+01   -1.163E+01   -1.161E+01   -1.158E+01   -1.155E+01
    -1.153E+01   -1.150E+01   -1.147E+01   -1.144E+01   -1.141E+01   -1.137E+01   -1.134E+01   -1.131E+01   -1.128E+01   -1.124E+01
    -1.121E+01   -1.117E+01   -1.114E+01   -1.110E+01   -1.106E+01   -1.103E+01   -1.099E+01   -1.095E+01   -1.091E+01   -1.087E+01
    -1.083E+01   -1.079E+01   -1.075E+01   -1.071E+01   -1.067E+01   -1.063E+01   -1.059E+01   -1.054E+01   -1.050E+01   -1.046E+01
    -1.041E+01   -1.037E+01   -1.033E+01   -1.028E+01   -1.024E+01   -1.019E+01   -1.015E+01   -1.010E+01   -1.006E+01   -1.001E+01
    -9.963E+00   -9.917E+00   -9.870E+00   -9.824E+00   -9.777E+00   -9.730E+00   -9.683E+00   -9.636E+00   -9.589E+00   -9.541E+00
    -9.494E+00   -9.447E+00   -9.400E+00   -9.352E+00   -9.305E+00   -9.258E+00   -9.211E+00   -9.164E+00   -9.117E+00   -9.070E+00
    -9.024E+00   -8.977E+00   -8.931E+00   -8.885E+00   -8.839E+00   -8.793E+00   -8.747E+00   -8.702E+00   -8.657E+00   -8.612E+00
    -8.568E+00   -8.524E+00   -8.480E+00   -8.437E+00   -8.393E+00   -8.351E+00   -8.309E+00   -8.267E+00   -8.225E+00   -8.184E+00
    -8.144E+00   -8.104E+00   -8.064E+00   -8.025E+00   -7.987E+00   -7.948E+00   -7.911E+00   -7.874E+00   -7.837E+00   -7.801E+00
    -7.765E+00   -7.729E+00   -7.694E+00   -7.660E+00   -7.625E+00   -7.591E+00   -7.558E+00   -7.524E+00   -7.491E+00   -7.459E+00
    -7.426E+00   -7.394E+00   -7.362E+00   -7.330E+00   -7.299E+00   -7.267E+00   -7.236E+00   -7.205E+00   -7.175E+00   -7.144E+00
    -7.114E+00   -7.083E+00   -7.053E+00   -7.023E+00   -6.993E+00   -6.963E+00   -6.933E+00   -6.903E+00   -6.873E+00   -6.844E+00
    -6.814E+00   -6.784E+00   -6.754E+00   -6.724E+00   -6.694E+00   -6.664E+00   -6.634E+00   -6.604E+00
 Asp      Conc. = 1.36E+00
