 LCModel (Version 6.3-1L) Copyright: S.W. Provencher.          Ref.: Magn. Reson. Med. 30:672-679 (1993).                
 Slice#2 Row#9 Col#13  PD_05_press_1_raw_act
 36 lines in following concentration table = NCONC+1
    Conc.  %SD /Cr+PCr  Metabolite                                         
    4.856 999% 8.7E-02 Ala                                                 
   17.907  82%   0.323 Asp                                                 
   55.514  29%   1.000 Cr                                                  
    0.000 999%   0.000 PCr                                                 
    9.784  91%   0.176 GABA                                                
   11.504  77%   0.207 Glc                                                 
    0.000 999%   0.000 Gln                                                 
   73.426 142%   1.323 Glu                                                 
    0.601 999% 1.1E-02 GPC                                                 
   11.121 390%   0.200 PCh                                                 
    0.000 999%   0.000 GSH                                                 
   81.750  96%   1.473 Ins                                                 
  219.663  42%   3.957 Lac                                                 
   42.515  88%   0.766 NAA                                                 
  199.413  18%   3.592 NAAG                                                
    3.795  76% 6.8E-02 Scyllo                                              
   18.537  79%   0.334 Tau                                                 
    7.258 132%   0.131 -CrCH2                                              
   11.723  54%   0.211 GPC+PCh                                             
  241.927  10%   4.358 NAA+NAAG                                            
   55.514  29%   1.000 Cr+PCr                                              
   73.426 142%   1.323 Glu+Gln                                             
 4.51E+03  13%  81.254 Lip13a                                              
  253.431  28%   4.565 Lip13b                                              
 1.84E+03  12%  33.179 Lip09                                               
    0.000 999%   0.000 MM09                                                
  245.497  55%   4.422 Lip20                                               
    0.000 999%   0.000 MM20                                                
    0.000 999%   0.000 MM12                                                
 2.06E+03  20%  37.052 MM14                                                
 1.78E+03  20%  32.071 MM17                                                
 4.76E+03  12%  85.819 Lip13a+Lip13b                                       
 6.82E+03   9% 122.871 MM14+Lip13a+Lip13b+MM12                             
 1.84E+03  12%  33.179 MM09+Lip09                                          
  245.497  55%   4.422 MM20+Lip20                                          
   6 lines in following misc. output table
  FWHM = 0.069 ppm    S/N =   9                                            
  Data shift =-0.008 ppm                                                   
  Ph: -59 deg     -27.0 deg/ppm                                            
  alphaB,S = 9.8E-01,   2.0E+02                                            
   14 spline knots.   Ns =10(1)                                            
  (16) 3 infls.   (16) 1 extrs.                                            
  498 points on ppm-axis = NY
      4.000000     3.992357     3.984714     3.977070     3.969427     3.961784     3.954141     3.946497     3.938854     3.931211
      3.923568     3.915925     3.908281     3.900638     3.892995     3.885352     3.877708     3.870065     3.862422     3.854779
      3.847136     3.839492     3.831849     3.824206     3.816563     3.808919     3.801276     3.793633     3.785990     3.778347
      3.770703     3.763060     3.755417     3.747774     3.740130     3.732487     3.724844     3.717201     3.709558     3.701914
      3.694271     3.686628     3.678985     3.671341     3.663698     3.656055     3.648412     3.640769     3.633125     3.625482
      3.617839     3.610196     3.602552     3.594909     3.587266     3.579623     3.571980     3.564336     3.556693     3.549050
      3.541407     3.533763     3.526120     3.518477     3.510834     3.503191     3.495547     3.487904     3.480261     3.472618
      3.464974     3.457331     3.449688     3.442045     3.434402     3.426758     3.419115     3.411472     3.403829     3.396185
      3.388542     3.380899     3.373256     3.365613     3.357969     3.350326     3.342683     3.335040     3.327396     3.319753
      3.312110     3.304467     3.296824     3.289180     3.281537     3.273894     3.266251     3.258607     3.250964     3.243321
      3.235678     3.228034     3.220391     3.212748     3.205105     3.197462     3.189818     3.182175     3.174532     3.166889
      3.159245     3.151602     3.143959     3.136316     3.128673     3.121029     3.113386     3.105743     3.098100     3.090456
      3.082813     3.075170     3.067527     3.059884     3.052240     3.044597     3.036954     3.029311     3.021667     3.014024
      3.006381     2.998738     2.991095     2.983451     2.975808     2.968165     2.960522     2.952878     2.945235     2.937592
      2.929949     2.922306     2.914662     2.907019     2.899376     2.891733     2.884089     2.876446     2.868803     2.861160
      2.853517     2.845873     2.838230     2.830587     2.822944     2.815300     2.807657     2.800014     2.792371     2.784728
      2.777084     2.769441     2.761798     2.754155     2.746511     2.738868     2.731225     2.723582     2.715939     2.708295
      2.700652     2.693009     2.685366     2.677722     2.670079     2.662436     2.654793     2.647150     2.639506     2.631863
      2.624220     2.616577     2.608933     2.601290     2.593647     2.586004     2.578361     2.570717     2.563074     2.555431
      2.547788     2.540144     2.532501     2.524858     2.517215     2.509572     2.501928     2.494285     2.486642     2.478999
      2.471355     2.463712     2.456069     2.448426     2.440783     2.433139     2.425496     2.417853     2.410210     2.402566
      2.394923     2.387280     2.379637     2.371994     2.364350     2.356707     2.349064     2.341421     2.333777     2.326134
      2.318491     2.310848     2.303205     2.295561     2.287918     2.280275     2.272632     2.264988     2.257345     2.249702
      2.242059     2.234416     2.226772     2.219129     2.211486     2.203843     2.196199     2.188556     2.180913     2.173270
      2.165627     2.157983     2.150340     2.142697     2.135054     2.127410     2.119767     2.112124     2.104481     2.096838
      2.089194     2.081551     2.073908     2.066265     2.058621     2.050978     2.043335     2.035692     2.028049     2.020405
      2.012762     2.005119     1.997476     1.989833     1.982190     1.974546     1.966903     1.959260     1.951617     1.943974
      1.936331     1.928688     1.921045     1.913402     1.905759     1.898115     1.890472     1.882829     1.875186     1.867543
      1.859900     1.852257     1.844614     1.836971     1.829327     1.821684     1.814041     1.806398     1.798755     1.791112
      1.783469     1.775826     1.768183     1.760540     1.752896     1.745253     1.737610     1.729967     1.722324     1.714681
      1.707038     1.699395     1.691752     1.684108     1.676465     1.668822     1.661179     1.653536     1.645893     1.638250
      1.630607     1.622964     1.615321     1.607677     1.600034     1.592391     1.584748     1.577105     1.569462     1.561819
      1.554176     1.546533     1.538890     1.531246     1.523603     1.515960     1.508317     1.500674     1.493031     1.485388
      1.477745     1.470102     1.462458     1.454815     1.447172     1.439529     1.431886     1.424243     1.416600     1.408957
      1.401314     1.393671     1.386027     1.378384     1.370741     1.363098     1.355455     1.347812     1.340169     1.332526
      1.324883     1.317240     1.309596     1.301953     1.294310     1.286667     1.279024     1.271381     1.263738     1.256095
      1.248452     1.240808     1.233165     1.225522     1.217879     1.210236     1.202593     1.194950     1.187307     1.179664
      1.172021     1.164377     1.156734     1.149091     1.141448     1.133805     1.126162     1.118519     1.110876     1.103233
      1.095590     1.087946     1.080303     1.072660     1.065017     1.057374     1.049731     1.042088     1.034445     1.026802
      1.019158     1.011515     1.003872     0.996229     0.988586     0.980943     0.973300     0.965657     0.958014     0.950371
      0.942727     0.935084     0.927441     0.919798     0.912155     0.904512     0.896869     0.889226     0.881583     0.873940
      0.866296     0.858653     0.851010     0.843367     0.835724     0.828081     0.820438     0.812795     0.805152     0.797508
      0.789865     0.782222     0.774579     0.766936     0.759293     0.751650     0.744007     0.736364     0.728721     0.721077
      0.713434     0.705791     0.698148     0.690505     0.682862     0.675219     0.667576     0.659933     0.652290     0.644646
      0.637003     0.629360     0.621717     0.614074     0.606431     0.598788     0.591145     0.583502     0.575858     0.568215
      0.560572     0.552929     0.545286     0.537643     0.530000     0.522357     0.514714     0.507071     0.499427     0.491784
      0.484141     0.476498     0.468855     0.461212     0.453569     0.445925     0.438282     0.430639     0.422996     0.415353
      0.407710     0.400067     0.392424     0.384780     0.377137     0.369494     0.361851     0.354208     0.346565     0.338922
      0.331278     0.323635     0.315992     0.308349     0.300706     0.293063     0.285420     0.277777     0.270133     0.262490
      0.254847     0.247204     0.239561     0.231918     0.224275     0.216631     0.208988     0.201345
 NY phased data points follow
   1.79404E+00  1.89091E+00  5.59971E-01  1.55896E+00  2.17750E+00  1.16280E+00  1.98888E+00  1.75867E+00  2.23761E+00  1.84707E+00
   1.65411E+00  3.41213E+00  2.10300E+00  1.34815E+00  2.28667E+00  3.12941E+00  3.10702E+00  3.40459E+00  3.06996E+00  2.97223E+00
   2.16871E+00  1.88986E+00  1.62697E+00  2.15701E+00  1.90615E+00  2.11943E+00  2.72738E+00  2.74098E+00  2.37156E+00  2.55448E+00
   1.18242E+00  3.86640E+00  3.40145E+00  4.03466E+00  2.61516E+00  3.47579E-01  2.08312E+00  2.48799E+00  8.64076E-01  2.19409E+00
   1.52914E+00  2.81251E+00  2.07427E+00  3.02174E+00  2.32817E+00  2.59422E+00  2.02519E+00  2.88447E+00  2.67908E+00  3.09833E+00
   3.99385E+00  3.56887E+00  1.58214E+00  1.85246E+00  2.10754E+00  3.97312E+00  4.93673E+00  1.85328E+00  3.84890E+00  3.17139E+00
   4.31522E+00  3.02666E+00  2.20652E+00  3.75721E+00  2.75607E+00  2.31895E+00  4.25019E+00  2.59136E+00  2.71228E+00  3.99384E+00
   2.41420E+00  2.07721E+00  2.38912E+00  3.56661E+00  8.98187E-01  3.04629E+00  3.66993E+00  3.31298E+00  3.50590E+00  2.04500E+00
   3.92407E+00  4.04650E+00  3.06911E+00  5.10082E+00  3.29835E+00  2.81040E+00  2.86154E+00  2.45494E+00  2.86243E+00  4.27027E+00
   3.06541E+00  4.40894E+00  3.01779E+00  2.13998E+00  1.42901E+00  3.84082E+00  3.04855E+00  4.51349E+00  2.45345E+00  2.77900E+00
   3.20939E+00  2.96228E+00  4.03886E+00  4.31306E+00  2.69085E+00  4.46122E+00  4.26746E+00  2.91729E+00  5.13799E+00  4.18534E+00
   4.10416E+00  1.87082E+00  4.35749E+00  3.07639E+00  3.57819E+00  3.32625E+00  3.57696E+00  4.45440E+00  5.08410E+00  1.96893E+00
   4.86451E+00  4.07660E+00  2.84944E+00  5.63977E+00  3.37390E+00  3.94113E+00  3.99934E+00  3.35028E+00  4.72447E+00  5.34885E+00
   5.34605E+00  4.98853E+00  6.06864E+00  4.04423E+00  3.86525E+00  4.05547E+00  2.93260E+00  3.36851E+00  3.51448E+00  1.92840E+00
   4.53236E+00  5.39269E+00  2.51867E+00  3.39760E+00  3.26849E+00  3.96172E+00  3.99028E+00  4.08110E+00  2.44556E+00  3.18177E+00
   3.51117E+00  2.86806E+00  4.19683E+00  3.14937E+00  3.16190E+00  3.39264E+00  4.50224E+00  3.83956E+00  5.02995E+00  4.10756E+00
   4.14685E+00  3.52645E+00  3.89559E+00  4.39191E+00  5.38138E+00  2.96095E+00  5.84706E+00  3.88697E+00  3.45990E+00  4.00330E+00
   5.23816E+00  3.63453E+00  4.75415E+00  2.34328E+00  3.44956E+00  4.49772E+00  3.86093E+00  3.31173E+00  5.13273E+00  3.96286E+00
   3.86933E+00  2.41030E+00  5.19111E+00  5.06248E+00  5.39805E+00  2.75436E+00  3.50576E+00  4.28011E+00  6.94167E+00  4.88902E+00
   4.40516E+00  5.08347E+00  4.57270E+00  5.19870E+00  4.48508E+00  4.22260E+00  4.22885E+00  5.05872E+00  3.66283E+00  4.86743E+00
   4.93648E+00  5.94377E+00  5.03838E+00  4.28823E+00  4.10750E+00  5.87892E+00  4.46830E+00  5.33806E+00  6.14067E+00  5.42062E+00
   5.92975E+00  4.64689E+00  6.75414E+00  6.22936E+00  5.41469E+00  6.56575E+00  5.16346E+00  6.22130E+00  6.22771E+00  4.36407E+00
   5.56864E+00  5.88344E+00  5.72699E+00  5.10722E+00  6.04241E+00  6.20456E+00  5.09129E+00  5.63685E+00  5.90684E+00  6.37086E+00
   7.21556E+00  5.73520E+00  4.77990E+00  7.35348E+00  5.66508E+00  6.47178E+00  5.97766E+00  4.97423E+00  6.52747E+00  5.24191E+00
   6.35548E+00  7.34846E+00  4.64670E+00  7.71411E+00  7.05808E+00  6.38090E+00  6.80697E+00  8.90625E+00  7.37083E+00  8.36113E+00
   7.22244E+00  8.97436E+00  8.30140E+00  8.22930E+00  9.97130E+00  1.01458E+01  1.14832E+01  1.04864E+01  1.22999E+01  1.34541E+01
   1.37697E+01  1.47978E+01  1.33736E+01  1.23027E+01  1.08618E+01  1.02691E+01  9.09985E+00  8.98012E+00  9.40758E+00  8.17187E+00
   8.80163E+00  9.64717E+00  9.31987E+00  8.77559E+00  8.96079E+00  9.96684E+00  1.04626E+01  1.06963E+01  9.99932E+00  9.94225E+00
   1.03618E+01  1.13699E+01  1.12601E+01  1.07246E+01  1.00521E+01  1.00326E+01  1.16936E+01  1.12974E+01  1.06853E+01  1.19214E+01
   1.25536E+01  1.20264E+01  1.32331E+01  1.28368E+01  1.23880E+01  1.38832E+01  1.39057E+01  1.37592E+01  1.24366E+01  1.42621E+01
   1.56227E+01  1.49971E+01  1.43239E+01  1.56170E+01  1.56410E+01  1.76232E+01  1.72368E+01  1.46406E+01  1.60037E+01  1.77160E+01
   1.59524E+01  1.65828E+01  1.77459E+01  1.77301E+01  1.78245E+01  1.76192E+01  1.78719E+01  1.82459E+01  1.93180E+01  1.99183E+01
   1.95277E+01  1.84661E+01  2.00743E+01  2.04748E+01  2.02081E+01  2.04425E+01  1.88358E+01  2.19890E+01  2.24715E+01  2.24078E+01
   2.03003E+01  1.96532E+01  2.27340E+01  2.12808E+01  2.22638E+01  2.17045E+01  2.42028E+01  2.15131E+01  2.13814E+01  2.35357E+01
   2.26355E+01  2.29129E+01  2.24680E+01  2.27054E+01  2.12630E+01  2.29422E+01  2.42636E+01  2.40660E+01  2.59768E+01  2.56013E+01
   2.48079E+01  2.40279E+01  2.18538E+01  2.30355E+01  2.20315E+01  2.27025E+01  2.24043E+01  2.18423E+01  1.97225E+01  2.03242E+01
   2.15982E+01  2.09696E+01  2.12381E+01  1.91319E+01  1.85917E+01  1.93654E+01  1.85287E+01  1.81333E+01  1.85713E+01  1.72197E+01
   1.69931E+01  1.69280E+01  1.71330E+01  1.43678E+01  1.58621E+01  1.71800E+01  1.56323E+01  1.60734E+01  1.69260E+01  1.58758E+01
   1.42128E+01  1.61416E+01  1.65252E+01  1.64014E+01  1.52147E+01  1.42880E+01  1.47612E+01  1.56963E+01  1.58513E+01  1.54304E+01
   1.69428E+01  1.52058E+01  1.53730E+01  1.61451E+01  1.43471E+01  1.62470E+01  1.52264E+01  1.65309E+01  1.50792E+01  1.53637E+01
   1.51823E+01  1.49615E+01  1.46861E+01  1.37440E+01  1.50280E+01  1.44157E+01  1.42471E+01  1.56676E+01  1.39006E+01  1.35996E+01
   1.25144E+01  1.60952E+01  1.34259E+01  1.49287E+01  1.34096E+01  1.31464E+01  1.12803E+01  1.09081E+01  1.15170E+01  1.03967E+01
   1.05978E+01  1.00263E+01  9.94930E+00  9.45700E+00  9.47810E+00  8.78547E+00  1.01001E+01  7.69249E+00  9.64834E+00  8.82183E+00
   8.55017E+00  8.27954E+00  8.74203E+00  9.12283E+00  8.23423E+00  8.08262E+00  7.15112E+00  8.58743E+00  8.45632E+00  6.35273E+00
   6.78998E+00  6.87623E+00  6.23371E+00  5.42028E+00  6.33503E+00  7.42791E+00  5.06367E+00  7.12090E+00  5.84129E+00  4.80591E+00
   5.50804E+00  6.09964E+00  4.68509E+00  4.91969E+00  5.24412E+00  6.24647E+00  6.66914E+00  3.36581E+00  4.46871E+00  5.36032E+00
   5.14365E+00  5.78997E+00  5.88298E+00  5.02204E+00  5.52516E+00  4.46181E+00  4.38912E+00  4.77063E+00  4.47611E+00  4.64168E+00
   4.61458E+00  3.68082E+00  5.19960E+00  1.06416E+00  3.57074E+00  3.25326E+00  2.66597E+00  2.87628E+00  3.48846E+00  1.84629E+00
   3.37931E+00  4.06287E+00  3.67905E+00  1.74121E+00  3.28135E+00  2.22542E+00  3.41132E+00  1.96757E+00  2.16530E+00  2.98865E+00
   2.99785E+00  3.15512E+00  2.41288E+00  1.83912E+00  4.08869E+00  2.60311E+00  2.89564E+00  1.13884E+00
 NY points of the fit to the data follow
   2.12617E+00  2.00817E+00  1.91961E+00  1.87528E+00  1.86883E+00  1.88737E+00  1.92379E+00  1.98099E+00  2.06398E+00  2.16817E+00
   2.28333E+00  2.40395E+00  2.52162E+00  2.62448E+00  2.69973E+00  2.73497E+00  2.72164E+00  2.65902E+00  2.55559E+00  2.42854E+00
   2.29809E+00  2.18580E+00  2.11574E+00  2.10244E+00  2.12619E+00  2.15834E+00  2.18787E+00  2.21121E+00  2.22853E+00  2.24082E+00
   2.25144E+00  2.26478E+00  2.28407E+00  2.31085E+00  2.34390E+00  2.37949E+00  2.41397E+00  2.44639E+00  2.47539E+00  2.49424E+00
   2.49647E+00  2.48545E+00  2.47110E+00  2.46633E+00  2.48312E+00  2.52695E+00  2.59379E+00  2.67164E+00  2.74742E+00  2.81233E+00
   2.85960E+00  2.88263E+00  2.87910E+00  2.84913E+00  2.79816E+00  2.73757E+00  2.68195E+00  2.64493E+00  2.63636E+00  2.66066E+00
   2.70938E+00  2.76454E+00  2.81332E+00  2.85067E+00  2.87539E+00  2.88869E+00  2.89332E+00  2.89243E+00  2.89005E+00  2.89027E+00
   2.89703E+00  2.91451E+00  2.94346E+00  2.98000E+00  3.01846E+00  3.05295E+00  3.08140E+00  3.10126E+00  3.10993E+00  3.10796E+00
   3.09836E+00  3.08633E+00  3.07622E+00  3.07168E+00  3.07445E+00  3.08127E+00  3.08897E+00  3.09629E+00  3.10105E+00  3.10043E+00
   3.09299E+00  3.07998E+00  3.06669E+00  3.06633E+00  3.08899E+00  3.12642E+00  3.16891E+00  3.21294E+00  3.26147E+00  3.31735E+00
   3.38617E+00  3.47418E+00  3.58049E+00  3.69614E+00  3.80862E+00  3.90465E+00  3.97203E+00  4.00033E+00  3.98303E+00  3.91976E+00
   3.81923E+00  3.69759E+00  3.57204E+00  3.46028E+00  3.37946E+00  3.34312E+00  3.34818E+00  3.38752E+00  3.45107E+00  3.51781E+00
   3.57644E+00  3.62808E+00  3.68562E+00  3.76744E+00  3.88910E+00  4.05428E+00  4.25136E+00  4.45874E+00  4.65244E+00  4.80977E+00
   4.90938E+00  4.93350E+00  4.87311E+00  4.73444E+00  4.53965E+00  4.31977E+00  4.10747E+00  3.93249E+00  3.82120E+00  3.78620E+00
   3.79436E+00  3.81464E+00  3.84056E+00  3.86992E+00  3.89955E+00  3.92684E+00  3.95264E+00  3.97875E+00  4.00658E+00  4.03575E+00
   4.06182E+00  4.08025E+00  4.08957E+00  4.09174E+00  4.09063E+00  4.09076E+00  4.09484E+00  4.10310E+00  4.11403E+00  4.12485E+00
   4.13244E+00  4.13677E+00  4.13954E+00  4.13955E+00  4.13407E+00  4.11950E+00  4.09322E+00  4.06110E+00  4.03422E+00  4.01940E+00
   4.01880E+00  4.02875E+00  4.04012E+00  4.04889E+00  4.06034E+00  4.07901E+00  4.10360E+00  4.12914E+00  4.15070E+00  4.16732E+00
   4.18123E+00  4.19715E+00  4.22192E+00  4.26261E+00  4.31983E+00  4.38859E+00  4.46503E+00  4.54552E+00  4.62765E+00  4.71225E+00
   4.79656E+00  4.87233E+00  4.93143E+00  4.96938E+00  4.98682E+00  4.98976E+00  4.98917E+00  4.98914E+00  4.99021E+00  4.99326E+00
   5.00186E+00  5.02025E+00  5.04926E+00  5.08644E+00  5.12684E+00  5.16173E+00  5.18551E+00  5.19495E+00  5.18887E+00  5.17109E+00
   5.14939E+00  5.13529E+00  5.13883E+00  5.16509E+00  5.21919E+00  5.30101E+00  5.40112E+00  5.50455E+00  5.59431E+00  5.65611E+00
   5.68345E+00  5.67726E+00  5.65186E+00  5.62728E+00  5.61995E+00  5.64382E+00  5.70698E+00  5.80670E+00  5.92981E+00  6.05522E+00
   6.16805E+00  6.26129E+00  6.33110E+00  6.37816E+00  6.41100E+00  6.44272E+00  6.48294E+00  6.53104E+00  6.57969E+00  6.62141E+00
   6.65042E+00  6.66820E+00  6.68218E+00  6.70162E+00  6.73984E+00  6.82233E+00  7.01052E+00  7.29599E+00  7.60250E+00  7.87955E+00
   8.13439E+00  8.41639E+00  8.77450E+00  9.25037E+00  9.85604E+00  1.05633E+01  1.13180E+01  1.20508E+01  1.26852E+01  1.31399E+01
   1.33389E+01  1.32339E+01  1.28306E+01  1.21915E+01  1.14140E+01  1.06023E+01  9.85630E+00  9.27900E+00  8.93797E+00  8.74435E+00
   8.61364E+00  8.54719E+00  8.55835E+00  8.63357E+00  8.74013E+00  8.86467E+00  9.00139E+00  9.14580E+00  9.29630E+00  9.45317E+00
   9.61744E+00  9.79259E+00  9.98431E+00  1.01977E+01  1.04348E+01  1.06938E+01  1.09711E+01  1.12617E+01  1.15594E+01  1.18588E+01
   1.21592E+01  1.24618E+01  1.27666E+01  1.30727E+01  1.33791E+01  1.36840E+01  1.39837E+01  1.42728E+01  1.45477E+01  1.48056E+01
   1.50450E+01  1.52657E+01  1.54690E+01  1.56575E+01  1.58351E+01  1.60043E+01  1.61665E+01  1.63237E+01  1.64778E+01  1.66314E+01
   1.67869E+01  1.69470E+01  1.71156E+01  1.72962E+01  1.74913E+01  1.77030E+01  1.79323E+01  1.81795E+01  1.84434E+01  1.87213E+01
   1.90108E+01  1.93091E+01  1.96131E+01  1.99187E+01  2.02213E+01  2.05160E+01  2.07979E+01  2.10614E+01  2.13013E+01  2.15136E+01
   2.16960E+01  2.18477E+01  2.19702E+01  2.20670E+01  2.21430E+01  2.22051E+01  2.22650E+01  2.23434E+01  2.24320E+01  2.24912E+01
   2.25164E+01  2.25360E+01  2.25919E+01  2.27180E+01  2.29273E+01  2.32343E+01  2.36194E+01  2.40058E+01  2.43051E+01  2.44428E+01
   2.43737E+01  2.40918E+01  2.36362E+01  2.30827E+01  2.25190E+01  2.20211E+01  2.16405E+01  2.14023E+01  2.13024E+01  2.12924E+01
   2.12531E+01  2.10809E+01  2.07699E+01  2.03395E+01  1.98198E+01  1.92506E+01  1.86905E+01  1.82184E+01  1.78441E+01  1.75228E+01
   1.72331E+01  1.69658E+01  1.67169E+01  1.64846E+01  1.62685E+01  1.60689E+01  1.58863E+01  1.57213E+01  1.55746E+01  1.54467E+01
   1.53381E+01  1.52488E+01  1.51788E+01  1.51277E+01  1.50949E+01  1.50796E+01  1.50805E+01  1.50961E+01  1.51247E+01  1.51641E+01
   1.52119E+01  1.52657E+01  1.53224E+01  1.53792E+01  1.54329E+01  1.54804E+01  1.55185E+01  1.55443E+01  1.55548E+01  1.55474E+01
   1.55199E+01  1.54702E+01  1.53970E+01  1.52992E+01  1.51762E+01  1.50281E+01  1.48553E+01  1.46588E+01  1.44400E+01  1.42005E+01
   1.39426E+01  1.36685E+01  1.33808E+01  1.30820E+01  1.27748E+01  1.24618E+01  1.21455E+01  1.18283E+01  1.15123E+01  1.11995E+01
   1.08916E+01  1.05901E+01  1.02963E+01  1.00110E+01  9.73501E+00  9.46893E+00  9.21307E+00  8.96761E+00  8.73258E+00  8.50786E+00
   8.29328E+00  8.08855E+00  7.89333E+00  7.70724E+00  7.52984E+00  7.36071E+00  7.19940E+00  7.04546E+00  6.89846E+00  6.75796E+00
   6.62356E+00  6.49485E+00  6.37146E+00  6.25304E+00  6.13924E+00  6.02977E+00  5.92431E+00  5.82260E+00  5.72438E+00  5.62942E+00
   5.53749E+00  5.44839E+00  5.36192E+00  5.27792E+00  5.19623E+00  5.11669E+00  5.03917E+00  4.96355E+00  4.88970E+00  4.81751E+00
   4.74690E+00  4.67776E+00  4.61001E+00  4.54356E+00  4.47835E+00  4.41431E+00  4.35137E+00  4.28947E+00  4.22855E+00  4.16857E+00
   4.10948E+00  4.05123E+00  3.99379E+00  3.93710E+00  3.88115E+00  3.82588E+00  3.77129E+00  3.71733E+00  3.66397E+00  3.61120E+00
   3.55898E+00  3.50731E+00  3.45615E+00  3.40549E+00  3.35531E+00  3.30559E+00  3.25633E+00  3.20749E+00  3.15909E+00  3.11109E+00
   3.06348E+00  3.01627E+00  2.96943E+00  2.92297E+00  2.87687E+00  2.83112E+00  2.78572E+00  2.74066E+00
 NY background values follow
     1.515E+00    1.530E+00    1.545E+00    1.561E+00    1.576E+00    1.591E+00    1.607E+00    1.622E+00    1.637E+00    1.652E+00
     1.668E+00    1.683E+00    1.698E+00    1.713E+00    1.728E+00    1.744E+00    1.759E+00    1.774E+00    1.789E+00    1.804E+00
     1.819E+00    1.834E+00    1.849E+00    1.864E+00    1.879E+00    1.894E+00    1.909E+00    1.924E+00    1.938E+00    1.953E+00
     1.968E+00    1.983E+00    1.997E+00    2.012E+00    2.026E+00    2.041E+00    2.055E+00    2.070E+00    2.084E+00    2.098E+00
     2.113E+00    2.127E+00    2.141E+00    2.155E+00    2.169E+00    2.183E+00    2.197E+00    2.211E+00    2.224E+00    2.238E+00
     2.252E+00    2.265E+00    2.279E+00    2.292E+00    2.306E+00    2.319E+00    2.332E+00    2.345E+00    2.359E+00    2.372E+00
     2.385E+00    2.398E+00    2.411E+00    2.423E+00    2.436E+00    2.449E+00    2.462E+00    2.474E+00    2.487E+00    2.499E+00
     2.512E+00    2.524E+00    2.537E+00    2.549E+00    2.561E+00    2.573E+00    2.586E+00    2.598E+00    2.610E+00    2.622E+00
     2.634E+00    2.646E+00    2.658E+00    2.669E+00    2.681E+00    2.693E+00    2.705E+00    2.716E+00    2.728E+00    2.740E+00
     2.751E+00    2.763E+00    2.774E+00    2.785E+00    2.797E+00    2.808E+00    2.819E+00    2.831E+00    2.842E+00    2.853E+00
     2.864E+00    2.876E+00    2.887E+00    2.898E+00    2.909E+00    2.920E+00    2.932E+00    2.943E+00    2.954E+00    2.965E+00
     2.977E+00    2.988E+00    2.999E+00    3.010E+00    3.022E+00    3.033E+00    3.045E+00    3.056E+00    3.067E+00    3.079E+00
     3.091E+00    3.102E+00    3.114E+00    3.126E+00    3.137E+00    3.149E+00    3.161E+00    3.173E+00    3.185E+00    3.197E+00
     3.210E+00    3.222E+00    3.234E+00    3.247E+00    3.259E+00    3.272E+00    3.285E+00    3.298E+00    3.311E+00    3.324E+00
     3.337E+00    3.350E+00    3.363E+00    3.377E+00    3.390E+00    3.404E+00    3.418E+00    3.431E+00    3.445E+00    3.459E+00
     3.473E+00    3.488E+00    3.502E+00    3.516E+00    3.531E+00    3.545E+00    3.560E+00    3.574E+00    3.589E+00    3.604E+00
     3.619E+00    3.634E+00    3.649E+00    3.664E+00    3.679E+00    3.694E+00    3.710E+00    3.725E+00    3.741E+00    3.756E+00
     3.772E+00    3.787E+00    3.803E+00    3.819E+00    3.835E+00    3.851E+00    3.867E+00    3.883E+00    3.899E+00    3.915E+00
     3.932E+00    3.948E+00    3.964E+00    3.981E+00    3.997E+00    4.014E+00    4.031E+00    4.047E+00    4.064E+00    4.081E+00
     4.097E+00    4.114E+00    4.131E+00    4.148E+00    4.165E+00    4.182E+00    4.199E+00    4.216E+00    4.233E+00    4.250E+00
     4.267E+00    4.284E+00    4.301E+00    4.318E+00    4.335E+00    4.352E+00    4.369E+00    4.386E+00    4.403E+00    4.420E+00
     4.437E+00    4.454E+00    4.471E+00    4.488E+00    4.505E+00    4.522E+00    4.539E+00    4.556E+00    4.573E+00    4.589E+00
     4.606E+00    4.623E+00    4.640E+00    4.656E+00    4.673E+00    4.689E+00    4.706E+00    4.722E+00    4.739E+00    4.755E+00
     4.771E+00    4.787E+00    4.803E+00    4.819E+00    4.835E+00    4.851E+00    4.867E+00    4.882E+00    4.898E+00    4.914E+00
     4.929E+00    4.944E+00    4.959E+00    4.974E+00    4.989E+00    5.004E+00    5.019E+00    5.033E+00    5.048E+00    5.062E+00
     5.076E+00    5.090E+00    5.104E+00    5.118E+00    5.132E+00    5.145E+00    5.158E+00    5.172E+00    5.185E+00    5.197E+00
     5.210E+00    5.223E+00    5.235E+00    5.247E+00    5.259E+00    5.271E+00    5.282E+00    5.294E+00    5.305E+00    5.316E+00
     5.327E+00    5.337E+00    5.348E+00    5.358E+00    5.368E+00    5.378E+00    5.387E+00    5.396E+00    5.406E+00    5.414E+00
     5.423E+00    5.432E+00    5.440E+00    5.448E+00    5.456E+00    5.463E+00    5.471E+00    5.478E+00    5.485E+00    5.492E+00
     5.498E+00    5.505E+00    5.511E+00    5.517E+00    5.523E+00    5.528E+00    5.533E+00    5.538E+00    5.543E+00    5.548E+00
     5.552E+00    5.556E+00    5.560E+00    5.564E+00    5.567E+00    5.571E+00    5.574E+00    5.577E+00    5.579E+00    5.582E+00
     5.584E+00    5.586E+00    5.587E+00    5.589E+00    5.590E+00    5.591E+00    5.592E+00    5.593E+00    5.593E+00    5.593E+00
     5.593E+00    5.593E+00    5.592E+00    5.591E+00    5.590E+00    5.589E+00    5.588E+00    5.586E+00    5.584E+00    5.582E+00
     5.580E+00    5.577E+00    5.574E+00    5.571E+00    5.568E+00    5.564E+00    5.561E+00    5.557E+00    5.552E+00    5.548E+00
     5.543E+00    5.539E+00    5.533E+00    5.528E+00    5.523E+00    5.517E+00    5.511E+00    5.505E+00    5.498E+00    5.491E+00
     5.484E+00    5.477E+00    5.470E+00    5.462E+00    5.454E+00    5.446E+00    5.438E+00    5.430E+00    5.421E+00    5.412E+00
     5.403E+00    5.393E+00    5.383E+00    5.374E+00    5.363E+00    5.353E+00    5.342E+00    5.332E+00    5.321E+00    5.309E+00
     5.298E+00    5.286E+00    5.274E+00    5.262E+00    5.249E+00    5.237E+00    5.224E+00    5.211E+00    5.197E+00    5.183E+00
     5.170E+00    5.156E+00    5.141E+00    5.127E+00    5.112E+00    5.097E+00    5.081E+00    5.066E+00    5.050E+00    5.034E+00
     5.018E+00    5.001E+00    4.985E+00    4.968E+00    4.951E+00    4.933E+00    4.915E+00    4.897E+00    4.879E+00    4.861E+00
     4.842E+00    4.823E+00    4.804E+00    4.785E+00    4.765E+00    4.745E+00    4.725E+00    4.705E+00    4.684E+00    4.663E+00
     4.642E+00    4.621E+00    4.599E+00    4.577E+00    4.555E+00    4.533E+00    4.510E+00    4.488E+00    4.465E+00    4.441E+00
     4.418E+00    4.394E+00    4.370E+00    4.346E+00    4.322E+00    4.297E+00    4.272E+00    4.247E+00    4.222E+00    4.196E+00
     4.171E+00    4.145E+00    4.119E+00    4.092E+00    4.066E+00    4.039E+00    4.012E+00    3.985E+00    3.957E+00    3.929E+00
     3.902E+00    3.874E+00    3.845E+00    3.817E+00    3.788E+00    3.759E+00    3.730E+00    3.701E+00    3.671E+00    3.642E+00
     3.612E+00    3.582E+00    3.552E+00    3.521E+00    3.491E+00    3.460E+00    3.429E+00    3.398E+00    3.366E+00    3.335E+00
     3.303E+00    3.272E+00    3.240E+00    3.208E+00    3.175E+00    3.143E+00    3.111E+00    3.078E+00    3.045E+00    3.013E+00
     2.980E+00    2.947E+00    2.914E+00    2.880E+00    2.847E+00    2.814E+00    2.780E+00    2.747E+00    2.713E+00    2.680E+00
     2.646E+00    2.612E+00    2.579E+00    2.545E+00    2.511E+00    2.477E+00    2.443E+00    2.409E+00    2.375E+00    2.342E+00
     2.308E+00    2.274E+00    2.240E+00    2.206E+00    2.172E+00    2.138E+00    2.104E+00    2.070E+00
 Ala      Conc. = 4.86E+00
