 LCModel (Version 6.3-1L) Copyright: S.W. Provencher.          Ref.: Magn. Reson. Med. 30:672-679 (1993).                
 Slice#2 Row#10 Col#3  PD_05_press_1_raw_act
 36 lines in following concentration table = NCONC+1
    Conc.  %SD /Cr+PCr  Metabolite                                         
    0.000 999%   0.000 Ala                                                 
   89.811  66%   0.280 Asp                                                 
    0.000 999%   0.000 Cr                                                  
  320.756   7%   1.000 PCr                                                 
   44.484  84%   0.139 GABA                                                
   45.028  83%   0.140 Glc                                                 
  155.933  49%   0.486 Gln                                                 
  306.587  28%   0.956 Glu                                                 
   83.918   9%   0.262 GPC                                                 
    0.000 999%   0.000 PCh                                                 
  187.251  14%   0.584 GSH                                                 
  418.458  22%   1.305 Ins                                                 
    4.086 946% 1.3E-02 Lac                                                 
  595.773   7%   1.857 NAA                                                 
  165.471  24%   0.516 NAAG                                                
   14.812  57% 4.6E-02 Scyllo                                              
    0.000 999%   0.000 Tau                                                 
  208.594  18%   0.650 -CrCH2                                              
   83.918   9%   0.262 GPC+PCh                                             
  761.244   4%   2.373 NAA+NAAG                                            
  320.756   7%   1.000 Cr+PCr                                              
  462.519  25%   1.442 Glu+Gln                                             
    0.000 999%   0.000 Lip13a                                              
 9.78E-03 999% 3.1E-05 Lip13b                                              
    0.000 999%   0.000 Lip09                                               
  196.563  34%   0.613 MM09                                                
 7.09E-03 999% 2.2E-05 Lip20                                               
  296.378  33%   0.924 MM20                                                
   58.924  34%   0.184 MM12                                                
  145.588  34%   0.454 MM14                                                
   73.596  34%   0.229 MM17                                                
 9.78E-03 999% 3.1E-05 Lip13a+Lip13b                                       
  204.523  34%   0.638 MM14+Lip13a+Lip13b+MM12                             
  196.563  34%   0.613 MM09+Lip09                                          
  296.385  33%   0.924 MM20+Lip20                                          
   6 lines in following misc. output table
  FWHM = 0.054 ppm    S/N =   8                                            
  Data shift =-0.008 ppm                                                   
  Ph:   4 deg      -4.8 deg/ppm                                            
  alphaB,S = 1.2E+00,   4.5E+01                                            
   14 spline knots.   Ns = 6(1)                                            
  ( 7) 2 infls.   ( 7) 1 extrs.                                            
  498 points on ppm-axis = NY
      4.000000     3.992357     3.984714     3.977070     3.969427     3.961784     3.954141     3.946497     3.938854     3.931211
      3.923568     3.915925     3.908281     3.900638     3.892995     3.885352     3.877708     3.870065     3.862422     3.854779
      3.847136     3.839492     3.831849     3.824206     3.816563     3.808919     3.801276     3.793633     3.785990     3.778347
      3.770703     3.763060     3.755417     3.747774     3.740130     3.732487     3.724844     3.717201     3.709558     3.701914
      3.694271     3.686628     3.678985     3.671341     3.663698     3.656055     3.648412     3.640769     3.633125     3.625482
      3.617839     3.610196     3.602552     3.594909     3.587266     3.579623     3.571980     3.564336     3.556693     3.549050
      3.541407     3.533763     3.526120     3.518477     3.510834     3.503191     3.495547     3.487904     3.480261     3.472618
      3.464974     3.457331     3.449688     3.442045     3.434402     3.426758     3.419115     3.411472     3.403829     3.396185
      3.388542     3.380899     3.373256     3.365613     3.357969     3.350326     3.342683     3.335040     3.327396     3.319753
      3.312110     3.304467     3.296824     3.289180     3.281537     3.273894     3.266251     3.258607     3.250964     3.243321
      3.235678     3.228034     3.220391     3.212748     3.205105     3.197462     3.189818     3.182175     3.174532     3.166889
      3.159245     3.151602     3.143959     3.136316     3.128673     3.121029     3.113386     3.105743     3.098100     3.090456
      3.082813     3.075170     3.067527     3.059884     3.052240     3.044597     3.036954     3.029311     3.021667     3.014024
      3.006381     2.998738     2.991095     2.983451     2.975808     2.968165     2.960522     2.952878     2.945235     2.937592
      2.929949     2.922306     2.914662     2.907019     2.899376     2.891733     2.884089     2.876446     2.868803     2.861160
      2.853517     2.845873     2.838230     2.830587     2.822944     2.815300     2.807657     2.800014     2.792371     2.784728
      2.777084     2.769441     2.761798     2.754155     2.746511     2.738868     2.731225     2.723582     2.715939     2.708295
      2.700652     2.693009     2.685366     2.677722     2.670079     2.662436     2.654793     2.647150     2.639506     2.631863
      2.624220     2.616577     2.608933     2.601290     2.593647     2.586004     2.578361     2.570717     2.563074     2.555431
      2.547788     2.540144     2.532501     2.524858     2.517215     2.509572     2.501928     2.494285     2.486642     2.478999
      2.471355     2.463712     2.456069     2.448426     2.440783     2.433139     2.425496     2.417853     2.410210     2.402566
      2.394923     2.387280     2.379637     2.371994     2.364350     2.356707     2.349064     2.341421     2.333777     2.326134
      2.318491     2.310848     2.303205     2.295561     2.287918     2.280275     2.272632     2.264988     2.257345     2.249702
      2.242059     2.234416     2.226772     2.219129     2.211486     2.203843     2.196199     2.188556     2.180913     2.173270
      2.165627     2.157983     2.150340     2.142697     2.135054     2.127410     2.119767     2.112124     2.104481     2.096838
      2.089194     2.081551     2.073908     2.066265     2.058621     2.050978     2.043335     2.035692     2.028049     2.020405
      2.012762     2.005119     1.997476     1.989833     1.982190     1.974546     1.966903     1.959260     1.951617     1.943974
      1.936331     1.928688     1.921045     1.913402     1.905759     1.898115     1.890472     1.882829     1.875186     1.867543
      1.859900     1.852257     1.844614     1.836971     1.829327     1.821684     1.814041     1.806398     1.798755     1.791112
      1.783469     1.775826     1.768183     1.760540     1.752896     1.745253     1.737610     1.729967     1.722324     1.714681
      1.707038     1.699395     1.691752     1.684108     1.676465     1.668822     1.661179     1.653536     1.645893     1.638250
      1.630607     1.622964     1.615321     1.607677     1.600034     1.592391     1.584748     1.577105     1.569462     1.561819
      1.554176     1.546533     1.538890     1.531246     1.523603     1.515960     1.508317     1.500674     1.493031     1.485388
      1.477745     1.470102     1.462458     1.454815     1.447172     1.439529     1.431886     1.424243     1.416600     1.408957
      1.401314     1.393671     1.386027     1.378384     1.370741     1.363098     1.355455     1.347812     1.340169     1.332526
      1.324883     1.317240     1.309596     1.301953     1.294310     1.286667     1.279024     1.271381     1.263738     1.256095
      1.248452     1.240808     1.233165     1.225522     1.217879     1.210236     1.202593     1.194950     1.187307     1.179664
      1.172021     1.164377     1.156734     1.149091     1.141448     1.133805     1.126162     1.118519     1.110876     1.103233
      1.095590     1.087946     1.080303     1.072660     1.065017     1.057374     1.049731     1.042088     1.034445     1.026802
      1.019158     1.011515     1.003872     0.996229     0.988586     0.980943     0.973300     0.965657     0.958014     0.950371
      0.942727     0.935084     0.927441     0.919798     0.912155     0.904512     0.896869     0.889226     0.881583     0.873940
      0.866296     0.858653     0.851010     0.843367     0.835724     0.828081     0.820438     0.812795     0.805152     0.797508
      0.789865     0.782222     0.774579     0.766936     0.759293     0.751650     0.744007     0.736364     0.728721     0.721077
      0.713434     0.705791     0.698148     0.690505     0.682862     0.675219     0.667576     0.659933     0.652290     0.644646
      0.637003     0.629360     0.621717     0.614074     0.606431     0.598788     0.591145     0.583502     0.575858     0.568215
      0.560572     0.552929     0.545286     0.537643     0.530000     0.522357     0.514714     0.507071     0.499427     0.491784
      0.484141     0.476498     0.468855     0.461212     0.453569     0.445925     0.438282     0.430639     0.422996     0.415353
      0.407710     0.400067     0.392424     0.384780     0.377137     0.369494     0.361851     0.354208     0.346565     0.338922
      0.331278     0.323635     0.315992     0.308349     0.300706     0.293063     0.285420     0.277777     0.270133     0.262490
      0.254847     0.247204     0.239561     0.231918     0.224275     0.216631     0.208988     0.201345
 NY phased data points follow
  -2.62533E+01 -2.54611E+01 -2.74891E+01 -2.57510E+01 -2.48271E+01 -2.39164E+01 -2.26362E+01 -1.81792E+01 -2.10491E+01 -1.65768E+01
  -1.78276E+01 -1.78407E+01 -1.60286E+01 -1.75775E+01 -2.03877E+01 -2.08406E+01 -2.14298E+01 -2.18262E+01 -2.11055E+01 -1.98282E+01
  -1.99870E+01 -1.70901E+01 -1.96873E+01 -1.68293E+01 -1.85877E+01 -1.54331E+01 -1.63714E+01 -1.41301E+01 -1.52742E+01 -1.43412E+01
  -1.29069E+01 -1.23122E+01 -1.25672E+01 -1.33594E+01 -1.36351E+01 -1.44953E+01 -1.36601E+01 -1.32696E+01 -1.43975E+01 -1.47770E+01
  -1.18141E+01 -1.46123E+01 -1.43814E+01 -1.50425E+01 -1.44010E+01 -1.08851E+01 -1.20909E+01 -1.10611E+01 -1.19787E+01 -1.19996E+01
  -1.34339E+01 -1.27614E+01 -1.33578E+01 -1.19829E+01 -1.62836E+01 -1.37719E+01 -1.25003E+01 -1.13575E+01 -1.26817E+01 -1.37324E+01
  -1.48647E+01 -1.24624E+01 -1.35010E+01 -1.22893E+01 -1.26016E+01 -1.26569E+01 -1.49811E+01 -1.41673E+01 -1.31688E+01 -1.08469E+01
  -1.18608E+01 -1.20679E+01 -1.34535E+01 -1.00817E+01 -9.53320E+00 -1.13042E+01 -1.19351E+01 -9.86154E+00 -1.06626E+01 -1.21431E+01
  -1.07095E+01 -8.91296E+00 -1.02598E+01 -1.20566E+01 -1.08115E+01 -8.60215E+00 -9.89674E+00 -9.69047E+00 -8.69025E+00 -1.24435E+01
  -1.00770E+01 -1.16558E+01 -1.02408E+01 -8.65741E+00 -8.45324E+00 -6.67426E+00 -7.08584E+00 -6.83611E+00 -8.75812E+00 -5.75747E+00
  -3.35387E+00 -3.13858E+00 -8.01774E-01  8.09091E-01 -1.44384E+00 -1.06056E+00 -1.92472E+00 -5.08236E+00 -7.23040E+00 -8.23191E+00
  -9.77579E+00 -6.77851E+00 -8.30456E+00 -8.95169E+00 -7.98248E+00 -5.87352E+00 -5.81566E+00 -5.58480E+00 -4.78534E+00 -5.68182E+00
  -5.30638E+00 -3.91393E+00 -3.29950E+00 -1.55598E+00  1.10371E+00  3.98406E+00  6.97708E+00  5.10516E+00  6.96767E+00  3.43957E+00
   1.38071E+00  1.58636E+00 -2.33986E+00 -1.96856E+00 -3.95606E+00 -7.21649E+00 -5.20201E+00 -4.66315E+00 -5.67948E+00 -1.95470E+00
  -2.57566E+00 -3.77495E+00 -3.02326E+00 -4.18411E+00 -4.14037E+00 -3.75829E+00 -4.45793E+00 -2.24619E+00 -1.83508E+00 -2.98615E+00
  -5.48499E+00 -2.79123E+00 -4.39624E+00 -3.51268E+00 -5.11334E+00 -2.91392E+00 -4.52369E+00 -2.61679E+00 -2.43845E+00 -3.78194E+00
  -2.88210E+00 -3.92700E+00 -3.48975E+00 -2.39643E+00 -2.34997E+00 -1.53630E+00 -1.85216E+00 -1.98856E+00 -1.48270E+00 -2.20610E+00
  -1.56205E+00 -1.20728E+00 -3.53125E+00 -3.46914E+00 -3.39333E+00 -4.19006E+00 -3.92178E+00 -3.83092E+00 -3.68034E+00 -3.40771E+00
  -2.64637E+00 -7.16277E-01 -2.47068E+00 -2.12642E+00 -8.10932E-01 -1.35291E+00  2.60587E-02  4.44238E-01 -1.00171E+00  9.19353E-01
  -9.88403E-02  3.62233E-01  1.41478E+00 -1.54937E+00  2.96451E-01  4.64941E-01 -1.49447E+00 -1.37959E+00 -3.49487E-02 -1.08964E+00
  -1.70060E-01  3.09724E-01 -4.23296E-01  7.19703E-01  1.16072E+00  1.61365E+00  5.20496E-01 -9.88841E-01 -2.19379E+00 -1.35147E+00
  -4.55655E-01  1.79857E+00  1.43470E+00  3.24624E+00  4.24703E+00  3.64756E+00  2.61320E+00  4.26815E+00  4.75371E+00  3.15306E+00
   1.68002E+00  1.73855E+00  1.45569E+00  9.04165E-01  3.73195E+00  3.83138E+00  4.04698E+00  2.58027E+00  3.05079E+00  4.31551E+00
   2.67530E+00  2.77546E+00  2.24616E+00  4.11868E+00  3.21765E+00  2.71711E+00  4.08399E+00  1.22832E+00  3.94104E+00  2.69024E+00
   2.85596E+00  3.36040E+00  3.29461E+00  4.00826E+00  3.85524E+00  3.02712E+00  7.92972E+00  5.56299E+00  7.40425E+00  5.70846E+00
   4.12967E+00  8.28182E+00  8.53456E+00  8.57305E+00  1.25073E+01  1.32650E+01  1.68520E+01  2.04623E+01  2.67510E+01  2.48745E+01
   2.54431E+01  2.50712E+01  2.13129E+01  1.83887E+01  1.23433E+01  7.30139E+00  3.71721E+00  4.22953E+00  5.15506E+00  4.11883E+00
   4.17311E+00  2.94039E+00  4.34772E+00  4.51303E+00  3.55572E+00  6.38561E+00  4.72433E+00  4.76449E+00  1.75058E+00  3.39271E+00
   5.50099E+00  3.98577E+00  1.37462E+00  4.69134E+00  8.78353E-01  3.53222E-01  2.00284E+00  2.59742E+00  2.67067E+00  4.82707E-01
   1.68762E+00  3.03307E+00  2.53233E+00  1.97877E+00  1.33120E+00  1.71832E-01  4.15890E-01 -6.71554E-01  8.59958E-01  3.52135E+00
   5.20726E-01  1.26206E+00  9.85615E-01  8.41829E-01  2.06288E+00  1.85809E+00  3.68665E-01  8.27946E-02  1.05539E+00  1.93344E+00
   2.64804E+00  1.00735E-01  1.94007E+00 -1.90722E-01  1.67816E-01  1.63248E+00 -2.47298E+00  1.22969E+00  7.02678E-02  2.57972E-01
   5.74455E-01  3.84342E-03  4.43838E-01 -1.42164E+00  2.05589E+00 -9.05244E-01 -1.00219E+00  2.40652E+00  2.44063E-01  1.27007E-01
  -1.58747E+00 -7.82282E-02 -4.60761E-01  1.21908E+00 -8.43243E-01 -1.58421E+00 -2.09456E+00 -4.02629E+00 -1.51447E+00 -2.36344E+00
  -3.23478E+00 -1.03630E+00 -1.81248E+00 -2.78486E+00 -7.84422E-01 -9.57551E-01 -2.19374E-01 -1.93749E+00 -3.36894E+00 -3.65554E+00
  -2.20062E+00 -1.65130E+00 -5.55994E-01 -1.53375E+00 -1.69546E+00 -1.53938E+00 -4.34224E+00 -9.94364E-01 -3.20833E-01  3.05985E-03
  -1.72276E+00 -1.66761E+00 -2.97312E+00 -1.40573E+00 -1.35764E+00 -2.52463E+00 -7.25118E-01 -3.77213E+00 -2.35367E+00 -1.83061E-01
  -2.05608E+00 -3.33123E+00 -3.31063E+00 -3.79892E+00 -4.38817E+00 -2.64027E+00 -3.16619E+00 -1.78868E+00 -2.73648E+00 -5.07936E+00
  -1.96413E+00 -3.35097E+00 -2.43639E+00 -2.66508E+00 -3.47326E+00 -2.36115E+00 -2.70585E+00 -1.23560E+00 -4.05626E+00 -2.14663E+00
  -2.34524E+00 -5.75655E-01 -1.40752E+00 -1.39786E+00 -1.89573E+00 -1.64500E+00 -2.11519E+00 -4.19039E+00 -2.42924E+00 -1.29862E+00
  -3.18919E+00 -2.44159E+00 -1.47049E+00 -1.65645E+00 -2.17622E+00 -2.84591E+00 -1.37657E+00 -1.35752E+00 -2.38129E+00 -3.78895E+00
  -2.91579E+00 -1.07898E+00 -1.35411E+00 -2.80257E+00 -1.76551E+00 -2.58069E+00 -2.33113E+00 -3.05026E+00 -2.36263E+00 -3.19886E+00
  -1.63953E+00 -3.74119E+00 -4.77569E+00 -3.50768E+00 -2.99367E+00 -2.44229E+00 -2.12295E+00 -2.58446E+00 -1.85252E+00 -1.36788E+00
  -2.41672E+00 -3.67944E+00 -2.12312E+00 -2.67868E+00 -2.62549E+00 -3.97663E+00 -3.35715E+00 -1.43497E+00 -1.57168E+00 -3.76054E+00
  -2.70270E+00 -1.50745E+00 -2.20374E+00 -2.05446E+00 -2.18157E+00 -2.32259E+00 -2.82990E+00  4.94063E-01 -1.28031E+00 -2.99383E+00
  -4.82727E+00  1.03119E+00 -1.63634E+00 -2.01671E+00 -2.37938E+00 -2.38692E+00 -2.60431E+00 -2.59098E+00 -4.29523E+00 -3.60976E-01
  -3.36377E+00 -3.16119E+00 -1.59645E+00 -3.49756E+00 -3.70794E+00 -3.91233E+00 -4.03773E+00 -4.06257E+00 -4.23139E+00 -2.86007E+00
  -1.99357E+00 -2.65780E+00 -1.15756E-01 -1.09412E+00 -2.23315E+00 -1.52969E+00 -4.62053E+00 -2.43588E+00 -1.69307E+00 -1.73878E+00
  -1.18200E+00 -4.02281E+00 -1.77774E+00 -1.03557E+00 -9.35256E-01 -1.01599E+00 -5.74371E-01 -6.01817E-01 -2.10456E+00 -3.50689E+00
  -2.66675E+00 -2.09825E+00 -3.84950E+00 -2.99779E+00 -1.48223E+00 -1.49098E+00 -3.29272E-01 -1.81119E+00
 NY points of the fit to the data follow
  -2.30089E+01 -2.31807E+01 -2.35166E+01 -2.36847E+01 -2.35435E+01 -2.30550E+01 -2.19318E+01 -2.05316E+01 -1.93474E+01 -1.83587E+01
  -1.75592E+01 -1.70781E+01 -1.71530E+01 -1.79680E+01 -1.90824E+01 -1.97774E+01 -1.99355E+01 -1.98521E+01 -1.97096E+01 -1.95486E+01
  -1.94073E+01 -1.92706E+01 -1.91247E+01 -1.88801E+01 -1.83542E+01 -1.76124E+01 -1.65790E+01 -1.53147E+01 -1.41649E+01 -1.32872E+01
  -1.27523E+01 -1.26502E+01 -1.30188E+01 -1.38548E+01 -1.49091E+01 -1.57775E+01 -1.62915E+01 -1.65258E+01 -1.65728E+01 -1.64693E+01
  -1.62297E+01 -1.58500E+01 -1.52938E+01 -1.45455E+01 -1.36693E+01 -1.28383E+01 -1.22518E+01 -1.19922E+01 -1.20349E+01 -1.23451E+01
  -1.28988E+01 -1.36054E+01 -1.42500E+01 -1.45733E+01 -1.45026E+01 -1.41664E+01 -1.36897E+01 -1.31869E+01 -1.27522E+01 -1.24443E+01
  -1.22949E+01 -1.22811E+01 -1.23675E+01 -1.25252E+01 -1.26860E+01 -1.27588E+01 -1.26644E+01 -1.24125E+01 -1.20560E+01 -1.16636E+01
  -1.13168E+01 -1.10571E+01 -1.08796E+01 -1.07644E+01 -1.06942E+01 -1.06624E+01 -1.06565E+01 -1.06429E+01 -1.05975E+01 -1.05186E+01
  -1.03858E+01 -1.02267E+01 -1.00754E+01 -9.96384E+00 -9.94849E+00 -1.00340E+01 -1.01610E+01 -1.02846E+01 -1.03745E+01 -1.04079E+01
  -1.03376E+01 -1.01099E+01 -9.76149E+00 -9.40324E+00 -9.13931E+00 -8.98309E+00 -8.80359E+00 -8.19135E+00 -7.04036E+00 -5.46536E+00
  -3.54657E+00 -1.83044E+00 -7.42985E-01 -2.80028E-01 -4.90242E-01 -1.42498E+00 -2.99501E+00 -4.89173E+00 -6.45290E+00 -7.21083E+00
  -7.35675E+00 -7.28951E+00 -7.17617E+00 -7.05005E+00 -6.93203E+00 -6.82646E+00 -6.73398E+00 -6.64924E+00 -6.54627E+00 -6.38996E+00
  -6.06823E+00 -5.10303E+00 -3.36703E+00 -1.07689E+00  1.63524E+00  4.02992E+00  5.51239E+00  6.15361E+00  5.95024E+00  4.78804E+00
   2.74037E+00  1.11326E-01 -2.29506E+00 -3.76099E+00 -4.44071E+00 -4.79625E+00 -4.96858E+00 -4.95544E+00 -4.72598E+00 -4.30436E+00
  -3.81501E+00 -3.39249E+00 -3.11560E+00 -3.01167E+00 -3.05481E+00 -3.16748E+00 -3.27448E+00 -3.34646E+00 -3.39945E+00 -3.45260E+00
  -3.49920E+00 -3.52342E+00 -3.50672E+00 -3.44482E+00 -3.36219E+00 -3.29259E+00 -3.25960E+00 -3.26801E+00 -3.30608E+00 -3.32710E+00
  -3.31928E+00 -3.27616E+00 -3.18308E+00 -3.05696E+00 -2.91558E+00 -2.77121E+00 -2.67596E+00 -2.65487E+00 -2.67832E+00 -2.71578E+00
  -2.75269E+00 -2.78618E+00 -2.81000E+00 -2.83092E+00 -2.82383E+00 -2.79250E+00 -2.76542E+00 -2.72741E+00 -2.64454E+00 -2.50828E+00
  -2.32991E+00 -2.18860E+00 -2.11732E+00 -2.02153E+00 -1.80015E+00 -1.39870E+00 -8.57695E-01 -3.01898E-01  2.03661E-01  6.39027E-01
   9.43402E-01  1.05498E+00  9.18741E-01  5.83017E-01  1.76047E-01 -1.34569E-01 -2.10720E-01 -2.33376E-02  3.82816E-01  9.27117E-01
   1.52705E+00  2.09183E+00  2.48833E+00  2.60595E+00  2.39369E+00  1.95306E+00  1.38551E+00  7.54380E-01  2.22722E-01 -6.60561E-02
  -1.95317E-02  3.98146E-01  1.09744E+00  1.92879E+00  2.65741E+00  3.07610E+00  3.11870E+00  2.82005E+00  2.26049E+00  1.56182E+00
   9.30604E-01  6.41389E-01  7.76636E-01  1.20837E+00  1.78811E+00  2.38020E+00  2.86607E+00  3.13788E+00  3.13005E+00  2.96031E+00
   2.81842E+00  2.82892E+00  2.99903E+00  3.28613E+00  3.65999E+00  4.00724E+00  4.16135E+00  4.03527E+00  3.70144E+00  3.27884E+00
   2.87860E+00  2.60375E+00  2.55075E+00  2.73345E+00  3.07534E+00  3.47776E+00  3.87162E+00  4.20656E+00  4.44783E+00  4.73157E+00
   5.37071E+00  6.35478E+00  7.68199E+00  9.24904E+00  1.12902E+01  1.42627E+01  1.77401E+01  2.15563E+01  2.47239E+01  2.60306E+01
   2.56543E+01  2.41559E+01  2.14813E+01  1.75110E+01  1.25330E+01  7.85308E+00  4.90930E+00  3.71166E+00  3.29128E+00  3.08127E+00
   2.97091E+00  2.92491E+00  2.91027E+00  2.90659E+00  2.89463E+00  2.85376E+00  2.77816E+00  2.67291E+00  2.54692E+00  2.42288E+00
   2.32338E+00  2.25045E+00  2.19676E+00  2.15509E+00  2.11729E+00  2.07891E+00  2.03791E+00  1.99251E+00  1.94803E+00  1.90966E+00
   1.87497E+00  1.84273E+00  1.81267E+00  1.78028E+00  1.74226E+00  1.69534E+00  1.63989E+00  1.58298E+00  1.53022E+00  1.48236E+00
   1.43836E+00  1.39709E+00  1.35728E+00  1.31640E+00  1.27063E+00  1.21857E+00  1.16140E+00  1.10052E+00  1.03673E+00  9.71031E-01
   9.04038E-01  8.36287E-01  7.68153E-01  7.00171E-01  6.32818E-01  5.66749E-01  5.02428E-01  4.40330E-01  3.80608E-01  3.23388E-01
   2.68600E-01  2.16271E-01  1.66206E-01  1.18178E-01  7.17320E-02  2.65305E-02 -1.78726E-02 -6.18254E-02 -1.05864E-01 -1.50448E-01
  -1.96114E-01 -2.43172E-01 -2.91957E-01 -3.42633E-01 -3.95466E-01 -4.50530E-01 -5.07876E-01 -5.67257E-01 -6.28372E-01 -6.90605E-01
  -7.52984E-01 -8.13694E-01 -8.74369E-01 -9.37403E-01 -1.00428E+00 -1.07841E+00 -1.15981E+00 -1.24515E+00 -1.33239E+00 -1.41632E+00
  -1.49258E+00 -1.55656E+00 -1.60354E+00 -1.63746E+00 -1.66740E+00 -1.69818E+00 -1.73168E+00 -1.76925E+00 -1.81261E+00 -1.86184E+00
  -1.91272E+00 -1.96008E+00 -2.00307E+00 -2.04338E+00 -2.08227E+00 -2.12013E+00 -2.15718E+00 -2.19348E+00 -2.22910E+00 -2.26395E+00
  -2.29793E+00 -2.33076E+00 -2.36222E+00 -2.39198E+00 -2.41983E+00 -2.44537E+00 -2.46829E+00 -2.48811E+00 -2.50449E+00 -2.51703E+00
  -2.52542E+00 -2.52923E+00 -2.52811E+00 -2.52166E+00 -2.50962E+00 -2.49173E+00 -2.46791E+00 -2.43802E+00 -2.40213E+00 -2.36037E+00
  -2.31322E+00 -2.26121E+00 -2.20518E+00 -2.14606E+00 -2.08506E+00 -2.02353E+00 -1.96308E+00 -1.90534E+00 -1.85205E+00 -1.80479E+00
  -1.76517E+00 -1.73458E+00 -1.71424E+00 -1.70497E+00 -1.70731E+00 -1.72129E+00 -1.74670E+00 -1.78288E+00 -1.82892E+00 -1.88351E+00
  -1.94520E+00 -2.01230E+00 -2.08317E+00 -2.15611E+00 -2.22959E+00 -2.30205E+00 -2.37224E+00 -2.43902E+00 -2.50160E+00 -2.55934E+00
  -2.61186E+00 -2.65887E+00 -2.70036E+00 -2.73637E+00 -2.76719E+00 -2.79308E+00 -2.81440E+00 -2.83146E+00 -2.84468E+00 -2.85442E+00
  -2.86111E+00 -2.86506E+00 -2.86660E+00 -2.86595E+00 -2.86342E+00 -2.85921E+00 -2.85358E+00 -2.84665E+00 -2.83860E+00 -2.82951E+00
  -2.81954E+00 -2.80878E+00 -2.79736E+00 -2.78530E+00 -2.77270E+00 -2.75956E+00 -2.74601E+00 -2.73207E+00 -2.71782E+00 -2.70325E+00
  -2.68841E+00 -2.67331E+00 -2.65804E+00 -2.64260E+00 -2.62702E+00 -2.61126E+00 -2.59536E+00 -2.57931E+00 -2.56318E+00 -2.54693E+00
  -2.53060E+00 -2.51412E+00 -2.49755E+00 -2.48088E+00 -2.46416E+00 -2.44735E+00 -2.43047E+00 -2.41346E+00 -2.39640E+00 -2.37926E+00
  -2.36209E+00 -2.34483E+00 -2.32750E+00 -2.31008E+00 -2.29260E+00 -2.27507E+00 -2.25750E+00 -2.23984E+00 -2.22211E+00 -2.20430E+00
  -2.18645E+00 -2.16855E+00 -2.15060E+00 -2.13256E+00 -2.11444E+00 -2.09625E+00 -2.07803E+00 -2.05974E+00 -2.04138E+00 -2.02292E+00
  -2.00439E+00 -1.98578E+00 -1.96713E+00 -1.94838E+00 -1.92955E+00 -1.91059E+00 -1.89153E+00 -1.87238E+00
 NY background values follow
    -2.390E+01   -2.373E+01   -2.355E+01   -2.337E+01   -2.320E+01   -2.302E+01   -2.284E+01   -2.267E+01   -2.249E+01   -2.232E+01
    -2.214E+01   -2.197E+01   -2.179E+01   -2.162E+01   -2.144E+01   -2.127E+01   -2.109E+01   -2.092E+01   -2.075E+01   -2.058E+01
    -2.040E+01   -2.023E+01   -2.006E+01   -1.989E+01   -1.972E+01   -1.955E+01   -1.938E+01   -1.921E+01   -1.904E+01   -1.888E+01
    -1.871E+01   -1.854E+01   -1.838E+01   -1.821E+01   -1.805E+01   -1.789E+01   -1.772E+01   -1.756E+01   -1.740E+01   -1.724E+01
    -1.708E+01   -1.692E+01   -1.676E+01   -1.661E+01   -1.645E+01   -1.629E+01   -1.614E+01   -1.599E+01   -1.583E+01   -1.568E+01
    -1.553E+01   -1.538E+01   -1.523E+01   -1.508E+01   -1.494E+01   -1.479E+01   -1.464E+01   -1.450E+01   -1.435E+01   -1.421E+01
    -1.407E+01   -1.393E+01   -1.378E+01   -1.364E+01   -1.350E+01   -1.337E+01   -1.323E+01   -1.309E+01   -1.295E+01   -1.282E+01
    -1.268E+01   -1.255E+01   -1.241E+01   -1.228E+01   -1.215E+01   -1.201E+01   -1.188E+01   -1.175E+01   -1.162E+01   -1.149E+01
    -1.136E+01   -1.123E+01   -1.110E+01   -1.098E+01   -1.085E+01   -1.072E+01   -1.060E+01   -1.047E+01   -1.034E+01   -1.022E+01
    -1.010E+01   -9.972E+00   -9.848E+00   -9.725E+00   -9.602E+00   -9.480E+00   -9.358E+00   -9.237E+00   -9.116E+00   -8.996E+00
    -8.876E+00   -8.757E+00   -8.638E+00   -8.520E+00   -8.402E+00   -8.284E+00   -8.167E+00   -8.051E+00   -7.935E+00   -7.819E+00
    -7.705E+00   -7.590E+00   -7.476E+00   -7.363E+00   -7.250E+00   -7.138E+00   -7.026E+00   -6.915E+00   -6.804E+00   -6.694E+00
    -6.585E+00   -6.476E+00   -6.367E+00   -6.259E+00   -6.152E+00   -6.045E+00   -5.939E+00   -5.833E+00   -5.728E+00   -5.624E+00
    -5.520E+00   -5.417E+00   -5.314E+00   -5.212E+00   -5.111E+00   -5.010E+00   -4.910E+00   -4.811E+00   -4.712E+00   -4.613E+00
    -4.516E+00   -4.419E+00   -4.322E+00   -4.226E+00   -4.131E+00   -4.036E+00   -3.942E+00   -3.848E+00   -3.755E+00   -3.662E+00
    -3.570E+00   -3.479E+00   -3.388E+00   -3.298E+00   -3.208E+00   -3.119E+00   -3.030E+00   -2.941E+00   -2.854E+00   -2.766E+00
    -2.680E+00   -2.593E+00   -2.507E+00   -2.422E+00   -2.337E+00   -2.253E+00   -2.169E+00   -2.085E+00   -2.002E+00   -1.920E+00
    -1.838E+00   -1.756E+00   -1.675E+00   -1.594E+00   -1.513E+00   -1.433E+00   -1.354E+00   -1.274E+00   -1.196E+00   -1.117E+00
    -1.039E+00   -9.614E-01   -8.841E-01   -8.072E-01   -7.308E-01   -6.548E-01   -5.792E-01   -5.042E-01   -4.296E-01   -3.556E-01
    -2.821E-01   -2.092E-01   -1.369E-01   -6.513E-02    5.972E-03    7.643E-02    1.462E-01    2.153E-01    2.837E-01    3.514E-01
     4.183E-01    4.844E-01    5.498E-01    6.143E-01    6.781E-01    7.409E-01    8.030E-01    8.641E-01    9.243E-01    9.836E-01
     1.042E+00    1.099E+00    1.156E+00    1.211E+00    1.265E+00    1.319E+00    1.371E+00    1.422E+00    1.472E+00    1.521E+00
     1.568E+00    1.615E+00    1.660E+00    1.704E+00    1.747E+00    1.789E+00    1.829E+00    1.868E+00    1.906E+00    1.943E+00
     1.978E+00    2.012E+00    2.044E+00    2.075E+00    2.105E+00    2.134E+00    2.161E+00    2.186E+00    2.211E+00    2.234E+00
     2.255E+00    2.275E+00    2.294E+00    2.311E+00    2.327E+00    2.342E+00    2.355E+00    2.366E+00    2.376E+00    2.385E+00
     2.392E+00    2.398E+00    2.402E+00    2.404E+00    2.406E+00    2.405E+00    2.403E+00    2.400E+00    2.395E+00    2.388E+00
     2.380E+00    2.371E+00    2.359E+00    2.347E+00    2.332E+00    2.316E+00    2.298E+00    2.279E+00    2.258E+00    2.236E+00
     2.212E+00    2.186E+00    2.159E+00    2.130E+00    2.099E+00    2.067E+00    2.033E+00    1.998E+00    1.962E+00    1.924E+00
     1.884E+00    1.844E+00    1.802E+00    1.759E+00    1.715E+00    1.669E+00    1.623E+00    1.575E+00    1.527E+00    1.477E+00
     1.426E+00    1.375E+00    1.323E+00    1.269E+00    1.215E+00    1.161E+00    1.105E+00    1.049E+00    9.924E-01    9.351E-01
     8.772E-01    8.188E-01    7.598E-01    7.005E-01    6.407E-01    5.806E-01    5.202E-01    4.595E-01    3.985E-01    3.373E-01
     2.760E-01    2.145E-01    1.529E-01    9.130E-02    2.968E-02   -3.191E-02   -9.344E-02   -1.549E-01   -2.161E-01   -2.773E-01
    -3.382E-01   -3.990E-01   -4.596E-01   -5.199E-01   -5.800E-01   -6.398E-01   -6.994E-01   -7.586E-01   -8.175E-01   -8.761E-01
    -9.342E-01   -9.921E-01   -1.049E+00   -1.106E+00   -1.163E+00   -1.219E+00   -1.275E+00   -1.330E+00   -1.384E+00   -1.438E+00
    -1.492E+00   -1.545E+00   -1.597E+00   -1.649E+00   -1.700E+00   -1.750E+00   -1.800E+00   -1.849E+00   -1.897E+00   -1.945E+00
    -1.992E+00   -2.038E+00   -2.083E+00   -2.128E+00   -2.172E+00   -2.214E+00   -2.256E+00   -2.297E+00   -2.338E+00   -2.377E+00
    -2.415E+00   -2.452E+00   -2.489E+00   -2.524E+00   -2.559E+00   -2.592E+00   -2.624E+00   -2.656E+00   -2.686E+00   -2.716E+00
    -2.745E+00   -2.772E+00   -2.799E+00   -2.825E+00   -2.850E+00   -2.874E+00   -2.897E+00   -2.920E+00   -2.941E+00   -2.961E+00
    -2.981E+00   -3.000E+00   -3.018E+00   -3.035E+00   -3.051E+00   -3.066E+00   -3.081E+00   -3.095E+00   -3.108E+00   -3.120E+00
    -3.131E+00   -3.141E+00   -3.151E+00   -3.160E+00   -3.168E+00   -3.175E+00   -3.182E+00   -3.188E+00   -3.193E+00   -3.197E+00
    -3.201E+00   -3.204E+00   -3.206E+00   -3.207E+00   -3.208E+00   -3.208E+00   -3.207E+00   -3.206E+00   -3.204E+00   -3.201E+00
    -3.197E+00   -3.193E+00   -3.189E+00   -3.183E+00   -3.178E+00   -3.171E+00   -3.164E+00   -3.157E+00   -3.149E+00   -3.140E+00
    -3.131E+00   -3.121E+00   -3.111E+00   -3.101E+00   -3.090E+00   -3.078E+00   -3.066E+00   -3.054E+00   -3.041E+00   -3.028E+00
    -3.015E+00   -3.001E+00   -2.987E+00   -2.973E+00   -2.958E+00   -2.943E+00   -2.928E+00   -2.913E+00   -2.897E+00   -2.881E+00
    -2.865E+00   -2.849E+00   -2.832E+00   -2.816E+00   -2.799E+00   -2.782E+00   -2.765E+00   -2.748E+00   -2.730E+00   -2.713E+00
    -2.696E+00   -2.678E+00   -2.661E+00   -2.643E+00   -2.626E+00   -2.608E+00   -2.590E+00   -2.573E+00   -2.555E+00   -2.538E+00
    -2.520E+00   -2.502E+00   -2.485E+00   -2.467E+00   -2.449E+00   -2.431E+00   -2.414E+00   -2.396E+00   -2.378E+00   -2.360E+00
    -2.342E+00   -2.324E+00   -2.306E+00   -2.288E+00   -2.270E+00   -2.252E+00   -2.234E+00   -2.216E+00   -2.198E+00   -2.180E+00
    -2.162E+00   -2.143E+00   -2.125E+00   -2.107E+00   -2.088E+00   -2.070E+00   -2.052E+00   -2.033E+00   -2.015E+00   -1.996E+00
    -1.978E+00   -1.959E+00   -1.941E+00   -1.922E+00   -1.904E+00   -1.885E+00   -1.866E+00   -1.847E+00
 Asp      Conc. = 8.98E+01
