 LCModel (Version 6.3-1L) Copyright: S.W. Provencher.          Ref.: Magn. Reson. Med. 30:672-679 (1993).                
 Slice#3 Row#6 Col#8  PD_05_press_1_raw_act
 36 lines in following concentration table = NCONC+1
    Conc.  %SD /Cr+PCr  Metabolite                                         
  260.794  45%   0.174 Ala                                                 
   30.178 674% 2.0E-02 Asp                                                 
  913.638  25%   0.609 Cr                                                  
  585.564  39%   0.391 PCr                                                 
   13.123 999% 8.8E-03 GABA                                                
    0.000 999%   0.000 Glc                                                 
 1.36E+03  19%   0.904 Gln                                                 
 1.69E+03  17%   1.130 Glu                                                 
  476.086   4%   0.318 GPC                                                 
    0.000 999%   0.000 PCh                                                 
  446.809  16%   0.298 GSH                                                 
  751.283  32%   0.501 Ins                                                 
  170.499  89%   0.114 Lac                                                 
 1.96E+03   3%   1.307 NAA                                                 
    0.000 999%   0.000 NAAG                                                
   20.422 117% 1.4E-02 Scyllo                                              
    0.000 999%   0.000 Tau                                                 
    0.000 999%   0.000 -CrCH2                                              
  476.086   4%   0.318 GPC+PCh                                             
 1.96E+03   3%   1.307 NAA+NAAG                                            
 1.50E+03   3%   1.000 Cr+PCr                                              
 3.05E+03  14%   2.034 Glu+Gln                                             
    0.000 999%   0.000 Lip13a                                              
  902.871  32%   0.602 Lip13b                                              
    0.000 999%   0.000 Lip09                                               
  913.852  17%   0.610 MM09                                                
  163.108  81%   0.109 Lip20                                               
 1.97E+03  14%   1.313 MM20                                                
  274.131  34%   0.183 MM12                                                
 1.12E+03  24%   0.744 MM14                                                
  752.520  23%   0.502 MM17                                                
  902.871  32%   0.602 Lip13a+Lip13b                                       
 2.29E+03  14%   1.529 MM14+Lip13a+Lip13b+MM12                             
  913.852  17%   0.610 MM09+Lip09                                          
 2.13E+03  14%   1.421 MM20+Lip20                                          
   6 lines in following misc. output table
  FWHM = 0.061 ppm    S/N =  10                                            
  Data shift =-0.008 ppm                                                   
  Ph: -11 deg      -2.3 deg/ppm                                            
  alphaB,S = 1.2E+00,   1.0E+02                                            
   14 spline knots.   Ns = 7(1)                                            
  (12) 4 infls.   ( 9) 1 extrs.                                            
  498 points on ppm-axis = NY
      4.000000     3.992357     3.984714     3.977070     3.969427     3.961784     3.954141     3.946497     3.938854     3.931211
      3.923568     3.915925     3.908281     3.900638     3.892995     3.885352     3.877708     3.870065     3.862422     3.854779
      3.847136     3.839492     3.831849     3.824206     3.816563     3.808919     3.801276     3.793633     3.785990     3.778347
      3.770703     3.763060     3.755417     3.747774     3.740130     3.732487     3.724844     3.717201     3.709558     3.701914
      3.694271     3.686628     3.678985     3.671341     3.663698     3.656055     3.648412     3.640769     3.633125     3.625482
      3.617839     3.610196     3.602552     3.594909     3.587266     3.579623     3.571980     3.564336     3.556693     3.549050
      3.541407     3.533763     3.526120     3.518477     3.510834     3.503191     3.495547     3.487904     3.480261     3.472618
      3.464974     3.457331     3.449688     3.442045     3.434402     3.426758     3.419115     3.411472     3.403829     3.396185
      3.388542     3.380899     3.373256     3.365613     3.357969     3.350326     3.342683     3.335040     3.327396     3.319753
      3.312110     3.304467     3.296824     3.289180     3.281537     3.273894     3.266251     3.258607     3.250964     3.243321
      3.235678     3.228034     3.220391     3.212748     3.205105     3.197462     3.189818     3.182175     3.174532     3.166889
      3.159245     3.151602     3.143959     3.136316     3.128673     3.121029     3.113386     3.105743     3.098100     3.090456
      3.082813     3.075170     3.067527     3.059884     3.052240     3.044597     3.036954     3.029311     3.021667     3.014024
      3.006381     2.998738     2.991095     2.983451     2.975808     2.968165     2.960522     2.952878     2.945235     2.937592
      2.929949     2.922306     2.914662     2.907019     2.899376     2.891733     2.884089     2.876446     2.868803     2.861160
      2.853517     2.845873     2.838230     2.830587     2.822944     2.815300     2.807657     2.800014     2.792371     2.784728
      2.777084     2.769441     2.761798     2.754155     2.746511     2.738868     2.731225     2.723582     2.715939     2.708295
      2.700652     2.693009     2.685366     2.677722     2.670079     2.662436     2.654793     2.647150     2.639506     2.631863
      2.624220     2.616577     2.608933     2.601290     2.593647     2.586004     2.578361     2.570717     2.563074     2.555431
      2.547788     2.540144     2.532501     2.524858     2.517215     2.509572     2.501928     2.494285     2.486642     2.478999
      2.471355     2.463712     2.456069     2.448426     2.440783     2.433139     2.425496     2.417853     2.410210     2.402566
      2.394923     2.387280     2.379637     2.371994     2.364350     2.356707     2.349064     2.341421     2.333777     2.326134
      2.318491     2.310848     2.303205     2.295561     2.287918     2.280275     2.272632     2.264988     2.257345     2.249702
      2.242059     2.234416     2.226772     2.219129     2.211486     2.203843     2.196199     2.188556     2.180913     2.173270
      2.165627     2.157983     2.150340     2.142697     2.135054     2.127410     2.119767     2.112124     2.104481     2.096838
      2.089194     2.081551     2.073908     2.066265     2.058621     2.050978     2.043335     2.035692     2.028049     2.020405
      2.012762     2.005119     1.997476     1.989833     1.982190     1.974546     1.966903     1.959260     1.951617     1.943974
      1.936331     1.928688     1.921045     1.913402     1.905759     1.898115     1.890472     1.882829     1.875186     1.867543
      1.859900     1.852257     1.844614     1.836971     1.829327     1.821684     1.814041     1.806398     1.798755     1.791112
      1.783469     1.775826     1.768183     1.760540     1.752896     1.745253     1.737610     1.729967     1.722324     1.714681
      1.707038     1.699395     1.691752     1.684108     1.676465     1.668822     1.661179     1.653536     1.645893     1.638250
      1.630607     1.622964     1.615321     1.607677     1.600034     1.592391     1.584748     1.577105     1.569462     1.561819
      1.554176     1.546533     1.538890     1.531246     1.523603     1.515960     1.508317     1.500674     1.493031     1.485388
      1.477745     1.470102     1.462458     1.454815     1.447172     1.439529     1.431886     1.424243     1.416600     1.408957
      1.401314     1.393671     1.386027     1.378384     1.370741     1.363098     1.355455     1.347812     1.340169     1.332526
      1.324883     1.317240     1.309596     1.301953     1.294310     1.286667     1.279024     1.271381     1.263738     1.256095
      1.248452     1.240808     1.233165     1.225522     1.217879     1.210236     1.202593     1.194950     1.187307     1.179664
      1.172021     1.164377     1.156734     1.149091     1.141448     1.133805     1.126162     1.118519     1.110876     1.103233
      1.095590     1.087946     1.080303     1.072660     1.065017     1.057374     1.049731     1.042088     1.034445     1.026802
      1.019158     1.011515     1.003872     0.996229     0.988586     0.980943     0.973300     0.965657     0.958014     0.950371
      0.942727     0.935084     0.927441     0.919798     0.912155     0.904512     0.896869     0.889226     0.881583     0.873940
      0.866296     0.858653     0.851010     0.843367     0.835724     0.828081     0.820438     0.812795     0.805152     0.797508
      0.789865     0.782222     0.774579     0.766936     0.759293     0.751650     0.744007     0.736364     0.728721     0.721077
      0.713434     0.705791     0.698148     0.690505     0.682862     0.675219     0.667576     0.659933     0.652290     0.644646
      0.637003     0.629360     0.621717     0.614074     0.606431     0.598788     0.591145     0.583502     0.575858     0.568215
      0.560572     0.552929     0.545286     0.537643     0.530000     0.522357     0.514714     0.507071     0.499427     0.491784
      0.484141     0.476498     0.468855     0.461212     0.453569     0.445925     0.438282     0.430639     0.422996     0.415353
      0.407710     0.400067     0.392424     0.384780     0.377137     0.369494     0.361851     0.354208     0.346565     0.338922
      0.331278     0.323635     0.315992     0.308349     0.300706     0.293063     0.285420     0.277777     0.270133     0.262490
      0.254847     0.247204     0.239561     0.231918     0.224275     0.216631     0.208988     0.201345
 NY phased data points follow
   1.39854E+01  9.08815E+00  7.73604E+00  1.43720E+01  1.20418E+01  2.31168E+01  2.63429E+01  2.78280E+01  3.75067E+01  3.87169E+01
   4.11432E+01  4.73463E+01  3.61488E+01  4.10130E+01  3.78190E+01  3.09225E+01  2.76053E+01  2.13139E+01  1.56730E+01  2.09995E+01
   1.49242E+01  1.78904E+01  1.85382E+01  1.38987E+01  1.77955E+01  1.20834E+01  1.20159E+01  1.70819E+01  1.40179E+01  1.87180E+01
   2.03832E+01  1.74143E+01  2.00520E+01  1.48179E+01  1.93443E+01  1.99942E+01  1.35211E+01  1.49090E+01  1.02562E+01  7.41823E+00
   1.35431E+01  1.13833E+01  1.16373E+01  1.63496E+01  1.48488E+01  1.77905E+01  1.64345E+01  1.43957E+01  1.60844E+01  1.04162E+01
   1.32064E+01  1.10100E+01  1.10405E+01  1.22257E+01  7.55749E+00  7.14916E+00  1.59016E+01  9.70986E+00  1.06628E+01  9.41243E+00
   4.58212E+00  6.66441E+00  4.94964E+00  1.96372E+00  2.83667E+00 -1.44478E+00  1.35619E+00  5.81308E+00 -2.79177E+00  3.67598E+00
  -3.81504E+00  1.00295E-01  5.04532E+00 -2.72434E-01  4.26334E-01 -5.19694E-01 -4.53390E+00  5.37384E+00  1.53675E+00 -2.11609E+00
   2.71560E+00 -1.07703E+00  4.47600E+00  1.68930E+00  1.46750E+00  2.53435E+00  4.51609E-01  3.33742E+00  3.77798E+00  1.78099E-01
   3.08364E+00 -2.12454E+00  3.46592E+00  1.53229E+00  3.13580E-02 -6.70090E-01  3.47206E+00  2.45118E+00  1.05292E+01  1.76310E+01
   2.54872E+01  3.46279E+01  4.01575E+01  3.94514E+01  3.82108E+01  3.23433E+01  3.02599E+01  2.66346E+01  2.08174E+01  1.46333E+01
   1.67914E+01  8.10591E+00  7.29373E+00  4.44782E+00  5.82119E+00  5.38881E+00 -5.38233E-01  1.33795E+00 -5.36445E-02 -9.29109E-01
   7.52610E+00  2.70350E+00  1.10590E+01  1.52859E+01  2.28111E+01  3.48631E+01  3.74113E+01  4.49644E+01  4.52590E+01  3.73799E+01
   3.76149E+01  3.01791E+01  1.91194E+01  1.39884E+01  1.04181E+01  8.09793E+00  5.74739E+00 -4.68918E-01  3.65328E+00  8.68716E-02
   1.57885E+00  3.73925E+00 -2.37094E+00 -1.08287E+00 -3.50707E-01 -1.33916E+00 -2.19127E-01 -3.62615E+00 -3.41890E+00  7.83184E-01
  -5.92559E+00 -1.08552E+00 -4.05178E+00 -7.56557E+00 -2.92141E+00 -4.05141E+00 -6.90547E+00 -2.31979E+00 -5.95738E+00 -3.62050E+00
  -4.52577E-01 -6.27738E+00 -3.18052E+00 -1.41583E+00 -8.01646E+00 -3.15124E+00 -2.65550E+00 -8.43102E-01  2.08415E-01 -4.58020E+00
  -1.97601E+00 -6.05837E+00 -6.62014E+00 -1.14403E+01 -1.12351E+01 -6.20360E+00 -9.68346E+00 -7.76212E+00 -1.07167E+01 -1.14461E+01
  -1.22986E+01 -1.02726E+01 -1.68345E+01 -9.98600E+00 -1.38579E+01 -1.37322E+01 -9.29003E+00 -4.38365E+00 -5.85925E+00 -5.51938E+00
  -1.53228E+00  1.17678E-01  1.89533E+00  2.38063E+00  1.40484E+00  7.28650E-01  5.95086E-01 -2.14011E+00 -3.00377E+00 -9.54336E-01
  -3.80227E+00 -4.68078E+00  3.19659E+00  7.48912E-02 -3.76441E+00  1.78635E+00 -6.82628E+00 -5.70232E+00 -7.58249E+00 -5.90217E+00
  -6.29102E+00 -7.36776E+00 -3.87086E+00 -3.30149E+00  4.11537E+00  5.52185E+00  1.02079E+01  7.96603E+00  3.53079E+00  3.77358E-01
  -2.86544E+00 -2.27959E+00 -3.29112E+00 -5.60279E+00 -9.57743E-01  3.08097E+00  5.66914E+00  2.40560E+00  4.07841E+00  7.20006E+00
   1.11976E+00  2.78559E+00  1.70964E+00 -7.11437E-01  3.86423E+00  2.52871E+00  3.51796E+00  3.49131E+00  2.09921E+00  1.80237E+00
   8.25984E-01  4.34259E+00  1.76155E+00  4.53098E+00  4.88215E+00  2.28798E+00  2.85628E+00  8.22108E-01  5.93071E+00  5.17357E+00
   5.86053E+00  4.74490E+00  5.50668E+00  9.03800E+00  1.04591E+01  1.98332E+01  2.95639E+01  3.85757E+01  4.61220E+01  5.78873E+01
   5.85762E+01  6.43166E+01  5.33220E+01  5.04892E+01  3.88584E+01  2.76618E+01  1.98630E+01  1.35228E+01  9.76291E+00  1.05582E+01
   8.87507E+00  9.17208E+00  6.84472E+00  2.32611E+00  3.65356E+00  1.23517E+00  7.74808E-01 -4.14589E-01 -4.17424E+00 -1.78903E+00
   4.91687E-01  4.09991E-01 -5.63226E+00 -7.77689E-02 -6.47085E-01  9.17725E-01  7.29659E-01 -1.72296E+00 -1.61496E+00 -1.16322E-01
  -3.18762E+00 -2.26363E+00  1.62077E+00 -4.81993E-02 -7.03127E+00  3.60642E+00 -2.05253E+00  1.80992E-01 -1.37651E+00  1.69972E+00
  -9.94910E-02  7.21079E-01  6.79966E-01 -8.24303E-02  1.76703E+00  2.72650E+00  5.14230E-01  3.31420E+00  3.46352E+00  3.13709E+00
   1.48765E+00  3.74268E+00  5.61635E+00  6.69417E+00  4.66166E+00  6.24214E+00  6.46474E+00  5.51848E+00  7.22742E+00  3.72221E+00
   3.53614E+00  5.88437E+00  1.89837E+00  7.43851E+00  4.45413E+00  4.61373E+00  2.22426E+00  2.65494E+00  5.94216E+00  6.92598E-02
   5.82778E-01  3.88883E+00 -6.06702E-01  3.42970E+00  3.89057E+00  4.10180E+00  7.01707E-01  3.24647E+00  3.22029E+00  4.30475E+00
   3.57058E+00  7.06100E+00  8.95744E+00  1.06707E+01  8.47864E+00  9.79466E+00  6.91530E+00  8.77243E+00  6.62506E+00  6.65936E+00
   9.82190E+00  7.77436E+00  7.27044E+00  5.10812E+00  7.59745E+00  9.23248E+00  6.13514E+00  9.90587E+00  3.25039E+00  1.82545E+00
   6.03638E+00  4.93212E+00  5.25505E+00  5.53352E+00  5.20378E+00  1.37124E+00  1.21854E+00  2.59347E+00 -1.22940E+00 -3.98759E+00
   6.42767E+00  4.40681E+00 -1.67749E+00  2.07463E+00  2.63916E+00 -1.72788E+00  3.93119E-01  8.02552E-01  3.63112E-01  8.73346E-01
  -3.39939E+00 -9.42793E-01  2.72642E+00 -1.76468E+00  1.81786E-01 -1.00316E-01 -5.04264E+00 -3.17325E+00  1.82995E+00 -1.72210E+00
  -2.17501E+00  1.68832E+00  7.80372E-01  7.74064E-01  3.62587E+00  8.05325E+00 -2.73618E+00  5.22664E+00  4.94241E+00  3.07447E+00
   1.49800E+00 -6.01342E-01  2.06996E+00  5.09821E+00  1.83195E+00  2.73270E+00  1.21746E+00  3.68144E+00  4.50973E+00  3.73162E+00
   4.78827E+00  3.41362E+00  1.44067E+00  1.35470E+00  1.85367E+00  3.77848E+00 -1.30032E+00  5.48874E+00  1.29101E+00 -4.94884E-01
  -2.07559E+00 -2.46710E+00 -3.58998E+00 -3.31340E+00  8.66972E-01  1.93316E+00 -1.09112E+00  3.33040E-01  1.79802E+00 -1.55925E+00
  -7.57955E-01  4.29901E+00 -5.90306E-01  4.50330E+00  9.83226E-02  7.67241E-01  4.93407E-01 -1.47262E+00 -3.13738E-01 -3.44391E+00
  -1.29456E-01 -4.03011E+00  2.22135E+00  1.47373E-01  1.98877E-01 -2.32135E+00  1.19836E+00 -2.74183E+00 -3.98204E+00 -2.99385E+00
   1.74463E+00  6.29240E-03 -2.71028E+00 -3.36815E+00 -5.06058E+00  2.20751E+00 -1.62235E-01 -2.69647E+00  1.44690E+00 -2.56048E+00
  -4.89633E-01 -1.71635E-03 -9.43009E-01  2.33750E+00  1.90641E+00  1.54534E+00 -1.65258E+00  6.50989E-01 -7.60870E-01 -1.92730E+00
  -1.66870E+00  1.00229E+00 -4.05934E+00 -3.31333E+00  1.06531E-01 -1.30963E+00  8.06555E-01 -2.21426E+00 -5.07052E-01  1.59943E+00
   1.63083E+00  5.36834E-01  1.37787E+00 -1.76815E+00 -5.01267E-01 -4.01221E+00 -4.66280E-01  3.04276E-01 -3.64558E+00  9.93833E-02
  -1.67501E+00  7.88992E-01  9.13632E-01 -1.93342E+00 -6.70766E-01  7.31349E-02 -1.08775E+00  3.23283E+00
 NY points of the fit to the data follow
   1.15536E+01  1.14349E+01  1.17913E+01  1.28194E+01  1.48066E+01  1.81018E+01  2.25807E+01  2.77265E+01  3.27973E+01  3.69978E+01
   3.96525E+01  4.04012E+01  3.92556E+01  3.65194E+01  3.28160E+01  2.87705E+01  2.48080E+01  2.12025E+01  1.82682E+01  1.60822E+01
   1.43049E+01  1.33559E+01  1.26424E+01  1.19442E+01  1.14414E+01  1.14221E+01  1.21525E+01  1.36932E+01  1.58232E+01  1.80728E+01
   1.98941E+01  2.08408E+01  2.06912E+01  1.94318E+01  1.74368E+01  1.52506E+01  1.32466E+01  1.14464E+01  9.96483E+00  9.27984E+00
   9.27471E+00  9.80353E+00  1.07934E+01  1.19696E+01  1.30581E+01  1.38278E+01  1.41899E+01  1.39457E+01  1.31435E+01  1.21768E+01
   1.11203E+01  9.96963E+00  8.95443E+00  8.25979E+00  7.72306E+00  7.28341E+00  7.13922E+00  7.23134E+00  7.28194E+00  7.15591E+00
   6.88729E+00  6.50382E+00  6.05357E+00  5.57623E+00  5.15845E+00  4.88842E+00  4.74838E+00  4.69540E+00  4.72553E+00  4.79738E+00
   4.87042E+00  4.90096E+00  4.85121E+00  4.72574E+00  4.53857E+00  4.30494E+00  4.06149E+00  3.83402E+00  3.64275E+00  3.46873E+00
   3.32303E+00  3.19980E+00  3.04643E+00  2.83044E+00  2.54451E+00  2.20986E+00  1.86743E+00  1.57130E+00  1.37253E+00  1.29937E+00
   1.34237E+00  1.47320E+00  1.64569E+00  1.80264E+00  1.94448E+00  2.24572E+00  3.35489E+00  6.23713E+00  1.12018E+01  1.78965E+01
   2.54218E+01  3.25574E+01  3.80255E+01  4.08139E+01  4.04931E+01  3.74999E+01  3.26779E+01  2.66841E+01  2.04710E+01  1.51381E+01
   1.06754E+01  6.25471E+00  2.80009E+00  1.63662E+00  1.30422E+00  1.16437E+00  1.10556E+00  1.11459E+00  1.22771E+00  1.58397E+00
   2.82211E+00  6.02060E+00  1.15038E+01  1.88689E+01  2.71483E+01  3.50435E+01  4.12091E+01  4.46012E+01  4.47284E+01  4.19058E+01
   3.69719E+01  3.05593E+01  2.35994E+01  1.73190E+01  1.18987E+01  6.57243E+00  2.29644E+00  7.47042E-01  3.93020E-01  4.47182E-01
   6.54951E-01  8.29159E-01  9.33764E-01  1.00868E+00  9.75715E-01  8.02756E-01  5.32023E-01  1.80117E-01 -2.13764E-01 -6.00008E-01
  -9.62258E-01 -1.22704E+00 -1.42126E+00 -1.57065E+00 -1.71817E+00 -1.90884E+00 -2.16763E+00 -2.48137E+00 -2.77647E+00 -2.99782E+00
  -3.12963E+00 -3.17441E+00 -3.15958E+00 -3.14834E+00 -3.20403E+00 -3.34461E+00 -3.57558E+00 -3.88627E+00 -4.22979E+00 -4.58165E+00
  -5.00877E+00 -5.49246E+00 -5.97114E+00 -6.38782E+00 -6.64221E+00 -6.76528E+00 -6.82523E+00 -6.82949E+00 -6.80524E+00 -6.78757E+00
  -6.80412E+00 -6.86878E+00 -6.94076E+00 -6.91138E+00 -6.65681E+00 -6.16086E+00 -5.47082E+00 -4.57657E+00 -3.58069E+00 -2.65692E+00
  -2.05097E+00 -1.91366E+00 -2.21479E+00 -2.82336E+00 -3.51665E+00 -4.03993E+00 -4.23581E+00 -3.93181E+00 -2.99719E+00 -1.53340E+00
   2.00013E-01  1.87915E+00  3.10724E+00  3.37192E+00  2.47730E+00  5.65099E-01 -2.00651E+00 -4.77263E+00 -7.09138E+00 -8.33872E+00
  -8.14178E+00 -6.51925E+00 -3.95369E+00 -1.05405E+00  1.61803E+00  3.36147E+00  3.62841E+00  2.60557E+00  8.04707E-01 -1.68362E+00
  -4.16845E+00 -5.74235E+00 -6.19594E+00 -5.69352E+00 -4.51549E+00 -2.71566E+00 -7.52143E-01  8.59660E-01  1.89989E+00  2.40463E+00
   2.58943E+00  2.47820E+00  2.11873E+00  1.86459E+00  2.00613E+00  2.48065E+00  3.09542E+00  3.59323E+00  3.79504E+00  3.71739E+00
   3.35412E+00  2.68747E+00  1.93149E+00  1.41488E+00  1.24070E+00  1.15204E+00  1.24986E+00  1.73754E+00  2.46837E+00  3.27164E+00
   4.25147E+00  5.43772E+00  6.58591E+00  8.58479E+00  1.28922E+01  1.99202E+01  2.91355E+01  3.94288E+01  4.91881E+01  5.66181E+01
   6.03348E+01  5.97441E+01  5.54225E+01  4.85168E+01  3.99274E+01  3.09820E+01  2.32149E+01  1.65564E+01  9.88664E+00  4.64954E+00
   2.65069E+00  1.86889E+00  1.42505E+00  1.18164E+00  1.02777E+00  8.53458E-01  6.70286E-01  4.63742E-01  2.29257E-01 -1.21596E-02
  -2.41558E-01 -4.69939E-01 -6.85035E-01 -8.58770E-01 -9.87769E-01 -1.08267E+00 -1.15243E+00 -1.19989E+00 -1.22171E+00 -1.22084E+00
  -1.20544E+00 -1.16894E+00 -1.10615E+00 -1.01525E+00 -8.95488E-01 -7.45107E-01 -5.62418E-01 -3.48995E-01 -1.06997E-01  1.63265E-01
   4.58545E-01  7.73361E-01  1.10272E+00  1.44022E+00  1.77861E+00  2.11022E+00  2.42737E+00  2.72272E+00  2.98995E+00  3.22396E+00
   3.42078E+00  3.57800E+00  3.69600E+00  3.77736E+00  3.82638E+00  3.85011E+00  3.85796E+00  3.86253E+00  3.88156E+00  3.94469E+00
   4.10577E+00  4.37891E+00  4.68736E+00  4.92498E+00  4.98662E+00  4.79210E+00  4.30233E+00  3.52983E+00  2.58499E+00  1.69702E+00
   1.06316E+00  8.00438E-01  9.80505E-01  1.57272E+00  2.39671E+00  3.27463E+00  4.19203E+00  5.05067E+00  5.66823E+00  6.05849E+00
   6.31508E+00  6.57811E+00  6.87067E+00  7.04909E+00  7.07795E+00  7.09992E+00  7.04527E+00  6.86466E+00  6.61145E+00  6.40667E+00
   6.34187E+00  6.44896E+00  6.73163E+00  7.13693E+00  7.52251E+00  7.75613E+00  7.84077E+00  7.76147E+00  7.41503E+00  6.82951E+00
   6.09240E+00  5.31527E+00  4.53920E+00  3.72872E+00  2.97553E+00  2.37335E+00  1.88283E+00  1.47749E+00  1.14193E+00  8.64222E-01
   6.34372E-01  4.44066E-01  2.86606E-01  1.56831E-01  5.09832E-02 -3.35056E-02 -9.82553E-02 -1.44165E-01 -1.71584E-01 -1.80429E-01
  -1.70295E-01 -1.40570E-01 -9.05526E-02 -1.95261E-02  7.31831E-02  1.88156E-01  3.25806E-01  4.86256E-01  6.69238E-01  8.74003E-01
   1.09926E+00  1.34313E+00  1.60303E+00  1.87566E+00  2.15694E+00  2.44211E+00  2.72582E+00  3.00224E+00  3.26525E+00  3.50860E+00
   3.72614E+00  3.91215E+00  4.06156E+00  4.17020E+00  4.23496E+00  4.25397E+00  4.22663E+00  4.15374E+00  4.03742E+00  3.88098E+00
   3.68871E+00  3.46571E+00  3.21763E+00  2.95043E+00  2.67016E+00  2.38266E+00  2.09337E+00  1.80715E+00  1.52823E+00  1.26015E+00
   1.00567E+00  7.66813E-01  5.44890E-01  3.40583E-01  1.54073E-01 -1.48894E-02 -1.66899E-01 -3.02834E-01 -4.23755E-01 -5.30812E-01
  -6.25177E-01 -7.08011E-01 -7.80456E-01 -8.43614E-01 -8.98512E-01 -9.46073E-01 -9.87108E-01 -1.02235E+00 -1.05246E+00 -1.07804E+00
  -1.09963E+00 -1.11766E+00 -1.13249E+00 -1.14448E+00 -1.15393E+00 -1.16113E+00 -1.16631E+00 -1.16967E+00 -1.17135E+00 -1.17152E+00
  -1.17033E+00 -1.16793E+00 -1.16441E+00 -1.15984E+00 -1.15431E+00 -1.14789E+00 -1.14068E+00 -1.13275E+00 -1.12413E+00 -1.11487E+00
  -1.10499E+00 -1.09457E+00 -1.08365E+00 -1.07226E+00 -1.06042E+00 -1.04814E+00 -1.03545E+00 -1.02241E+00 -1.00905E+00 -9.95364E-01
  -9.81359E-01 -9.67047E-01 -9.52459E-01 -9.37627E-01 -9.22562E-01 -9.07260E-01 -8.91718E-01 -8.75954E-01 -8.59998E-01 -8.43872E-01
  -8.27573E-01 -8.11090E-01 -7.94424E-01 -7.77596E-01 -7.60630E-01 -7.43533E-01 -7.26294E-01 -7.08901E-01 -6.91361E-01 -6.73696E-01
  -6.55922E-01 -6.38034E-01 -6.20013E-01 -6.01852E-01 -5.83560E-01 -5.65154E-01 -5.46637E-01 -5.27987E-01
 NY background values follow
     8.815E+00    8.723E+00    8.632E+00    8.540E+00    8.448E+00    8.357E+00    8.265E+00    8.173E+00    8.081E+00    7.990E+00
     7.898E+00    7.806E+00    7.714E+00    7.623E+00    7.531E+00    7.439E+00    7.348E+00    7.256E+00    7.164E+00    7.073E+00
     6.981E+00    6.890E+00    6.798E+00    6.707E+00    6.616E+00    6.524E+00    6.433E+00    6.342E+00    6.251E+00    6.160E+00
     6.069E+00    5.979E+00    5.888E+00    5.797E+00    5.707E+00    5.617E+00    5.527E+00    5.437E+00    5.347E+00    5.257E+00
     5.167E+00    5.078E+00    4.989E+00    4.899E+00    4.810E+00    4.722E+00    4.633E+00    4.545E+00    4.456E+00    4.368E+00
     4.280E+00    4.193E+00    4.105E+00    4.018E+00    3.931E+00    3.844E+00    3.758E+00    3.671E+00    3.585E+00    3.500E+00
     3.414E+00    3.329E+00    3.244E+00    3.160E+00    3.075E+00    2.991E+00    2.908E+00    2.824E+00    2.741E+00    2.659E+00
     2.577E+00    2.495E+00    2.413E+00    2.332E+00    2.251E+00    2.171E+00    2.090E+00    2.011E+00    1.932E+00    1.853E+00
     1.774E+00    1.696E+00    1.619E+00    1.542E+00    1.465E+00    1.389E+00    1.313E+00    1.238E+00    1.163E+00    1.089E+00
     1.015E+00    9.418E-01    8.690E-01    7.967E-01    7.250E-01    6.537E-01    5.830E-01    5.128E-01    4.431E-01    3.739E-01
     3.052E-01    2.371E-01    1.695E-01    1.024E-01    3.588E-02   -3.012E-02   -9.559E-02   -1.605E-01   -2.249E-01   -2.888E-01
    -3.521E-01   -4.148E-01   -4.770E-01   -5.387E-01   -5.998E-01   -6.603E-01   -7.203E-01   -7.797E-01   -8.386E-01   -8.969E-01
    -9.546E-01   -1.012E+00   -1.068E+00   -1.124E+00   -1.180E+00   -1.235E+00   -1.289E+00   -1.343E+00   -1.396E+00   -1.448E+00
    -1.500E+00   -1.552E+00   -1.602E+00   -1.653E+00   -1.702E+00   -1.751E+00   -1.799E+00   -1.847E+00   -1.894E+00   -1.941E+00
    -1.987E+00   -2.032E+00   -2.077E+00   -2.121E+00   -2.165E+00   -2.208E+00   -2.250E+00   -2.292E+00   -2.333E+00   -2.374E+00
    -2.414E+00   -2.453E+00   -2.492E+00   -2.530E+00   -2.568E+00   -2.605E+00   -2.642E+00   -2.678E+00   -2.713E+00   -2.748E+00
    -2.782E+00   -2.816E+00   -2.849E+00   -2.881E+00   -2.913E+00   -2.944E+00   -2.975E+00   -3.005E+00   -3.035E+00   -3.064E+00
    -3.092E+00   -3.120E+00   -3.147E+00   -3.174E+00   -3.200E+00   -3.226E+00   -3.251E+00   -3.275E+00   -3.299E+00   -3.323E+00
    -3.346E+00   -3.368E+00   -3.389E+00   -3.411E+00   -3.431E+00   -3.451E+00   -3.471E+00   -3.490E+00   -3.508E+00   -3.526E+00
    -3.544E+00   -3.561E+00   -3.577E+00   -3.593E+00   -3.609E+00   -3.624E+00   -3.639E+00   -3.653E+00   -3.667E+00   -3.680E+00
    -3.693E+00   -3.706E+00   -3.718E+00   -3.730E+00   -3.741E+00   -3.752E+00   -3.763E+00   -3.773E+00   -3.783E+00   -3.792E+00
    -3.802E+00   -3.810E+00   -3.819E+00   -3.827E+00   -3.835E+00   -3.843E+00   -3.850E+00   -3.857E+00   -3.864E+00   -3.870E+00
    -3.876E+00   -3.882E+00   -3.888E+00   -3.893E+00   -3.898E+00   -3.903E+00   -3.908E+00   -3.912E+00   -3.917E+00   -3.921E+00
    -3.924E+00   -3.928E+00   -3.932E+00   -3.935E+00   -3.938E+00   -3.941E+00   -3.943E+00   -3.946E+00   -3.948E+00   -3.950E+00
    -3.952E+00   -3.953E+00   -3.955E+00   -3.956E+00   -3.957E+00   -3.958E+00   -3.959E+00   -3.960E+00   -3.960E+00   -3.960E+00
    -3.961E+00   -3.960E+00   -3.960E+00   -3.960E+00   -3.959E+00   -3.959E+00   -3.958E+00   -3.957E+00   -3.956E+00   -3.954E+00
    -3.953E+00   -3.951E+00   -3.949E+00   -3.947E+00   -3.945E+00   -3.943E+00   -3.941E+00   -3.939E+00   -3.936E+00   -3.933E+00
    -3.931E+00   -3.928E+00   -3.925E+00   -3.921E+00   -3.918E+00   -3.915E+00   -3.911E+00   -3.908E+00   -3.904E+00   -3.900E+00
    -3.896E+00   -3.892E+00   -3.888E+00   -3.883E+00   -3.879E+00   -3.874E+00   -3.870E+00   -3.865E+00   -3.860E+00   -3.855E+00
    -3.850E+00   -3.845E+00   -3.840E+00   -3.834E+00   -3.829E+00   -3.823E+00   -3.818E+00   -3.812E+00   -3.806E+00   -3.800E+00
    -3.794E+00   -3.788E+00   -3.781E+00   -3.775E+00   -3.769E+00   -3.762E+00   -3.756E+00   -3.749E+00   -3.742E+00   -3.735E+00
    -3.728E+00   -3.721E+00   -3.714E+00   -3.707E+00   -3.699E+00   -3.692E+00   -3.684E+00   -3.677E+00   -3.669E+00   -3.661E+00
    -3.654E+00   -3.646E+00   -3.638E+00   -3.630E+00   -3.621E+00   -3.613E+00   -3.605E+00   -3.596E+00   -3.588E+00   -3.579E+00
    -3.571E+00   -3.562E+00   -3.553E+00   -3.544E+00   -3.535E+00   -3.526E+00   -3.517E+00   -3.507E+00   -3.498E+00   -3.488E+00
    -3.479E+00   -3.469E+00   -3.459E+00   -3.449E+00   -3.439E+00   -3.429E+00   -3.419E+00   -3.409E+00   -3.398E+00   -3.388E+00
    -3.377E+00   -3.367E+00   -3.356E+00   -3.345E+00   -3.334E+00   -3.323E+00   -3.312E+00   -3.300E+00   -3.289E+00   -3.277E+00
    -3.266E+00   -3.254E+00   -3.242E+00   -3.230E+00   -3.218E+00   -3.206E+00   -3.194E+00   -3.181E+00   -3.169E+00   -3.156E+00
    -3.144E+00   -3.131E+00   -3.118E+00   -3.105E+00   -3.092E+00   -3.079E+00   -3.065E+00   -3.052E+00   -3.038E+00   -3.024E+00
    -3.011E+00   -2.997E+00   -2.982E+00   -2.968E+00   -2.954E+00   -2.940E+00   -2.925E+00   -2.910E+00   -2.896E+00   -2.881E+00
    -2.866E+00   -2.850E+00   -2.835E+00   -2.820E+00   -2.804E+00   -2.789E+00   -2.773E+00   -2.757E+00   -2.741E+00   -2.725E+00
    -2.708E+00   -2.692E+00   -2.675E+00   -2.659E+00   -2.642E+00   -2.625E+00   -2.608E+00   -2.591E+00   -2.573E+00   -2.556E+00
    -2.538E+00   -2.520E+00   -2.503E+00   -2.485E+00   -2.466E+00   -2.448E+00   -2.430E+00   -2.412E+00   -2.393E+00   -2.374E+00
    -2.356E+00   -2.337E+00   -2.318E+00   -2.299E+00   -2.280E+00   -2.260E+00   -2.241E+00   -2.222E+00   -2.202E+00   -2.183E+00
    -2.163E+00   -2.143E+00   -2.123E+00   -2.103E+00   -2.083E+00   -2.063E+00   -2.043E+00   -2.023E+00   -2.003E+00   -1.983E+00
    -1.962E+00   -1.942E+00   -1.921E+00   -1.901E+00   -1.880E+00   -1.860E+00   -1.839E+00   -1.818E+00   -1.798E+00   -1.777E+00
    -1.756E+00   -1.735E+00   -1.714E+00   -1.694E+00   -1.673E+00   -1.652E+00   -1.631E+00   -1.610E+00   -1.589E+00   -1.568E+00
    -1.547E+00   -1.525E+00   -1.504E+00   -1.483E+00   -1.462E+00   -1.441E+00   -1.420E+00   -1.399E+00   -1.377E+00   -1.356E+00
    -1.335E+00   -1.314E+00   -1.292E+00   -1.271E+00   -1.250E+00   -1.228E+00   -1.207E+00   -1.186E+00   -1.164E+00   -1.143E+00
    -1.122E+00   -1.100E+00   -1.079E+00   -1.057E+00   -1.036E+00   -1.015E+00   -9.932E-01   -9.718E-01   -9.504E-01   -9.290E-01
    -9.076E-01   -8.861E-01   -8.647E-01   -8.433E-01   -8.219E-01   -8.004E-01   -7.790E-01   -7.576E-01
 Ala      Conc. = 2.61E+02
