 LCModel (Version 6.3-1L) Copyright: S.W. Provencher.          Ref.: Magn. Reson. Med. 30:672-679 (1993).                
 Slice#3 Row#9 Col#9  PD_05_press_1_raw_act
 36 lines in following concentration table = NCONC+1
    Conc.  %SD /Cr+PCr  Metabolite                                         
  104.157  73% 7.6E-02 Ala                                                 
    0.000 999%   0.000 Asp                                                 
  365.344  40%   0.268 Cr                                                  
  999.480  15%   0.732 PCr                                                 
    0.000 999%   0.000 GABA                                                
    0.000 999%   0.000 Glc                                                 
  647.998  25%   0.475 Gln                                                 
 1.39E+03  13%   1.022 Glu                                                 
  427.903   3%   0.314 GPC                                                 
    0.000 999%   0.000 PCh                                                 
  393.398  12%   0.288 GSH                                                 
  884.029  17%   0.648 Ins                                                 
  199.736  42%   0.146 Lac                                                 
 1.84E+03   4%   1.347 NAA                                                 
   61.200 131% 4.5E-02 NAAG                                                
   35.453  48% 2.6E-02 Scyllo                                              
    0.000 999%   0.000 Tau                                                 
    0.000 999%   0.000 -CrCH2                                              
  427.903   3%   0.314 GPC+PCh                                             
 1.90E+03   3%   1.392 NAA+NAAG                                            
 1.36E+03   3%   1.000 Cr+PCr                                              
 2.04E+03  13%   1.497 Glu+Gln                                             
  263.951  78%   0.193 Lip13a                                              
    0.000 999%   0.000 Lip13b                                              
    0.000 999%   0.000 Lip09                                               
 1.02E+03  12%   0.747 MM09                                                
   38.749 153% 2.8E-02 Lip20                                               
 2.44E+03   9%   1.786 MM20                                                
  357.406  28%   0.262 MM12                                                
 1.45E+03  16%   1.063 MM14                                                
  681.067  21%   0.499 MM17                                                
  263.951  78%   0.193 Lip13a+Lip13b                                       
 2.07E+03   9%   1.518 MM14+Lip13a+Lip13b+MM12                             
 1.02E+03  12%   0.747 MM09+Lip09                                          
 2.48E+03   9%   1.815 MM20+Lip20                                          
   6 lines in following misc. output table
  FWHM = 0.054 ppm    S/N =  14                                            
  Data shift = 0.031 ppm                                                   
  Ph: -14 deg     -11.1 deg/ppm                                            
  alphaB,S = 8.5E+01,   1.8E+02                                            
   14 spline knots.   Ns = 7(1)                                            
   4 inflections.     1 extrema                                            
  498 points on ppm-axis = NY
      4.000000     3.992357     3.984714     3.977070     3.969427     3.961784     3.954141     3.946497     3.938854     3.931211
      3.923568     3.915925     3.908281     3.900638     3.892995     3.885352     3.877708     3.870065     3.862422     3.854779
      3.847136     3.839492     3.831849     3.824206     3.816563     3.808919     3.801276     3.793633     3.785990     3.778347
      3.770703     3.763060     3.755417     3.747774     3.740130     3.732487     3.724844     3.717201     3.709558     3.701914
      3.694271     3.686628     3.678985     3.671341     3.663698     3.656055     3.648412     3.640769     3.633125     3.625482
      3.617839     3.610196     3.602552     3.594909     3.587266     3.579623     3.571980     3.564336     3.556693     3.549050
      3.541407     3.533763     3.526120     3.518477     3.510834     3.503191     3.495547     3.487904     3.480261     3.472618
      3.464974     3.457331     3.449688     3.442045     3.434402     3.426758     3.419115     3.411472     3.403829     3.396185
      3.388542     3.380899     3.373256     3.365613     3.357969     3.350326     3.342683     3.335040     3.327396     3.319753
      3.312110     3.304467     3.296824     3.289180     3.281537     3.273894     3.266251     3.258607     3.250964     3.243321
      3.235678     3.228034     3.220391     3.212748     3.205105     3.197462     3.189818     3.182175     3.174532     3.166889
      3.159245     3.151602     3.143959     3.136316     3.128673     3.121029     3.113386     3.105743     3.098100     3.090456
      3.082813     3.075170     3.067527     3.059884     3.052240     3.044597     3.036954     3.029311     3.021667     3.014024
      3.006381     2.998738     2.991095     2.983451     2.975808     2.968165     2.960522     2.952878     2.945235     2.937592
      2.929949     2.922306     2.914662     2.907019     2.899376     2.891733     2.884089     2.876446     2.868803     2.861160
      2.853517     2.845873     2.838230     2.830587     2.822944     2.815300     2.807657     2.800014     2.792371     2.784728
      2.777084     2.769441     2.761798     2.754155     2.746511     2.738868     2.731225     2.723582     2.715939     2.708295
      2.700652     2.693009     2.685366     2.677722     2.670079     2.662436     2.654793     2.647150     2.639506     2.631863
      2.624220     2.616577     2.608933     2.601290     2.593647     2.586004     2.578361     2.570717     2.563074     2.555431
      2.547788     2.540144     2.532501     2.524858     2.517215     2.509572     2.501928     2.494285     2.486642     2.478999
      2.471355     2.463712     2.456069     2.448426     2.440783     2.433139     2.425496     2.417853     2.410210     2.402566
      2.394923     2.387280     2.379637     2.371994     2.364350     2.356707     2.349064     2.341421     2.333777     2.326134
      2.318491     2.310848     2.303205     2.295561     2.287918     2.280275     2.272632     2.264988     2.257345     2.249702
      2.242059     2.234416     2.226772     2.219129     2.211486     2.203843     2.196199     2.188556     2.180913     2.173270
      2.165627     2.157983     2.150340     2.142697     2.135054     2.127410     2.119767     2.112124     2.104481     2.096838
      2.089194     2.081551     2.073908     2.066265     2.058621     2.050978     2.043335     2.035692     2.028049     2.020405
      2.012762     2.005119     1.997476     1.989833     1.982190     1.974546     1.966903     1.959260     1.951617     1.943974
      1.936331     1.928688     1.921045     1.913402     1.905759     1.898115     1.890472     1.882829     1.875186     1.867543
      1.859900     1.852257     1.844614     1.836971     1.829327     1.821684     1.814041     1.806398     1.798755     1.791112
      1.783469     1.775826     1.768183     1.760540     1.752896     1.745253     1.737610     1.729967     1.722324     1.714681
      1.707038     1.699395     1.691752     1.684108     1.676465     1.668822     1.661179     1.653536     1.645893     1.638250
      1.630607     1.622964     1.615321     1.607677     1.600034     1.592391     1.584748     1.577105     1.569462     1.561819
      1.554176     1.546533     1.538890     1.531246     1.523603     1.515960     1.508317     1.500674     1.493031     1.485388
      1.477745     1.470102     1.462458     1.454815     1.447172     1.439529     1.431886     1.424243     1.416600     1.408957
      1.401314     1.393671     1.386027     1.378384     1.370741     1.363098     1.355455     1.347812     1.340169     1.332526
      1.324883     1.317240     1.309596     1.301953     1.294310     1.286667     1.279024     1.271381     1.263738     1.256095
      1.248452     1.240808     1.233165     1.225522     1.217879     1.210236     1.202593     1.194950     1.187307     1.179664
      1.172021     1.164377     1.156734     1.149091     1.141448     1.133805     1.126162     1.118519     1.110876     1.103233
      1.095590     1.087946     1.080303     1.072660     1.065017     1.057374     1.049731     1.042088     1.034445     1.026802
      1.019158     1.011515     1.003872     0.996229     0.988586     0.980943     0.973300     0.965657     0.958014     0.950371
      0.942727     0.935084     0.927441     0.919798     0.912155     0.904512     0.896869     0.889226     0.881583     0.873940
      0.866296     0.858653     0.851010     0.843367     0.835724     0.828081     0.820438     0.812795     0.805152     0.797508
      0.789865     0.782222     0.774579     0.766936     0.759293     0.751650     0.744007     0.736364     0.728721     0.721077
      0.713434     0.705791     0.698148     0.690505     0.682862     0.675219     0.667576     0.659933     0.652290     0.644646
      0.637003     0.629360     0.621717     0.614074     0.606431     0.598788     0.591145     0.583502     0.575858     0.568215
      0.560572     0.552929     0.545286     0.537643     0.530000     0.522357     0.514714     0.507071     0.499427     0.491784
      0.484141     0.476498     0.468855     0.461212     0.453569     0.445925     0.438282     0.430639     0.422996     0.415353
      0.407710     0.400067     0.392424     0.384780     0.377137     0.369494     0.361851     0.354208     0.346565     0.338922
      0.331278     0.323635     0.315992     0.308349     0.300706     0.293063     0.285420     0.277777     0.270133     0.262490
      0.254847     0.247204     0.239561     0.231918     0.224275     0.216631     0.208988     0.201345
 NY phased data points follow
   7.44253E+00  4.63934E+00  4.62675E+00  6.44115E+00  7.74652E+00  1.15087E+01  1.90249E+01  2.50497E+01  3.18965E+01  3.37238E+01
   3.69551E+01  3.35256E+01  3.32579E+01  2.75430E+01  2.51995E+01  1.68237E+01  1.43660E+01  1.32188E+01  1.06472E+01  8.88335E+00
   7.74684E+00  5.94986E+00  6.60689E+00  8.39059E+00  6.41171E+00  8.93558E+00  9.49070E+00  9.22758E+00  8.75170E+00  1.09405E+01
   1.27698E+01  1.44499E+01  1.46768E+01  1.30558E+01  1.08758E+01  1.15246E+01  9.66622E+00  1.08918E+01  1.10615E+01  7.98049E+00
   6.60049E+00  6.03584E+00  6.52576E+00  8.09903E+00  1.18258E+01  1.20742E+01  1.17359E+01  1.67015E+01  1.61250E+01  9.86325E+00
   9.37787E+00  1.03494E+01  8.82717E+00  9.18953E+00  8.19945E+00  1.00495E+01  8.53553E+00  8.65662E+00  8.28648E+00  7.52914E+00
   8.74215E+00  4.77550E+00  2.75146E+00  1.99381E+00 -1.16738E+00  9.00378E-01  8.29458E-03  3.32227E+00 -5.16824E-01  1.41460E+00
  -4.46001E-02 -3.71272E-01  1.79057E+00  2.27233E+00  2.63810E+00  3.13451E+00  1.66075E+00  6.34567E+00  2.07984E+00  2.65098E+00
   3.51963E+00  2.38386E+00  3.22223E+00  4.56103E+00  1.84115E+00  4.30261E+00  4.50079E+00  2.45772E+00  4.24194E+00  6.17220E+00
   5.60473E+00  7.32021E+00  9.26421E+00  7.32798E+00  6.42335E+00  8.30928E+00  4.43032E+00  5.86404E+00  1.14896E+01  1.58139E+01
   2.46596E+01  3.51312E+01  4.21011E+01  4.10308E+01  3.88049E+01  3.55083E+01  2.83589E+01  2.65231E+01  2.06379E+01  1.81180E+01
   1.29338E+01  1.11564E+01  8.13440E+00  7.83184E+00  6.14229E+00  6.91503E+00  8.57338E+00  8.24203E+00  7.01387E+00  5.83702E+00
   4.04156E+00  5.45388E+00  9.54439E+00  1.68502E+01  2.55861E+01  3.83582E+01  4.44921E+01  4.85492E+01  4.38853E+01  4.28062E+01
   3.35641E+01  3.15950E+01  2.69634E+01  2.27835E+01  1.56347E+01  1.18892E+01  1.02840E+01  5.00183E+00  4.80614E+00  6.79982E+00
   5.41438E+00  4.26926E+00  3.49556E+00  4.34088E+00  3.23222E+00  6.50565E+00  5.27655E+00  2.91372E+00  4.46828E+00  4.47303E+00
   4.49912E+00  2.47560E+00  5.39699E+00  3.45575E+00  4.22853E+00  6.01336E+00  4.29805E+00  4.12979E+00  5.98241E+00  1.80904E+00
  -1.95641E-01  2.72597E-01 -2.06340E-01  4.07088E-01  2.47547E+00  1.19542E+00  2.50315E+00  2.54691E+00  1.06549E+00  3.46696E+00
   1.24373E+00  6.95367E-01 -2.01034E+00 -3.36227E+00 -2.03900E+00 -1.97250E+00 -4.21782E+00 -3.62945E+00 -3.87874E-01 -1.46829E+00
  -3.89896E+00 -5.50907E+00 -3.95668E+00 -1.72102E+00 -4.11916E+00 -5.07419E+00 -3.36601E+00 -2.03860E+00  2.06713E+00  6.43883E+00
   6.84424E+00  9.44312E+00  1.16803E+01  1.22524E+01  8.96149E+00  1.15480E+01  1.04830E+01  6.54744E+00  6.60951E+00  6.12832E+00
   6.49563E+00  9.46221E+00  1.13788E+01  1.10340E+01  7.18747E+00  7.91586E+00  7.05495E+00  2.84492E+00  2.35604E+00  1.75284E+00
   7.86963E-01  5.46641E-01  3.17993E+00  9.91349E+00  1.12528E+01  1.38175E+01  1.42390E+01  1.46748E+01  1.04751E+01  6.56760E+00
   7.21293E+00  3.16266E+00  6.03810E+00  3.13024E+00  9.80443E+00  7.81928E+00  9.88231E+00  1.15823E+01  1.25151E+01  1.11202E+01
   1.09162E+01  9.33989E+00  1.15412E+01  1.17430E+01  1.24000E+01  1.30117E+01  1.54855E+01  1.09958E+01  9.88305E+00  8.87868E+00
   8.38472E+00  7.60650E+00  9.61089E+00  8.70095E+00  1.19180E+01  1.21065E+01  1.31198E+01  1.62543E+01  1.43560E+01  1.69629E+01
   1.76128E+01  1.84169E+01  1.81472E+01  1.98644E+01  1.83055E+01  2.44382E+01  3.12279E+01  4.72266E+01  6.03069E+01  7.01923E+01
   7.27509E+01  6.87085E+01  5.90078E+01  5.37531E+01  4.51977E+01  3.93236E+01  3.13815E+01  2.57873E+01  2.06436E+01  1.67533E+01
   1.45408E+01  1.17638E+01  8.85514E+00  1.10717E+01  1.18805E+01  1.14481E+01  9.82226E+00  1.16235E+01  1.02858E+01  1.16308E+01
   1.24276E+01  9.15246E+00  1.01001E+01  9.59521E+00  7.37066E+00  8.59586E+00  7.69982E+00  9.76289E+00  8.15516E+00  7.87742E+00
   9.00155E+00  9.68855E+00  8.53721E+00  7.31723E+00  9.46942E+00  6.98598E+00  9.10933E+00  1.18079E+01  8.16744E+00  7.86243E+00
   9.20611E+00  7.74652E+00  1.02752E+01  1.10634E+01  9.68255E+00  1.17493E+01  9.97259E+00  1.22928E+01  1.13449E+01  1.25967E+01
   1.16756E+01  1.01188E+01  9.81743E+00  1.14260E+01  1.29472E+01  1.10070E+01  1.12946E+01  1.24164E+01  1.01006E+01  1.18411E+01
   8.31555E+00  1.03040E+01  8.58104E+00  9.33126E+00  1.21999E+01  1.17052E+01  1.06967E+01  7.63886E+00  9.84317E+00  1.36477E+01
   1.05786E+01  1.16251E+01  1.22948E+01  1.12967E+01  1.52982E+01  1.29786E+01  1.49106E+01  1.61686E+01  1.90410E+01  1.60855E+01
   1.64250E+01  1.37873E+01  1.49238E+01  1.81012E+01  1.94371E+01  1.76747E+01  1.86891E+01  1.55528E+01  1.32431E+01  1.38351E+01
   1.33124E+01  1.37152E+01  1.22713E+01  1.10060E+01  1.38843E+01  1.20299E+01  1.11848E+01  1.26730E+01  1.41374E+01  1.00209E+01
   1.36258E+01  1.16896E+01  1.22280E+01  1.33527E+01  1.13732E+01  1.09895E+01  9.82227E+00  1.15490E+01  1.03001E+01  1.11266E+01
   1.23749E+01  1.15136E+01  8.41182E+00  1.17976E+01  1.10026E+01  9.57570E+00  8.77332E+00  1.09813E+01  1.07886E+01  9.34418E+00
   1.26478E+01  9.00606E+00  1.08258E+01  8.94777E+00  7.85869E+00  1.05660E+01  9.84849E+00  9.50117E+00  6.87554E+00  8.33883E+00
   9.30696E+00  1.23092E+01  1.06800E+01  9.83850E+00  1.02438E+01  1.09230E+01  1.22926E+01  1.07687E+01  1.26653E+01  1.15060E+01
   1.10851E+01  1.18171E+01  1.16832E+01  1.35375E+01  1.13289E+01  1.34597E+01  1.46592E+01  1.19740E+01  1.16554E+01  1.36372E+01
   1.22873E+01  1.22685E+01  1.22561E+01  1.36582E+01  1.41351E+01  1.32685E+01  1.23674E+01  1.26697E+01  9.93966E+00  1.35075E+01
   1.12571E+01  1.24299E+01  1.09230E+01  1.04529E+01  9.71406E+00  8.36422E+00  1.25323E+01  6.81465E+00  1.07194E+01  1.20176E+01
   1.07059E+01  9.10613E+00  7.51718E+00  7.87587E+00  7.29030E+00  1.10587E+01  1.02664E+01  9.91870E+00  7.50270E+00  9.65445E+00
   8.33950E+00  9.71567E+00  8.02903E+00  9.09479E+00  6.97740E+00  7.39501E+00  9.50090E+00  6.47993E+00  7.18190E+00  9.22838E+00
   5.93444E+00  9.54427E+00  7.99276E+00  7.22711E+00  6.39387E+00  8.80886E+00  7.18623E+00  6.45877E+00  6.53110E+00  7.32541E+00
   9.43422E+00  1.15039E+01  8.52695E+00  7.91971E+00  5.60641E+00  9.19905E+00  9.23370E+00  7.46589E+00  7.41623E+00  7.58089E+00
   6.81252E+00  1.00925E+01  6.23061E+00  8.55861E+00  7.24006E+00  5.65893E+00  9.09749E+00  7.87492E+00  7.82087E+00  1.06963E+01
   7.91598E+00  7.33147E+00  6.35758E+00  8.68242E+00  7.34068E+00  7.63539E+00  8.48117E+00  1.02773E+01  7.96571E+00  9.15912E+00
   6.27885E+00  9.07606E+00  8.91229E+00  9.46928E+00  7.56059E+00  8.80102E+00  7.75945E+00  6.40827E+00
 NY points of the fit to the data follow
   5.77081E+00  5.67692E+00  5.94168E+00  6.63446E+00  8.36077E+00  1.19192E+01  1.74123E+01  2.39291E+01  2.98350E+01  3.35389E+01
   3.43004E+01  3.24949E+01  2.92077E+01  2.55322E+01  2.20610E+01  1.88605E+01  1.57509E+01  1.25944E+01  9.63732E+00  7.75048E+00
   7.00390E+00  6.72965E+00  6.43194E+00  5.94927E+00  5.48358E+00  5.53080E+00  6.49462E+00  8.40427E+00  1.08421E+01  1.31632E+01
   1.47530E+01  1.52767E+01  1.47792E+01  1.35341E+01  1.19139E+01  1.02510E+01  8.79269E+00  7.52194E+00  6.44624E+00  5.85653E+00
   5.83285E+00  6.21171E+00  7.08421E+00  8.47382E+00  1.01235E+01  1.14824E+01  1.21433E+01  1.20001E+01  1.11622E+01  9.99544E+00
   8.83684E+00  7.79786E+00  6.93872E+00  6.26109E+00  5.69420E+00  5.33073E+00  5.40065E+00  5.82685E+00  6.24731E+00  6.40584E+00
   6.26987E+00  5.89369E+00  5.41173E+00  4.96737E+00  4.66463E+00  4.53833E+00  4.54696E+00  4.63832E+00  4.81744E+00  5.05879E+00
   5.29302E+00  5.46548E+00  5.52737E+00  5.48966E+00  5.38618E+00  5.25113E+00  5.11913E+00  4.99781E+00  4.88905E+00  4.78759E+00
   4.73366E+00  4.80095E+00  4.94383E+00  5.05393E+00  5.02388E+00  4.81220E+00  4.47344E+00  4.13076E+00  3.91594E+00  3.89633E+00
   4.06333E+00  4.34789E+00  4.65395E+00  4.90316E+00  5.08040E+00  5.28303E+00  5.73096E+00  7.09887E+00  1.07716E+01  1.74049E+01
   2.61056E+01  3.46173E+01  4.04514E+01  4.22158E+01  4.01801E+01  3.58277E+01  3.07881E+01  2.60171E+01  2.16741E+01  1.75104E+01
   1.32507E+01  9.00519E+00  5.92772E+00  4.97841E+00  4.86282E+00  4.92455E+00  5.04391E+00  5.20344E+00  5.42225E+00  5.75929E+00
   6.36389E+00  7.81762E+00  1.14899E+01  1.83255E+01  2.77224E+01  3.75015E+01  4.49046E+01  4.80769E+01  4.69554E+01  4.29241E+01
   3.77251E+01  3.24798E+01  2.73955E+01  2.22092E+01  1.67301E+01  1.11856E+01  6.78990E+00  5.01204E+00  4.88695E+00  5.18205E+00
   5.50257E+00  5.69196E+00  5.75788E+00  5.79992E+00  5.82029E+00  5.77334E+00  5.65739E+00  5.45507E+00  5.16714E+00  4.85189E+00
   4.53730E+00  4.29819E+00  4.14226E+00  4.05947E+00  4.03647E+00  4.00626E+00  3.87162E+00  3.58758E+00  3.21393E+00  2.90913E+00
   2.81913E+00  2.96193E+00  3.21333E+00  3.38436E+00  3.34264E+00  3.09346E+00  2.74930E+00  2.43213E+00  2.21344E+00  2.06176E+00
   1.82158E+00  1.39768E+00  8.67084E-01  3.93871E-01  1.79678E-01  2.29165E-01  3.82930E-01  5.19034E-01  5.76132E-01  5.76824E-01
   5.81447E-01  6.03713E-01  6.12995E-01  6.31024E-01  7.48075E-01  1.07891E+00  1.73614E+00  2.79629E+00  4.06582E+00  5.23001E+00
   5.99430E+00  6.28305E+00  6.20627E+00  5.88379E+00  5.44412E+00  5.02581E+00  4.76522E+00  4.81558E+00  5.31179E+00  6.20843E+00
   7.35778E+00  8.53198E+00  9.42682E+00  9.74204E+00  9.27870E+00  8.05022E+00  6.36249E+00  4.54512E+00  2.99693E+00  2.11213E+00
   2.15179E+00  3.24269E+00  5.22031E+00  7.68500E+00  9.99460E+00  1.15127E+01  1.18523E+01  1.08879E+01  8.83848E+00  6.18625E+00
   3.78822E+00  2.29628E+00  1.87890E+00  2.42817E+00  3.67816E+00  5.33733E+00  7.08343E+00  8.44428E+00  9.36687E+00  9.97724E+00
   1.03885E+01  1.06213E+01  1.07035E+01  1.08995E+01  1.14530E+01  1.22331E+01  1.29340E+01  1.32741E+01  1.30887E+01  1.24587E+01
   1.16479E+01  1.09558E+01  1.06870E+01  1.09424E+01  1.15218E+01  1.21535E+01  1.27466E+01  1.32830E+01  1.37684E+01  1.42905E+01
   1.49964E+01  1.59178E+01  1.69427E+01  1.80729E+01  2.02201E+01  2.54897E+01  3.49598E+01  4.75409E+01  6.00863E+01  6.89113E+01
   7.17639E+01  6.88409E+01  6.22324E+01  5.43890E+01  4.68426E+01  3.99454E+01  3.32950E+01  2.63747E+01  1.92815E+01  1.39066E+01
   1.18076E+01  1.10174E+01  1.05900E+01  1.03382E+01  1.01757E+01  9.99326E+00  9.78424E+00  9.56665E+00  9.34853E+00  9.14144E+00
   8.95345E+00  8.77612E+00  8.60905E+00  8.47136E+00  8.37237E+00  8.30385E+00  8.26027E+00  8.24393E+00  8.25897E+00  8.30450E+00
   8.37123E+00  8.45808E+00  8.56748E+00  8.69768E+00  8.84523E+00  9.00782E+00  9.18316E+00  9.36806E+00  9.55788E+00  9.74868E+00
   9.93616E+00  1.01157E+01  1.02817E+01  1.04292E+01  1.05539E+01  1.06531E+01  1.07251E+01  1.07695E+01  1.07863E+01  1.07776E+01
   1.07464E+01  1.06970E+01  1.06347E+01  1.05660E+01  1.04976E+01  1.04362E+01  1.03895E+01  1.03652E+01  1.03723E+01  1.04218E+01
   1.05319E+01  1.07342E+01  1.10299E+01  1.13577E+01  1.16223E+01  1.17443E+01  1.17071E+01  1.15611E+01  1.13852E+01  1.12708E+01
   1.13138E+01  1.15745E+01  1.20555E+01  1.26956E+01  1.33947E+01  1.40722E+01  1.46990E+01  1.52187E+01  1.56129E+01  1.59315E+01
   1.62183E+01  1.65240E+01  1.68667E+01  1.71498E+01  1.72551E+01  1.70612E+01  1.64661E+01  1.55187E+01  1.43722E+01  1.32443E+01
   1.23698E+01  1.18966E+01  1.18376E+01  1.20746E+01  1.24184E+01  1.27225E+01  1.29667E+01  1.31258E+01  1.31212E+01  1.30139E+01
   1.28505E+01  1.26324E+01  1.23283E+01  1.19172E+01  1.15117E+01  1.12121E+01  1.09728E+01  1.07658E+01  1.05797E+01  1.04092E+01
   1.02514E+01  1.01048E+01  9.96884E+00  9.84360E+00  9.72939E+00  9.62681E+00  9.53667E+00  9.45987E+00  9.39738E+00  9.35019E+00
   9.31926E+00  9.30554E+00  9.30997E+00  9.33343E+00  9.37678E+00  9.44077E+00  9.52602E+00  9.63304E+00  9.76215E+00  9.91345E+00
   1.00867E+01  1.02813E+01  1.04962E+01  1.07298E+01  1.09799E+01  1.12438E+01  1.15180E+01  1.17985E+01  1.20807E+01  1.23593E+01
   1.26291E+01  1.28842E+01  1.31190E+01  1.33278E+01  1.35057E+01  1.36482E+01  1.37514E+01  1.38129E+01  1.38310E+01  1.38053E+01
   1.37366E+01  1.36267E+01  1.34788E+01  1.32965E+01  1.30845E+01  1.28478E+01  1.25918E+01  1.23218E+01  1.20432E+01  1.17608E+01
   1.14792E+01  1.12024E+01  1.09337E+01  1.06759E+01  1.04310E+01  1.02005E+01  9.98535E+00  9.78590E+00  9.60223E+00  9.43404E+00
   9.28075E+00  9.14159E+00  9.01567E+00  8.90204E+00  8.79973E+00  8.70775E+00  8.62515E+00  8.55100E+00  8.48447E+00  8.42479E+00
   8.37127E+00  8.32325E+00  8.28016E+00  8.24147E+00  8.20673E+00  8.17554E+00  8.14756E+00  8.12245E+00  8.09992E+00  8.07971E+00
   8.06163E+00  8.04548E+00  8.03109E+00  8.01830E+00  8.00695E+00  7.99694E+00  7.98816E+00  7.98052E+00  7.97391E+00  7.96826E+00
   7.96347E+00  7.95951E+00  7.95631E+00  7.95383E+00  7.95200E+00  7.95076E+00  7.95008E+00  7.94994E+00  7.95029E+00  7.95112E+00
   7.95236E+00  7.95400E+00  7.95602E+00  7.95841E+00  7.96114E+00  7.96419E+00  7.96753E+00  7.97114E+00  7.97501E+00  7.97913E+00
   7.98350E+00  7.98808E+00  7.99285E+00  7.99781E+00  8.00296E+00  8.00829E+00  8.01378E+00  8.01942E+00  8.02518E+00  8.03108E+00
   8.03711E+00  8.04326E+00  8.04951E+00  8.05585E+00  8.06226E+00  8.06877E+00  8.07536E+00  8.08201E+00
 NY background values follow
     1.476E+00    1.489E+00    1.501E+00    1.513E+00    1.525E+00    1.538E+00    1.550E+00    1.562E+00    1.575E+00    1.587E+00
     1.599E+00    1.611E+00    1.624E+00    1.636E+00    1.648E+00    1.660E+00    1.673E+00    1.685E+00    1.697E+00    1.709E+00
     1.722E+00    1.734E+00    1.746E+00    1.759E+00    1.771E+00    1.783E+00    1.795E+00    1.808E+00    1.820E+00    1.832E+00
     1.845E+00    1.857E+00    1.869E+00    1.881E+00    1.894E+00    1.906E+00    1.918E+00    1.930E+00    1.943E+00    1.955E+00
     1.967E+00    1.980E+00    1.992E+00    2.004E+00    2.016E+00    2.029E+00    2.041E+00    2.053E+00    2.066E+00    2.078E+00
     2.090E+00    2.102E+00    2.115E+00    2.127E+00    2.139E+00    2.152E+00    2.164E+00    2.176E+00    2.189E+00    2.201E+00
     2.213E+00    2.225E+00    2.238E+00    2.250E+00    2.262E+00    2.275E+00    2.287E+00    2.299E+00    2.312E+00    2.324E+00
     2.336E+00    2.348E+00    2.361E+00    2.373E+00    2.385E+00    2.398E+00    2.410E+00    2.422E+00    2.435E+00    2.447E+00
     2.459E+00    2.471E+00    2.484E+00    2.496E+00    2.508E+00    2.521E+00    2.533E+00    2.545E+00    2.558E+00    2.570E+00
     2.582E+00    2.595E+00    2.607E+00    2.619E+00    2.631E+00    2.644E+00    2.656E+00    2.668E+00    2.681E+00    2.693E+00
     2.705E+00    2.718E+00    2.730E+00    2.742E+00    2.755E+00    2.767E+00    2.779E+00    2.792E+00    2.804E+00    2.816E+00
     2.829E+00    2.841E+00    2.853E+00    2.865E+00    2.878E+00    2.890E+00    2.902E+00    2.915E+00    2.927E+00    2.939E+00
     2.952E+00    2.964E+00    2.976E+00    2.989E+00    3.001E+00    3.013E+00    3.026E+00    3.038E+00    3.050E+00    3.063E+00
     3.075E+00    3.087E+00    3.100E+00    3.112E+00    3.124E+00    3.137E+00    3.149E+00    3.161E+00    3.174E+00    3.186E+00
     3.198E+00    3.211E+00    3.223E+00    3.235E+00    3.248E+00    3.260E+00    3.272E+00    3.285E+00    3.297E+00    3.309E+00
     3.322E+00    3.334E+00    3.346E+00    3.359E+00    3.371E+00    3.383E+00    3.396E+00    3.408E+00    3.420E+00    3.433E+00
     3.445E+00    3.457E+00    3.470E+00    3.482E+00    3.494E+00    3.507E+00    3.519E+00    3.531E+00    3.544E+00    3.556E+00
     3.568E+00    3.581E+00    3.593E+00    3.605E+00    3.618E+00    3.630E+00    3.642E+00    3.655E+00    3.667E+00    3.679E+00
     3.692E+00    3.704E+00    3.716E+00    3.729E+00    3.741E+00    3.753E+00    3.766E+00    3.778E+00    3.790E+00    3.803E+00
     3.815E+00    3.827E+00    3.840E+00    3.852E+00    3.864E+00    3.877E+00    3.889E+00    3.901E+00    3.914E+00    3.926E+00
     3.938E+00    3.951E+00    3.963E+00    3.975E+00    3.988E+00    4.000E+00    4.012E+00    4.025E+00    4.037E+00    4.049E+00
     4.062E+00    4.074E+00    4.086E+00    4.099E+00    4.111E+00    4.123E+00    4.136E+00    4.148E+00    4.160E+00    4.173E+00
     4.185E+00    4.197E+00    4.210E+00    4.222E+00    4.234E+00    4.247E+00    4.259E+00    4.271E+00    4.284E+00    4.296E+00
     4.308E+00    4.321E+00    4.333E+00    4.345E+00    4.358E+00    4.370E+00    4.382E+00    4.395E+00    4.407E+00    4.419E+00
     4.432E+00    4.444E+00    4.456E+00    4.469E+00    4.481E+00    4.493E+00    4.506E+00    4.518E+00    4.530E+00    4.543E+00
     4.555E+00    4.567E+00    4.579E+00    4.592E+00    4.604E+00    4.616E+00    4.629E+00    4.641E+00    4.653E+00    4.666E+00
     4.678E+00    4.690E+00    4.703E+00    4.715E+00    4.727E+00    4.740E+00    4.752E+00    4.764E+00    4.777E+00    4.789E+00
     4.801E+00    4.813E+00    4.826E+00    4.838E+00    4.850E+00    4.863E+00    4.875E+00    4.887E+00    4.900E+00    4.912E+00
     4.924E+00    4.936E+00    4.949E+00    4.961E+00    4.973E+00    4.986E+00    4.998E+00    5.010E+00    5.023E+00    5.035E+00
     5.047E+00    5.059E+00    5.072E+00    5.084E+00    5.096E+00    5.109E+00    5.121E+00    5.133E+00    5.145E+00    5.158E+00
     5.170E+00    5.182E+00    5.195E+00    5.207E+00    5.219E+00    5.231E+00    5.244E+00    5.256E+00    5.268E+00    5.281E+00
     5.293E+00    5.305E+00    5.317E+00    5.330E+00    5.342E+00    5.354E+00    5.367E+00    5.379E+00    5.391E+00    5.403E+00
     5.416E+00    5.428E+00    5.440E+00    5.452E+00    5.465E+00    5.477E+00    5.489E+00    5.502E+00    5.514E+00    5.526E+00
     5.538E+00    5.551E+00    5.563E+00    5.575E+00    5.587E+00    5.600E+00    5.612E+00    5.624E+00    5.636E+00    5.649E+00
     5.661E+00    5.673E+00    5.685E+00    5.698E+00    5.710E+00    5.722E+00    5.734E+00    5.747E+00    5.759E+00    5.771E+00
     5.783E+00    5.796E+00    5.808E+00    5.820E+00    5.832E+00    5.845E+00    5.857E+00    5.869E+00    5.881E+00    5.893E+00
     5.906E+00    5.918E+00    5.930E+00    5.942E+00    5.955E+00    5.967E+00    5.979E+00    5.991E+00    6.004E+00    6.016E+00
     6.028E+00    6.040E+00    6.052E+00    6.065E+00    6.077E+00    6.089E+00    6.101E+00    6.113E+00    6.126E+00    6.138E+00
     6.150E+00    6.162E+00    6.175E+00    6.187E+00    6.199E+00    6.211E+00    6.223E+00    6.236E+00    6.248E+00    6.260E+00
     6.272E+00    6.284E+00    6.297E+00    6.309E+00    6.321E+00    6.333E+00    6.345E+00    6.358E+00    6.370E+00    6.382E+00
     6.394E+00    6.406E+00    6.418E+00    6.431E+00    6.443E+00    6.455E+00    6.467E+00    6.479E+00    6.492E+00    6.504E+00
     6.516E+00    6.528E+00    6.540E+00    6.552E+00    6.565E+00    6.577E+00    6.589E+00    6.601E+00    6.613E+00    6.625E+00
     6.638E+00    6.650E+00    6.662E+00    6.674E+00    6.686E+00    6.698E+00    6.711E+00    6.723E+00    6.735E+00    6.747E+00
     6.759E+00    6.771E+00    6.783E+00    6.796E+00    6.808E+00    6.820E+00    6.832E+00    6.844E+00    6.856E+00    6.868E+00
     6.881E+00    6.893E+00    6.905E+00    6.917E+00    6.929E+00    6.941E+00    6.953E+00    6.966E+00    6.978E+00    6.990E+00
     7.002E+00    7.014E+00    7.026E+00    7.038E+00    7.050E+00    7.062E+00    7.075E+00    7.087E+00    7.099E+00    7.111E+00
     7.123E+00    7.135E+00    7.147E+00    7.159E+00    7.171E+00    7.184E+00    7.196E+00    7.208E+00    7.220E+00    7.232E+00
     7.244E+00    7.256E+00    7.268E+00    7.280E+00    7.292E+00    7.304E+00    7.317E+00    7.329E+00    7.341E+00    7.353E+00
     7.365E+00    7.377E+00    7.389E+00    7.401E+00    7.413E+00    7.425E+00    7.437E+00    7.449E+00    7.461E+00    7.473E+00
     7.486E+00    7.498E+00    7.510E+00    7.522E+00    7.534E+00    7.546E+00    7.558E+00    7.570E+00
 Ala      Conc. = 1.04E+02
