 LCModel (Version 6.3-1L) Copyright: S.W. Provencher.          Ref.: Magn. Reson. Med. 30:672-679 (1993).                
 Slice#3 Row#2 Col#2  PD_05_press_1_raw_act
 36 lines in following concentration table = NCONC+1
    Conc.  %SD /Cr+PCr  Metabolite                                         
  823.667  24%   0.000 Ala                                                 
   20.094  93%   0.000 Asp                                                 
    0.000 999%   0.000 Cr                                                  
    0.000 999%   0.000 PCr                                                 
   14.287  79%   0.000 GABA                                                
   13.024  86%   0.000 Glc                                                 
 3.13E+03   9%   0.000 Gln                                                 
  427.564  74%   0.000 Glu                                                 
   16.895  66%   0.000 GPC                                                 
    0.000 999%   0.000 PCh                                                 
    0.000 999%   0.000 GSH                                                 
  176.055  65%   0.000 Ins                                                 
  830.444  22%   0.000 Lac                                                 
    0.000 999%   0.000 NAA                                                 
  374.624  11%   0.000 NAAG                                                
    6.317  57%   0.000 Scyllo                                              
   26.760  68%   0.000 Tau                                                 
    0.000 999%   0.000 -CrCH2                                              
   16.895  66%   0.000 GPC+PCh                                             
  374.624  11%   0.000 NAA+NAAG                                            
    0.000 999%   0.000 Cr+PCr                                              
 3.56E+03  12%   0.000 Glu+Gln                                             
    0.000 999%   0.000 Lip13a                                              
  203.764  25%   0.000 Lip13b                                              
    0.000 999%   0.000 Lip09                                               
    0.000 999%   0.000 MM09                                                
   64.834  57%   0.000 Lip20                                               
  253.482  30%   0.000 MM20                                                
    5.914 368%   0.000 MM12                                                
    0.000 999%   0.000 MM14                                                
  150.438  31%   0.000 MM17                                                
  203.764  25%   0.000 Lip13a+Lip13b                                       
  209.678  25%   0.000 MM14+Lip13a+Lip13b+MM12                             
    0.000 999%   0.000 MM09+Lip09                                          
  318.316  26%   0.000 MM20+Lip20                                          
   6 lines in following misc. output table
  FWHM = 0.183 ppm    S/N =   2                                            
  Data shift =-0.038 ppm                                                   
  Ph:-160 deg    -102.8 deg/ppm                                            
  alphaB,S = 6.1E-01,   2.0E+02                                            
   12 spline knots.   Ns = 9(2)                                            
  (13) 4 infls.   (11) 1 extrs.                                            
  498 points on ppm-axis = NY
      4.000000     3.992357     3.984714     3.977070     3.969427     3.961784     3.954141     3.946497     3.938854     3.931211
      3.923568     3.915925     3.908281     3.900638     3.892995     3.885352     3.877708     3.870065     3.862422     3.854779
      3.847136     3.839492     3.831849     3.824206     3.816563     3.808919     3.801276     3.793633     3.785990     3.778347
      3.770703     3.763060     3.755417     3.747774     3.740130     3.732487     3.724844     3.717201     3.709558     3.701914
      3.694271     3.686628     3.678985     3.671341     3.663698     3.656055     3.648412     3.640769     3.633125     3.625482
      3.617839     3.610196     3.602552     3.594909     3.587266     3.579623     3.571980     3.564336     3.556693     3.549050
      3.541407     3.533763     3.526120     3.518477     3.510834     3.503191     3.495547     3.487904     3.480261     3.472618
      3.464974     3.457331     3.449688     3.442045     3.434402     3.426758     3.419115     3.411472     3.403829     3.396185
      3.388542     3.380899     3.373256     3.365613     3.357969     3.350326     3.342683     3.335040     3.327396     3.319753
      3.312110     3.304467     3.296824     3.289180     3.281537     3.273894     3.266251     3.258607     3.250964     3.243321
      3.235678     3.228034     3.220391     3.212748     3.205105     3.197462     3.189818     3.182175     3.174532     3.166889
      3.159245     3.151602     3.143959     3.136316     3.128673     3.121029     3.113386     3.105743     3.098100     3.090456
      3.082813     3.075170     3.067527     3.059884     3.052240     3.044597     3.036954     3.029311     3.021667     3.014024
      3.006381     2.998738     2.991095     2.983451     2.975808     2.968165     2.960522     2.952878     2.945235     2.937592
      2.929949     2.922306     2.914662     2.907019     2.899376     2.891733     2.884089     2.876446     2.868803     2.861160
      2.853517     2.845873     2.838230     2.830587     2.822944     2.815300     2.807657     2.800014     2.792371     2.784728
      2.777084     2.769441     2.761798     2.754155     2.746511     2.738868     2.731225     2.723582     2.715939     2.708295
      2.700652     2.693009     2.685366     2.677722     2.670079     2.662436     2.654793     2.647150     2.639506     2.631863
      2.624220     2.616577     2.608933     2.601290     2.593647     2.586004     2.578361     2.570717     2.563074     2.555431
      2.547788     2.540144     2.532501     2.524858     2.517215     2.509572     2.501928     2.494285     2.486642     2.478999
      2.471355     2.463712     2.456069     2.448426     2.440783     2.433139     2.425496     2.417853     2.410210     2.402566
      2.394923     2.387280     2.379637     2.371994     2.364350     2.356707     2.349064     2.341421     2.333777     2.326134
      2.318491     2.310848     2.303205     2.295561     2.287918     2.280275     2.272632     2.264988     2.257345     2.249702
      2.242059     2.234416     2.226772     2.219129     2.211486     2.203843     2.196199     2.188556     2.180913     2.173270
      2.165627     2.157983     2.150340     2.142697     2.135054     2.127410     2.119767     2.112124     2.104481     2.096838
      2.089194     2.081551     2.073908     2.066265     2.058621     2.050978     2.043335     2.035692     2.028049     2.020405
      2.012762     2.005119     1.997476     1.989833     1.982190     1.974546     1.966903     1.959260     1.951617     1.943974
      1.936331     1.928688     1.921045     1.913402     1.905759     1.898115     1.890472     1.882829     1.875186     1.867543
      1.859900     1.852257     1.844614     1.836971     1.829327     1.821684     1.814041     1.806398     1.798755     1.791112
      1.783469     1.775826     1.768183     1.760540     1.752896     1.745253     1.737610     1.729967     1.722324     1.714681
      1.707038     1.699395     1.691752     1.684108     1.676465     1.668822     1.661179     1.653536     1.645893     1.638250
      1.630607     1.622964     1.615321     1.607677     1.600034     1.592391     1.584748     1.577105     1.569462     1.561819
      1.554176     1.546533     1.538890     1.531246     1.523603     1.515960     1.508317     1.500674     1.493031     1.485388
      1.477745     1.470102     1.462458     1.454815     1.447172     1.439529     1.431886     1.424243     1.416600     1.408957
      1.401314     1.393671     1.386027     1.378384     1.370741     1.363098     1.355455     1.347812     1.340169     1.332526
      1.324883     1.317240     1.309596     1.301953     1.294310     1.286667     1.279024     1.271381     1.263738     1.256095
      1.248452     1.240808     1.233165     1.225522     1.217879     1.210236     1.202593     1.194950     1.187307     1.179664
      1.172021     1.164377     1.156734     1.149091     1.141448     1.133805     1.126162     1.118519     1.110876     1.103233
      1.095590     1.087946     1.080303     1.072660     1.065017     1.057374     1.049731     1.042088     1.034445     1.026802
      1.019158     1.011515     1.003872     0.996229     0.988586     0.980943     0.973300     0.965657     0.958014     0.950371
      0.942727     0.935084     0.927441     0.919798     0.912155     0.904512     0.896869     0.889226     0.881583     0.873940
      0.866296     0.858653     0.851010     0.843367     0.835724     0.828081     0.820438     0.812795     0.805152     0.797508
      0.789865     0.782222     0.774579     0.766936     0.759293     0.751650     0.744007     0.736364     0.728721     0.721077
      0.713434     0.705791     0.698148     0.690505     0.682862     0.675219     0.667576     0.659933     0.652290     0.644646
      0.637003     0.629360     0.621717     0.614074     0.606431     0.598788     0.591145     0.583502     0.575858     0.568215
      0.560572     0.552929     0.545286     0.537643     0.530000     0.522357     0.514714     0.507071     0.499427     0.491784
      0.484141     0.476498     0.468855     0.461212     0.453569     0.445925     0.438282     0.430639     0.422996     0.415353
      0.407710     0.400067     0.392424     0.384780     0.377137     0.369494     0.361851     0.354208     0.346565     0.338922
      0.331278     0.323635     0.315992     0.308349     0.300706     0.293063     0.285420     0.277777     0.270133     0.262490
      0.254847     0.247204     0.239561     0.231918     0.224275     0.216631     0.208988     0.201345
 NY phased data points follow
  -7.56777E-01 -3.05279E-02 -1.82422E+00 -2.45718E+00 -5.06207E-01 -6.19470E-01  2.69754E-01 -1.11176E+00 -5.10813E-01 -1.94676E+00
   9.88750E-01 -1.04972E+00  7.38816E-02 -1.07404E+00 -7.90421E-01  1.44653E-01  1.31403E+00 -1.11972E+00 -1.04878E+00 -7.40309E-02
  -8.99477E-01 -1.53391E+00 -1.35414E+00 -1.79219E-01  8.63746E-01 -4.47573E-01  1.01360E+00 -1.08579E+00 -1.56434E+00 -7.94994E-01
   1.27741E+00 -1.33775E-01 -2.09860E-01 -1.55982E-01  3.00918E-01 -6.34615E-03  4.58169E-01  1.17427E+00  9.45412E-02 -9.61062E-01
   4.47465E-01 -8.62977E-01  1.05461E+00  5.96733E-02  5.17449E-01 -8.73008E-01 -1.19022E+00  1.30782E-01 -5.15984E-01 -3.86852E-01
  -4.43735E-01 -2.89907E-01  7.82370E-01 -5.08468E-01  4.60168E-01 -2.14368E+00  1.95767E-01  8.75095E-02 -5.76876E-01  3.07900E-01
   6.08545E-01  7.81919E-01  1.47141E+00 -4.30435E-01 -8.17624E-01  1.90645E+00  5.30737E-01 -2.10441E-01  2.93937E-01 -7.36489E-01
  -3.65063E-01  2.43045E-01 -6.03013E-01  5.81300E-01  1.28852E+00 -8.21972E-01 -1.26964E+00 -2.01510E-01  7.97833E-01  3.65433E-01
  -1.50260E+00  1.16064E+00 -3.94410E-01 -1.38952E+00 -1.63524E+00  5.46143E-01  7.61048E-01 -1.45496E+00  7.82313E-01  9.23831E-01
   5.37213E-02  1.82468E+00 -7.34691E-01  1.08666E+00 -9.69698E-01 -1.99730E-01  3.04486E-01  3.34186E-02  6.96635E-01  2.89935E-01
  -1.44412E+00 -4.36398E-01  3.87718E-01  1.57647E+00  1.67172E-01  5.56063E-01 -7.84778E-01  1.27569E+00 -2.20879E-01 -5.39310E-02
  -7.47404E-01  1.70428E-01 -3.68911E-01  6.13941E-01  6.13237E-02  9.92678E-01 -2.49160E-02  1.66632E+00 -1.34373E+00 -1.19453E+00
  -1.43030E+00 -4.92448E-01  2.86455E-01  4.16278E-01  4.61848E-01 -2.18630E-01 -4.14710E-01  9.03002E-01 -1.71084E+00  1.34842E+00
  -1.53866E+00 -3.95346E-01  6.61132E-01 -9.62691E-01 -1.48076E+00 -1.82684E+00 -6.24947E-01 -6.81871E-01  1.14021E+00  1.32860E+00
  -3.44715E-01 -1.30771E+00 -9.87102E-01  4.24046E-01 -1.86295E+00 -8.84839E-01  3.92217E-02  1.00642E+00  7.13068E-01  1.10026E-01
   5.00211E-01 -4.44372E-01 -8.74482E-01 -3.75051E-01 -9.73457E-01  4.83805E-01  2.71379E-01 -9.97623E-01 -7.02462E-01  1.19246E-01
   9.11620E-01  8.44304E-01  1.93219E-01 -4.50535E-01 -1.27993E-01  1.30068E+00  6.59086E-01 -2.72076E-02 -5.32336E-01  6.19283E-01
   6.56325E-01 -1.06811E+00 -8.69245E-01  3.07716E-02 -3.32343E-01 -8.76985E-01 -1.57710E+00 -1.12573E+00 -4.94093E-01  2.55848E-02
  -4.32143E-01  4.60391E-01 -6.14152E-01 -1.15023E+00 -3.90847E-01 -1.10294E+00 -6.66789E-01 -4.14379E-01 -1.76553E-01 -1.04627E+00
  -1.17394E+00 -1.98317E-01 -1.94332E+00 -7.92132E-01 -2.36960E+00 -3.50437E-01 -2.44840E-01 -3.62925E-01 -1.21096E+00 -2.15653E+00
  -8.04273E-01 -6.05541E-01 -1.16949E+00 -1.59182E-01 -3.60786E-01 -8.73784E-01 -1.64543E+00 -1.53683E+00 -6.32448E-01  6.00103E-01
   1.59566E-01 -1.05154E-01 -9.63693E-01 -7.57406E-01 -7.96093E-01 -3.40297E-01  1.55696E+00  1.50370E-01  7.87514E-01  9.94239E-01
  -6.52720E-01  1.71145E+00  2.23403E+00  2.21967E+00  3.29313E+00  4.41473E+00  3.16200E+00  4.58297E+00  4.54617E+00  4.06008E+00
   5.06833E+00  3.89311E+00  5.90791E+00  5.10892E+00  6.63597E+00  5.37184E+00  6.72197E+00  4.64793E+00  6.32494E+00  4.45928E+00
   5.76527E+00  5.41257E+00  5.94750E+00  5.48420E+00  7.31068E+00  7.94207E+00  6.74472E+00  7.28015E+00  7.73163E+00  5.91513E+00
   6.53925E+00  7.29083E+00  7.01162E+00  6.90613E+00  7.78335E+00  7.44143E+00  7.65242E+00  7.86825E+00  8.80602E+00  8.00184E+00
   8.02302E+00  7.38108E+00  8.05238E+00  8.22943E+00  8.56340E+00  6.63016E+00  7.11666E+00  7.03787E+00  7.00846E+00  7.16699E+00
   7.45552E+00  7.02240E+00  6.40974E+00  6.80424E+00  7.40794E+00  7.73187E+00  6.92716E+00  7.35400E+00  6.83629E+00  7.07266E+00
   7.33791E+00  7.81538E+00  6.99061E+00  6.75226E+00  6.24700E+00  6.41910E+00  6.54651E+00  5.92752E+00  4.47838E+00  6.48517E+00
   6.42009E+00  4.11021E+00  6.33416E+00  6.18772E+00  5.45668E+00  6.09400E+00  5.94052E+00  6.44808E+00  6.56570E+00  6.03332E+00
   6.95446E+00  7.37550E+00  6.63658E+00  7.46532E+00  5.62243E+00  6.91672E+00  7.97059E+00  7.68568E+00  6.26190E+00  6.36081E+00
   7.89187E+00  7.49877E+00  7.88835E+00  5.81005E+00  5.79156E+00  7.37088E+00  7.00501E+00  5.91958E+00  6.75457E+00  7.64922E+00
   5.68826E+00  7.16363E+00  7.47096E+00  5.79320E+00  7.08733E+00  7.55562E+00  6.00257E+00  5.94282E+00  6.19080E+00  4.19669E+00
   6.54687E+00  6.17954E+00  6.36417E+00  5.81593E+00  8.18929E+00  6.99583E+00  7.28367E+00  5.18448E+00  6.56555E+00  6.37057E+00
   7.28294E+00  6.53903E+00  5.44240E+00  7.12489E+00  6.16687E+00  8.49023E+00  7.67621E+00  6.64414E+00  7.69780E+00  5.77329E+00
   7.26610E+00  6.43116E+00  8.55194E+00  6.51070E+00  7.16631E+00  6.99387E+00  7.11466E+00  7.95274E+00  5.27294E+00  5.53122E+00
   4.58658E+00  4.50608E+00  4.70178E+00  5.93954E+00  4.87882E+00  5.43248E+00  4.90836E+00  4.79691E+00  5.02419E+00  4.01470E+00
   4.92496E+00  3.55244E+00  3.64519E+00  4.19967E+00  4.29890E+00  3.38438E+00  1.93251E+00  2.44264E+00  3.77028E-01  1.30398E+00
   1.83448E+00  1.13430E+00  1.05829E+00 -1.70150E+00  1.68677E+00  1.03439E+00  2.83161E+00  2.12349E+00  3.26456E+00  1.33663E+00
  -2.66273E-01  1.01802E+00  2.58127E+00  1.28031E+00  8.17932E-01  1.06278E+00  9.23250E-01  8.51087E-01  7.11867E-01  3.29205E-01
   2.39419E+00  8.50568E-01 -3.81650E-01  9.85189E-01  9.50566E-01  4.38448E-01  1.36375E+00  8.61262E-01  6.55323E-01  1.42280E+00
   1.81045E+00  2.50176E-02  1.75376E+00  1.63927E+00  1.65622E+00  2.49877E+00  1.81435E+00  3.54287E+00  3.45149E-01  1.76800E+00
   1.01986E+00 -9.95323E-02  1.30835E+00  2.39625E+00  1.87255E+00  1.53418E+00  9.19426E-01  2.65660E+00  2.12514E+00  1.96315E+00
   2.46741E+00  2.20750E+00  2.14996E+00  1.61279E+00  2.23528E+00  1.80828E+00  4.84654E-01  1.67120E+00  2.62840E+00  3.41637E+00
   1.78260E+00 -1.48785E-01  1.88934E-01  1.09014E+00  1.82890E+00  2.06922E+00  1.28924E+00  1.64435E+00  2.36886E+00  1.08457E+00
   7.83301E-01  9.42796E-02  1.65731E+00  1.21596E-01 -1.12951E-01  2.14425E+00  1.93493E+00  1.05462E+00  1.09701E-01  4.43289E-01
   1.25761E-01  2.02140E+00  4.99367E-03  8.77073E-01  1.54097E+00  1.84908E-01  4.74956E-01  1.69758E-01 -2.44706E-01  9.61001E-01
   1.92176E+00  1.39995E+00 -1.00743E-01  1.69812E+00  9.47353E-01  2.56953E+00  8.28025E-01  2.05366E+00  2.33113E+00  6.04214E-01
   1.82030E+00  1.28717E-02  6.58655E-01  6.36758E-01  1.59421E+00  1.46158E+00 -2.81196E-01 -2.22861E-01  1.00156E+00  6.16043E-01
   2.41663E-01  1.00733E+00  9.01631E-02  2.18463E+00  8.57289E-01  2.16262E-02  1.00102E+00  4.09897E-01
 NY points of the fit to the data follow
  -1.97307E-01 -5.33683E-01 -3.39073E-01 -6.63409E-01 -5.70755E-01 -8.42616E-01 -7.38401E-01 -8.81870E-01 -5.75245E-01 -7.36158E-01
  -4.25563E-01 -7.11449E-01 -5.63094E-01 -1.10485E+00 -9.35821E-01 -1.35564E+00 -1.04566E+00 -1.35394E+00 -9.77410E-01 -1.25548E+00
  -9.62724E-01 -1.25752E+00 -9.04276E-01 -1.16658E+00 -8.01880E-01 -1.06071E+00 -7.65480E-01 -1.01433E+00 -7.50222E-01 -9.15652E-01
  -6.51149E-01 -7.04105E-01 -4.86307E-01 -4.70161E-01 -3.24316E-01 -3.00325E-01 -2.54970E-01 -1.84266E-01 -2.27524E-01 -4.02138E-02
  -1.07807E-01  1.77755E-01  1.16613E-01  3.79525E-01  2.36255E-01  3.74891E-01  1.51675E-01  3.93047E-01  4.14456E-01  6.43851E-01
   7.18020E-01  8.11730E-01  7.71016E-01  5.19647E-01  4.54390E-01  3.27400E-01  3.95907E-01  3.91289E-01  5.24185E-01  5.41149E-01
   5.08926E-01  4.70050E-01  4.38531E-01  3.83221E-01  3.47038E-01  2.97124E-01  2.59864E-01  2.04897E-01  1.61468E-01  1.10761E-01
   7.99576E-02  5.54319E-02  3.11533E-02  1.17401E-02 -1.29784E-02 -2.76975E-02 -5.53623E-02 -6.70824E-02 -1.01995E-01 -1.09363E-01
  -1.57924E-01 -1.66412E-01 -2.26959E-01 -2.39933E-01 -3.07692E-01 -2.79146E-01 -3.47920E-01 -3.01280E-01 -3.81626E-01 -3.28393E-01
  -4.19141E-01 -3.44171E-01 -4.38607E-01 -3.52913E-01 -4.50534E-01 -3.51588E-01 -4.54333E-01 -3.42696E-01 -4.42342E-01 -3.17950E-01
  -4.11860E-01 -2.80058E-01 -3.69044E-01 -2.37479E-01 -3.23083E-01 -1.98923E-01 -2.81367E-01 -1.68311E-01 -2.35001E-01 -1.26360E-01
  -1.86010E-01 -9.27381E-02 -1.48778E-01 -7.88555E-02 -1.29757E-01 -9.13791E-02 -1.36427E-01 -1.21273E-01 -1.55535E-01 -1.47061E-01
  -1.72493E-01 -1.79577E-01 -2.03114E-01 -2.40120E-01 -2.51842E-01 -2.56147E-01 -2.56172E-01 -2.51643E-01 -2.45668E-01 -2.36042E-01
  -2.25874E-01 -2.13385E-01 -2.01035E-01 -1.86301E-01 -1.71381E-01 -1.53133E-01 -1.40146E-01 -1.29145E-01 -1.16929E-01 -1.09830E-01
  -9.36821E-02 -7.99877E-02 -6.48174E-02 -5.57023E-02 -4.21242E-02 -3.74874E-02 -2.43951E-02 -2.03220E-02 -9.01855E-03 -7.43644E-03
   1.43164E-03 -2.96978E-03 -4.21704E-03 -1.34801E-02 -1.10776E-02 -1.82344E-02 -1.21125E-02 -2.43349E-02 -2.94579E-02 -4.50364E-02
  -5.43127E-02 -6.89741E-02 -7.83976E-02 -9.33551E-02 -1.12486E-01 -1.35581E-01 -1.49428E-01 -1.62138E-01 -1.66717E-01 -1.69528E-01
  -1.64030E-01 -1.63963E-01 -1.42380E-01 -1.23909E-01 -6.83103E-02 -2.16410E-02 -1.13586E-03  2.23734E-02 -1.90454E-02 -9.85342E-02
  -1.63714E-01 -3.02752E-01 -3.91472E-01 -5.01044E-01 -4.45234E-01 -4.72031E-01 -3.44409E-01 -2.56127E-01 -3.62207E-02  8.17573E-02
   3.18708E-01  2.94276E-01  6.53045E-02 -1.28393E-01 -2.82797E-01 -4.49501E-01 -4.81745E-01 -6.18634E-01 -6.60307E-01 -7.70135E-01
  -7.43023E-01 -8.04777E-01 -7.15962E-01 -7.67584E-01 -7.19955E-01 -8.08906E-01 -7.13443E-01 -7.37430E-01 -5.44729E-01 -4.56091E-01
  -1.80944E-01 -3.83720E-02  2.77358E-01  4.20422E-01  7.49668E-01  8.97821E-01  1.24862E+00  1.37285E+00  1.46411E+00  1.55260E+00
   1.73063E+00  1.94974E+00  2.33259E+00  2.81743E+00  3.28847E+00  3.62228E+00  3.98963E+00  4.29725E+00  4.72527E+00  4.96457E+00
   5.33110E+00  5.15209E+00  4.91784E+00  4.55894E+00  4.44649E+00  4.09894E+00  4.11852E+00  3.85568E+00  4.30573E+00  3.99686E+00
   4.61199E+00  4.15700E+00  4.90961E+00  4.36955E+00  5.28503E+00  4.66964E+00  5.79016E+00  5.11722E+00  6.40049E+00  5.68211E+00
   7.02165E+00  6.20034E+00  7.52694E+00  6.65549E+00  8.00077E+00  7.21563E+00  8.59854E+00  7.76951E+00  8.78714E+00  7.91940E+00
   8.81818E+00  8.05034E+00  8.89042E+00  8.40300E+00  9.06311E+00  8.43540E+00  8.86749E+00  8.14867E+00  8.27698E+00  7.57166E+00
   7.54334E+00  6.89780E+00  6.80007E+00  6.30372E+00  6.14065E+00  5.78314E+00  5.56511E+00  5.50038E+00  5.50824E+00  5.52092E+00
   5.51593E+00  5.49826E+00  5.50368E+00  5.49552E+00  5.51668E+00  5.51653E+00  5.55828E+00  5.56533E+00  5.62340E+00  5.64441E+00
   5.71396E+00  5.74409E+00  5.81887E+00  5.85570E+00  5.93415E+00  5.97864E+00  6.06187E+00  6.11231E+00  6.19073E+00  6.23664E+00
   6.30737E+00  6.34866E+00  6.41056E+00  6.44766E+00  6.50651E+00  6.55407E+00  6.62836E+00  6.71479E+00  6.87284E+00  7.11111E+00
   7.11992E+00  7.18096E+00  7.09225E+00  7.03764E+00  6.91790E+00  6.81243E+00  6.57665E+00  6.57622E+00  6.54166E+00  6.49823E+00
   6.57092E+00  6.45229E+00  6.55275E+00  6.42002E+00  6.61950E+00  6.42305E+00  6.71991E+00  6.47561E+00  6.91561E+00  6.77811E+00
   7.17721E+00  6.81440E+00  7.21975E+00  6.67442E+00  7.12849E+00  6.47920E+00  6.90425E+00  6.37578E+00  6.92504E+00  6.40536E+00
   7.06627E+00  6.59439E+00  7.25142E+00  6.90054E+00  7.48722E+00  7.07751E+00  7.58972E+00  7.16419E+00  7.68300E+00  7.51289E+00
   7.72455E+00  7.54250E+00  7.59264E+00  7.32697E+00  7.16207E+00  6.75562E+00  6.33564E+00  6.13400E+00  5.80712E+00  5.62193E+00
   5.34161E+00  5.20966E+00  4.94768E+00  4.86370E+00  4.57948E+00  4.42263E+00  4.19100E+00  4.01251E+00  3.96639E+00  3.97764E+00
   3.78493E+00  3.67367E+00  3.45544E+00  3.21051E+00  2.96708E+00  2.57068E+00  2.40121E+00  2.31409E+00  2.25681E+00  2.21479E+00
   2.18183E+00  2.15468E+00  2.13145E+00  2.11100E+00  2.09256E+00  2.07561E+00  2.05974E+00  2.04464E+00  2.03013E+00  2.01606E+00
   2.00233E+00  1.98884E+00  1.97551E+00  1.96227E+00  1.94907E+00  1.93591E+00  1.92276E+00  1.90959E+00  1.89637E+00  1.88308E+00
   1.86972E+00  1.85630E+00  1.84280E+00  1.82922E+00  1.81554E+00  1.80175E+00  1.78788E+00  1.77392E+00  1.75986E+00  1.74571E+00
   1.73144E+00  1.71708E+00  1.70262E+00  1.68807E+00  1.67342E+00  1.65868E+00  1.64382E+00  1.62887E+00  1.61384E+00  1.59871E+00
   1.58349E+00  1.56817E+00  1.55275E+00  1.53724E+00  1.52165E+00  1.50597E+00  1.49020E+00  1.47433E+00  1.45837E+00  1.44232E+00
   1.42620E+00  1.40999E+00  1.39369E+00  1.37729E+00  1.36081E+00  1.34426E+00  1.32762E+00  1.31090E+00  1.29410E+00  1.27720E+00
   1.26023E+00  1.24319E+00  1.22607E+00  1.20886E+00  1.19158E+00  1.17422E+00  1.15679E+00  1.13930E+00  1.12174E+00  1.10411E+00
   1.08640E+00  1.06863E+00  1.05081E+00  1.03293E+00  1.01499E+00  9.96991E-01  9.78935E-01  9.60840E-01  9.42697E-01  9.24518E-01
   9.06290E-01  8.88030E-01  8.69734E-01  8.51419E-01  8.33079E-01  8.14725E-01  7.96350E-01  7.77972E-01  7.59592E-01  7.41224E-01
   7.22867E-01  7.04531E-01  6.86219E-01  6.67946E-01  6.49722E-01  6.31560E-01  6.13468E-01  5.95458E-01  5.77545E-01  5.59747E-01
   5.42085E-01  5.24575E-01  5.07239E-01  4.90100E-01  4.73188E-01  4.56538E-01  4.40185E-01  4.24172E-01  4.08542E-01  3.93352E-01
   3.78668E-01  3.64568E-01  3.51142E-01  3.38501E-01  3.26778E-01  3.16144E-01  3.06813E-01  2.99064E-01
 NY background values follow
     1.388E+00    1.342E+00    1.298E+00    1.254E+00    1.210E+00    1.167E+00    1.124E+00    1.081E+00    1.040E+00    9.982E-01
     9.572E-01    9.168E-01    8.768E-01    8.373E-01    7.983E-01    7.598E-01    7.218E-01    6.843E-01    6.472E-01    6.107E-01
     5.746E-01    5.391E-01    5.041E-01    4.695E-01    4.355E-01    4.020E-01    3.690E-01    3.365E-01    3.045E-01    2.730E-01
     2.421E-01    2.116E-01    1.817E-01    1.523E-01    1.235E-01    9.510E-02    6.728E-02    3.998E-02    1.321E-02   -1.304E-02
    -3.875E-02   -6.393E-02   -8.859E-02   -1.127E-01   -1.363E-01   -1.594E-01   -1.819E-01   -2.039E-01   -2.253E-01   -2.462E-01
    -2.666E-01   -2.865E-01   -3.058E-01   -3.246E-01   -3.428E-01   -3.605E-01   -3.776E-01   -3.943E-01   -4.104E-01   -4.259E-01
    -4.409E-01   -4.554E-01   -4.693E-01   -4.827E-01   -4.956E-01   -5.079E-01   -5.197E-01   -5.310E-01   -5.417E-01   -5.519E-01
    -5.616E-01   -5.707E-01   -5.793E-01   -5.874E-01   -5.949E-01   -6.020E-01   -6.085E-01   -6.144E-01   -6.199E-01   -6.248E-01
    -6.292E-01   -6.331E-01   -6.365E-01   -6.393E-01   -6.417E-01   -6.435E-01   -6.448E-01   -6.456E-01   -6.459E-01   -6.457E-01
    -6.450E-01   -6.438E-01   -6.421E-01   -6.399E-01   -6.372E-01   -6.340E-01   -6.304E-01   -6.262E-01   -6.216E-01   -6.165E-01
    -6.109E-01   -6.048E-01   -5.982E-01   -5.912E-01   -5.837E-01   -5.758E-01   -5.673E-01   -5.585E-01   -5.491E-01   -5.394E-01
    -5.291E-01   -5.184E-01   -5.073E-01   -4.957E-01   -4.837E-01   -4.713E-01   -4.584E-01   -4.451E-01   -4.314E-01   -4.172E-01
    -4.026E-01   -3.875E-01   -3.721E-01   -3.562E-01   -3.399E-01   -3.232E-01   -3.061E-01   -2.885E-01   -2.706E-01   -2.522E-01
    -2.334E-01   -2.143E-01   -1.947E-01   -1.747E-01   -1.543E-01   -1.335E-01   -1.123E-01   -9.075E-02   -6.878E-02   -4.641E-02
    -2.366E-02   -5.187E-04    2.301E-02    4.692E-02    7.122E-02    9.589E-02    1.209E-01    1.464E-01    1.722E-01    1.984E-01
     2.249E-01    2.518E-01    2.791E-01    3.068E-01    3.348E-01    3.632E-01    3.919E-01    4.210E-01    4.505E-01    4.803E-01
     5.104E-01    5.410E-01    5.718E-01    6.030E-01    6.346E-01    6.665E-01    6.987E-01    7.313E-01    7.643E-01    7.975E-01
     8.311E-01    8.649E-01    8.991E-01    9.336E-01    9.683E-01    1.003E+00    1.039E+00    1.074E+00    1.110E+00    1.146E+00
     1.183E+00    1.219E+00    1.256E+00    1.293E+00    1.330E+00    1.368E+00    1.405E+00    1.443E+00    1.481E+00    1.519E+00
     1.557E+00    1.596E+00    1.634E+00    1.673E+00    1.712E+00    1.751E+00    1.790E+00    1.829E+00    1.868E+00    1.907E+00
     1.947E+00    1.986E+00    2.025E+00    2.065E+00    2.104E+00    2.144E+00    2.183E+00    2.223E+00    2.262E+00    2.302E+00
     2.341E+00    2.380E+00    2.420E+00    2.459E+00    2.498E+00    2.537E+00    2.576E+00    2.615E+00    2.653E+00    2.692E+00
     2.730E+00    2.769E+00    2.807E+00    2.845E+00    2.883E+00    2.920E+00    2.958E+00    2.995E+00    3.032E+00    3.068E+00
     3.105E+00    3.141E+00    3.177E+00    3.213E+00    3.248E+00    3.283E+00    3.318E+00    3.352E+00    3.386E+00    3.420E+00
     3.453E+00    3.486E+00    3.519E+00    3.551E+00    3.583E+00    3.614E+00    3.645E+00    3.676E+00    3.706E+00    3.735E+00
     3.764E+00    3.793E+00    3.821E+00    3.849E+00    3.876E+00    3.903E+00    3.929E+00    3.955E+00    3.980E+00    4.005E+00
     4.029E+00    4.052E+00    4.075E+00    4.097E+00    4.119E+00    4.140E+00    4.160E+00    4.180E+00    4.199E+00    4.218E+00
     4.236E+00    4.253E+00    4.269E+00    4.285E+00    4.301E+00    4.315E+00    4.329E+00    4.342E+00    4.354E+00    4.366E+00
     4.377E+00    4.388E+00    4.397E+00    4.406E+00    4.415E+00    4.422E+00    4.429E+00    4.436E+00    4.441E+00    4.446E+00
     4.451E+00    4.455E+00    4.458E+00    4.461E+00    4.463E+00    4.464E+00    4.465E+00    4.465E+00    4.465E+00    4.464E+00
     4.463E+00    4.461E+00    4.458E+00    4.455E+00    4.451E+00    4.447E+00    4.443E+00    4.438E+00    4.432E+00    4.426E+00
     4.420E+00    4.413E+00    4.405E+00    4.397E+00    4.389E+00    4.380E+00    4.371E+00    4.361E+00    4.351E+00    4.341E+00
     4.330E+00    4.319E+00    4.307E+00    4.295E+00    4.283E+00    4.270E+00    4.257E+00    4.244E+00    4.230E+00    4.216E+00
     4.202E+00    4.188E+00    4.173E+00    4.158E+00    4.142E+00    4.127E+00    4.111E+00    4.095E+00    4.078E+00    4.062E+00
     4.045E+00    4.028E+00    4.011E+00    3.993E+00    3.975E+00    3.958E+00    3.940E+00    3.921E+00    3.903E+00    3.884E+00
     3.866E+00    3.847E+00    3.828E+00    3.808E+00    3.789E+00    3.770E+00    3.750E+00    3.730E+00    3.711E+00    3.691E+00
     3.671E+00    3.651E+00    3.631E+00    3.610E+00    3.590E+00    3.570E+00    3.549E+00    3.529E+00    3.508E+00    3.488E+00
     3.467E+00    3.446E+00    3.426E+00    3.405E+00    3.384E+00    3.364E+00    3.343E+00    3.322E+00    3.301E+00    3.280E+00
     3.260E+00    3.239E+00    3.218E+00    3.198E+00    3.177E+00    3.156E+00    3.136E+00    3.115E+00    3.094E+00    3.074E+00
     3.053E+00    3.033E+00    3.012E+00    2.992E+00    2.971E+00    2.951E+00    2.931E+00    2.910E+00    2.890E+00    2.869E+00
     2.849E+00    2.829E+00    2.808E+00    2.788E+00    2.768E+00    2.747E+00    2.727E+00    2.706E+00    2.686E+00    2.665E+00
     2.645E+00    2.624E+00    2.604E+00    2.583E+00    2.563E+00    2.542E+00    2.521E+00    2.501E+00    2.480E+00    2.459E+00
     2.438E+00    2.417E+00    2.396E+00    2.376E+00    2.354E+00    2.333E+00    2.312E+00    2.291E+00    2.270E+00    2.249E+00
     2.227E+00    2.206E+00    2.184E+00    2.163E+00    2.141E+00    2.119E+00    2.098E+00    2.076E+00    2.054E+00    2.032E+00
     2.010E+00    1.987E+00    1.965E+00    1.943E+00    1.921E+00    1.898E+00    1.875E+00    1.853E+00    1.830E+00    1.807E+00
     1.784E+00    1.761E+00    1.738E+00    1.715E+00    1.692E+00    1.668E+00    1.645E+00    1.621E+00    1.598E+00    1.574E+00
     1.550E+00    1.526E+00    1.502E+00    1.478E+00    1.454E+00    1.430E+00    1.405E+00    1.381E+00    1.356E+00    1.332E+00
     1.307E+00    1.282E+00    1.257E+00    1.232E+00    1.207E+00    1.182E+00    1.156E+00    1.131E+00    1.105E+00    1.080E+00
     1.054E+00    1.028E+00    1.002E+00    9.763E-01    9.503E-01    9.241E-01    8.979E-01    8.716E-01    8.451E-01    8.186E-01
     7.921E-01    7.654E-01    7.386E-01    7.118E-01    6.849E-01    6.579E-01    6.308E-01    6.037E-01
 Ala      Conc. = 8.24E+02
