 LCModel (Version 6.3-1L) Copyright: S.W. Provencher.          Ref.: Magn. Reson. Med. 30:672-679 (1993).                
 Slice#1 Row#3 Col#6  PD_05_press_1_raw_act
 36 lines in following concentration table = NCONC+1
    Conc.  %SD /Cr+PCr  Metabolite                                         
    0.000 999%   0.000 Ala                                                 
    0.000 999%   0.000 Asp                                                 
 1.04E+03  33%   0.994 Cr                                                  
    6.187 999% 5.9E-03 PCr                                                 
   10.430 999% 1.0E-02 GABA                                                
   69.371 200% 6.6E-02 Glc                                                 
    0.000 999%   0.000 Gln                                                 
    0.000 999%   0.000 Glu                                                 
  465.268   5%   0.446 GPC                                                 
    0.000 999%   0.000 PCh                                                 
  494.619  17%   0.474 GSH                                                 
 1.75E+03  14%   1.677 Ins                                                 
    1.157 999% 1.1E-03 Lac                                                 
 1.36E+03  10%   1.300 NAA                                                 
  174.112  93%   0.167 NAAG                                                
  147.721  19%   0.142 Scyllo                                              
  107.518 170%   0.103 Tau                                                 
  433.919  26%   0.416 -CrCH2                                              
  465.268   5%   0.446 GPC+PCh                                             
 1.53E+03   6%   1.467 NAA+NAAG                                            
 1.04E+03   5%   1.000 Cr+PCr                                              
    0.000 999%   0.000 Glu+Gln                                             
    0.000 999%   0.000 Lip13a                                              
    0.000 999%   0.000 Lip13b                                              
   60.910 223% 5.8E-02 Lip09                                               
 2.28E+03  10%   2.187 MM09                                                
   29.818 341% 2.9E-02 Lip20                                               
 2.82E+03  11%   2.705 MM20                                                
 1.16E+03  15%   1.112 MM12                                                
    0.000 999%   0.000 MM14                                                
  252.122  47%   0.242 MM17                                                
    0.000 999%   0.000 Lip13a+Lip13b                                       
 1.16E+03  15%   1.112 MM14+Lip13a+Lip13b+MM12                             
 2.34E+03   8%   2.246 MM09+Lip09                                          
 2.85E+03  10%   2.733 MM20+Lip20                                          
   6 lines in following misc. output table
  FWHM = 0.092 ppm    S/N =   7                                            
  Data shift =-0.023 ppm                                                   
  Ph: -31 deg      -7.1 deg/ppm                                            
  alphaB,S = 8.5E+01,   7.9E+02                                            
   14 spline knots.   Ns =11(1)                                            
   2 inflections.     1 extrema                                            
  498 points on ppm-axis = NY
      4.000000     3.992357     3.984714     3.977070     3.969427     3.961784     3.954141     3.946497     3.938854     3.931211
      3.923568     3.915925     3.908281     3.900638     3.892995     3.885352     3.877708     3.870065     3.862422     3.854779
      3.847136     3.839492     3.831849     3.824206     3.816563     3.808919     3.801276     3.793633     3.785990     3.778347
      3.770703     3.763060     3.755417     3.747774     3.740130     3.732487     3.724844     3.717201     3.709558     3.701914
      3.694271     3.686628     3.678985     3.671341     3.663698     3.656055     3.648412     3.640769     3.633125     3.625482
      3.617839     3.610196     3.602552     3.594909     3.587266     3.579623     3.571980     3.564336     3.556693     3.549050
      3.541407     3.533763     3.526120     3.518477     3.510834     3.503191     3.495547     3.487904     3.480261     3.472618
      3.464974     3.457331     3.449688     3.442045     3.434402     3.426758     3.419115     3.411472     3.403829     3.396185
      3.388542     3.380899     3.373256     3.365613     3.357969     3.350326     3.342683     3.335040     3.327396     3.319753
      3.312110     3.304467     3.296824     3.289180     3.281537     3.273894     3.266251     3.258607     3.250964     3.243321
      3.235678     3.228034     3.220391     3.212748     3.205105     3.197462     3.189818     3.182175     3.174532     3.166889
      3.159245     3.151602     3.143959     3.136316     3.128673     3.121029     3.113386     3.105743     3.098100     3.090456
      3.082813     3.075170     3.067527     3.059884     3.052240     3.044597     3.036954     3.029311     3.021667     3.014024
      3.006381     2.998738     2.991095     2.983451     2.975808     2.968165     2.960522     2.952878     2.945235     2.937592
      2.929949     2.922306     2.914662     2.907019     2.899376     2.891733     2.884089     2.876446     2.868803     2.861160
      2.853517     2.845873     2.838230     2.830587     2.822944     2.815300     2.807657     2.800014     2.792371     2.784728
      2.777084     2.769441     2.761798     2.754155     2.746511     2.738868     2.731225     2.723582     2.715939     2.708295
      2.700652     2.693009     2.685366     2.677722     2.670079     2.662436     2.654793     2.647150     2.639506     2.631863
      2.624220     2.616577     2.608933     2.601290     2.593647     2.586004     2.578361     2.570717     2.563074     2.555431
      2.547788     2.540144     2.532501     2.524858     2.517215     2.509572     2.501928     2.494285     2.486642     2.478999
      2.471355     2.463712     2.456069     2.448426     2.440783     2.433139     2.425496     2.417853     2.410210     2.402566
      2.394923     2.387280     2.379637     2.371994     2.364350     2.356707     2.349064     2.341421     2.333777     2.326134
      2.318491     2.310848     2.303205     2.295561     2.287918     2.280275     2.272632     2.264988     2.257345     2.249702
      2.242059     2.234416     2.226772     2.219129     2.211486     2.203843     2.196199     2.188556     2.180913     2.173270
      2.165627     2.157983     2.150340     2.142697     2.135054     2.127410     2.119767     2.112124     2.104481     2.096838
      2.089194     2.081551     2.073908     2.066265     2.058621     2.050978     2.043335     2.035692     2.028049     2.020405
      2.012762     2.005119     1.997476     1.989833     1.982190     1.974546     1.966903     1.959260     1.951617     1.943974
      1.936331     1.928688     1.921045     1.913402     1.905759     1.898115     1.890472     1.882829     1.875186     1.867543
      1.859900     1.852257     1.844614     1.836971     1.829327     1.821684     1.814041     1.806398     1.798755     1.791112
      1.783469     1.775826     1.768183     1.760540     1.752896     1.745253     1.737610     1.729967     1.722324     1.714681
      1.707038     1.699395     1.691752     1.684108     1.676465     1.668822     1.661179     1.653536     1.645893     1.638250
      1.630607     1.622964     1.615321     1.607677     1.600034     1.592391     1.584748     1.577105     1.569462     1.561819
      1.554176     1.546533     1.538890     1.531246     1.523603     1.515960     1.508317     1.500674     1.493031     1.485388
      1.477745     1.470102     1.462458     1.454815     1.447172     1.439529     1.431886     1.424243     1.416600     1.408957
      1.401314     1.393671     1.386027     1.378384     1.370741     1.363098     1.355455     1.347812     1.340169     1.332526
      1.324883     1.317240     1.309596     1.301953     1.294310     1.286667     1.279024     1.271381     1.263738     1.256095
      1.248452     1.240808     1.233165     1.225522     1.217879     1.210236     1.202593     1.194950     1.187307     1.179664
      1.172021     1.164377     1.156734     1.149091     1.141448     1.133805     1.126162     1.118519     1.110876     1.103233
      1.095590     1.087946     1.080303     1.072660     1.065017     1.057374     1.049731     1.042088     1.034445     1.026802
      1.019158     1.011515     1.003872     0.996229     0.988586     0.980943     0.973300     0.965657     0.958014     0.950371
      0.942727     0.935084     0.927441     0.919798     0.912155     0.904512     0.896869     0.889226     0.881583     0.873940
      0.866296     0.858653     0.851010     0.843367     0.835724     0.828081     0.820438     0.812795     0.805152     0.797508
      0.789865     0.782222     0.774579     0.766936     0.759293     0.751650     0.744007     0.736364     0.728721     0.721077
      0.713434     0.705791     0.698148     0.690505     0.682862     0.675219     0.667576     0.659933     0.652290     0.644646
      0.637003     0.629360     0.621717     0.614074     0.606431     0.598788     0.591145     0.583502     0.575858     0.568215
      0.560572     0.552929     0.545286     0.537643     0.530000     0.522357     0.514714     0.507071     0.499427     0.491784
      0.484141     0.476498     0.468855     0.461212     0.453569     0.445925     0.438282     0.430639     0.422996     0.415353
      0.407710     0.400067     0.392424     0.384780     0.377137     0.369494     0.361851     0.354208     0.346565     0.338922
      0.331278     0.323635     0.315992     0.308349     0.300706     0.293063     0.285420     0.277777     0.270133     0.262490
      0.254847     0.247204     0.239561     0.231918     0.224275     0.216631     0.208988     0.201345
 NY phased data points follow
  -3.86278E+00 -4.26119E+00 -8.17272E-01  4.11002E-01 -7.86829E-01  2.34015E+00  4.23232E+00  5.77048E+00  5.08279E+00  9.62224E+00
   6.09393E+00  1.02677E+01  8.05326E+00  6.08491E+00  5.53497E+00  7.50051E-01  2.30112E+00  5.55017E+00 -3.56695E+00 -1.39015E+00
  -1.56303E+00  1.84242E+00 -4.73707E-01  6.57636E-01  9.71610E-01  1.88925E+00  5.06107E-02  5.63757E+00  3.76409E+00  2.12044E+00
   1.68028E+00  5.06779E+00  3.46410E+00  2.48859E+00  2.53669E+00  2.97995E+00  4.84543E+00 -1.02140E-01  2.35765E+00  4.35681E+00
   6.09830E+00  6.17096E+00  2.82822E+00  2.34673E+00  8.34040E+00  1.98074E+00  2.66884E+00  8.21927E+00  5.84808E+00  6.31762E+00
   3.56575E+00  3.70396E+00  4.48244E+00  3.02577E+00  8.94989E+00  5.38168E-01  1.11041E+00  3.57499E+00  2.41812E-01  2.27432E+00
  -9.02290E-01 -1.50877E-01 -2.82468E+00  1.25430E+00 -3.31549E+00 -4.28994E+00 -4.77028E+00 -4.98282E+00 -1.21309E+00  9.32689E-01
  -2.64731E+00  4.69270E-01 -1.34630E+00 -5.15481E-01  4.63230E-01  6.79397E-01 -7.81970E-01  9.83249E-01 -2.63584E+00  4.53652E+00
   4.60509E+00 -2.84802E-03 -6.17040E-01  5.65044E+00  8.63833E-01  3.22285E+00 -8.39635E-01  1.88524E+00 -2.12133E+00 -1.36408E+00
   9.35180E-01  5.42967E+00  4.16054E+00 -2.29974E-02  2.37340E+00  2.50206E+00  9.12702E+00  1.14435E+01  1.36466E+01  1.82040E+01
   2.34093E+01  2.30221E+01  2.56483E+01  2.47172E+01  2.00794E+01  2.08710E+01  1.77878E+01  1.44275E+01  7.42777E+00  4.46417E+00
   7.97003E+00  7.30630E+00  2.45134E+00  3.24014E+00  3.91313E+00  9.17664E-02  1.83471E+00  6.33681E+00  2.31233E+00  7.57031E+00
   6.04861E+00  1.22467E+01  1.32133E+01  1.52509E+01  1.64952E+01  2.13015E+01  1.94452E+01  2.01612E+01  1.96913E+01  2.06033E+01
   1.47778E+01  1.36871E+01  9.95871E+00  7.10290E+00  4.90675E+00  5.36768E+00  3.64804E+00  1.96657E+00  4.60697E+00  6.95791E-01
  -7.00317E-01 -2.73217E+00  6.15756E-01 -1.77707E+00  8.43634E-01 -1.55866E+00 -1.00215E+00 -1.94745E-01  1.42331E+00 -6.26433E+00
   4.24869E-01 -1.55623E+00 -1.06773E+00 -3.86397E+00  1.03506E+00 -2.43212E+00 -1.74664E+00 -1.54344E+00 -4.88649E+00 -2.06695E+00
  -5.02163E+00 -2.82455E+00 -2.35918E+00 -3.33784E+00 -2.73872E+00 -1.21827E+00 -4.74030E+00 -3.49606E+00 -6.01359E+00 -1.98670E+00
  -5.91299E+00 -8.36672E+00 -8.00967E+00 -8.70981E+00 -7.63679E+00 -7.99641E+00 -3.89422E+00 -8.88530E+00 -7.31323E+00 -7.71493E+00
  -9.35281E+00 -5.53988E+00 -1.00317E+01 -8.77402E+00 -1.01391E+01 -5.97638E+00 -7.32605E+00 -5.60359E+00 -5.56794E+00 -6.74450E+00
  -4.59197E+00 -1.61132E+00 -4.61909E+00 -1.85956E+00 -1.39210E+00 -4.56473E+00 -1.33012E-01 -6.40440E+00 -4.95452E+00 -1.58290E+00
  -6.49490E+00 -3.97598E+00 -3.43330E-01 -1.92995E-01 -4.24106E+00 -7.34985E-01  5.04474E-01  2.37711E-01 -4.28961E-01  1.87087E+00
   2.78713E+00 -2.34429E+00 -7.86763E-01 -1.72828E+00  2.63467E+00 -5.27063E-01 -7.74030E-03  3.05384E+00 -2.51810E+00  4.06800E+00
   9.00708E-01 -9.75236E-01  2.70354E+00 -3.78419E-01  1.27199E+00  5.01097E-01 -3.69104E-01  3.69717E+00  2.81809E+00  4.22244E+00
   2.92027E+00  1.01317E+00  2.42031E+00  3.04970E+00  4.56926E+00  5.88629E-01  2.17611E+00  3.10774E+00  2.55054E+00  3.12014E+00
   5.31922E-01  2.59833E+00  1.75574E+00  4.87593E+00  5.35103E+00  4.11603E+00  8.43409E+00  9.41330E+00  1.10711E+01  1.55298E+01
   1.45836E+01  1.60244E+01  1.96878E+01  2.08468E+01  2.17874E+01  2.99239E+01  3.10121E+01  3.28707E+01  3.65544E+01  4.00530E+01
   3.60476E+01  3.88043E+01  3.52232E+01  3.26866E+01  2.54624E+01  2.55904E+01  1.75378E+01  1.28924E+01  1.20258E+01  8.75077E+00
   5.58898E+00  4.80556E+00  9.82915E+00 -4.75583E-01  5.21717E+00 -1.91162E+00 -2.92685E-01 -1.70434E+00 -2.62652E-01 -1.59715E+00
   1.22321E-01 -2.86694E-01 -1.30193E+00 -4.87824E-01 -2.72472E+00 -4.60473E+00  1.26700E+00 -3.60121E+00  8.13835E-01 -2.94959E+00
  -1.43518E+00 -7.54111E+00 -1.98449E+00  9.22839E-01  1.53299E+00 -9.80761E-01 -2.95755E+00 -1.14420E+00  5.12250E-01  1.20230E+00
  -4.57543E-01  8.37684E-01 -4.06210E-01  5.08779E-01  1.56164E+00 -7.28907E-01  1.98098E+00  1.60170E+00  8.78949E-01  1.57638E-01
  -3.15445E+00  1.85343E+00 -1.46073E+00  1.32895E+00 -1.34751E+00 -8.95933E-01 -8.71201E-01  3.94353E-01 -1.74595E+00 -2.19026E+00
   1.80290E+00 -3.73919E+00 -3.90556E+00 -2.09618E+00 -1.08544E+00 -3.72293E+00 -1.53691E+00 -1.28936E+00 -2.32009E+00 -4.09629E+00
  -2.19290E+00 -1.45767E+00 -1.68245E+00 -4.07379E+00 -2.95336E+00 -2.54802E+00 -1.50650E+00 -1.96998E+00 -1.45240E-01 -3.65857E+00
   5.05186E-01 -2.70113E+00 -1.81065E+00 -1.16027E+00 -4.64316E+00 -1.59491E+00 -4.01817E+00 -2.86058E+00  8.61220E-01 -3.34533E+00
  -2.93310E+00 -5.31073E+00 -5.79340E+00 -4.90132E+00  4.97694E-01 -1.66795E-01  2.64482E+00  1.58768E+00  4.62207E+00  5.19435E+00
   7.16581E+00  2.81574E+00  4.42950E+00  8.25638E+00  7.05805E+00  7.23741E+00  5.81702E+00  2.96022E+00  3.75664E+00  5.97500E+00
   1.09318E+01  6.64222E+00  9.52662E+00  8.60732E+00  1.24321E+01  1.55150E+01  1.70729E+01  1.38671E+01  1.29491E+01  1.36853E+01
   1.07773E+01  1.21407E+01  1.36402E+01  1.39201E+01  9.91964E+00  1.05273E+01  8.92797E+00  1.06948E+01  1.14915E+01  1.34067E+01
   1.16005E+01  1.33996E+01  1.57799E+01  1.41261E+01  1.57282E+01  1.43629E+01  1.20225E+01  1.36510E+01  1.08213E+01  1.16448E+01
   1.34292E+01  9.46969E+00  9.64410E+00  8.14218E+00  1.17660E+01  1.18899E+01  9.62810E+00  1.08647E+01  5.88338E+00  6.21888E+00
   5.99224E+00  7.46387E+00  6.11201E+00  7.66706E+00  8.85939E+00  5.89550E+00  7.13702E+00  3.80783E+00  2.69373E+00  4.08648E+00
   5.66841E+00  5.06820E+00  4.14278E+00  6.20985E+00  3.52069E+00  4.00297E+00  2.38540E-02  1.34020E+00 -9.31389E-01 -1.52810E+00
   1.79152E+00 -5.47013E-01  4.28634E-01  1.10982E+00  1.08120E+00 -4.33817E-01  6.18547E-01 -1.84136E-01  7.98711E-01  7.40698E-01
   8.98504E-01 -2.90722E+00  4.63465E+00 -2.99620E-01  2.29647E+00  8.04602E-01 -2.60602E-01  4.03903E-01  9.40563E-01  3.52370E+00
   3.60723E+00 -4.65183E-01  6.60080E-01  9.65781E-01  1.92002E+00  4.12720E+00  8.51032E-01 -5.55286E-01  4.95985E+00  5.43635E-01
  -8.18828E-01  1.77998E+00  3.97278E-01 -3.46343E+00 -1.57114E+00  6.59912E-01 -3.95294E+00 -1.19651E+00 -7.70575E-01 -4.32005E+00
  -1.07901E+00 -1.05239E-01  1.74165E+00  1.79046E-02 -1.87428E+00  2.58089E+00 -2.89233E+00  3.03126E+00 -2.66110E+00  3.29558E-01
  -2.38110E-01  2.48092E+00  2.20753E+00 -2.68870E-01  2.24052E+00  9.78613E-01  1.04990E+00  3.45995E+00 -1.92897E-01 -1.41375E+00
  -1.07384E+00 -3.12118E+00 -2.23597E+00  4.99434E+00  2.67205E+00 -1.85430E+00  5.16845E-01  3.50248E+00
 NY points of the fit to the data follow
  -2.74449E-01 -3.14475E-01 -2.90545E-02  5.31830E-01  1.31585E+00  2.29160E+00  3.40602E+00  4.54074E+00  5.59403E+00  6.47633E+00
   7.08717E+00  7.36231E+00  7.27847E+00  6.83586E+00  6.07202E+00  5.06728E+00  3.92411E+00  2.74673E+00  1.64327E+00  7.77799E-01
   2.42558E-01 -2.58630E-02 -5.87215E-02  2.48525E-01  9.12322E-01  1.72515E+00  2.56634E+00  3.38591E+00  4.11518E+00  4.66869E+00
   4.97423E+00  5.00376E+00  4.77868E+00  4.33373E+00  3.72051E+00  3.04332E+00  2.45795E+00  2.09319E+00  1.97717E+00  2.07139E+00
   2.32050E+00  2.68593E+00  3.15349E+00  3.71946E+00  4.28234E+00  4.69551E+00  4.88405E+00  4.80815E+00  4.48825E+00  3.99203E+00
   3.40438E+00  2.80424E+00  2.22361E+00  1.68620E+00  1.21543E+00  8.28881E-01  5.24812E-01  2.69234E-01  4.56896E-02 -1.29141E-01
  -2.28465E-01 -2.52955E-01 -2.58660E-01 -2.82078E-01 -3.15928E-01 -3.33296E-01 -3.18446E-01 -2.67915E-01 -1.88061E-01 -9.72152E-02
  -2.08632E-02  2.70514E-02  5.59171E-02  7.11881E-02  8.44335E-02  1.72427E-01  3.50608E-01  5.62518E-01  7.65472E-01  9.46943E-01
   1.10638E+00  1.23447E+00  1.31563E+00  1.32960E+00  1.26093E+00  1.11274E+00  8.76948E-01  5.51581E-01  1.60397E-01 -2.58825E-01
  -6.39653E-01 -7.56943E-01 -1.14186E-01  1.37504E+00  3.52267E+00  6.14794E+00  9.08580E+00  1.21799E+01  1.52690E+01  1.81744E+01
   2.06285E+01  2.23684E+01  2.32360E+01  2.31701E+01  2.21924E+01  2.04064E+01  1.79933E+01  1.51910E+01  1.22474E+01  9.37882E+00
   6.72919E+00  4.36490E+00  2.30467E+00  5.63991E-01 -7.53010E-01 -1.26468E+00 -5.51641E-01  1.03962E+00  3.14945E+00  5.60650E+00
   8.27574E+00  1.10219E+01  1.36988E+01  1.61536E+01  1.81978E+01  1.96382E+01  2.03375E+01  2.02339E+01  1.93468E+01  1.77856E+01
   1.57177E+01  1.33580E+01  1.09062E+01  8.52227E+00  6.31681E+00  4.34509E+00  2.62559E+00  1.17924E+00  7.35450E-02 -5.71365E-01
  -7.86265E-01 -8.55263E-01 -9.06633E-01 -9.81496E-01 -1.09708E+00 -1.24949E+00 -1.41928E+00 -1.59333E+00 -1.78191E+00 -1.99435E+00
  -2.23650E+00 -2.50507E+00 -2.77917E+00 -3.02996E+00 -3.23585E+00 -3.39239E+00 -3.52222E+00 -3.64029E+00 -3.75364E+00 -3.86670E+00
  -3.98020E+00 -4.09233E+00 -4.20223E+00 -4.31333E+00 -4.43570E+00 -4.58571E+00 -4.77014E+00 -4.97278E+00 -5.17852E+00 -5.37611E+00
  -5.56661E+00 -5.74907E+00 -5.91507E+00 -6.06037E+00 -6.19218E+00 -6.31303E+00 -6.42404E+00 -6.51403E+00 -6.56016E+00 -6.55185E+00
  -6.47345E+00 -6.30603E+00 -6.04391E+00 -5.69698E+00 -5.27638E+00 -4.79544E+00 -4.27846E+00 -3.78098E+00 -3.34273E+00 -2.97711E+00
  -2.68860E+00 -2.47751E+00 -2.34627E+00 -2.27994E+00 -2.26523E+00 -2.27554E+00 -2.27873E+00 -2.25328E+00 -2.19503E+00 -2.10884E+00
  -2.00184E+00 -1.88005E+00 -1.76426E+00 -1.67245E+00 -1.61032E+00 -1.58263E+00 -1.59389E+00 -1.64288E+00 -1.71596E+00 -1.79680E+00
  -1.87462E+00 -1.94397E+00 -1.97639E+00 -1.95057E+00 -1.86771E+00 -1.73210E+00 -1.54492E+00 -1.31192E+00 -1.05326E+00 -7.86485E-01
  -5.32814E-01 -3.16928E-01 -1.43152E-01  2.53457E-04  1.26582E-01  2.48012E-01  3.82378E-01  5.64303E-01  8.00717E-01  1.07399E+00
   1.36959E+00  1.67642E+00  1.98357E+00  2.27847E+00  2.55489E+00  2.82278E+00  3.08947E+00  3.35812E+00  3.63537E+00  3.93428E+00
   4.27129E+00  4.65901E+00  5.10369E+00  5.60059E+00  6.14858E+00  6.78478E+00  7.51491E+00  8.31498E+00  9.21871E+00  1.05634E+01
   1.27052E+01  1.55072E+01  1.87378E+01  2.21990E+01  2.57148E+01  2.90971E+01  3.21390E+01  3.46280E+01  3.63659E+01  3.71942E+01
   3.70170E+01  3.58280E+01  3.37111E+01  3.08320E+01  2.74204E+01  2.37356E+01  2.00257E+01  1.64957E+01  1.32879E+01  1.04641E+01
   7.99178E+00  5.85675E+00  4.14637E+00  3.03333E+00  2.43223E+00  2.00109E+00  1.63266E+00  1.30413E+00  1.00751E+00  7.39059E-01
   4.96246E-01  2.77854E-01  8.32333E-02 -8.81842E-02 -2.36526E-01 -3.61998E-01 -4.65190E-01 -5.46664E-01 -6.07360E-01 -6.48632E-01
  -6.71901E-01 -6.78019E-01 -6.67927E-01 -6.43135E-01 -6.05514E-01 -5.56991E-01 -4.99446E-01 -4.35306E-01 -3.67474E-01 -2.98625E-01
  -2.31675E-01 -1.69657E-01 -1.15548E-01 -7.22245E-02 -4.18842E-02 -2.57949E-02 -2.50813E-02 -4.04189E-02 -7.17241E-02 -1.18262E-01
  -1.78680E-01 -2.51242E-01 -3.33851E-01 -4.23824E-01 -5.18378E-01 -6.14919E-01 -7.10971E-01 -8.04356E-01 -8.93220E-01 -9.76117E-01
  -1.05196E+00 -1.12002E+00 -1.17985E+00 -1.23134E+00 -1.27461E+00 -1.30999E+00 -1.33791E+00 -1.35891E+00 -1.37350E+00 -1.38224E+00
  -1.38562E+00 -1.38411E+00 -1.37806E+00 -1.36775E+00 -1.35328E+00 -1.33468E+00 -1.31179E+00 -1.28445E+00 -1.25250E+00 -1.21556E+00
  -1.17302E+00 -1.12405E+00 -1.06758E+00 -1.00228E+00 -9.26236E-01 -8.37199E-01 -7.32639E-01 -6.09737E-01 -4.65319E-01 -2.95964E-01
  -9.80681E-02  1.31934E-01  3.97414E-01  7.01282E-01  1.04581E+00  1.43234E+00  1.86109E+00  2.33089E+00  2.83903E+00  3.38109E+00
   3.95092E+00  4.54058E+00  5.14066E+00  5.74069E+00  6.32950E+00  6.89573E+00  7.42858E+00  7.91840E+00  8.35744E+00  8.74014E+00
   9.06359E+00  9.32794E+00  9.53648E+00  9.69533E+00  9.81323E+00  9.90090E+00  9.97041E+00  1.00344E+01  1.01053E+01  1.01944E+01
   1.03113E+01  1.04633E+01  1.06547E+01  1.08868E+01  1.11578E+01  1.14628E+01  1.17940E+01  1.21413E+01  1.24928E+01  1.28352E+01
   1.31551E+01  1.34388E+01  1.36739E+01  1.38490E+01  1.39551E+01  1.39850E+01  1.39346E+01  1.38021E+01  1.35884E+01  1.32970E+01
   1.29335E+01  1.25054E+01  1.20216E+01  1.14919E+01  1.09267E+01  1.03364E+01  9.73106E+00  9.12014E+00  8.51221E+00  7.91474E+00
   7.33403E+00  6.77519E+00  6.24214E+00  5.73767E+00  5.26356E+00  4.82068E+00  4.40920E+00  4.02865E+00  3.67811E+00  3.35625E+00
   3.06154E+00  2.79224E+00  2.54660E+00  2.32280E+00  2.11906E+00  1.93366E+00  1.76495E+00  1.61139E+00  1.47158E+00  1.34419E+00
   1.22803E+00  1.12198E+00  1.02507E+00  9.36400E-01  8.55191E-01  7.80710E-01  7.12324E-01  6.49439E-01  5.91559E-01  5.38220E-01
   4.89035E-01  4.43619E-01  4.01654E-01  3.62828E-01  3.26902E-01  2.93630E-01  2.62819E-01  2.34255E-01  2.07777E-01  1.83212E-01
   1.60442E-01  1.39330E-01  1.19771E-01  1.01637E-01  8.48417E-02  6.92842E-02  5.49073E-02  4.16214E-02  2.93690E-02  1.80627E-02
   7.66038E-03 -1.90324E-03 -1.06540E-02 -1.86581E-02 -2.59478E-02 -3.25856E-02 -3.85881E-02 -4.40003E-02 -4.88338E-02 -5.31411E-02
  -5.69395E-02 -6.02748E-02 -6.31486E-02 -6.55951E-02 -6.76187E-02 -6.92648E-02 -7.05402E-02 -7.14794E-02 -7.20745E-02 -7.23560E-02
  -7.23250E-02 -7.20216E-02 -7.14446E-02 -7.06204E-02 -6.95371E-02 -6.82243E-02 -6.66821E-02 -6.49460E-02 -6.30084E-02 -6.08913E-02
  -5.85820E-02 -5.61114E-02 -5.34790E-02 -5.07164E-02 -4.78113E-02 -4.47844E-02 -4.16249E-02 -3.83661E-02
 NY background values follow
    -6.058E+00   -6.047E+00   -6.036E+00   -6.026E+00   -6.015E+00   -6.004E+00   -5.993E+00   -5.982E+00   -5.971E+00   -5.961E+00
    -5.950E+00   -5.939E+00   -5.928E+00   -5.917E+00   -5.907E+00   -5.896E+00   -5.885E+00   -5.874E+00   -5.863E+00   -5.852E+00
    -5.842E+00   -5.831E+00   -5.820E+00   -5.809E+00   -5.798E+00   -5.788E+00   -5.777E+00   -5.766E+00   -5.755E+00   -5.744E+00
    -5.733E+00   -5.723E+00   -5.712E+00   -5.701E+00   -5.690E+00   -5.679E+00   -5.668E+00   -5.658E+00   -5.647E+00   -5.636E+00
    -5.625E+00   -5.614E+00   -5.604E+00   -5.593E+00   -5.582E+00   -5.571E+00   -5.560E+00   -5.549E+00   -5.539E+00   -5.528E+00
    -5.517E+00   -5.506E+00   -5.495E+00   -5.484E+00   -5.474E+00   -5.463E+00   -5.452E+00   -5.441E+00   -5.430E+00   -5.419E+00
    -5.409E+00   -5.398E+00   -5.387E+00   -5.376E+00   -5.365E+00   -5.354E+00   -5.344E+00   -5.333E+00   -5.322E+00   -5.311E+00
    -5.300E+00   -5.289E+00   -5.279E+00   -5.268E+00   -5.257E+00   -5.246E+00   -5.235E+00   -5.224E+00   -5.214E+00   -5.203E+00
    -5.192E+00   -5.181E+00   -5.170E+00   -5.159E+00   -5.149E+00   -5.138E+00   -5.127E+00   -5.116E+00   -5.105E+00   -5.094E+00
    -5.084E+00   -5.073E+00   -5.062E+00   -5.051E+00   -5.040E+00   -5.029E+00   -5.018E+00   -5.008E+00   -4.997E+00   -4.986E+00
    -4.975E+00   -4.964E+00   -4.953E+00   -4.943E+00   -4.932E+00   -4.921E+00   -4.910E+00   -4.899E+00   -4.888E+00   -4.878E+00
    -4.867E+00   -4.856E+00   -4.845E+00   -4.834E+00   -4.823E+00   -4.813E+00   -4.802E+00   -4.791E+00   -4.780E+00   -4.769E+00
    -4.758E+00   -4.747E+00   -4.737E+00   -4.726E+00   -4.715E+00   -4.704E+00   -4.693E+00   -4.682E+00   -4.672E+00   -4.661E+00
    -4.650E+00   -4.639E+00   -4.628E+00   -4.617E+00   -4.607E+00   -4.596E+00   -4.585E+00   -4.574E+00   -4.563E+00   -4.552E+00
    -4.541E+00   -4.531E+00   -4.520E+00   -4.509E+00   -4.498E+00   -4.487E+00   -4.476E+00   -4.466E+00   -4.455E+00   -4.444E+00
    -4.433E+00   -4.422E+00   -4.411E+00   -4.401E+00   -4.390E+00   -4.379E+00   -4.368E+00   -4.357E+00   -4.346E+00   -4.335E+00
    -4.325E+00   -4.314E+00   -4.303E+00   -4.292E+00   -4.281E+00   -4.270E+00   -4.260E+00   -4.249E+00   -4.238E+00   -4.227E+00
    -4.216E+00   -4.205E+00   -4.194E+00   -4.184E+00   -4.173E+00   -4.162E+00   -4.151E+00   -4.140E+00   -4.129E+00   -4.119E+00
    -4.108E+00   -4.097E+00   -4.086E+00   -4.075E+00   -4.064E+00   -4.053E+00   -4.043E+00   -4.032E+00   -4.021E+00   -4.010E+00
    -3.999E+00   -3.988E+00   -3.977E+00   -3.967E+00   -3.956E+00   -3.945E+00   -3.934E+00   -3.923E+00   -3.912E+00   -3.902E+00
    -3.891E+00   -3.880E+00   -3.869E+00   -3.858E+00   -3.847E+00   -3.836E+00   -3.826E+00   -3.815E+00   -3.804E+00   -3.793E+00
    -3.782E+00   -3.771E+00   -3.761E+00   -3.750E+00   -3.739E+00   -3.728E+00   -3.717E+00   -3.706E+00   -3.695E+00   -3.685E+00
    -3.674E+00   -3.663E+00   -3.652E+00   -3.641E+00   -3.630E+00   -3.619E+00   -3.609E+00   -3.598E+00   -3.587E+00   -3.576E+00
    -3.565E+00   -3.554E+00   -3.544E+00   -3.533E+00   -3.522E+00   -3.511E+00   -3.500E+00   -3.489E+00   -3.478E+00   -3.468E+00
    -3.457E+00   -3.446E+00   -3.435E+00   -3.424E+00   -3.413E+00   -3.403E+00   -3.392E+00   -3.381E+00   -3.370E+00   -3.359E+00
    -3.348E+00   -3.337E+00   -3.327E+00   -3.316E+00   -3.305E+00   -3.294E+00   -3.283E+00   -3.272E+00   -3.261E+00   -3.251E+00
    -3.240E+00   -3.229E+00   -3.218E+00   -3.207E+00   -3.196E+00   -3.186E+00   -3.175E+00   -3.164E+00   -3.153E+00   -3.142E+00
    -3.131E+00   -3.120E+00   -3.110E+00   -3.099E+00   -3.088E+00   -3.077E+00   -3.066E+00   -3.055E+00   -3.045E+00   -3.034E+00
    -3.023E+00   -3.012E+00   -3.001E+00   -2.990E+00   -2.979E+00   -2.969E+00   -2.958E+00   -2.947E+00   -2.936E+00   -2.925E+00
    -2.914E+00   -2.903E+00   -2.893E+00   -2.882E+00   -2.871E+00   -2.860E+00   -2.849E+00   -2.838E+00   -2.828E+00   -2.817E+00
    -2.806E+00   -2.795E+00   -2.784E+00   -2.773E+00   -2.762E+00   -2.752E+00   -2.741E+00   -2.730E+00   -2.719E+00   -2.708E+00
    -2.697E+00   -2.687E+00   -2.676E+00   -2.665E+00   -2.654E+00   -2.643E+00   -2.632E+00   -2.621E+00   -2.611E+00   -2.600E+00
    -2.589E+00   -2.578E+00   -2.567E+00   -2.556E+00   -2.546E+00   -2.535E+00   -2.524E+00   -2.513E+00   -2.502E+00   -2.491E+00
    -2.480E+00   -2.470E+00   -2.459E+00   -2.448E+00   -2.437E+00   -2.426E+00   -2.415E+00   -2.405E+00   -2.394E+00   -2.383E+00
    -2.372E+00   -2.361E+00   -2.350E+00   -2.340E+00   -2.329E+00   -2.318E+00   -2.307E+00   -2.296E+00   -2.285E+00   -2.274E+00
    -2.264E+00   -2.253E+00   -2.242E+00   -2.231E+00   -2.220E+00   -2.209E+00   -2.199E+00   -2.188E+00   -2.177E+00   -2.166E+00
    -2.155E+00   -2.144E+00   -2.134E+00   -2.123E+00   -2.112E+00   -2.101E+00   -2.090E+00   -2.079E+00   -2.069E+00   -2.058E+00
    -2.047E+00   -2.036E+00   -2.025E+00   -2.014E+00   -2.003E+00   -1.993E+00   -1.982E+00   -1.971E+00   -1.960E+00   -1.949E+00
    -1.938E+00   -1.928E+00   -1.917E+00   -1.906E+00   -1.895E+00   -1.884E+00   -1.873E+00   -1.863E+00   -1.852E+00   -1.841E+00
    -1.830E+00   -1.819E+00   -1.808E+00   -1.798E+00   -1.787E+00   -1.776E+00   -1.765E+00   -1.754E+00   -1.743E+00   -1.733E+00
    -1.722E+00   -1.711E+00   -1.700E+00   -1.689E+00   -1.678E+00   -1.668E+00   -1.657E+00   -1.646E+00   -1.635E+00   -1.624E+00
    -1.613E+00   -1.603E+00   -1.592E+00   -1.581E+00   -1.570E+00   -1.559E+00   -1.548E+00   -1.538E+00   -1.527E+00   -1.516E+00
    -1.505E+00   -1.494E+00   -1.484E+00   -1.473E+00   -1.462E+00   -1.451E+00   -1.440E+00   -1.429E+00   -1.419E+00   -1.408E+00
    -1.397E+00   -1.386E+00   -1.375E+00   -1.364E+00   -1.354E+00   -1.343E+00   -1.332E+00   -1.321E+00   -1.310E+00   -1.299E+00
    -1.289E+00   -1.278E+00   -1.267E+00   -1.256E+00   -1.245E+00   -1.235E+00   -1.224E+00   -1.213E+00   -1.202E+00   -1.191E+00
    -1.180E+00   -1.170E+00   -1.159E+00   -1.148E+00   -1.137E+00   -1.126E+00   -1.116E+00   -1.105E+00   -1.094E+00   -1.083E+00
    -1.072E+00   -1.061E+00   -1.051E+00   -1.040E+00   -1.029E+00   -1.018E+00   -1.007E+00   -9.966E-01   -9.858E-01   -9.750E-01
    -9.642E-01   -9.534E-01   -9.426E-01   -9.317E-01   -9.209E-01   -9.101E-01   -8.993E-01   -8.885E-01   -8.777E-01   -8.669E-01
    -8.561E-01   -8.453E-01   -8.345E-01   -8.237E-01   -8.129E-01   -8.020E-01   -7.912E-01   -7.804E-01   -7.696E-01   -7.588E-01
    -7.480E-01   -7.372E-01   -7.264E-01   -7.156E-01   -7.048E-01   -6.940E-01   -6.832E-01   -6.724E-01
 Cr       Conc. = 1.04E+03
