 LCModel (Version 6.3-1L) Copyright: S.W. Provencher.          Ref.: Magn. Reson. Med. 30:672-679 (1993).                
 Slice#2 Row#9 Col#9  PD_05_press_1_raw_act
 36 lines in following concentration table = NCONC+1
    Conc.  %SD /Cr+PCr  Metabolite                                         
  109.225  73% 7.5E-02 Ala                                                 
    0.000 999%   0.000 Asp                                                 
  334.784  48%   0.231 Cr                                                  
 1.11E+03  15%   0.769 PCr                                                 
    4.230 999% 2.9E-03 GABA                                                
   94.026 144% 6.5E-02 Glc                                                 
  761.198  21%   0.526 Gln                                                 
 1.68E+03  12%   1.161 Glu                                                 
  594.090   3%   0.410 GPC                                                 
    0.000 999%   0.000 PCh                                                 
  333.528  17%   0.230 GSH                                                 
 1.40E+03  14%   0.967 Ins                                                 
   58.834 146% 4.1E-02 Lac                                                 
 2.34E+03   3%   1.614 NAA                                                 
  137.619  53% 9.5E-02 NAAG                                                
  152.569  15%   0.105 Scyllo                                              
    0.000 999%   0.000 Tau                                                 
  122.046  74% 8.4E-02 -CrCH2                                              
  594.090   3%   0.410 GPC+PCh                                             
 2.47E+03   3%   1.709 NAA+NAAG                                            
 1.45E+03   3%   1.000 Cr+PCr                                              
 2.44E+03  11%   1.687 Glu+Gln                                             
  846.938  47%   0.585 Lip13a                                              
    0.000 999%   0.000 Lip13b                                              
   51.008 385% 3.5E-02 Lip09                                               
 1.25E+03  20%   0.866 MM09                                                
  135.445  97% 9.4E-02 Lip20                                               
 2.77E+03  13%   1.911 MM20                                                
  374.885  44%   0.259 MM12                                                
 1.09E+03  30%   0.752 MM14                                                
  677.436  31%   0.468 MM17                                                
  846.938  47%   0.585 Lip13a+Lip13b                                       
 2.31E+03  17%   1.597 MM14+Lip13a+Lip13b+MM12                             
 1.30E+03  15%   0.901 MM09+Lip09                                          
 2.90E+03  12%   2.004 MM20+Lip20                                          
   6 lines in following misc. output table
  FWHM = 0.046 ppm    S/N =  18                                            
  Data shift = 0.015 ppm                                                   
  Ph: -55 deg     -20.3 deg/ppm                                            
  alphaB,S = 1.0E+00,   1.3E+02                                            
   14 spline knots.   Ns = 6(1)                                            
  ( 6) 4 infls.   ( 1) 1 extrs.                                            
  498 points on ppm-axis = NY
      4.000000     3.992357     3.984714     3.977070     3.969427     3.961784     3.954141     3.946497     3.938854     3.931211
      3.923568     3.915925     3.908281     3.900638     3.892995     3.885352     3.877708     3.870065     3.862422     3.854779
      3.847136     3.839492     3.831849     3.824206     3.816563     3.808919     3.801276     3.793633     3.785990     3.778347
      3.770703     3.763060     3.755417     3.747774     3.740130     3.732487     3.724844     3.717201     3.709558     3.701914
      3.694271     3.686628     3.678985     3.671341     3.663698     3.656055     3.648412     3.640769     3.633125     3.625482
      3.617839     3.610196     3.602552     3.594909     3.587266     3.579623     3.571980     3.564336     3.556693     3.549050
      3.541407     3.533763     3.526120     3.518477     3.510834     3.503191     3.495547     3.487904     3.480261     3.472618
      3.464974     3.457331     3.449688     3.442045     3.434402     3.426758     3.419115     3.411472     3.403829     3.396185
      3.388542     3.380899     3.373256     3.365613     3.357969     3.350326     3.342683     3.335040     3.327396     3.319753
      3.312110     3.304467     3.296824     3.289180     3.281537     3.273894     3.266251     3.258607     3.250964     3.243321
      3.235678     3.228034     3.220391     3.212748     3.205105     3.197462     3.189818     3.182175     3.174532     3.166889
      3.159245     3.151602     3.143959     3.136316     3.128673     3.121029     3.113386     3.105743     3.098100     3.090456
      3.082813     3.075170     3.067527     3.059884     3.052240     3.044597     3.036954     3.029311     3.021667     3.014024
      3.006381     2.998738     2.991095     2.983451     2.975808     2.968165     2.960522     2.952878     2.945235     2.937592
      2.929949     2.922306     2.914662     2.907019     2.899376     2.891733     2.884089     2.876446     2.868803     2.861160
      2.853517     2.845873     2.838230     2.830587     2.822944     2.815300     2.807657     2.800014     2.792371     2.784728
      2.777084     2.769441     2.761798     2.754155     2.746511     2.738868     2.731225     2.723582     2.715939     2.708295
      2.700652     2.693009     2.685366     2.677722     2.670079     2.662436     2.654793     2.647150     2.639506     2.631863
      2.624220     2.616577     2.608933     2.601290     2.593647     2.586004     2.578361     2.570717     2.563074     2.555431
      2.547788     2.540144     2.532501     2.524858     2.517215     2.509572     2.501928     2.494285     2.486642     2.478999
      2.471355     2.463712     2.456069     2.448426     2.440783     2.433139     2.425496     2.417853     2.410210     2.402566
      2.394923     2.387280     2.379637     2.371994     2.364350     2.356707     2.349064     2.341421     2.333777     2.326134
      2.318491     2.310848     2.303205     2.295561     2.287918     2.280275     2.272632     2.264988     2.257345     2.249702
      2.242059     2.234416     2.226772     2.219129     2.211486     2.203843     2.196199     2.188556     2.180913     2.173270
      2.165627     2.157983     2.150340     2.142697     2.135054     2.127410     2.119767     2.112124     2.104481     2.096838
      2.089194     2.081551     2.073908     2.066265     2.058621     2.050978     2.043335     2.035692     2.028049     2.020405
      2.012762     2.005119     1.997476     1.989833     1.982190     1.974546     1.966903     1.959260     1.951617     1.943974
      1.936331     1.928688     1.921045     1.913402     1.905759     1.898115     1.890472     1.882829     1.875186     1.867543
      1.859900     1.852257     1.844614     1.836971     1.829327     1.821684     1.814041     1.806398     1.798755     1.791112
      1.783469     1.775826     1.768183     1.760540     1.752896     1.745253     1.737610     1.729967     1.722324     1.714681
      1.707038     1.699395     1.691752     1.684108     1.676465     1.668822     1.661179     1.653536     1.645893     1.638250
      1.630607     1.622964     1.615321     1.607677     1.600034     1.592391     1.584748     1.577105     1.569462     1.561819
      1.554176     1.546533     1.538890     1.531246     1.523603     1.515960     1.508317     1.500674     1.493031     1.485388
      1.477745     1.470102     1.462458     1.454815     1.447172     1.439529     1.431886     1.424243     1.416600     1.408957
      1.401314     1.393671     1.386027     1.378384     1.370741     1.363098     1.355455     1.347812     1.340169     1.332526
      1.324883     1.317240     1.309596     1.301953     1.294310     1.286667     1.279024     1.271381     1.263738     1.256095
      1.248452     1.240808     1.233165     1.225522     1.217879     1.210236     1.202593     1.194950     1.187307     1.179664
      1.172021     1.164377     1.156734     1.149091     1.141448     1.133805     1.126162     1.118519     1.110876     1.103233
      1.095590     1.087946     1.080303     1.072660     1.065017     1.057374     1.049731     1.042088     1.034445     1.026802
      1.019158     1.011515     1.003872     0.996229     0.988586     0.980943     0.973300     0.965657     0.958014     0.950371
      0.942727     0.935084     0.927441     0.919798     0.912155     0.904512     0.896869     0.889226     0.881583     0.873940
      0.866296     0.858653     0.851010     0.843367     0.835724     0.828081     0.820438     0.812795     0.805152     0.797508
      0.789865     0.782222     0.774579     0.766936     0.759293     0.751650     0.744007     0.736364     0.728721     0.721077
      0.713434     0.705791     0.698148     0.690505     0.682862     0.675219     0.667576     0.659933     0.652290     0.644646
      0.637003     0.629360     0.621717     0.614074     0.606431     0.598788     0.591145     0.583502     0.575858     0.568215
      0.560572     0.552929     0.545286     0.537643     0.530000     0.522357     0.514714     0.507071     0.499427     0.491784
      0.484141     0.476498     0.468855     0.461212     0.453569     0.445925     0.438282     0.430639     0.422996     0.415353
      0.407710     0.400067     0.392424     0.384780     0.377137     0.369494     0.361851     0.354208     0.346565     0.338922
      0.331278     0.323635     0.315992     0.308349     0.300706     0.293063     0.285420     0.277777     0.270133     0.262490
      0.254847     0.247204     0.239561     0.231918     0.224275     0.216631     0.208988     0.201345
 NY phased data points follow
  -3.64990E+01 -3.90217E+01 -3.25937E+01 -3.42957E+01 -2.77592E+01 -2.59742E+01 -1.48718E+01 -1.19077E+01 -3.58793E+00  1.22306E+00
   4.61534E+00  3.53639E+00 -4.59841E+00 -1.04993E+01 -1.38068E+01 -1.61339E+01 -2.17442E+01 -2.18080E+01 -2.69803E+01 -2.51301E+01
  -2.44159E+01 -2.68875E+01 -2.61766E+01 -2.71055E+01 -2.55248E+01 -2.04528E+01 -2.13076E+01 -1.96567E+01 -1.87939E+01 -1.60894E+01
  -1.69254E+01 -1.61267E+01 -1.63503E+01 -1.55051E+01 -1.79866E+01 -1.72352E+01 -1.93377E+01 -1.73484E+01 -1.95424E+01 -1.76262E+01
  -1.72116E+01 -1.69118E+01 -1.68029E+01 -1.32251E+01 -1.15254E+01 -7.44300E+00 -4.71636E+00 -6.87189E+00 -8.88074E+00 -8.93284E+00
  -8.89572E+00 -8.99545E+00 -1.51691E+01 -9.02908E+00 -1.20965E+01 -1.08001E+01 -8.19634E+00 -1.14168E+01 -1.35543E+01 -1.12619E+01
  -1.34085E+01 -1.35893E+01 -1.39446E+01 -1.77964E+01 -1.93465E+01 -1.90086E+01 -1.94483E+01 -1.82181E+01 -1.85650E+01 -1.58409E+01
  -1.54923E+01 -1.26327E+01 -1.53353E+01 -1.66296E+01 -1.39869E+01 -1.29802E+01 -1.38156E+01 -1.29943E+01 -1.26260E+01 -1.04384E+01
  -8.39630E+00 -1.45515E+01 -9.15043E+00 -8.97821E+00 -8.24561E+00 -9.53463E+00 -1.16027E+01 -8.23140E+00 -5.60475E+00 -5.52725E+00
  -1.48075E+00 -1.64917E+00 -2.73415E+00 -6.69876E+00 -5.53117E+00 -4.87898E+00 -6.14896E+00 -5.67697E+00 -5.30390E-01  1.14771E+01
   2.75038E+01  4.18015E+01  4.82933E+01  4.36583E+01  3.77961E+01  2.76379E+01  2.30761E+01  1.78523E+01  1.30492E+01  6.07796E+00
   3.15762E+00 -9.10053E-01 -2.91096E+00 -4.10925E+00 -3.08095E+00 -4.87895E+00  5.71494E-01 -2.80971E+00 -3.50930E+00 -3.81789E+00
  -4.75768E+00 -8.53866E+00  6.06535E-01  6.97465E+00  2.17256E+01  3.65360E+01  4.60273E+01  5.05123E+01  4.28603E+01  3.38605E+01
   2.43778E+01  2.15724E+01  1.76402E+01  7.40712E+00  6.26550E+00  8.32893E-02 -3.22913E+00 -3.93705E+00 -4.89388E+00 -5.23890E+00
  -3.42209E+00 -1.78534E+00 -2.15468E+00 -3.14804E+00 -2.50754E+00 -3.89875E+00  3.14042E-01 -3.68938E-01  2.93880E-01 -6.33964E+00
   3.62397E-01 -2.84082E+00 -1.76389E+00 -2.96855E-02 -1.51891E+00 -1.32258E+00 -1.55615E+00  7.27538E-01 -1.03350E+00 -2.38076E+00
  -3.86426E+00 -6.30497E+00 -6.22392E+00 -2.64678E+00 -1.23315E+00 -4.98404E+00 -1.71632E+00 -5.28216E+00 -4.59162E+00 -3.79753E+00
  -5.64518E+00 -4.86950E+00 -5.55290E+00 -9.02920E+00 -1.15605E+01 -1.16173E+01 -7.88274E+00 -5.25408E+00 -6.57011E+00 -8.27617E+00
  -9.16900E+00 -1.08187E+01 -1.12637E+01 -9.53430E+00 -6.58289E+00 -5.58817E+00 -6.22049E+00 -6.13360E+00 -2.32575E-01  2.31536E+00
   6.63310E+00  7.06241E+00  7.72677E+00  8.23617E+00  9.43257E+00  4.43723E+00  5.75631E-01 -2.70361E+00  1.50027E+00  2.51105E+00
   3.33980E+00  6.09267E+00  7.48057E+00  1.03561E+01  1.10244E+01  9.24419E+00  3.16110E+00  5.72521E-02 -1.52739E+00 -1.97283E+00
  -1.37614E+00 -2.32440E+00  3.86495E+00  7.91103E+00  1.44266E+01  1.87722E+01  1.75119E+01  1.42533E+01  1.11563E+01  7.50239E+00
   2.50020E+00 -1.02423E+00  2.24941E+00  2.69158E+00  8.33010E+00  7.56992E+00  8.60223E+00  1.01051E+01  1.09419E+01  1.78367E+01
   1.57704E+01  1.45723E+01  1.12170E+01  1.11077E+01  1.37491E+01  1.32001E+01  1.68919E+01  1.71116E+01  1.52307E+01  1.22865E+01
   9.53571E+00  9.02005E+00  7.50784E+00  7.17466E+00  1.21007E+01  1.70567E+01  1.63159E+01  1.87667E+01  1.84549E+01  2.47598E+01
   2.09391E+01  2.11109E+01  2.26396E+01  2.61991E+01  2.67801E+01  2.95557E+01  3.64928E+01  5.42451E+01  7.69671E+01  1.00475E+02
   1.10528E+02  1.00672E+02  7.88361E+01  6.28931E+01  5.95004E+01  5.32687E+01  4.18229E+01  3.25217E+01  2.34797E+01  1.85583E+01
   1.67264E+01  1.38968E+01  1.38129E+01  1.45966E+01  1.43386E+01  1.20120E+01  1.20142E+01  1.55181E+01  1.55598E+01  1.50456E+01
   1.49773E+01  1.38303E+01  1.08946E+01  1.14247E+01  1.28447E+01  1.15752E+01  1.26253E+01  1.14157E+01  1.30482E+01  1.44945E+01
   1.25759E+01  1.16499E+01  1.37137E+01  1.27566E+01  1.35625E+01  1.15397E+01  1.47161E+01  1.32501E+01  1.29365E+01  1.67429E+01
   1.42367E+01  1.05387E+01  1.09915E+01  1.19746E+01  1.30822E+01  1.92364E+01  1.22646E+01  1.38525E+01  1.74913E+01  1.87646E+01
   1.61791E+01  1.65508E+01  1.91799E+01  1.68421E+01  1.69186E+01  1.47405E+01  2.08726E+01  1.69258E+01  1.47149E+01  1.76404E+01
   1.75080E+01  1.61250E+01  1.38708E+01  1.54296E+01  1.60802E+01  1.50562E+01  1.58279E+01  1.35851E+01  1.13100E+01  1.36181E+01
   1.21645E+01  1.88721E+01  1.79841E+01  1.37709E+01  2.10654E+01  1.60974E+01  2.04927E+01  1.95627E+01  1.94855E+01  1.93067E+01
   1.97104E+01  2.17538E+01  1.95867E+01  2.15306E+01  2.09846E+01  2.17516E+01  2.37625E+01  2.18376E+01  2.13019E+01  1.88469E+01
   1.89987E+01  2.08729E+01  2.03135E+01  2.16829E+01  1.92309E+01  1.83447E+01  2.05027E+01  2.00357E+01  1.77193E+01  1.90454E+01
   1.90092E+01  1.72504E+01  1.71552E+01  2.12595E+01  1.96473E+01  2.06054E+01  1.61601E+01  1.80519E+01  1.44209E+01  1.97841E+01
   1.81643E+01  1.54670E+01  1.80731E+01  1.53057E+01  1.40988E+01  1.74697E+01  2.06308E+01  1.27500E+01  1.41239E+01  1.44022E+01
   1.58667E+01  1.43253E+01  1.53422E+01  1.45080E+01  1.16962E+01  1.41952E+01  1.46397E+01  1.49876E+01  1.59804E+01  1.41583E+01
   1.31015E+01  1.54192E+01  1.60797E+01  1.67895E+01  1.77925E+01  1.91816E+01  1.83067E+01  1.92690E+01  1.94856E+01  1.81165E+01
   1.86799E+01  1.89051E+01  1.78216E+01  2.07012E+01  2.07852E+01  2.07333E+01  2.01768E+01  2.33329E+01  2.12750E+01  2.38239E+01
   1.90199E+01  2.23417E+01  2.37977E+01  2.18409E+01  2.27668E+01  2.08846E+01  2.15398E+01  2.39517E+01  1.85719E+01  1.92879E+01
   1.44550E+01  1.85149E+01  1.77207E+01  1.99016E+01  1.69454E+01  1.51858E+01  1.65086E+01  1.75053E+01  1.49672E+01  1.30693E+01
   1.76904E+01  1.92763E+01  1.76159E+01  1.57011E+01  1.66192E+01  1.61870E+01  1.23372E+01  1.67123E+01  1.82290E+01  1.59858E+01
   1.27782E+01  1.28087E+01  1.71166E+01  1.53248E+01  1.37895E+01  1.42833E+01  1.39946E+01  1.20185E+01  1.58882E+01  1.25471E+01
   1.47983E+01  1.78241E+01  1.59284E+01  1.20667E+01  1.45176E+01  1.38112E+01  1.34690E+01  1.43354E+01  1.36667E+01  1.15004E+01
   1.19636E+01  1.57317E+01  1.59632E+01  1.59054E+01  1.26239E+01  1.28373E+01  1.12578E+01  1.30484E+01  1.48672E+01  9.10741E+00
   1.12092E+01  1.35926E+01  1.03458E+01  1.29284E+01  1.30617E+01  1.29446E+01  1.36106E+01  1.11728E+01  1.28425E+01  1.25737E+01
   1.39444E+01  1.37394E+01  1.49550E+01  1.17363E+01  1.28134E+01  1.42641E+01  1.38597E+01  1.13119E+01  1.49256E+01  1.54710E+01
   1.37773E+01  1.51003E+01  1.34855E+01  1.37065E+01  1.82608E+01  1.22330E+01  1.54275E+01  1.41182E+01
 NY points of the fit to the data follow
  -3.22502E+01 -3.21745E+01 -3.18480E+01 -3.10091E+01 -2.89822E+01 -2.48950E+01 -1.82356E+01 -9.82816E+00 -1.98473E+00  2.53996E+00
   2.41575E+00 -1.18077E+00 -5.62360E+00 -9.12196E+00 -1.17915E+01 -1.45825E+01 -1.79793E+01 -2.13010E+01 -2.30895E+01 -2.37458E+01
  -2.37845E+01 -2.37335E+01 -2.38380E+01 -2.41197E+01 -2.43788E+01 -2.41980E+01 -2.31818E+01 -2.12093E+01 -1.85845E+01 -1.59779E+01
  -1.40541E+01 -1.30930E+01 -1.29620E+01 -1.34617E+01 -1.46440E+01 -1.63322E+01 -1.82404E+01 -1.98718E+01 -2.05778E+01 -2.05533E+01
  -2.00298E+01 -1.90214E+01 -1.72982E+01 -1.46384E+01 -1.14097E+01 -8.47071E+00 -6.90591E+00 -7.37774E+00 -9.34689E+00 -1.15802E+01
  -1.32566E+01 -1.43383E+01 -1.52802E+01 -1.62970E+01 -1.69828E+01 -1.68093E+01 -1.58538E+01 -1.46128E+01 -1.35465E+01 -1.30449E+01
  -1.32894E+01 -1.40768E+01 -1.49603E+01 -1.55420E+01 -1.56940E+01 -1.55621E+01 -1.52809E+01 -1.48130E+01 -1.41716E+01 -1.34129E+01
  -1.26929E+01 -1.21991E+01 -1.19861E+01 -1.19703E+01 -1.19999E+01 -1.19812E+01 -1.19643E+01 -1.19856E+01 -1.20653E+01 -1.21097E+01
  -1.20615E+01 -1.19321E+01 -1.15598E+01 -1.06785E+01 -9.17897E+00 -7.36948E+00 -5.90661E+00 -5.41052E+00 -5.95910E+00 -6.94811E+00
  -7.61125E+00 -7.72195E+00 -7.67060E+00 -7.89860E+00 -8.52529E+00 -9.12377E+00 -8.80004E+00 -6.41464E+00  1.52853E-02  1.16717E+01
   2.68614E+01  4.08894E+01  4.83681E+01  4.68226E+01  3.87903E+01  2.95421E+01  2.25371E+01  1.72736E+01  1.16490E+01  4.91543E+00
  -1.55090E+00 -5.06776E+00 -6.09378E+00 -6.38868E+00 -6.45324E+00 -6.42191E+00 -6.34493E+00 -6.23568E+00 -6.06957E+00 -5.77939E+00
  -5.20177E+00 -3.64695E+00  5.58360E-01  9.16693E+00  2.20694E+01  3.60613E+01  4.60051E+01  4.79748E+01  4.24022E+01  3.38661E+01
   2.69113E+01  2.22479E+01  1.75819E+01  1.12851E+01  4.03421E+00 -1.29079E+00 -2.92155E+00 -2.99405E+00 -2.58383E+00 -2.11102E+00
  -1.78326E+00 -1.60655E+00 -1.51915E+00 -1.51122E+00 -1.53321E+00 -1.57678E+00 -1.69500E+00 -1.87574E+00 -2.08926E+00 -2.29267E+00
  -2.44309E+00 -2.55152E+00 -2.59871E+00 -2.56070E+00 -2.43148E+00 -2.26140E+00 -2.18773E+00 -2.37076E+00 -2.86615E+00 -3.49285E+00
  -3.87708E+00 -3.70395E+00 -3.02227E+00 -2.28360E+00 -1.99786E+00 -2.33331E+00 -2.98979E+00 -3.50181E+00 -3.64706E+00 -3.63309E+00
  -3.81834E+00 -4.28305E+00 -4.98951E+00 -5.69861E+00 -6.10150E+00 -6.08056E+00 -5.61449E+00 -4.99271E+00 -4.63696E+00 -4.69066E+00
  -4.87523E+00 -4.79474E+00 -4.41031E+00 -4.04334E+00 -3.91192E+00 -3.79635E+00 -3.03704E+00 -1.39216E+00  6.81228E-01  2.39339E+00
   3.17897E+00  3.19769E+00  2.88660E+00  2.57205E+00  2.39661E+00  2.32828E+00  2.35446E+00  2.71960E+00  3.49310E+00  4.65974E+00
   6.13663E+00  7.68206E+00  8.94638E+00  9.51841E+00  8.92405E+00  7.06243E+00  4.35529E+00  1.63639E+00 -2.92037E-01 -1.05878E+00
  -7.01532E-01  6.85009E-01  3.27134E+00  6.96369E+00  1.09080E+01  1.37678E+01  1.43528E+01  1.25032E+01  8.98714E+00  5.08696E+00
   1.70638E+00 -6.14952E-01 -1.30202E+00 -7.46207E-03  2.73972E+00  5.90573E+00  8.32722E+00  9.93071E+00  1.10769E+01  1.19330E+01
   1.23878E+01  1.23512E+01  1.21966E+01  1.24308E+01  1.31385E+01  1.41678E+01  1.52570E+01  1.59231E+01  1.57887E+01  1.48592E+01
   1.35767E+01  1.26328E+01  1.24917E+01  1.31211E+01  1.41676E+01  1.52897E+01  1.61886E+01  1.68046E+01  1.73445E+01  1.79718E+01
   1.87939E+01  2.00161E+01  2.17282E+01  2.37299E+01  2.59741E+01  3.02037E+01  3.99070E+01  5.72829E+01  7.95371E+01  9.87740E+01
   1.06346E+02  9.94694E+01  8.39249E+01  6.89108E+01  5.89038E+01  5.12939E+01  4.22795E+01  3.12053E+01  2.10878E+01  1.66833E+01
   1.53591E+01  1.47294E+01  1.44610E+01  1.44017E+01  1.43158E+01  1.41335E+01  1.38921E+01  1.36373E+01  1.33974E+01  1.31708E+01
   1.29421E+01  1.27231E+01  1.25536E+01  1.24405E+01  1.23533E+01  1.22772E+01  1.22215E+01  1.21981E+01  1.22108E+01  1.22507E+01
   1.23176E+01  1.24141E+01  1.25339E+01  1.26725E+01  1.28318E+01  1.30131E+01  1.32143E+01  1.34314E+01  1.36632E+01  1.39097E+01
   1.41693E+01  1.44340E+01  1.46944E+01  1.49432E+01  1.51748E+01  1.53851E+01  1.55698E+01  1.57241E+01  1.58459E+01  1.59343E+01
   1.59903E+01  1.60168E+01  1.60183E+01  1.59989E+01  1.59640E+01  1.59207E+01  1.58776E+01  1.58438E+01  1.58290E+01  1.58452E+01
   1.59120E+01  1.60628E+01  1.63153E+01  1.66211E+01  1.68511E+01  1.68609E+01  1.65933E+01  1.61425E+01  1.57041E+01  1.54459E+01
   1.54284E+01  1.56482E+01  1.61134E+01  1.68141E+01  1.76509E+01  1.84527E+01  1.90201E+01  1.93586E+01  1.96258E+01  1.99007E+01
   2.01540E+01  2.03391E+01  2.04544E+01  2.05827E+01  2.07273E+01  2.07711E+01  2.06427E+01  2.03598E+01  2.00191E+01  1.97349E+01
   1.95729E+01  1.95390E+01  1.96165E+01  1.97786E+01  1.99679E+01  2.01113E+01  2.01350E+01  2.00314E+01  1.98786E+01  1.97135E+01
   1.95172E+01  1.92617E+01  1.89456E+01  1.86260E+01  1.83328E+01  1.80506E+01  1.77741E+01  1.75031E+01  1.72386E+01  1.69821E+01
   1.67355E+01  1.65009E+01  1.62806E+01  1.60764E+01  1.58894E+01  1.57207E+01  1.55713E+01  1.54427E+01  1.53356E+01  1.52510E+01
   1.51890E+01  1.51502E+01  1.51355E+01  1.51458E+01  1.51822E+01  1.52454E+01  1.53361E+01  1.54553E+01  1.56044E+01  1.57846E+01
   1.59968E+01  1.62412E+01  1.65178E+01  1.68264E+01  1.71661E+01  1.75350E+01  1.79301E+01  1.83470E+01  1.87803E+01  1.92237E+01
   1.96700E+01  2.01106E+01  2.05359E+01  2.09361E+01  2.13014E+01  2.16225E+01  2.18908E+01  2.20985E+01  2.22393E+01  2.23088E+01
   2.23049E+01  2.22279E+01  2.20799E+01  2.18650E+01  2.15890E+01  2.12595E+01  2.08855E+01  2.04767E+01  2.00427E+01  1.95929E+01
   1.91365E+01  1.86818E+01  1.82366E+01  1.78070E+01  1.73978E+01  1.70127E+01  1.66539E+01  1.63233E+01  1.60213E+01  1.57478E+01
   1.55015E+01  1.52810E+01  1.50845E+01  1.49105E+01  1.47570E+01  1.46219E+01  1.45030E+01  1.43985E+01  1.43068E+01  1.42266E+01
   1.41564E+01  1.40949E+01  1.40408E+01  1.39932E+01  1.39514E+01  1.39149E+01  1.38829E+01  1.38547E+01  1.38297E+01  1.38077E+01
   1.37885E+01  1.37717E+01  1.37571E+01  1.37442E+01  1.37328E+01  1.37229E+01  1.37145E+01  1.37075E+01  1.37015E+01  1.36963E+01
   1.36919E+01  1.36885E+01  1.36860E+01  1.36842E+01  1.36830E+01  1.36822E+01  1.36820E+01  1.36824E+01  1.36834E+01  1.36849E+01
   1.36866E+01  1.36886E+01  1.36911E+01  1.36942E+01  1.36976E+01  1.37013E+01  1.37051E+01  1.37093E+01  1.37139E+01  1.37189E+01
   1.37242E+01  1.37297E+01  1.37353E+01  1.37413E+01  1.37477E+01  1.37545E+01  1.37615E+01  1.37686E+01  1.37759E+01  1.37837E+01
   1.37920E+01  1.38005E+01  1.38092E+01  1.38181E+01  1.38274E+01  1.38372E+01  1.38475E+01  1.38581E+01
 NY background values follow
    -3.559E+01   -3.531E+01   -3.503E+01   -3.475E+01   -3.447E+01   -3.419E+01   -3.391E+01   -3.363E+01   -3.335E+01   -3.307E+01
    -3.279E+01   -3.251E+01   -3.223E+01   -3.195E+01   -3.167E+01   -3.139E+01   -3.111E+01   -3.084E+01   -3.056E+01   -3.028E+01
    -3.000E+01   -2.972E+01   -2.945E+01   -2.917E+01   -2.890E+01   -2.862E+01   -2.835E+01   -2.807E+01   -2.780E+01   -2.753E+01
    -2.725E+01   -2.698E+01   -2.671E+01   -2.644E+01   -2.617E+01   -2.590E+01   -2.564E+01   -2.537E+01   -2.511E+01   -2.484E+01
    -2.458E+01   -2.431E+01   -2.405E+01   -2.379E+01   -2.353E+01   -2.327E+01   -2.302E+01   -2.276E+01   -2.251E+01   -2.225E+01
    -2.200E+01   -2.175E+01   -2.150E+01   -2.125E+01   -2.100E+01   -2.076E+01   -2.051E+01   -2.027E+01   -2.002E+01   -1.978E+01
    -1.954E+01   -1.931E+01   -1.907E+01   -1.883E+01   -1.860E+01   -1.837E+01   -1.813E+01   -1.790E+01   -1.768E+01   -1.745E+01
    -1.722E+01   -1.700E+01   -1.678E+01   -1.656E+01   -1.634E+01   -1.612E+01   -1.590E+01   -1.569E+01   -1.548E+01   -1.526E+01
    -1.505E+01   -1.485E+01   -1.464E+01   -1.443E+01   -1.423E+01   -1.403E+01   -1.383E+01   -1.363E+01   -1.343E+01   -1.324E+01
    -1.305E+01   -1.286E+01   -1.267E+01   -1.248E+01   -1.229E+01   -1.211E+01   -1.193E+01   -1.175E+01   -1.157E+01   -1.139E+01
    -1.121E+01   -1.104E+01   -1.087E+01   -1.070E+01   -1.053E+01   -1.036E+01   -1.019E+01   -1.003E+01   -9.864E+00   -9.702E+00
    -9.542E+00   -9.383E+00   -9.225E+00   -9.069E+00   -8.914E+00   -8.761E+00   -8.608E+00   -8.457E+00   -8.308E+00   -8.160E+00
    -8.013E+00   -7.867E+00   -7.722E+00   -7.579E+00   -7.437E+00   -7.296E+00   -7.156E+00   -7.017E+00   -6.880E+00   -6.743E+00
    -6.608E+00   -6.473E+00   -6.340E+00   -6.208E+00   -6.077E+00   -5.946E+00   -5.817E+00   -5.689E+00   -5.561E+00   -5.435E+00
    -5.309E+00   -5.184E+00   -5.060E+00   -4.937E+00   -4.815E+00   -4.693E+00   -4.572E+00   -4.452E+00   -4.332E+00   -4.213E+00
    -4.094E+00   -3.976E+00   -3.859E+00   -3.742E+00   -3.625E+00   -3.509E+00   -3.394E+00   -3.279E+00   -3.164E+00   -3.049E+00
    -2.935E+00   -2.821E+00   -2.707E+00   -2.594E+00   -2.481E+00   -2.368E+00   -2.255E+00   -2.142E+00   -2.029E+00   -1.916E+00
    -1.803E+00   -1.691E+00   -1.578E+00   -1.465E+00   -1.352E+00   -1.239E+00   -1.126E+00   -1.013E+00   -8.990E-01   -7.852E-01
    -6.711E-01   -5.568E-01   -4.421E-01   -3.272E-01   -2.120E-01   -9.666E-02    1.890E-02    1.346E-01    2.505E-01    3.664E-01
     4.825E-01    5.986E-01    7.147E-01    8.307E-01    9.468E-01    1.063E+00    1.179E+00    1.294E+00    1.410E+00    1.526E+00
     1.641E+00    1.756E+00    1.871E+00    1.985E+00    2.099E+00    2.213E+00    2.326E+00    2.439E+00    2.552E+00    2.664E+00
     2.776E+00    2.887E+00    2.997E+00    3.107E+00    3.217E+00    3.326E+00    3.434E+00    3.541E+00    3.648E+00    3.754E+00
     3.859E+00    3.963E+00    4.067E+00    4.170E+00    4.272E+00    4.373E+00    4.473E+00    4.572E+00    4.670E+00    4.767E+00
     4.863E+00    4.958E+00    5.053E+00    5.146E+00    5.238E+00    5.330E+00    5.421E+00    5.510E+00    5.599E+00    5.687E+00
     5.774E+00    5.860E+00    5.946E+00    6.030E+00    6.114E+00    6.197E+00    6.278E+00    6.359E+00    6.440E+00    6.519E+00
     6.597E+00    6.675E+00    6.752E+00    6.828E+00    6.903E+00    6.978E+00    7.052E+00    7.125E+00    7.197E+00    7.268E+00
     7.339E+00    7.408E+00    7.477E+00    7.546E+00    7.613E+00    7.680E+00    7.746E+00    7.812E+00    7.876E+00    7.940E+00
     8.003E+00    8.066E+00    8.128E+00    8.189E+00    8.249E+00    8.309E+00    8.368E+00    8.426E+00    8.484E+00    8.541E+00
     8.598E+00    8.653E+00    8.709E+00    8.763E+00    8.817E+00    8.870E+00    8.923E+00    8.975E+00    9.026E+00    9.077E+00
     9.127E+00    9.177E+00    9.226E+00    9.274E+00    9.322E+00    9.369E+00    9.416E+00    9.462E+00    9.507E+00    9.552E+00
     9.597E+00    9.641E+00    9.684E+00    9.727E+00    9.769E+00    9.811E+00    9.852E+00    9.893E+00    9.933E+00    9.973E+00
     1.001E+01    1.005E+01    1.009E+01    1.013E+01    1.016E+01    1.020E+01    1.024E+01    1.027E+01    1.031E+01    1.034E+01
     1.038E+01    1.041E+01    1.045E+01    1.048E+01    1.051E+01    1.055E+01    1.058E+01    1.061E+01    1.064E+01    1.067E+01
     1.070E+01    1.073E+01    1.076E+01    1.079E+01    1.082E+01    1.085E+01    1.088E+01    1.091E+01    1.093E+01    1.096E+01
     1.099E+01    1.102E+01    1.104E+01    1.107E+01    1.110E+01    1.112E+01    1.115E+01    1.117E+01    1.120E+01    1.122E+01
     1.125E+01    1.127E+01    1.130E+01    1.132E+01    1.135E+01    1.137E+01    1.139E+01    1.142E+01    1.144E+01    1.146E+01
     1.149E+01    1.151E+01    1.153E+01    1.155E+01    1.158E+01    1.160E+01    1.162E+01    1.164E+01    1.166E+01    1.169E+01
     1.171E+01    1.173E+01    1.175E+01    1.177E+01    1.179E+01    1.181E+01    1.183E+01    1.186E+01    1.188E+01    1.190E+01
     1.192E+01    1.194E+01    1.196E+01    1.198E+01    1.200E+01    1.202E+01    1.204E+01    1.206E+01    1.208E+01    1.210E+01
     1.212E+01    1.214E+01    1.216E+01    1.218E+01    1.220E+01    1.222E+01    1.223E+01    1.225E+01    1.227E+01    1.229E+01
     1.231E+01    1.233E+01    1.235E+01    1.237E+01    1.239E+01    1.241E+01    1.243E+01    1.244E+01    1.246E+01    1.248E+01
     1.250E+01    1.252E+01    1.254E+01    1.256E+01    1.258E+01    1.259E+01    1.261E+01    1.263E+01    1.265E+01    1.267E+01
     1.269E+01    1.270E+01    1.272E+01    1.274E+01    1.276E+01    1.278E+01    1.279E+01    1.281E+01    1.283E+01    1.285E+01
     1.286E+01    1.288E+01    1.290E+01    1.291E+01    1.293E+01    1.295E+01    1.296E+01    1.298E+01    1.300E+01    1.301E+01
     1.303E+01    1.304E+01    1.306E+01    1.308E+01    1.309E+01    1.311E+01    1.312E+01    1.314E+01    1.315E+01    1.317E+01
     1.318E+01    1.319E+01    1.321E+01    1.322E+01    1.323E+01    1.325E+01    1.326E+01    1.327E+01    1.329E+01    1.330E+01
     1.331E+01    1.332E+01    1.334E+01    1.335E+01    1.336E+01    1.337E+01    1.338E+01    1.340E+01    1.341E+01    1.342E+01
     1.343E+01    1.344E+01    1.345E+01    1.347E+01    1.348E+01    1.349E+01    1.350E+01    1.351E+01    1.352E+01    1.353E+01
     1.355E+01    1.356E+01    1.357E+01    1.358E+01    1.359E+01    1.360E+01    1.361E+01    1.363E+01    1.364E+01    1.365E+01
     1.366E+01    1.367E+01    1.369E+01    1.370E+01    1.371E+01    1.372E+01    1.374E+01    1.375E+01
 Ala      Conc. = 1.09E+02
