 LCModel (Version 6.3-1L) Copyright: S.W. Provencher.          Ref.: Magn. Reson. Med. 30:672-679 (1993).                
 Slice#2 Row#4 Col#9  PD_05_press_1_raw_act
 36 lines in following concentration table = NCONC+1
    Conc.  %SD /Cr+PCr  Metabolite                                         
  147.404  80% 7.8E-02 Ala                                                 
    0.000 999%   0.000 Asp                                                 
    0.000 999%   0.000 Cr                                                  
 1.88E+03   3%   1.000 PCr                                                 
    0.000 999%   0.000 GABA                                                
  260.794  67%   0.139 Glc                                                 
  722.277  35%   0.384 Gln                                                 
 1.72E+03  18%   0.917 Glu                                                 
  872.060   3%   0.464 GPC                                                 
    0.000 999%   0.000 PCh                                                 
  417.234  19%   0.222 GSH                                                 
 2.25E+03  13%   1.195 Ins                                                 
    0.000 999%   0.000 Lac                                                 
 2.84E+03   3%   1.512 NAA                                                 
    0.000 999%   0.000 NAAG                                                
  295.699  11%   0.157 Scyllo                                              
    0.000 999%   0.000 Tau                                                 
  575.880  19%   0.306 -CrCH2                                              
  872.060   3%   0.464 GPC+PCh                                             
 2.84E+03   3%   1.512 NAA+NAAG                                            
 1.88E+03   3%   1.000 Cr+PCr                                              
 2.44E+03  18%   1.301 Glu+Gln                                             
    0.000 999%   0.000 Lip13a                                              
    0.000 999%   0.000 Lip13b                                              
    0.000 999%   0.000 Lip09                                               
 1.65E+03  13%   0.878 MM09                                                
    0.000 999%   0.000 Lip20                                               
 3.49E+03  11%   1.854 MM20                                                
  474.540  38%   0.253 MM12                                                
    0.000 999%   0.000 MM14                                                
  961.859  26%   0.512 MM17                                                
    0.000 999%   0.000 Lip13a+Lip13b                                       
  474.540  38%   0.253 MM14+Lip13a+Lip13b+MM12                             
 1.65E+03  13%   0.878 MM09+Lip09                                          
 3.49E+03  11%   1.854 MM20+Lip20                                          
   6 lines in following misc. output table
  FWHM = 0.061 ppm    S/N =  15                                            
  Data shift = 0.008 ppm                                                   
  Ph: -55 deg     -26.1 deg/ppm                                            
  alphaB,S = 1.3E+00,   7.2E+01                                            
   14 spline knots.   Ns = 8(1)                                            
  (14) 3 infls.   ( 9) 3 extrs.                                            
  498 points on ppm-axis = NY
      4.000000     3.992357     3.984714     3.977070     3.969427     3.961784     3.954141     3.946497     3.938854     3.931211
      3.923568     3.915925     3.908281     3.900638     3.892995     3.885352     3.877708     3.870065     3.862422     3.854779
      3.847136     3.839492     3.831849     3.824206     3.816563     3.808919     3.801276     3.793633     3.785990     3.778347
      3.770703     3.763060     3.755417     3.747774     3.740130     3.732487     3.724844     3.717201     3.709558     3.701914
      3.694271     3.686628     3.678985     3.671341     3.663698     3.656055     3.648412     3.640769     3.633125     3.625482
      3.617839     3.610196     3.602552     3.594909     3.587266     3.579623     3.571980     3.564336     3.556693     3.549050
      3.541407     3.533763     3.526120     3.518477     3.510834     3.503191     3.495547     3.487904     3.480261     3.472618
      3.464974     3.457331     3.449688     3.442045     3.434402     3.426758     3.419115     3.411472     3.403829     3.396185
      3.388542     3.380899     3.373256     3.365613     3.357969     3.350326     3.342683     3.335040     3.327396     3.319753
      3.312110     3.304467     3.296824     3.289180     3.281537     3.273894     3.266251     3.258607     3.250964     3.243321
      3.235678     3.228034     3.220391     3.212748     3.205105     3.197462     3.189818     3.182175     3.174532     3.166889
      3.159245     3.151602     3.143959     3.136316     3.128673     3.121029     3.113386     3.105743     3.098100     3.090456
      3.082813     3.075170     3.067527     3.059884     3.052240     3.044597     3.036954     3.029311     3.021667     3.014024
      3.006381     2.998738     2.991095     2.983451     2.975808     2.968165     2.960522     2.952878     2.945235     2.937592
      2.929949     2.922306     2.914662     2.907019     2.899376     2.891733     2.884089     2.876446     2.868803     2.861160
      2.853517     2.845873     2.838230     2.830587     2.822944     2.815300     2.807657     2.800014     2.792371     2.784728
      2.777084     2.769441     2.761798     2.754155     2.746511     2.738868     2.731225     2.723582     2.715939     2.708295
      2.700652     2.693009     2.685366     2.677722     2.670079     2.662436     2.654793     2.647150     2.639506     2.631863
      2.624220     2.616577     2.608933     2.601290     2.593647     2.586004     2.578361     2.570717     2.563074     2.555431
      2.547788     2.540144     2.532501     2.524858     2.517215     2.509572     2.501928     2.494285     2.486642     2.478999
      2.471355     2.463712     2.456069     2.448426     2.440783     2.433139     2.425496     2.417853     2.410210     2.402566
      2.394923     2.387280     2.379637     2.371994     2.364350     2.356707     2.349064     2.341421     2.333777     2.326134
      2.318491     2.310848     2.303205     2.295561     2.287918     2.280275     2.272632     2.264988     2.257345     2.249702
      2.242059     2.234416     2.226772     2.219129     2.211486     2.203843     2.196199     2.188556     2.180913     2.173270
      2.165627     2.157983     2.150340     2.142697     2.135054     2.127410     2.119767     2.112124     2.104481     2.096838
      2.089194     2.081551     2.073908     2.066265     2.058621     2.050978     2.043335     2.035692     2.028049     2.020405
      2.012762     2.005119     1.997476     1.989833     1.982190     1.974546     1.966903     1.959260     1.951617     1.943974
      1.936331     1.928688     1.921045     1.913402     1.905759     1.898115     1.890472     1.882829     1.875186     1.867543
      1.859900     1.852257     1.844614     1.836971     1.829327     1.821684     1.814041     1.806398     1.798755     1.791112
      1.783469     1.775826     1.768183     1.760540     1.752896     1.745253     1.737610     1.729967     1.722324     1.714681
      1.707038     1.699395     1.691752     1.684108     1.676465     1.668822     1.661179     1.653536     1.645893     1.638250
      1.630607     1.622964     1.615321     1.607677     1.600034     1.592391     1.584748     1.577105     1.569462     1.561819
      1.554176     1.546533     1.538890     1.531246     1.523603     1.515960     1.508317     1.500674     1.493031     1.485388
      1.477745     1.470102     1.462458     1.454815     1.447172     1.439529     1.431886     1.424243     1.416600     1.408957
      1.401314     1.393671     1.386027     1.378384     1.370741     1.363098     1.355455     1.347812     1.340169     1.332526
      1.324883     1.317240     1.309596     1.301953     1.294310     1.286667     1.279024     1.271381     1.263738     1.256095
      1.248452     1.240808     1.233165     1.225522     1.217879     1.210236     1.202593     1.194950     1.187307     1.179664
      1.172021     1.164377     1.156734     1.149091     1.141448     1.133805     1.126162     1.118519     1.110876     1.103233
      1.095590     1.087946     1.080303     1.072660     1.065017     1.057374     1.049731     1.042088     1.034445     1.026802
      1.019158     1.011515     1.003872     0.996229     0.988586     0.980943     0.973300     0.965657     0.958014     0.950371
      0.942727     0.935084     0.927441     0.919798     0.912155     0.904512     0.896869     0.889226     0.881583     0.873940
      0.866296     0.858653     0.851010     0.843367     0.835724     0.828081     0.820438     0.812795     0.805152     0.797508
      0.789865     0.782222     0.774579     0.766936     0.759293     0.751650     0.744007     0.736364     0.728721     0.721077
      0.713434     0.705791     0.698148     0.690505     0.682862     0.675219     0.667576     0.659933     0.652290     0.644646
      0.637003     0.629360     0.621717     0.614074     0.606431     0.598788     0.591145     0.583502     0.575858     0.568215
      0.560572     0.552929     0.545286     0.537643     0.530000     0.522357     0.514714     0.507071     0.499427     0.491784
      0.484141     0.476498     0.468855     0.461212     0.453569     0.445925     0.438282     0.430639     0.422996     0.415353
      0.407710     0.400067     0.392424     0.384780     0.377137     0.369494     0.361851     0.354208     0.346565     0.338922
      0.331278     0.323635     0.315992     0.308349     0.300706     0.293063     0.285420     0.277777     0.270133     0.262490
      0.254847     0.247204     0.239561     0.231918     0.224275     0.216631     0.208988     0.201345
 NY phased data points follow
  -6.46230E+01 -6.26051E+01 -6.13119E+01 -5.64029E+01 -4.89691E+01 -4.73002E+01 -3.59428E+01 -3.57447E+01 -2.87093E+01 -3.42632E+01
  -3.48403E+01 -3.61917E+01 -3.94628E+01 -4.56344E+01 -5.38722E+01 -5.59918E+01 -6.09892E+01 -6.13041E+01 -5.96060E+01 -5.48983E+01
  -5.68116E+01 -5.65640E+01 -5.01553E+01 -5.18918E+01 -4.87353E+01 -4.86670E+01 -4.63734E+01 -4.11076E+01 -4.15410E+01 -4.18458E+01
  -4.02813E+01 -4.14699E+01 -4.45965E+01 -4.27451E+01 -4.35428E+01 -4.53374E+01 -4.09627E+01 -4.10282E+01 -4.00327E+01 -3.98476E+01
  -3.96493E+01 -3.69825E+01 -3.42705E+01 -3.48069E+01 -2.78202E+01 -2.78458E+01 -2.54194E+01 -2.74696E+01 -2.54915E+01 -2.93383E+01
  -3.44118E+01 -3.42762E+01 -3.53031E+01 -3.41853E+01 -3.29115E+01 -3.42830E+01 -3.08264E+01 -3.58986E+01 -3.49595E+01 -3.46995E+01
  -3.73489E+01 -4.15315E+01 -4.18482E+01 -3.92933E+01 -4.43178E+01 -3.64461E+01 -3.85165E+01 -3.73379E+01 -3.66964E+01 -3.61134E+01
  -3.55470E+01 -3.43515E+01 -3.09495E+01 -2.87001E+01 -2.84074E+01 -2.70135E+01 -2.99334E+01 -2.67461E+01 -2.50040E+01 -2.69070E+01
  -2.59874E+01 -2.66305E+01 -2.14684E+01 -2.21444E+01 -1.96225E+01 -1.79984E+01 -2.00097E+01 -2.11207E+01 -1.57953E+01 -1.42709E+01
  -1.46772E+01 -1.59848E+01 -1.23991E+01 -4.09005E+00 -4.95961E+00 -2.33122E+00  3.18303E-02  2.84767E+00  1.44383E+01  2.04243E+01
   3.14423E+01  3.93060E+01  4.41874E+01  3.77465E+01  3.48481E+01  2.28486E+01  1.11778E+01  1.76668E+00 -5.50233E+00 -1.10140E+01
  -1.61579E+01 -2.05119E+01 -1.74979E+01 -1.85182E+01 -1.39653E+01 -1.04279E+01 -1.21667E+01 -5.34527E+00 -4.64996E+00  2.69207E+00
  -1.23992E+00  1.22832E+00  9.74024E+00  1.56699E+01  3.04867E+01  3.71778E+01  3.72240E+01  3.88342E+01  3.16704E+01  2.24217E+01
   1.51113E+01  8.68930E+00 -2.60446E+00 -5.33187E+00 -9.96589E+00 -1.68490E+01 -1.40307E+01 -1.40923E+01 -1.10036E+01 -9.79087E+00
  -1.33844E+01 -7.84513E+00 -8.50714E+00 -7.37947E+00 -9.79739E+00 -9.84177E+00 -9.65907E+00 -1.36966E+01 -1.30870E+01 -9.18711E+00
  -1.01607E+01 -9.22770E+00 -1.01033E+01 -1.06298E+01 -7.30385E+00 -9.48689E+00 -1.12004E+01 -7.48213E+00 -1.03266E+01 -1.00262E+01
  -8.88328E+00 -8.92260E+00 -9.26373E+00 -1.11694E+01 -8.08104E+00 -3.36256E+00 -5.53350E+00 -7.14516E+00 -7.20948E+00 -8.58153E+00
  -5.98968E+00 -1.26542E+01 -1.35842E+01 -1.18071E+01 -1.50679E+01 -1.11888E+01 -1.14638E+01 -9.25834E+00 -1.27354E+01 -1.10941E+01
  -1.08421E+01 -1.26870E+01 -1.09776E+01 -9.50566E+00 -6.85525E+00 -9.10048E+00 -7.68130E+00 -6.32924E+00  1.31464E+00  3.72922E+00
   5.60328E+00  6.65058E+00  5.79708E+00  9.47730E+00  3.83893E+00  6.45993E+00  2.14667E+00  5.03844E+00  3.31754E+00  2.81637E+00
   6.43429E+00  3.76992E+00  3.67996E+00  3.40852E+00  8.20409E+00  6.28943E+00  5.83997E+00 -1.76463E+00  2.55612E+00 -1.57042E+00
  -1.50382E-01  1.73589E+00  3.90100E+00  5.05971E+00  1.16967E+01  1.50960E+01  1.23297E+01  1.58822E+01  1.12651E+01  6.72597E+00
   5.72604E+00  6.09786E+00  2.52106E+00  3.03184E+00  4.61112E+00  1.07838E+01  1.02679E+01  1.36937E+01  1.49302E+01  2.05194E+01
   1.73277E+01  1.76924E+01  1.51765E+01  1.32188E+01  1.46755E+01  1.37415E+01  1.47496E+01  1.41877E+01  1.84707E+01  1.63644E+01
   1.50581E+01  1.64857E+01  1.16064E+01  1.83610E+01  1.55519E+01  1.85212E+01  2.20167E+01  2.40177E+01  2.11155E+01  2.62618E+01
   2.90940E+01  3.23025E+01  4.17239E+01  3.86097E+01  4.34567E+01  4.87468E+01  5.85106E+01  7.53942E+01  8.77425E+01  1.00563E+02
   1.05436E+02  1.01499E+02  9.10759E+01  8.15477E+01  6.77275E+01  5.90031E+01  4.55612E+01  3.59442E+01  2.53860E+01  1.91877E+01
   1.91345E+01  2.29175E+01  2.31890E+01  2.35432E+01  2.31159E+01  2.41118E+01  2.41485E+01  2.22818E+01  2.01062E+01  2.13835E+01
   1.96385E+01  1.67758E+01  1.92451E+01  1.74601E+01  1.34291E+01  1.46879E+01  1.87296E+01  1.63761E+01  1.32956E+01  1.96977E+01
   1.84447E+01  1.47988E+01  1.82736E+01  1.88393E+01  2.21385E+01  2.32849E+01  1.91098E+01  2.03503E+01  1.77435E+01  2.05492E+01
   2.30060E+01  2.03990E+01  1.86367E+01  2.24128E+01  2.03104E+01  2.19950E+01  2.56822E+01  2.02797E+01  2.37701E+01  2.08280E+01
   2.00949E+01  2.41553E+01  2.36497E+01  2.16773E+01  2.21719E+01  2.48413E+01  2.24566E+01  2.16013E+01  2.40574E+01  1.88136E+01
   2.43361E+01  2.32689E+01  2.37117E+01  2.02683E+01  2.16658E+01  1.94317E+01  2.22804E+01  1.84310E+01  2.09198E+01  1.82749E+01
   1.73494E+01  1.57992E+01  1.48914E+01  2.06243E+01  1.73191E+01  2.01614E+01  1.64219E+01  2.17740E+01  1.66237E+01  1.82568E+01
   2.10883E+01  1.68919E+01  1.98750E+01  1.95058E+01  1.83905E+01  1.78095E+01  2.29243E+01  1.91037E+01  1.75763E+01  2.43484E+01
   1.88267E+01  2.09774E+01  2.00225E+01  2.51548E+01  2.04809E+01  2.02686E+01  2.16661E+01  2.06857E+01  2.37454E+01  2.33029E+01
   2.18200E+01  1.86722E+01  1.58429E+01  1.87491E+01  2.25427E+01  1.89370E+01  2.38048E+01  2.18394E+01  2.41288E+01  2.25509E+01
   2.27378E+01  2.50966E+01  2.44050E+01  2.27181E+01  2.51307E+01  2.49146E+01  2.56473E+01  2.10324E+01  2.41449E+01  2.49093E+01
   2.29051E+01  2.61043E+01  2.33136E+01  2.07922E+01  2.00690E+01  2.21154E+01  2.23198E+01  2.30320E+01  2.59416E+01  2.26152E+01
   2.34053E+01  2.34027E+01  2.43551E+01  2.55028E+01  2.84338E+01  2.37222E+01  2.21559E+01  2.48291E+01  2.73971E+01  2.97897E+01
   3.22678E+01  3.04234E+01  2.98524E+01  3.30504E+01  3.15131E+01  2.88559E+01  3.62532E+01  3.30144E+01  3.26341E+01  3.36559E+01
   3.26938E+01  3.33745E+01  3.23190E+01  3.34770E+01  3.52305E+01  3.40609E+01  3.07425E+01  3.01732E+01  2.82996E+01  3.16409E+01
   2.98400E+01  2.83288E+01  3.10483E+01  2.67028E+01  2.44869E+01  2.76290E+01  2.92669E+01  2.86801E+01  2.63318E+01  2.64202E+01
   2.28981E+01  2.77275E+01  2.79543E+01  2.46074E+01  2.59032E+01  2.70848E+01  2.24739E+01  2.79668E+01  2.40030E+01  2.48346E+01
   2.36836E+01  2.37837E+01  2.51621E+01  2.31056E+01  2.44492E+01  2.45827E+01  2.57617E+01  2.27604E+01  2.46025E+01  2.27660E+01
   2.22327E+01  2.35756E+01  2.37036E+01  2.20640E+01  2.50836E+01  2.29302E+01  2.49053E+01  2.18677E+01  1.91208E+01  2.03099E+01
   2.17810E+01  2.37255E+01  2.41738E+01  1.96681E+01  2.12545E+01  2.09166E+01  1.82105E+01  2.19051E+01  2.48953E+01  2.05995E+01
   2.12555E+01  2.36091E+01  2.10339E+01  2.42899E+01  2.34544E+01  1.86569E+01  2.42981E+01  2.05705E+01  2.38597E+01  2.59136E+01
   2.53559E+01  2.25639E+01  2.14795E+01  2.30367E+01  2.06240E+01  2.21509E+01  2.30645E+01  2.23202E+01  2.00384E+01  2.00693E+01
   2.53967E+01  2.07642E+01  2.34823E+01  2.38661E+01  2.22243E+01  2.30771E+01  2.30883E+01  2.20383E+01
 NY points of the fit to the data follow
  -5.79122E+01 -5.56971E+01 -5.47990E+01 -5.26852E+01 -4.85580E+01 -4.34118E+01 -3.83276E+01 -3.44648E+01 -3.27596E+01 -3.35804E+01
  -3.63105E+01 -3.98973E+01 -4.34675E+01 -4.67698E+01 -4.98711E+01 -5.26757E+01 -5.45843E+01 -5.49870E+01 -5.47492E+01 -5.45088E+01
  -5.42312E+01 -5.31004E+01 -5.19883E+01 -5.13946E+01 -5.05054E+01 -4.91522E+01 -4.74274E+01 -4.56091E+01 -4.37027E+01 -4.17795E+01
  -4.03622E+01 -3.96551E+01 -3.93274E+01 -3.93166E+01 -3.97851E+01 -4.10386E+01 -4.25705E+01 -4.34747E+01 -4.30332E+01 -4.20562E+01
  -4.13716E+01 -4.03709E+01 -3.84342E+01 -3.56329E+01 -3.26240E+01 -3.00848E+01 -2.86064E+01 -2.86219E+01 -3.01206E+01 -3.24116E+01
  -3.44953E+01 -3.61304E+01 -3.75649E+01 -3.87024E+01 -3.92811E+01 -3.88983E+01 -3.77012E+01 -3.62646E+01 -3.49630E+01 -3.41501E+01
  -3.39574E+01 -3.43467E+01 -3.49056E+01 -3.52104E+01 -3.53597E+01 -3.53176E+01 -3.49430E+01 -3.41345E+01 -3.30122E+01 -3.18194E+01
  -3.07294E+01 -2.98992E+01 -2.93523E+01 -2.90602E+01 -2.89248E+01 -2.87963E+01 -2.86467E+01 -2.85829E+01 -2.85210E+01 -2.74459E+01
  -2.58068E+01 -2.53735E+01 -2.51833E+01 -2.41771E+01 -2.22963E+01 -1.99681E+01 -1.77727E+01 -1.61105E+01 -1.54278E+01 -1.57627E+01
  -1.65508E+01 -1.71225E+01 -1.67464E+01 -1.33782E+01 -7.07048E+00 -4.44729E+00 -3.17203E+00  1.90946E+00  1.12907E+01  2.29294E+01
   3.40503E+01  4.17423E+01  4.39752E+01  4.03524E+01  3.24276E+01  2.24838E+01  1.23030E+01  2.52359E+00 -6.60984E+00 -1.42287E+01
  -1.89169E+01 -2.00879E+01 -1.99691E+01 -1.95817E+01 -1.90374E+01 -1.83399E+01 -1.72628E+01 -1.43623E+01 -7.37289E+00 -3.06487E+00
  -1.69695E+00  1.85237E+00  9.25293E+00  1.89963E+01  2.88856E+01  3.64545E+01  3.95394E+01  3.75187E+01  3.16758E+01  2.39753E+01
   1.60721E+01  8.52268E+00  1.09355E+00 -5.64357E+00 -1.06470E+01 -1.24682E+01 -1.27418E+01 -1.26050E+01 -1.21770E+01 -1.16053E+01
  -1.10026E+01 -1.04527E+01 -1.00038E+01 -9.71919E+00 -9.59825E+00 -9.59178E+00 -9.66883E+00 -9.76172E+00 -9.80077E+00 -9.80189E+00
  -9.73021E+00 -9.62551E+00 -9.61684E+00 -9.71766E+00 -9.59650E+00 -9.31921E+00 -9.02292E+00 -8.87375E+00 -9.11897E+00 -9.41127E+00
  -9.44892E+00 -9.21465E+00 -8.81758E+00 -8.41300E+00 -8.14778E+00 -8.10657E+00 -8.27400E+00 -8.57631E+00 -8.95840E+00 -9.09631E+00
  -9.14252E+00 -9.37665E+00 -9.81106E+00 -1.02315E+01 -1.01994E+01 -9.85427E+00 -9.45956E+00 -9.09723E+00 -8.82061E+00 -8.60929E+00
  -8.06831E+00 -7.36221E+00 -6.71166E+00 -6.14957E+00 -5.62398E+00 -5.05601E+00 -4.11351E+00 -2.70887E+00 -1.11277E+00  2.87296E-01
   1.25978E+00  1.93285E+00  2.32810E+00  2.50799E+00  2.49907E+00  2.49480E+00  2.59311E+00  2.85318E+00  3.37722E+00  4.14894E+00
   5.16033E+00  6.08555E+00  6.68907E+00  7.30033E+00  7.31402E+00  6.39899E+00  5.19742E+00  4.00642E+00  3.28881E+00  2.46551E+00
   1.88919E+00  2.37944E+00  4.04199E+00  6.29202E+00  8.29099E+00  9.86190E+00  1.10598E+01  1.12676E+01  9.91874E+00  7.62640E+00
   5.35257E+00  3.61546E+00  2.70213E+00  2.90928E+00  4.38988E+00  6.92220E+00  9.53335E+00  1.15795E+01  1.32197E+01  1.46658E+01
   1.54711E+01  1.56188E+01  1.55508E+01  1.56662E+01  1.58776E+01  1.61218E+01  1.67368E+01  1.75318E+01  1.79955E+01  1.79848E+01
   1.77807E+01  1.76088E+01  1.76160E+01  1.78957E+01  1.85278E+01  1.95326E+01  2.07033E+01  2.17422E+01  2.26176E+01  2.35405E+01
   2.47370E+01  2.84709E+01  3.82427E+01  4.46731E+01  4.64457E+01  5.07815E+01  6.06287E+01  7.41197E+01  8.81150E+01  9.91910E+01
   1.04265E+02  1.01964E+02  9.35484E+01  8.17831E+01  6.92382E+01  5.70071E+01  4.51404E+01  3.43063E+01  2.61571E+01  2.27183E+01
   2.15765E+01  2.08484E+01  2.03729E+01  2.00808E+01  1.98856E+01  1.97012E+01  1.95150E+01  1.93056E+01  1.90775E+01  1.88377E+01
   1.85905E+01  1.83487E+01  1.81506E+01  1.80142E+01  1.79287E+01  1.78824E+01  1.78723E+01  1.78972E+01  1.79550E+01  1.80391E+01
   1.81476E+01  1.82868E+01  1.84592E+01  1.86639E+01  1.89001E+01  1.91654E+01  1.94558E+01  1.97643E+01  2.00871E+01  2.04193E+01
   2.07547E+01  2.10851E+01  2.14035E+01  2.17019E+01  2.19735E+01  2.22108E+01  2.24085E+01  2.25615E+01  2.26675E+01  2.27249E+01
   2.27347E+01  2.26986E+01  2.26210E+01  2.25067E+01  2.23632E+01  2.21988E+01  2.20247E+01  2.18560E+01  2.17232E+01  2.16699E+01
   2.15299E+01  2.12389E+01  2.10347E+01  2.09546E+01  2.08829E+01  2.07038E+01  2.03471E+01  1.99264E+01  1.95461E+01  1.90317E+01
   1.84743E+01  1.80756E+01  1.79343E+01  1.80465E+01  1.83824E+01  1.88808E+01  1.94495E+01  1.99332E+01  2.02356E+01  2.03989E+01
   2.04751E+01  2.04816E+01  2.04185E+01  2.03022E+01  2.02037E+01  2.01901E+01  2.02218E+01  2.02781E+01  2.03528E+01  2.04417E+01
   2.05426E+01  2.06530E+01  2.07715E+01  2.08962E+01  2.10264E+01  2.11598E+01  2.12951E+01  2.14300E+01  2.15632E+01  2.16926E+01
   2.18168E+01  2.19338E+01  2.20423E+01  2.21405E+01  2.22279E+01  2.23036E+01  2.23677E+01  2.24196E+01  2.24602E+01  2.24898E+01
   2.25102E+01  2.25226E+01  2.25291E+01  2.25312E+01  2.25315E+01  2.25320E+01  2.25356E+01  2.25444E+01  2.25613E+01  2.25881E+01
   2.26278E+01  2.26826E+01  2.27556E+01  2.28488E+01  2.29653E+01  2.31071E+01  2.32775E+01  2.34789E+01  2.37144E+01  2.39861E+01
   2.42966E+01  2.46472E+01  2.50399E+01  2.54748E+01  2.59518E+01  2.64686E+01  2.70223E+01  2.76079E+01  2.82194E+01  2.88482E+01
   2.94850E+01  3.01178E+01  3.07348E+01  3.13223E+01  3.18675E+01  3.23569E+01  3.27784E+01  3.31208E+01  3.33757E+01  3.35365E+01
   3.36000E+01  3.35651E+01  3.34345E+01  3.32127E+01  3.29080E+01  3.25297E+01  3.20896E+01  3.15995E+01  3.10727E+01  3.05213E+01
   2.99581E+01  2.93936E+01  2.88382E+01  2.82994E+01  2.77844E+01  2.72977E+01  2.68433E+01  2.64228E+01  2.60374E+01  2.56864E+01
   2.53692E+01  2.50837E+01  2.48285E+01  2.46008E+01  2.43984E+01  2.42184E+01  2.40590E+01  2.39176E+01  2.37925E+01  2.36813E+01
   2.35827E+01  2.34947E+01  2.34165E+01  2.33465E+01  2.32842E+01  2.32280E+01  2.31777E+01  2.31321E+01  2.30912E+01  2.30541E+01
   2.30207E+01  2.29901E+01  2.29624E+01  2.29370E+01  2.29141E+01  2.28930E+01  2.28739E+01  2.28562E+01  2.28401E+01  2.28251E+01
   2.28117E+01  2.27992E+01  2.27878E+01  2.27772E+01  2.27676E+01  2.27586E+01  2.27506E+01  2.27431E+01  2.27363E+01  2.27298E+01
   2.27241E+01  2.27188E+01  2.27142E+01  2.27097E+01  2.27058E+01  2.27021E+01  2.26989E+01  2.26960E+01  2.26935E+01  2.26911E+01
   2.26892E+01  2.26873E+01  2.26859E+01  2.26846E+01  2.26837E+01  2.26827E+01  2.26821E+01  2.26816E+01  2.26815E+01  2.26814E+01
   2.26816E+01  2.26816E+01  2.26821E+01  2.26825E+01  2.26833E+01  2.26840E+01  2.26848E+01  2.26856E+01
 NY background values follow
    -7.103E+01   -7.056E+01   -7.008E+01   -6.961E+01   -6.913E+01   -6.865E+01   -6.818E+01   -6.770E+01   -6.723E+01   -6.675E+01
    -6.628E+01   -6.580E+01   -6.533E+01   -6.485E+01   -6.438E+01   -6.390E+01   -6.343E+01   -6.296E+01   -6.248E+01   -6.201E+01
    -6.154E+01   -6.106E+01   -6.059E+01   -6.012E+01   -5.965E+01   -5.918E+01   -5.871E+01   -5.824E+01   -5.777E+01   -5.730E+01
    -5.683E+01   -5.636E+01   -5.590E+01   -5.543E+01   -5.496E+01   -5.450E+01   -5.404E+01   -5.357E+01   -5.311E+01   -5.265E+01
    -5.219E+01   -5.173E+01   -5.127E+01   -5.081E+01   -5.035E+01   -4.990E+01   -4.944E+01   -4.899E+01   -4.853E+01   -4.808E+01
    -4.763E+01   -4.718E+01   -4.673E+01   -4.629E+01   -4.584E+01   -4.539E+01   -4.495E+01   -4.451E+01   -4.407E+01   -4.363E+01
    -4.319E+01   -4.275E+01   -4.231E+01   -4.188E+01   -4.144E+01   -4.101E+01   -4.058E+01   -4.015E+01   -3.973E+01   -3.930E+01
    -3.888E+01   -3.845E+01   -3.803E+01   -3.761E+01   -3.719E+01   -3.678E+01   -3.636E+01   -3.595E+01   -3.554E+01   -3.513E+01
    -3.472E+01   -3.431E+01   -3.391E+01   -3.351E+01   -3.311E+01   -3.271E+01   -3.231E+01   -3.192E+01   -3.152E+01   -3.113E+01
    -3.074E+01   -3.036E+01   -2.997E+01   -2.959E+01   -2.921E+01   -2.883E+01   -2.845E+01   -2.808E+01   -2.770E+01   -2.733E+01
    -2.696E+01   -2.660E+01   -2.623E+01   -2.587E+01   -2.551E+01   -2.515E+01   -2.479E+01   -2.444E+01   -2.408E+01   -2.373E+01
    -2.338E+01   -2.304E+01   -2.269E+01   -2.235E+01   -2.201E+01   -2.167E+01   -2.133E+01   -2.100E+01   -2.066E+01   -2.033E+01
    -2.000E+01   -1.968E+01   -1.935E+01   -1.903E+01   -1.871E+01   -1.839E+01   -1.807E+01   -1.775E+01   -1.744E+01   -1.713E+01
    -1.682E+01   -1.651E+01   -1.620E+01   -1.590E+01   -1.560E+01   -1.530E+01   -1.500E+01   -1.470E+01   -1.441E+01   -1.412E+01
    -1.383E+01   -1.354E+01   -1.325E+01   -1.297E+01   -1.268E+01   -1.240E+01   -1.212E+01   -1.185E+01   -1.157E+01   -1.130E+01
    -1.102E+01   -1.075E+01   -1.048E+01   -1.022E+01   -9.949E+00   -9.685E+00   -9.422E+00   -9.161E+00   -8.902E+00   -8.644E+00
    -8.387E+00   -8.132E+00   -7.879E+00   -7.627E+00   -7.376E+00   -7.127E+00   -6.880E+00   -6.634E+00   -6.389E+00   -6.146E+00
    -5.904E+00   -5.663E+00   -5.424E+00   -5.186E+00   -4.949E+00   -4.714E+00   -4.480E+00   -4.247E+00   -4.016E+00   -3.785E+00
    -3.556E+00   -3.328E+00   -3.101E+00   -2.876E+00   -2.651E+00   -2.428E+00   -2.206E+00   -1.985E+00   -1.766E+00   -1.547E+00
    -1.330E+00   -1.114E+00   -8.992E-01   -6.857E-01   -4.734E-01   -2.623E-01   -5.239E-02    1.562E-01    3.636E-01    5.698E-01
     7.747E-01    9.783E-01    1.181E+00    1.382E+00    1.582E+00    1.780E+00    1.978E+00    2.174E+00    2.368E+00    2.562E+00
     2.754E+00    2.945E+00    3.134E+00    3.323E+00    3.510E+00    3.695E+00    3.880E+00    4.063E+00    4.244E+00    4.425E+00
     4.604E+00    4.782E+00    4.958E+00    5.133E+00    5.307E+00    5.479E+00    5.650E+00    5.820E+00    5.988E+00    6.155E+00
     6.320E+00    6.485E+00    6.648E+00    6.809E+00    6.969E+00    7.128E+00    7.286E+00    7.442E+00    7.597E+00    7.751E+00
     7.903E+00    8.054E+00    8.204E+00    8.353E+00    8.500E+00    8.646E+00    8.790E+00    8.934E+00    9.076E+00    9.217E+00
     9.356E+00    9.495E+00    9.632E+00    9.767E+00    9.902E+00    1.004E+01    1.017E+01    1.030E+01    1.043E+01    1.056E+01
     1.068E+01    1.081E+01    1.093E+01    1.106E+01    1.118E+01    1.130E+01    1.142E+01    1.154E+01    1.166E+01    1.177E+01
     1.189E+01    1.200E+01    1.212E+01    1.223E+01    1.234E+01    1.245E+01    1.256E+01    1.266E+01    1.277E+01    1.288E+01
     1.298E+01    1.308E+01    1.318E+01    1.328E+01    1.338E+01    1.348E+01    1.358E+01    1.368E+01    1.377E+01    1.387E+01
     1.396E+01    1.405E+01    1.415E+01    1.424E+01    1.433E+01    1.441E+01    1.450E+01    1.459E+01    1.468E+01    1.476E+01
     1.485E+01    1.493E+01    1.501E+01    1.509E+01    1.517E+01    1.525E+01    1.533E+01    1.541E+01    1.549E+01    1.557E+01
     1.564E+01    1.572E+01    1.579E+01    1.586E+01    1.594E+01    1.601E+01    1.608E+01    1.615E+01    1.622E+01    1.629E+01
     1.636E+01    1.643E+01    1.650E+01    1.656E+01    1.663E+01    1.669E+01    1.676E+01    1.682E+01    1.689E+01    1.695E+01
     1.701E+01    1.707E+01    1.713E+01    1.719E+01    1.725E+01    1.731E+01    1.737E+01    1.743E+01    1.749E+01    1.754E+01
     1.760E+01    1.766E+01    1.771E+01    1.777E+01    1.782E+01    1.788E+01    1.793E+01    1.798E+01    1.803E+01    1.809E+01
     1.814E+01    1.819E+01    1.824E+01    1.829E+01    1.834E+01    1.839E+01    1.844E+01    1.849E+01    1.853E+01    1.858E+01
     1.863E+01    1.868E+01    1.872E+01    1.877E+01    1.881E+01    1.886E+01    1.890E+01    1.895E+01    1.899E+01    1.904E+01
     1.908E+01    1.912E+01    1.917E+01    1.921E+01    1.925E+01    1.929E+01    1.933E+01    1.938E+01    1.942E+01    1.946E+01
     1.950E+01    1.954E+01    1.957E+01    1.961E+01    1.965E+01    1.969E+01    1.973E+01    1.976E+01    1.980E+01    1.984E+01
     1.987E+01    1.991E+01    1.994E+01    1.998E+01    2.001E+01    2.005E+01    2.008E+01    2.011E+01    2.015E+01    2.018E+01
     2.021E+01    2.024E+01    2.027E+01    2.030E+01    2.033E+01    2.036E+01    2.039E+01    2.042E+01    2.045E+01    2.048E+01
     2.051E+01    2.054E+01    2.056E+01    2.059E+01    2.062E+01    2.064E+01    2.067E+01    2.069E+01    2.072E+01    2.074E+01
     2.077E+01    2.079E+01    2.081E+01    2.084E+01    2.086E+01    2.088E+01    2.090E+01    2.093E+01    2.095E+01    2.097E+01
     2.099E+01    2.101E+01    2.103E+01    2.105E+01    2.107E+01    2.109E+01    2.111E+01    2.112E+01    2.114E+01    2.116E+01
     2.118E+01    2.119E+01    2.121E+01    2.123E+01    2.124E+01    2.126E+01    2.128E+01    2.129E+01    2.131E+01    2.132E+01
     2.134E+01    2.135E+01    2.136E+01    2.138E+01    2.139E+01    2.141E+01    2.142E+01    2.143E+01    2.144E+01    2.146E+01
     2.147E+01    2.148E+01    2.149E+01    2.150E+01    2.152E+01    2.153E+01    2.154E+01    2.155E+01    2.156E+01    2.157E+01
     2.158E+01    2.159E+01    2.160E+01    2.161E+01    2.162E+01    2.163E+01    2.164E+01    2.165E+01    2.166E+01    2.167E+01
     2.168E+01    2.169E+01    2.170E+01    2.171E+01    2.172E+01    2.173E+01    2.174E+01    2.175E+01    2.176E+01    2.177E+01
     2.178E+01    2.179E+01    2.180E+01    2.181E+01    2.182E+01    2.183E+01    2.184E+01    2.185E+01
 Ala      Conc. = 1.47E+02
