 LCModel (Version 6.3-1L) Copyright: S.W. Provencher.          Ref.: Magn. Reson. Med. 30:672-679 (1993).                
 Slice#3 Row#2 Col#10  PD_05_press_1_raw_act
 36 lines in following concentration table = NCONC+1
    Conc.  %SD /Cr+PCr  Metabolite                                         
    0.000 999%   0.000 Ala                                                 
   12.277 264%   0.000 Asp                                                 
    0.000 999%   0.000 Cr                                                  
    0.000 999%   0.000 PCr                                                 
   11.713 167%   0.000 GABA                                                
    7.694 254%   0.000 Glc                                                 
    0.000 999%   0.000 Gln                                                 
  340.937 123%   0.000 Glu                                                 
    0.000 999%   0.000 GPC                                                 
    0.000 999%   0.000 PCh                                                 
   62.295 107%   0.000 GSH                                                 
  280.425  55%   0.000 Ins                                                 
   17.472 999%   0.000 Lac                                                 
  402.622  19%   0.000 NAA                                                 
    0.000 999%   0.000 NAAG                                                
    0.000 999%   0.000 Scyllo                                              
    0.287 999%   0.000 Tau                                                 
    0.000 999%   0.000 -CrCH2                                              
    0.000 999%   0.000 GPC+PCh                                             
  402.622  19%   0.000 NAA+NAAG                                            
    0.000 999%   0.000 Cr+PCr                                              
  340.937 123%   0.000 Glu+Gln                                             
    0.000 999%   0.000 Lip13a                                              
    0.000 999%   0.000 Lip13b                                              
    0.000 999%   0.000 Lip09                                               
 2.45E+03   9%   0.000 MM09                                                
 1.08E-02 999%   0.000 Lip20                                               
 1.11E+03  29%   0.000 MM20                                                
 1.36E+03  16%   0.000 MM12                                                
 4.00E+03  12%   0.000 MM14                                                
 4.17E+03  12%   0.000 MM17                                                
    0.000 999%   0.000 Lip13a+Lip13b                                       
 5.35E+03  10%   0.000 MM14+Lip13a+Lip13b+MM12                             
 2.45E+03   9%   0.000 MM09+Lip09                                          
 1.11E+03  29%   0.000 MM20+Lip20                                          
   6 lines in following misc. output table
  FWHM = 0.107 ppm    S/N =   5                                            
  Data shift = 0.084 ppm                                                   
  Ph:-171 deg      33.6 deg/ppm                                            
  alphaB,S = 8.5E+01,   5.1E+01                                            
   14 spline knots.   Ns = 7(2)                                            
   2 inflections.     1 extrema                                            
  498 points on ppm-axis = NY
      4.000000     3.992357     3.984714     3.977070     3.969427     3.961784     3.954141     3.946497     3.938854     3.931211
      3.923568     3.915925     3.908281     3.900638     3.892995     3.885352     3.877708     3.870065     3.862422     3.854779
      3.847136     3.839492     3.831849     3.824206     3.816563     3.808919     3.801276     3.793633     3.785990     3.778347
      3.770703     3.763060     3.755417     3.747774     3.740130     3.732487     3.724844     3.717201     3.709558     3.701914
      3.694271     3.686628     3.678985     3.671341     3.663698     3.656055     3.648412     3.640769     3.633125     3.625482
      3.617839     3.610196     3.602552     3.594909     3.587266     3.579623     3.571980     3.564336     3.556693     3.549050
      3.541407     3.533763     3.526120     3.518477     3.510834     3.503191     3.495547     3.487904     3.480261     3.472618
      3.464974     3.457331     3.449688     3.442045     3.434402     3.426758     3.419115     3.411472     3.403829     3.396185
      3.388542     3.380899     3.373256     3.365613     3.357969     3.350326     3.342683     3.335040     3.327396     3.319753
      3.312110     3.304467     3.296824     3.289180     3.281537     3.273894     3.266251     3.258607     3.250964     3.243321
      3.235678     3.228034     3.220391     3.212748     3.205105     3.197462     3.189818     3.182175     3.174532     3.166889
      3.159245     3.151602     3.143959     3.136316     3.128673     3.121029     3.113386     3.105743     3.098100     3.090456
      3.082813     3.075170     3.067527     3.059884     3.052240     3.044597     3.036954     3.029311     3.021667     3.014024
      3.006381     2.998738     2.991095     2.983451     2.975808     2.968165     2.960522     2.952878     2.945235     2.937592
      2.929949     2.922306     2.914662     2.907019     2.899376     2.891733     2.884089     2.876446     2.868803     2.861160
      2.853517     2.845873     2.838230     2.830587     2.822944     2.815300     2.807657     2.800014     2.792371     2.784728
      2.777084     2.769441     2.761798     2.754155     2.746511     2.738868     2.731225     2.723582     2.715939     2.708295
      2.700652     2.693009     2.685366     2.677722     2.670079     2.662436     2.654793     2.647150     2.639506     2.631863
      2.624220     2.616577     2.608933     2.601290     2.593647     2.586004     2.578361     2.570717     2.563074     2.555431
      2.547788     2.540144     2.532501     2.524858     2.517215     2.509572     2.501928     2.494285     2.486642     2.478999
      2.471355     2.463712     2.456069     2.448426     2.440783     2.433139     2.425496     2.417853     2.410210     2.402566
      2.394923     2.387280     2.379637     2.371994     2.364350     2.356707     2.349064     2.341421     2.333777     2.326134
      2.318491     2.310848     2.303205     2.295561     2.287918     2.280275     2.272632     2.264988     2.257345     2.249702
      2.242059     2.234416     2.226772     2.219129     2.211486     2.203843     2.196199     2.188556     2.180913     2.173270
      2.165627     2.157983     2.150340     2.142697     2.135054     2.127410     2.119767     2.112124     2.104481     2.096838
      2.089194     2.081551     2.073908     2.066265     2.058621     2.050978     2.043335     2.035692     2.028049     2.020405
      2.012762     2.005119     1.997476     1.989833     1.982190     1.974546     1.966903     1.959260     1.951617     1.943974
      1.936331     1.928688     1.921045     1.913402     1.905759     1.898115     1.890472     1.882829     1.875186     1.867543
      1.859900     1.852257     1.844614     1.836971     1.829327     1.821684     1.814041     1.806398     1.798755     1.791112
      1.783469     1.775826     1.768183     1.760540     1.752896     1.745253     1.737610     1.729967     1.722324     1.714681
      1.707038     1.699395     1.691752     1.684108     1.676465     1.668822     1.661179     1.653536     1.645893     1.638250
      1.630607     1.622964     1.615321     1.607677     1.600034     1.592391     1.584748     1.577105     1.569462     1.561819
      1.554176     1.546533     1.538890     1.531246     1.523603     1.515960     1.508317     1.500674     1.493031     1.485388
      1.477745     1.470102     1.462458     1.454815     1.447172     1.439529     1.431886     1.424243     1.416600     1.408957
      1.401314     1.393671     1.386027     1.378384     1.370741     1.363098     1.355455     1.347812     1.340169     1.332526
      1.324883     1.317240     1.309596     1.301953     1.294310     1.286667     1.279024     1.271381     1.263738     1.256095
      1.248452     1.240808     1.233165     1.225522     1.217879     1.210236     1.202593     1.194950     1.187307     1.179664
      1.172021     1.164377     1.156734     1.149091     1.141448     1.133805     1.126162     1.118519     1.110876     1.103233
      1.095590     1.087946     1.080303     1.072660     1.065017     1.057374     1.049731     1.042088     1.034445     1.026802
      1.019158     1.011515     1.003872     0.996229     0.988586     0.980943     0.973300     0.965657     0.958014     0.950371
      0.942727     0.935084     0.927441     0.919798     0.912155     0.904512     0.896869     0.889226     0.881583     0.873940
      0.866296     0.858653     0.851010     0.843367     0.835724     0.828081     0.820438     0.812795     0.805152     0.797508
      0.789865     0.782222     0.774579     0.766936     0.759293     0.751650     0.744007     0.736364     0.728721     0.721077
      0.713434     0.705791     0.698148     0.690505     0.682862     0.675219     0.667576     0.659933     0.652290     0.644646
      0.637003     0.629360     0.621717     0.614074     0.606431     0.598788     0.591145     0.583502     0.575858     0.568215
      0.560572     0.552929     0.545286     0.537643     0.530000     0.522357     0.514714     0.507071     0.499427     0.491784
      0.484141     0.476498     0.468855     0.461212     0.453569     0.445925     0.438282     0.430639     0.422996     0.415353
      0.407710     0.400067     0.392424     0.384780     0.377137     0.369494     0.361851     0.354208     0.346565     0.338922
      0.331278     0.323635     0.315992     0.308349     0.300706     0.293063     0.285420     0.277777     0.270133     0.262490
      0.254847     0.247204     0.239561     0.231918     0.224275     0.216631     0.208988     0.201345
 NY phased data points follow
  -7.07081E+00 -6.84587E+00 -6.98436E+00 -8.10658E+00 -6.60940E+00 -8.82425E+00 -8.19824E+00 -8.72131E+00 -7.08710E+00 -6.93194E+00
  -6.74560E+00 -5.09479E+00 -5.50245E+00 -4.53921E+00 -3.74950E+00 -3.79871E+00 -4.49115E+00 -5.11598E+00 -4.11456E+00 -6.73727E+00
  -6.36126E+00 -4.69330E+00 -4.64888E+00 -4.18372E+00 -5.85078E+00 -6.26988E+00 -5.12050E+00 -5.51459E+00 -3.01910E+00 -5.49967E+00
  -6.42724E+00 -6.24619E+00 -5.07068E+00 -3.13492E+00 -7.97618E+00 -4.86171E+00 -4.82125E+00 -6.07194E+00 -1.94392E+00 -6.03823E+00
  -1.94226E+00 -5.48953E+00 -4.11204E+00 -4.36228E+00 -6.04979E+00 -6.67745E+00 -4.60233E+00 -3.44972E+00 -5.14225E+00 -2.45253E+00
  -6.02203E+00 -1.62503E+00 -4.78544E+00 -3.73655E+00 -1.73590E+00 -5.56378E+00 -1.58070E+00 -8.80303E-01 -3.89558E+00 -5.40344E+00
  -5.89733E+00 -3.83003E+00 -4.47124E+00 -6.01141E+00 -2.49158E+00 -3.28128E+00 -3.16617E+00 -6.65508E+00 -4.80286E+00 -4.68550E+00
  -3.60618E+00 -4.48208E+00 -6.23172E+00 -4.09599E+00 -4.23035E+00 -4.81059E+00 -6.30346E+00 -3.07965E+00 -6.17082E+00 -5.39689E+00
  -3.85766E+00 -5.83955E+00 -6.20586E+00 -8.39616E+00 -6.64128E+00 -5.20016E+00 -7.42694E+00 -6.12080E+00 -5.92183E+00 -6.70739E+00
  -5.32588E+00 -7.68960E+00 -5.64824E+00 -7.86446E+00 -5.25347E+00 -7.12118E+00 -5.12815E+00 -5.11879E+00 -6.55021E+00 -7.68381E+00
  -5.99709E+00 -6.20889E+00 -7.03460E+00 -5.50982E+00 -6.82048E+00 -2.28874E+00 -3.78536E+00 -5.08361E+00 -6.39216E+00 -2.14087E+00
  -6.76152E+00 -6.34964E+00 -6.14515E+00 -4.68136E+00 -4.15736E+00 -8.64856E+00 -7.32009E+00 -6.26372E+00 -5.67884E+00 -4.48519E+00
  -8.01353E+00 -3.50350E+00 -6.99046E+00 -8.80590E+00 -8.02672E+00 -7.07725E+00 -6.36549E+00 -6.36038E+00 -4.78960E+00 -3.31211E+00
  -4.35171E+00 -1.59206E+00 -1.60442E+00 -3.07838E+00 -8.04310E-01 -4.67891E+00 -1.85225E+00 -5.37722E+00 -2.46152E+00 -2.65449E+00
  -4.56777E+00 -3.24877E+00 -4.16057E+00 -2.43285E+00 -5.50294E+00 -5.48220E+00 -4.29562E+00 -3.58477E+00 -3.46557E+00 -2.13048E+00
  -4.23713E+00 -3.03608E+00 -2.15886E+00 -4.65623E+00 -4.00705E+00 -3.20928E+00 -3.02102E+00 -4.02533E+00 -5.75150E+00 -3.43605E+00
  -3.79356E+00 -5.65918E-02 -7.52913E-01 -4.52094E+00 -3.45723E+00 -6.15352E-02 -4.13615E+00 -2.30639E+00 -4.23674E+00 -3.40794E+00
  -6.53045E+00 -4.36744E+00 -3.37586E+00 -3.21361E+00 -1.21275E+00 -4.08991E+00 -4.62090E+00 -3.21823E+00 -4.74034E+00 -2.35417E+00
  -3.60834E+00 -3.53267E+00 -6.45310E+00 -4.61825E+00 -5.22601E+00 -4.13323E+00 -6.49216E+00 -8.29129E+00 -3.07769E+00 -4.73316E+00
  -3.11007E+00 -3.71655E+00 -5.89997E+00 -1.90782E+00 -2.51377E+00 -3.68273E+00 -5.83369E+00 -9.61374E-01 -3.08712E+00 -3.48305E+00
  -3.08524E+00 -5.07391E+00 -1.48356E+00 -3.60938E+00 -1.53540E+00 -3.82412E+00 -9.20772E-01 -2.77585E+00 -1.08633E+00 -3.18298E+00
   4.54456E-01 -3.96338E-01 -8.35924E-02 -7.81223E-01  2.40463E-01 -2.51964E+00 -1.87984E+00 -1.65218E+00 -1.77176E-02 -1.16479E+00
   9.50914E-02 -1.24881E+00 -9.93737E-01 -2.13894E+00 -2.34424E+00 -7.16537E-01 -3.34676E+00  7.68870E-01  2.77028E-01  2.66889E-01
  -2.46409E+00  6.23605E-02 -7.58263E-01  5.46243E-01  1.15628E-01 -2.10441E+00 -1.83210E+00  2.10582E+00 -1.63469E+00 -1.64564E+00
   1.04216E-01  5.38528E-01  1.57928E+00 -6.68625E-01  2.13025E+00  4.08319E-01  1.82222E-02  6.15706E-02  3.13344E+00  4.39022E+00
   2.93851E+00  3.14406E+00  4.34250E+00  5.13017E+00  3.62938E+00  3.60867E+00  7.50331E+00  6.86155E+00  2.45946E+00  8.18281E+00
   9.30827E+00  1.13471E+01  9.67377E+00  1.33746E+01  1.33390E+01  1.21147E+01  1.12256E+01  9.66853E+00  6.23757E+00  1.02044E+01
   1.09804E+01  9.23322E+00  8.56972E+00  9.85003E+00  7.30974E+00  1.08386E+01  1.11969E+01  1.22317E+01  9.93261E+00  9.54891E+00
   8.84232E+00  1.11402E+01  1.06533E+01  1.32725E+01  1.41724E+01  1.15797E+01  1.20644E+01  1.20120E+01  1.08801E+01  1.28552E+01
   1.33404E+01  1.22121E+01  1.10121E+01  1.40225E+01  1.31424E+01  1.23652E+01  1.35540E+01  1.15339E+01  1.37687E+01  1.29041E+01
   1.15890E+01  1.22992E+01  1.03363E+01  1.46402E+01  1.33849E+01  1.51672E+01  1.60361E+01  1.39675E+01  1.49862E+01  1.44485E+01
   1.46591E+01  1.70840E+01  1.50626E+01  1.56692E+01  1.91749E+01  1.48033E+01  1.79660E+01  1.71268E+01  1.81054E+01  1.80256E+01
   1.81689E+01  1.57597E+01  1.81760E+01  1.85473E+01  1.46085E+01  1.64975E+01  1.60582E+01  1.91559E+01  1.94062E+01  1.79406E+01
   1.47277E+01  1.69782E+01  1.90697E+01  1.78077E+01  1.74548E+01  1.51501E+01  1.68272E+01  1.45059E+01  1.19397E+01  1.19663E+01
   1.22241E+01  8.77202E+00  8.71868E+00  6.56083E+00  9.07431E+00  8.78052E+00  5.43499E+00  3.79138E+00  2.15514E+00  2.55997E+00
   1.82179E+00  2.47628E+00  1.37491E+00 -9.81858E-02  1.18365E-01 -1.33492E+00  2.26346E+00 -1.99064E-01 -3.98067E-01  2.30390E+00
   7.41313E-01  3.60520E+00  5.09034E+00  4.54769E+00  5.65643E+00  7.64326E+00  7.94123E+00  8.37363E+00  9.36330E+00  7.45299E+00
   9.15304E+00  8.10299E+00  1.28472E+01  1.41443E+01  1.52988E+01  1.37283E+01  1.38503E+01  1.51845E+01  1.60438E+01  1.55999E+01
   1.61406E+01  1.31338E+01  1.48252E+01  1.57377E+01  1.57957E+01  1.41149E+01  1.32070E+01  1.34408E+01  1.60802E+01  1.39680E+01
   1.23870E+01  1.47144E+01  1.43967E+01  1.01149E+01  1.27717E+01  1.29656E+01  9.13369E+00  1.02179E+01  1.16382E+01  1.08416E+01
   1.35194E+01  9.42509E+00  1.34755E+01  8.80122E+00  7.98081E+00  7.97334E+00  7.73441E+00  6.73176E+00  8.94163E+00  9.15897E+00
   6.20056E+00  7.62861E+00  6.75955E+00  8.22037E+00  6.73503E+00  1.08085E+01  5.25688E+00  7.84753E+00  7.32968E+00  5.95747E+00
   6.60974E+00  5.35330E+00  4.15927E+00  3.09733E+00  5.12956E+00  4.80236E+00  1.14048E+00  3.37650E+00  2.20638E+00  3.48352E+00
   2.67495E+00  2.23844E+00  2.20981E+00  5.90681E-01  1.26323E+00  1.47635E+00 -1.23173E+00  2.31600E+00  1.65494E+00  2.23236E+00
   1.31697E+00  2.66063E+00 -1.40239E-02  8.96021E-01  1.34171E+00 -1.57517E+00  6.22210E-01  7.12770E-01  9.49926E-01 -1.46726E+00
   2.22264E+00 -1.82022E+00  1.83511E+00 -7.48838E-01  3.12313E-01 -1.99993E+00 -2.04401E+00 -6.66482E-01  4.62662E-01 -1.69799E+00
  -1.70946E+00  1.42564E+00 -9.34725E-01  6.41523E-01 -1.89176E+00 -3.14433E+00 -2.83895E+00 -1.10416E+00  5.78101E-01 -1.59251E+00
  -1.44618E+00 -2.63693E+00 -6.05969E-01 -1.43745E+00  1.55817E+00 -1.47615E+00  8.30881E-01  2.58308E+00 -1.95828E+00 -2.34240E+00
  -2.78707E+00 -4.49384E+00 -1.30705E+00 -3.94659E+00 -3.70646E+00 -2.55604E-01 -5.83584E-01 -1.58723E+00  4.34454E-01 -1.78848E-01
  -1.43501E+00 -3.20473E+00 -2.16585E+00 -3.83464E+00 -9.27743E-01 -1.03294E+00 -1.03255E+00 -3.65625E+00
 NY points of the fit to the data follow
  -5.19005E+00 -5.24587E+00 -5.33347E+00 -5.40967E+00 -5.50623E+00 -5.58931E+00 -5.67941E+00 -5.75271E+00 -5.81987E+00 -5.88672E+00
  -5.90574E+00 -5.93021E+00 -5.94244E+00 -5.93200E+00 -5.91218E+00 -5.89507E+00 -5.88189E+00 -5.84977E+00 -5.81518E+00 -5.77251E+00
  -5.72563E+00 -5.66189E+00 -5.59098E+00 -5.51855E+00 -5.43856E+00 -5.35599E+00 -5.26009E+00 -5.18325E+00 -5.06434E+00 -4.98823E+00
  -4.82828E+00 -4.77540E+00 -4.60648E+00 -4.60529E+00 -4.47378E+00 -4.52612E+00 -4.45509E+00 -4.56505E+00 -4.54196E+00 -4.67792E+00
  -4.64529E+00 -4.76980E+00 -4.71476E+00 -4.79049E+00 -4.70672E+00 -4.74455E+00 -4.69352E+00 -4.66086E+00 -4.56659E+00 -4.53308E+00
  -4.48048E+00 -4.48147E+00 -4.48803E+00 -4.54618E+00 -4.60925E+00 -4.66168E+00 -4.72866E+00 -4.76661E+00 -4.80534E+00 -4.82426E+00
  -4.84739E+00 -4.87324E+00 -4.89485E+00 -4.93869E+00 -4.93776E+00 -4.93332E+00 -4.88452E+00 -4.87696E+00 -4.83822E+00 -4.82970E+00
  -4.78955E+00 -4.78635E+00 -4.74384E+00 -4.75897E+00 -4.72044E+00 -4.76308E+00 -4.74147E+00 -4.77927E+00 -4.76116E+00 -4.79560E+00
  -4.78888E+00 -4.84141E+00 -4.85362E+00 -4.93112E+00 -4.95754E+00 -5.05020E+00 -5.08447E+00 -5.18526E+00 -5.21549E+00 -5.30425E+00
  -5.29695E+00 -5.36330E+00 -5.31812E+00 -5.35617E+00 -5.28349E+00 -5.30694E+00 -5.22978E+00 -5.25315E+00 -5.18970E+00 -5.21309E+00
  -5.16459E+00 -5.17560E+00 -5.13127E+00 -5.12202E+00 -5.08016E+00 -5.06848E+00 -5.03083E+00 -5.01440E+00 -4.96930E+00 -4.93979E+00
  -4.88431E+00 -4.83835E+00 -4.77000E+00 -4.71053E+00 -4.63058E+00 -4.56829E+00 -4.49773E+00 -4.43950E+00 -4.37878E+00 -4.32338E+00
  -4.27268E+00 -4.21524E+00 -4.16933E+00 -4.11174E+00 -4.06746E+00 -4.01382E+00 -3.97262E+00 -3.92494E+00 -3.88580E+00 -3.84455E+00
  -3.80540E+00 -3.77915E+00 -3.74325E+00 -3.73854E+00 -3.71012E+00 -3.73623E+00 -3.71926E+00 -3.77217E+00 -3.76225E+00 -3.82385E+00
  -3.80364E+00 -3.86114E+00 -3.82380E+00 -3.88183E+00 -3.84074E+00 -3.90666E+00 -3.87700E+00 -3.94349E+00 -3.92777E+00 -3.98905E+00
  -3.98200E+00 -4.02462E+00 -4.01826E+00 -4.06162E+00 -4.07207E+00 -4.11939E+00 -4.14363E+00 -4.18336E+00 -4.20746E+00 -4.23675E+00
  -4.25463E+00 -4.28113E+00 -4.29821E+00 -4.31518E+00 -4.33579E+00 -4.33778E+00 -4.35655E+00 -4.35355E+00 -4.37738E+00 -4.39623E+00
  -4.42166E+00 -4.45757E+00 -4.47623E+00 -4.52076E+00 -4.52585E+00 -4.58068E+00 -4.56475E+00 -4.62451E+00 -4.57646E+00 -4.64928E+00
  -4.57023E+00 -4.62833E+00 -4.52576E+00 -4.54356E+00 -4.44037E+00 -4.42670E+00 -4.32618E+00 -4.27058E+00 -4.16274E+00 -4.05891E+00
  -3.95343E+00 -3.80452E+00 -3.71173E+00 -3.54718E+00 -3.50014E+00 -3.35089E+00 -3.31594E+00 -3.18108E+00 -3.16920E+00 -3.05985E+00
  -3.05397E+00 -2.96218E+00 -2.93845E+00 -2.86324E+00 -2.79312E+00 -2.77644E+00 -2.67587E+00 -2.69308E+00 -2.57175E+00 -2.63221E+00
  -2.52168E+00 -2.60831E+00 -2.45271E+00 -2.54644E+00 -2.31949E+00 -2.42410E+00 -2.15009E+00 -2.30800E+00 -2.06860E+00 -2.29981E+00
  -2.15371E+00 -2.38754E+00 -2.28847E+00 -2.42492E+00 -2.28490E+00 -2.27214E+00 -2.06309E+00 -1.92562E+00 -1.72705E+00 -1.52243E+00
  -1.38090E+00 -1.16070E+00 -1.02692E+00 -7.27546E-01 -5.09466E-01 -2.03209E-01  3.81463E-02  3.16816E-01  5.41234E-01  7.22152E-01
   8.74432E-01  9.80180E-01  1.17369E+00  1.27867E+00  1.52894E+00  1.65407E+00  1.91606E+00  2.04696E+00  2.46587E+00  2.70977E+00
   3.08820E+00  3.43182E+00  3.79079E+00  4.31445E+00  4.63969E+00  5.41559E+00  5.76198E+00  6.86726E+00  7.12657E+00  8.57896E+00
   8.66259E+00  1.04005E+01  9.97302E+00  1.16868E+01  1.05902E+01  1.19437E+01  1.04159E+01  1.13367E+01  9.82104E+00  1.04633E+01
   9.17169E+00  9.63787E+00  8.59621E+00  8.88406E+00  8.13428E+00  8.26851E+00  7.88112E+00  8.00909E+00  8.39776E+00  8.86881E+00
   9.34746E+00  9.85636E+00  1.03592E+01  1.08547E+01  1.13411E+01  1.18021E+01  1.22389E+01  1.26327E+01  1.29886E+01  1.32894E+01
   1.35421E+01  1.37407E+01  1.38876E+01  1.39790E+01  1.40197E+01  1.40113E+01  1.39588E+01  1.38697E+01  1.37486E+01  1.36088E+01
   1.34571E+01  1.33068E+01  1.31661E+01  1.30483E+01  1.29611E+01  1.29155E+01  1.29177E+01  1.29761E+01  1.30941E+01  1.32754E+01
   1.35205E+01  1.38282E+01  1.41943E+01  1.46130E+01  1.50757E+01  1.55722E+01  1.60899E+01  1.66152E+01  1.71332E+01  1.76280E+01
   1.80842E+01  1.84862E+01  1.88197E+01  1.90717E+01  1.92310E+01  1.92889E+01  1.92395E+01  1.90795E+01  1.88086E+01  1.84296E+01
   1.79481E+01  1.73719E+01  1.67113E+01  1.59782E+01  1.51877E+01  1.43534E+01  1.34855E+01  1.26024E+01  1.17129E+01  1.08347E+01
   9.97199E+00  9.14056E+00  8.34290E+00  7.59663E+00  6.89053E+00  6.24644E+00  5.64434E+00  5.11078E+00  4.61587E+00  4.19020E+00
   3.80652E+00  3.49445E+00  3.23258E+00  3.04872E+00  2.92264E+00  2.88747E+00  2.91066E+00  3.03230E+00  3.21611E+00  3.49844E+00
   3.85323E+00  4.30266E+00  4.83336E+00  5.45311E+00  6.15122E+00  6.92418E+00  7.74200E+00  8.59904E+00  9.47040E+00  1.03340E+01
   1.11708E+01  1.19484E+01  1.26578E+01  1.32764E+01  1.37864E+01  1.41762E+01  1.44402E+01  1.45793E+01  1.46002E+01  1.45154E+01
   1.43420E+01  1.41004E+01  1.38128E+01  1.35020E+01  1.31896E+01  1.28948E+01  1.26334E+01  1.24169E+01  1.22522E+01  1.21418E+01
   1.20835E+01  1.20715E+01  1.20967E+01  1.21479E+01  1.22124E+01  1.22770E+01  1.23289E+01  1.23559E+01  1.23478E+01  1.22960E+01
   1.21944E+01  1.20388E+01  1.18276E+01  1.15615E+01  1.12427E+01  1.08754E+01  1.04652E+01  1.00184E+01  9.54227E+00  9.04408E+00
   8.53131E+00  8.01109E+00  7.49010E+00  6.97434E+00  6.46908E+00  5.97876E+00  5.50695E+00  5.05642E+00  4.62913E+00  4.22634E+00
   3.84868E+00  3.49624E+00  3.16866E+00  2.86523E+00  2.58497E+00  2.32672E+00  2.08918E+00  1.87100E+00  1.67080E+00  1.48721E+00
   1.31889E+00  1.16458E+00  1.02309E+00  8.93292E-01  7.74162E-01  6.64743E-01  5.64169E-01  4.71649E-01  3.86467E-01  3.07973E-01
   2.35579E-01  1.68754E-01  1.07020E-01  4.99474E-02 -2.85116E-03 -5.17274E-02 -9.70019E-02 -1.38959E-01 -1.77861E-01 -2.13938E-01
  -2.47405E-01 -2.78456E-01 -3.07270E-01 -3.34005E-01 -3.58810E-01 -3.81813E-01 -4.03141E-01 -4.22903E-01 -4.41209E-01 -4.58147E-01
  -4.73806E-01 -4.88263E-01 -5.01596E-01 -5.13871E-01 -5.25155E-01 -5.35501E-01 -5.44966E-01 -5.53597E-01 -5.61445E-01 -5.68551E-01
  -5.74958E-01 -5.80700E-01 -5.85812E-01 -5.90327E-01 -5.94278E-01 -5.97692E-01 -6.00597E-01 -6.03015E-01 -6.04970E-01 -6.06486E-01
  -6.07583E-01 -6.08282E-01 -6.08600E-01 -6.08551E-01 -6.08155E-01 -6.07426E-01 -6.06380E-01 -6.05030E-01 -6.03387E-01 -6.01463E-01
  -5.99271E-01 -5.96822E-01 -5.94126E-01 -5.91191E-01 -5.88026E-01 -5.84638E-01 -5.81037E-01 -5.77231E-01
 NY background values follow
    -6.397E+00   -6.386E+00   -6.375E+00   -6.364E+00   -6.353E+00   -6.343E+00   -6.332E+00   -6.321E+00   -6.310E+00   -6.299E+00
    -6.288E+00   -6.277E+00   -6.267E+00   -6.256E+00   -6.245E+00   -6.234E+00   -6.223E+00   -6.212E+00   -6.201E+00   -6.190E+00
    -6.180E+00   -6.169E+00   -6.158E+00   -6.147E+00   -6.136E+00   -6.125E+00   -6.114E+00   -6.103E+00   -6.093E+00   -6.082E+00
    -6.071E+00   -6.060E+00   -6.049E+00   -6.038E+00   -6.027E+00   -6.016E+00   -6.006E+00   -5.995E+00   -5.984E+00   -5.973E+00
    -5.962E+00   -5.951E+00   -5.940E+00   -5.930E+00   -5.919E+00   -5.908E+00   -5.897E+00   -5.886E+00   -5.875E+00   -5.864E+00
    -5.853E+00   -5.843E+00   -5.832E+00   -5.821E+00   -5.810E+00   -5.799E+00   -5.788E+00   -5.777E+00   -5.766E+00   -5.756E+00
    -5.745E+00   -5.734E+00   -5.723E+00   -5.712E+00   -5.701E+00   -5.690E+00   -5.679E+00   -5.669E+00   -5.658E+00   -5.647E+00
    -5.636E+00   -5.625E+00   -5.614E+00   -5.603E+00   -5.593E+00   -5.582E+00   -5.571E+00   -5.560E+00   -5.549E+00   -5.538E+00
    -5.527E+00   -5.516E+00   -5.506E+00   -5.495E+00   -5.484E+00   -5.473E+00   -5.462E+00   -5.451E+00   -5.440E+00   -5.429E+00
    -5.419E+00   -5.408E+00   -5.397E+00   -5.386E+00   -5.375E+00   -5.364E+00   -5.353E+00   -5.343E+00   -5.332E+00   -5.321E+00
    -5.310E+00   -5.299E+00   -5.288E+00   -5.277E+00   -5.266E+00   -5.256E+00   -5.245E+00   -5.234E+00   -5.223E+00   -5.212E+00
    -5.201E+00   -5.190E+00   -5.179E+00   -5.169E+00   -5.158E+00   -5.147E+00   -5.136E+00   -5.125E+00   -5.114E+00   -5.103E+00
    -5.092E+00   -5.082E+00   -5.071E+00   -5.060E+00   -5.049E+00   -5.038E+00   -5.027E+00   -5.016E+00   -5.006E+00   -4.995E+00
    -4.984E+00   -4.973E+00   -4.962E+00   -4.951E+00   -4.940E+00   -4.929E+00   -4.919E+00   -4.908E+00   -4.897E+00   -4.886E+00
    -4.875E+00   -4.864E+00   -4.853E+00   -4.842E+00   -4.832E+00   -4.821E+00   -4.810E+00   -4.799E+00   -4.788E+00   -4.777E+00
    -4.766E+00   -4.756E+00   -4.745E+00   -4.734E+00   -4.723E+00   -4.712E+00   -4.701E+00   -4.690E+00   -4.679E+00   -4.669E+00
    -4.658E+00   -4.647E+00   -4.636E+00   -4.625E+00   -4.614E+00   -4.603E+00   -4.592E+00   -4.582E+00   -4.571E+00   -4.560E+00
    -4.549E+00   -4.538E+00   -4.527E+00   -4.516E+00   -4.506E+00   -4.495E+00   -4.484E+00   -4.473E+00   -4.462E+00   -4.451E+00
    -4.440E+00   -4.429E+00   -4.419E+00   -4.408E+00   -4.397E+00   -4.386E+00   -4.375E+00   -4.364E+00   -4.353E+00   -4.342E+00
    -4.332E+00   -4.321E+00   -4.310E+00   -4.299E+00   -4.288E+00   -4.277E+00   -4.266E+00   -4.256E+00   -4.245E+00   -4.234E+00
    -4.223E+00   -4.212E+00   -4.201E+00   -4.190E+00   -4.179E+00   -4.169E+00   -4.158E+00   -4.147E+00   -4.136E+00   -4.125E+00
    -4.114E+00   -4.103E+00   -4.093E+00   -4.082E+00   -4.071E+00   -4.060E+00   -4.049E+00   -4.038E+00   -4.027E+00   -4.016E+00
    -4.006E+00   -3.995E+00   -3.984E+00   -3.973E+00   -3.962E+00   -3.951E+00   -3.940E+00   -3.930E+00   -3.919E+00   -3.908E+00
    -3.897E+00   -3.886E+00   -3.875E+00   -3.864E+00   -3.853E+00   -3.843E+00   -3.832E+00   -3.821E+00   -3.810E+00   -3.799E+00
    -3.788E+00   -3.777E+00   -3.767E+00   -3.756E+00   -3.745E+00   -3.734E+00   -3.723E+00   -3.712E+00   -3.701E+00   -3.690E+00
    -3.680E+00   -3.669E+00   -3.658E+00   -3.647E+00   -3.636E+00   -3.625E+00   -3.614E+00   -3.604E+00   -3.593E+00   -3.582E+00
    -3.571E+00   -3.560E+00   -3.549E+00   -3.538E+00   -3.527E+00   -3.517E+00   -3.506E+00   -3.495E+00   -3.484E+00   -3.473E+00
    -3.462E+00   -3.451E+00   -3.441E+00   -3.430E+00   -3.419E+00   -3.408E+00   -3.397E+00   -3.386E+00   -3.375E+00   -3.364E+00
    -3.354E+00   -3.343E+00   -3.332E+00   -3.321E+00   -3.310E+00   -3.299E+00   -3.288E+00   -3.278E+00   -3.267E+00   -3.256E+00
    -3.245E+00   -3.234E+00   -3.223E+00   -3.212E+00   -3.202E+00   -3.191E+00   -3.180E+00   -3.169E+00   -3.158E+00   -3.147E+00
    -3.136E+00   -3.125E+00   -3.115E+00   -3.104E+00   -3.093E+00   -3.082E+00   -3.071E+00   -3.060E+00   -3.049E+00   -3.039E+00
    -3.028E+00   -3.017E+00   -3.006E+00   -2.995E+00   -2.984E+00   -2.973E+00   -2.963E+00   -2.952E+00   -2.941E+00   -2.930E+00
    -2.919E+00   -2.908E+00   -2.897E+00   -2.886E+00   -2.876E+00   -2.865E+00   -2.854E+00   -2.843E+00   -2.832E+00   -2.821E+00
    -2.810E+00   -2.800E+00   -2.789E+00   -2.778E+00   -2.767E+00   -2.756E+00   -2.745E+00   -2.734E+00   -2.724E+00   -2.713E+00
    -2.702E+00   -2.691E+00   -2.680E+00   -2.669E+00   -2.658E+00   -2.648E+00   -2.637E+00   -2.626E+00   -2.615E+00   -2.604E+00
    -2.593E+00   -2.582E+00   -2.571E+00   -2.561E+00   -2.550E+00   -2.539E+00   -2.528E+00   -2.517E+00   -2.506E+00   -2.495E+00
    -2.485E+00   -2.474E+00   -2.463E+00   -2.452E+00   -2.441E+00   -2.430E+00   -2.419E+00   -2.409E+00   -2.398E+00   -2.387E+00
    -2.376E+00   -2.365E+00   -2.354E+00   -2.343E+00   -2.333E+00   -2.322E+00   -2.311E+00   -2.300E+00   -2.289E+00   -2.278E+00
    -2.267E+00   -2.256E+00   -2.246E+00   -2.235E+00   -2.224E+00   -2.213E+00   -2.202E+00   -2.191E+00   -2.180E+00   -2.170E+00
    -2.159E+00   -2.148E+00   -2.137E+00   -2.126E+00   -2.115E+00   -2.104E+00   -2.094E+00   -2.083E+00   -2.072E+00   -2.061E+00
    -2.050E+00   -2.039E+00   -2.028E+00   -2.018E+00   -2.007E+00   -1.996E+00   -1.985E+00   -1.974E+00   -1.963E+00   -1.952E+00
    -1.942E+00   -1.931E+00   -1.920E+00   -1.909E+00   -1.898E+00   -1.887E+00   -1.876E+00   -1.865E+00   -1.855E+00   -1.844E+00
    -1.833E+00   -1.822E+00   -1.811E+00   -1.800E+00   -1.789E+00   -1.779E+00   -1.768E+00   -1.757E+00   -1.746E+00   -1.735E+00
    -1.724E+00   -1.713E+00   -1.703E+00   -1.692E+00   -1.681E+00   -1.670E+00   -1.659E+00   -1.648E+00   -1.637E+00   -1.627E+00
    -1.616E+00   -1.605E+00   -1.594E+00   -1.583E+00   -1.572E+00   -1.561E+00   -1.551E+00   -1.540E+00   -1.529E+00   -1.518E+00
    -1.507E+00   -1.496E+00   -1.485E+00   -1.475E+00   -1.464E+00   -1.453E+00   -1.442E+00   -1.431E+00   -1.420E+00   -1.409E+00
    -1.398E+00   -1.388E+00   -1.377E+00   -1.366E+00   -1.355E+00   -1.344E+00   -1.333E+00   -1.322E+00   -1.312E+00   -1.301E+00
    -1.290E+00   -1.279E+00   -1.268E+00   -1.257E+00   -1.246E+00   -1.236E+00   -1.225E+00   -1.214E+00   -1.203E+00   -1.192E+00
    -1.181E+00   -1.170E+00   -1.160E+00   -1.149E+00   -1.138E+00   -1.127E+00   -1.116E+00   -1.105E+00   -1.094E+00   -1.084E+00
    -1.073E+00   -1.062E+00   -1.051E+00   -1.040E+00   -1.029E+00   -1.018E+00   -1.008E+00   -9.967E-01
 Asp      Conc. = 1.23E+01
