 LCModel (Version 6.3-1L) Copyright: S.W. Provencher.          Ref.: Magn. Reson. Med. 30:672-679 (1993).                
 Slice#3 Row#2 Col#1  PD_05_press_1_raw_act
 36 lines in following concentration table = NCONC+1
    Conc.  %SD /Cr+PCr  Metabolite                                         
    0.000 999%   0.000 Ala                                                 
    5.026  98%   0.120 Asp                                                 
    0.000 999%   0.000 Cr                                                  
   41.872  26%   1.000 PCr                                                 
    3.246  91% 7.8E-02 GABA                                                
    3.206  93% 7.7E-02 Glc                                                 
   37.469 258%   0.895 Gln                                                 
    0.000 999%   0.000 Glu                                                 
   11.726  35%   0.280 GPC                                                 
    0.000 999%   0.000 PCh                                                 
   14.066 130%   0.336 GSH                                                 
  162.904  26%   3.891 Ins                                                 
  195.270  26%   4.664 Lac                                                 
   30.022  37%   0.717 NAA                                                 
    0.000 999%   0.000 NAAG                                                
    0.862 114% 2.1E-02 Scyllo                                              
    5.188  94%   0.124 Tau                                                 
    5.117 192%   0.122 -CrCH2                                              
   11.726  35%   0.280 GPC+PCh                                             
   30.022  37%   0.717 NAA+NAAG                                            
   41.872  26%   1.000 Cr+PCr                                              
   37.469 258%   0.895 Glu+Gln                                             
    0.000 999%   0.000 Lip13a                                              
   86.883  18%   2.075 Lip13b                                              
   12.195  84%   0.291 Lip09                                               
    0.000 999%   0.000 MM09                                                
   13.527  56%   0.323 Lip20                                               
    0.000 999%   0.000 MM20                                                
    0.000 999%   0.000 MM12                                                
    0.000 999%   0.000 MM14                                                
    0.000 999%   0.000 MM17                                                
   86.883  18%   2.075 Lip13a+Lip13b                                       
   86.883  18%   2.075 MM14+Lip13a+Lip13b+MM12                             
   12.195  84%   0.291 MM09+Lip09                                          
   13.527  56%   0.323 MM20+Lip20                                          
   6 lines in following misc. output table
  FWHM = 0.107 ppm    S/N =   1                                            
  Data shift = 0.191 ppm                                                   
  Ph:-150 deg     -16.4 deg/ppm                                            
  alphaB,S = 8.5E+01,   5.1E+01                                            
   14 spline knots.   Ns = 7(2)                                            
   2 inflections.     1 extrema                                            
  498 points on ppm-axis = NY
      4.000000     3.992357     3.984714     3.977070     3.969427     3.961784     3.954141     3.946497     3.938854     3.931211
      3.923568     3.915925     3.908281     3.900638     3.892995     3.885352     3.877708     3.870065     3.862422     3.854779
      3.847136     3.839492     3.831849     3.824206     3.816563     3.808919     3.801276     3.793633     3.785990     3.778347
      3.770703     3.763060     3.755417     3.747774     3.740130     3.732487     3.724844     3.717201     3.709558     3.701914
      3.694271     3.686628     3.678985     3.671341     3.663698     3.656055     3.648412     3.640769     3.633125     3.625482
      3.617839     3.610196     3.602552     3.594909     3.587266     3.579623     3.571980     3.564336     3.556693     3.549050
      3.541407     3.533763     3.526120     3.518477     3.510834     3.503191     3.495547     3.487904     3.480261     3.472618
      3.464974     3.457331     3.449688     3.442045     3.434402     3.426758     3.419115     3.411472     3.403829     3.396185
      3.388542     3.380899     3.373256     3.365613     3.357969     3.350326     3.342683     3.335040     3.327396     3.319753
      3.312110     3.304467     3.296824     3.289180     3.281537     3.273894     3.266251     3.258607     3.250964     3.243321
      3.235678     3.228034     3.220391     3.212748     3.205105     3.197462     3.189818     3.182175     3.174532     3.166889
      3.159245     3.151602     3.143959     3.136316     3.128673     3.121029     3.113386     3.105743     3.098100     3.090456
      3.082813     3.075170     3.067527     3.059884     3.052240     3.044597     3.036954     3.029311     3.021667     3.014024
      3.006381     2.998738     2.991095     2.983451     2.975808     2.968165     2.960522     2.952878     2.945235     2.937592
      2.929949     2.922306     2.914662     2.907019     2.899376     2.891733     2.884089     2.876446     2.868803     2.861160
      2.853517     2.845873     2.838230     2.830587     2.822944     2.815300     2.807657     2.800014     2.792371     2.784728
      2.777084     2.769441     2.761798     2.754155     2.746511     2.738868     2.731225     2.723582     2.715939     2.708295
      2.700652     2.693009     2.685366     2.677722     2.670079     2.662436     2.654793     2.647150     2.639506     2.631863
      2.624220     2.616577     2.608933     2.601290     2.593647     2.586004     2.578361     2.570717     2.563074     2.555431
      2.547788     2.540144     2.532501     2.524858     2.517215     2.509572     2.501928     2.494285     2.486642     2.478999
      2.471355     2.463712     2.456069     2.448426     2.440783     2.433139     2.425496     2.417853     2.410210     2.402566
      2.394923     2.387280     2.379637     2.371994     2.364350     2.356707     2.349064     2.341421     2.333777     2.326134
      2.318491     2.310848     2.303205     2.295561     2.287918     2.280275     2.272632     2.264988     2.257345     2.249702
      2.242059     2.234416     2.226772     2.219129     2.211486     2.203843     2.196199     2.188556     2.180913     2.173270
      2.165627     2.157983     2.150340     2.142697     2.135054     2.127410     2.119767     2.112124     2.104481     2.096838
      2.089194     2.081551     2.073908     2.066265     2.058621     2.050978     2.043335     2.035692     2.028049     2.020405
      2.012762     2.005119     1.997476     1.989833     1.982190     1.974546     1.966903     1.959260     1.951617     1.943974
      1.936331     1.928688     1.921045     1.913402     1.905759     1.898115     1.890472     1.882829     1.875186     1.867543
      1.859900     1.852257     1.844614     1.836971     1.829327     1.821684     1.814041     1.806398     1.798755     1.791112
      1.783469     1.775826     1.768183     1.760540     1.752896     1.745253     1.737610     1.729967     1.722324     1.714681
      1.707038     1.699395     1.691752     1.684108     1.676465     1.668822     1.661179     1.653536     1.645893     1.638250
      1.630607     1.622964     1.615321     1.607677     1.600034     1.592391     1.584748     1.577105     1.569462     1.561819
      1.554176     1.546533     1.538890     1.531246     1.523603     1.515960     1.508317     1.500674     1.493031     1.485388
      1.477745     1.470102     1.462458     1.454815     1.447172     1.439529     1.431886     1.424243     1.416600     1.408957
      1.401314     1.393671     1.386027     1.378384     1.370741     1.363098     1.355455     1.347812     1.340169     1.332526
      1.324883     1.317240     1.309596     1.301953     1.294310     1.286667     1.279024     1.271381     1.263738     1.256095
      1.248452     1.240808     1.233165     1.225522     1.217879     1.210236     1.202593     1.194950     1.187307     1.179664
      1.172021     1.164377     1.156734     1.149091     1.141448     1.133805     1.126162     1.118519     1.110876     1.103233
      1.095590     1.087946     1.080303     1.072660     1.065017     1.057374     1.049731     1.042088     1.034445     1.026802
      1.019158     1.011515     1.003872     0.996229     0.988586     0.980943     0.973300     0.965657     0.958014     0.950371
      0.942727     0.935084     0.927441     0.919798     0.912155     0.904512     0.896869     0.889226     0.881583     0.873940
      0.866296     0.858653     0.851010     0.843367     0.835724     0.828081     0.820438     0.812795     0.805152     0.797508
      0.789865     0.782222     0.774579     0.766936     0.759293     0.751650     0.744007     0.736364     0.728721     0.721077
      0.713434     0.705791     0.698148     0.690505     0.682862     0.675219     0.667576     0.659933     0.652290     0.644646
      0.637003     0.629360     0.621717     0.614074     0.606431     0.598788     0.591145     0.583502     0.575858     0.568215
      0.560572     0.552929     0.545286     0.537643     0.530000     0.522357     0.514714     0.507071     0.499427     0.491784
      0.484141     0.476498     0.468855     0.461212     0.453569     0.445925     0.438282     0.430639     0.422996     0.415353
      0.407710     0.400067     0.392424     0.384780     0.377137     0.369494     0.361851     0.354208     0.346565     0.338922
      0.331278     0.323635     0.315992     0.308349     0.300706     0.293063     0.285420     0.277777     0.270133     0.262490
      0.254847     0.247204     0.239561     0.231918     0.224275     0.216631     0.208988     0.201345
 NY phased data points follow
   1.97012E-01 -9.67247E-02  5.09524E-01  1.08658E+00  3.14016E-01  6.17574E-02  5.20727E-01  3.17755E-01  5.30551E-01  6.25310E-01
   4.14784E-01  6.52931E-01  3.82206E-01 -6.94605E-01  5.38098E-01  5.90592E-01  1.13614E+00  3.49935E-01 -1.85188E-01  2.32688E-01
  -2.53219E-01  2.81170E-01 -1.16507E+00  5.87818E-01  7.75391E-02  1.47003E-01  1.41555E+00  2.44859E-02  5.05691E-01  4.99170E-01
   1.03682E-01 -5.42516E-02  2.84362E-01 -2.23174E-01  9.68172E-01  7.98125E-01  3.30573E-01 -9.25844E-01 -2.80536E-01  4.83446E-01
   1.70602E+00 -2.46494E-01  2.63824E-01  2.91115E-01  3.81228E-02 -4.32613E-02  9.35837E-01  7.72618E-01  7.49165E-01  7.52081E-01
   3.25374E-01 -1.79726E-01  5.82711E-01  1.39799E+00  1.04692E+00 -5.00178E-01  2.85346E-01 -4.06987E-01  7.16256E-01  4.26085E-01
   4.44601E-01 -1.14892E+00  5.37885E-01  1.04037E+00  1.59275E-01  8.79018E-01  2.09703E-01  1.39020E-01  1.32674E+00  7.43785E-01
  -5.59350E-02 -1.37454E-01 -4.40584E-02  3.01062E-01  7.89435E-01  9.85202E-01 -3.62816E-01 -3.51670E-01  8.85983E-01  3.99947E-01
   2.98365E-01 -4.91514E-01 -3.35878E-01 -2.27955E-01  1.03847E-01 -2.42480E-01  1.08615E-01 -3.70439E-01 -3.74565E-01  3.72198E-02
  -9.34431E-01 -4.79853E-01 -6.69601E-02 -2.50455E-01 -9.28875E-03 -1.31119E-01  4.41370E-01 -2.27326E-01  7.03076E-02 -1.49785E-01
  -2.70482E-01  8.72154E-01  1.10674E+00 -3.58122E-01  3.40523E-01  1.32306E+00  1.97326E-01  1.02400E+00 -5.72251E-01 -2.15995E-01
  -2.12860E-01  4.11755E-01  4.99060E-01  4.33142E-01  6.69864E-02  6.20338E-01 -6.09444E-01  8.59614E-01  5.41892E-01  4.09263E-02
  -2.34922E-01  8.24246E-01  3.71109E-01  5.09045E-01 -1.10815E-01  7.79691E-02  5.00907E-01  1.08661E+00  1.16178E+00  8.13796E-01
   4.77508E-01  6.01667E-01  5.53021E-01 -4.69537E-02  2.12047E-01  5.15020E-01  1.17535E-01 -3.34381E-01 -5.19605E-02  3.42126E-01
  -3.57070E-01 -1.09853E-01 -3.17193E-01 -4.39389E-01  7.69459E-01 -5.15168E-01  6.58292E-02  2.00482E-01  6.38870E-01 -4.38358E-01
  -1.40538E+00 -8.64685E-01 -1.95012E-02  9.48322E-01  1.73408E-01  3.36687E-01 -9.76143E-02  1.09947E+00  5.00116E-01  2.55501E-01
   8.49630E-02  1.61159E-01  3.13486E-01  1.51463E-01  6.24590E-01 -3.44513E-01 -9.87101E-01 -5.96187E-01  8.06231E-02  5.09648E-01
   3.99129E-01  1.64745E-01 -9.99761E-01 -4.89543E-01  1.11066E+00 -1.66508E-01 -5.45844E-01  3.29785E-01  7.59393E-03 -7.84794E-01
   1.48955E-01  6.03217E-01  3.29798E-01  2.19411E-02  5.38771E-01  2.43726E-01  2.39905E-02  3.64252E-01 -2.26859E-01  6.79701E-01
  -4.72470E-01 -9.33804E-02  1.49597E-02 -1.00084E+00  2.42457E-01 -3.36808E-01 -1.88676E-01 -7.87034E-01 -5.09951E-03 -7.68186E-01
  -2.05711E-01 -1.35695E+00 -8.35557E-01  2.72465E-01 -6.09654E-01 -2.42660E-01 -9.59587E-01 -4.50412E-01  3.77314E-02 -9.00462E-01
   5.48192E-01 -1.87726E-02  2.66886E-02 -6.10790E-02 -1.07311E-01 -1.62125E-01 -2.61299E-01  3.64362E-01 -7.54267E-02 -3.58121E-02
  -1.78448E-01  1.91387E-01 -2.49350E-01  4.15797E-01 -3.25526E-01  9.36641E-01 -6.66145E-01  5.09660E-01 -8.28023E-01 -2.63577E-01
  -6.70393E-01 -6.60923E-01 -1.05641E-02 -1.07313E+00 -7.64112E-01  7.86154E-01  6.58444E-01  8.82433E-01  2.17924E-01 -1.53605E-01
   7.76757E-01 -3.79043E-01  4.49288E-01  1.76895E-01 -1.57708E+00 -5.81396E-01 -1.06699E+00 -3.83634E-02 -3.71078E-02  2.45476E-01
   7.12244E-01  1.87740E-02  6.03078E-01 -5.04155E-01  1.44605E-02  9.33358E-02  1.20891E+00  9.08325E-01 -5.44176E-01 -3.72687E-02
   8.13001E-01  5.93625E-01  1.47265E+00 -1.95716E-01  4.18892E-01  4.28574E-01  3.14318E-01 -3.62575E-01  8.00535E-01  4.29218E-01
   1.17523E+00 -4.14100E-01  1.22476E-01  7.16204E-01 -2.09335E-01 -4.55669E-01 -1.52401E-01 -7.02380E-02 -3.07332E-01  6.69314E-01
  -7.33600E-01 -1.30058E-01  2.08903E-01 -6.76590E-01  5.59121E-01  5.49586E-01 -2.93407E-01 -2.45472E-02 -4.51686E-01  3.19129E-01
   1.75874E-01  3.74010E-01  2.80137E-01  4.35996E-01  6.26939E-01  2.13176E-02  8.73658E-02  7.95413E-04  4.92877E-01  6.88202E-01
  -6.79278E-01  3.85508E-03 -7.34881E-01 -7.16049E-01 -9.87165E-01 -7.93882E-01 -2.79261E-01 -5.19958E-01  1.88316E-01 -1.14031E+00
  -9.21024E-01  8.38765E-01 -6.20624E-01 -5.37177E-01 -3.11588E-01 -6.93372E-01 -1.14168E+00  5.78933E-01 -2.58268E-01 -6.67733E-02
  -7.91784E-01 -5.24863E-01 -1.20330E+00  1.28627E-01 -2.34074E-01 -4.66557E-02 -5.56480E-01 -2.27759E-01 -2.12936E-01 -2.29849E-01
   3.65164E-01  1.53460E+00  1.51315E+00  1.43550E-01  6.70009E-01 -2.80855E-01  6.38688E-02  1.29862E-01  5.45072E-01 -1.86987E-02
   4.50907E-01  2.89575E-01  1.94861E+00  5.95987E-01  1.24688E-01  1.67895E+00 -4.91129E-02  1.43157E+00  1.52552E+00  7.12070E-01
   4.20804E-01  3.96874E-01  1.45675E+00  8.77164E-01  1.27195E+00  1.50616E+00  8.77210E-01  1.05437E+00  1.28194E+00  1.21827E+00
   1.75901E+00  1.32597E+00 -1.06039E-01  1.12042E+00  1.04112E+00  1.15275E+00  5.36046E-01  6.81611E-01  8.54860E-02  1.01873E+00
  -6.56449E-01  1.98218E-01  3.61916E-01  6.36605E-01 -4.62740E-01  2.30206E-01 -3.38193E-01 -1.62511E+00 -5.19506E-01 -1.41025E-01
  -1.00756E-01  5.84619E-01  1.52127E-02 -5.19946E-01 -3.63598E-01 -7.70523E-01  6.90407E-01 -8.98075E-01  2.90615E-01 -1.02978E+00
   1.28360E-02 -4.87634E-01 -1.42067E-01  5.33541E-01  4.69094E-01  4.14414E-02 -5.84373E-01 -5.36464E-01  1.58812E-01  8.35010E-02
  -3.07096E-01  1.41021E-01 -1.03252E-01 -4.86047E-01  4.20598E-01 -4.39590E-01 -3.86677E-01 -1.23254E+00  8.28325E-01  8.37973E-02
   1.78921E-01  3.36727E-01 -3.62050E-01 -1.33037E-01 -1.35403E+00 -1.21211E+00  9.09128E-02 -3.11323E-01 -2.58649E-01 -2.33415E-01
   2.70768E-01  5.62460E-01 -5.92363E-01  2.67366E-01  7.03569E-02 -5.33521E-01 -3.86259E-01 -4.76702E-01  3.38759E-01 -3.32700E-01
  -4.11135E-01 -1.07106E-01  8.87868E-01 -3.80439E-01  8.60074E-01  1.41973E-02 -6.87546E-01  1.66251E-01 -3.84266E-01 -6.86851E-01
   2.59427E-01 -4.00428E-01  3.01342E-01 -3.91800E-02 -5.42322E-01  5.99564E-01 -2.16507E-01  9.27921E-01 -2.03797E-01  1.16559E+00
  -2.81097E-01 -1.52862E-01 -2.66795E-01  4.25375E-01  8.29386E-02  4.56759E-01  7.95233E-02  6.59281E-01  1.41572E+00 -1.82576E-01
  -2.98912E-01 -3.07292E-02 -5.21642E-01 -1.71018E-01  7.54467E-01 -5.64901E-01  8.50134E-01  2.15966E-01  5.23986E-01  8.57738E-01
  -7.58259E-02 -1.91334E-01 -6.96868E-01 -4.80977E-01  1.06553E+00  4.16893E-01  3.24807E-02 -7.80681E-01  1.80220E-02  5.11817E-01
  -6.88565E-01  7.12018E-01 -7.71384E-01  5.77321E-01 -3.64666E-01 -3.72517E-01 -3.07638E-01 -3.22010E-01  8.68668E-01  7.07807E-01
   2.02848E-01  4.16855E-01  5.56865E-01  8.44317E-02 -3.22162E-01  7.34025E-01  6.75101E-01 -3.40762E-01
 NY points of the fit to the data follow
   4.70673E-01  5.10729E-01  4.23161E-01  4.53429E-01  3.76937E-01  4.16967E-01  3.52709E-01  4.16569E-01  3.66897E-01  4.46316E-01
   3.95222E-01  4.59112E-01  3.96377E-01  4.25135E-01  3.55328E-01  3.60547E-01  3.01770E-01  2.93656E-01  2.42290E-01  2.18366E-01
   1.80130E-01  1.51552E-01  1.36043E-01  1.16739E-01  1.29636E-01  1.21113E-01  1.51270E-01  1.46749E-01  1.92994E-01  1.85606E-01
   2.37685E-01  2.22068E-01  2.73142E-01  2.70788E-01  3.20716E-01  3.06651E-01  3.28092E-01  3.14182E-01  3.30502E-01  3.25632E-01
   3.36464E-01  3.43831E-01  3.56524E-01  3.81939E-01  4.04528E-01  4.48284E-01  4.84635E-01  5.22862E-01  5.49010E-01  5.54055E-01
   5.50201E-01  5.21654E-01  4.95515E-01  4.53631E-01  4.27019E-01  3.91349E-01  3.73445E-01  3.39072E-01  3.29556E-01  2.96900E-01
   2.96637E-01  2.69267E-01  2.83427E-01  2.62386E-01  2.87301E-01  2.68742E-01  2.94516E-01  2.75828E-01  3.02177E-01  2.81175E-01
   3.07138E-01  2.81968E-01  3.05189E-01  2.70843E-01  2.85024E-01  2.49360E-01  2.59436E-01  2.23039E-01  2.25913E-01  1.82158E-01
   1.77942E-01  1.24551E-01  1.14308E-01  5.36152E-02  3.75206E-02 -2.66007E-02 -3.86220E-02 -9.85050E-02 -8.63321E-02 -1.05416E-01
  -9.04927E-02 -9.57042E-02 -7.14786E-02 -4.63106E-02 -2.23059E-02  3.20374E-02  4.34469E-02  1.28254E-01  1.22771E-01  2.42185E-01
   2.11602E-01  3.52671E-01  2.91987E-01  4.32385E-01  3.36298E-01  4.43607E-01  3.22376E-01  3.84117E-01  2.63403E-01  2.89023E-01
   1.88351E-01  1.96350E-01  1.31447E-01  1.51853E-01  9.42158E-02  1.01151E-01  6.53960E-02  9.80677E-02  8.30894E-02  1.61870E-01
   1.52057E-01  2.71663E-01  2.53086E-01  4.10829E-01  3.70624E-01  5.53164E-01  4.80671E-01  6.63768E-01  5.46978E-01  6.90619E-01
   5.38852E-01  6.23431E-01  4.64177E-01  4.97409E-01  3.55218E-01  3.55877E-01  2.33587E-01  2.00412E-01  1.11257E-01  6.41875E-02
   1.59292E-02 -2.49043E-02 -3.63025E-02 -5.86854E-02 -5.36437E-02 -6.39314E-02 -5.84326E-02 -6.68026E-02 -6.26105E-02 -6.90246E-02
  -6.69287E-02 -7.32671E-02 -7.48437E-02 -8.16110E-02 -8.51796E-02 -9.07189E-02 -9.46898E-02 -9.84782E-02 -1.01885E-01 -1.04437E-01
  -1.07530E-01 -1.09398E-01 -1.13192E-01 -1.13543E-01 -1.16686E-01 -1.15800E-01 -1.20215E-01 -1.20092E-01 -1.25100E-01 -1.25610E-01
  -1.30054E-01 -1.32205E-01 -1.36358E-01 -1.40245E-01 -1.42297E-01 -1.46896E-01 -1.45925E-01 -1.51368E-01 -1.47044E-01 -1.53883E-01
  -1.47619E-01 -1.53992E-01 -1.46838E-01 -1.53010E-01 -1.46013E-01 -1.48064E-01 -1.39804E-01 -1.36982E-01 -1.28777E-01 -1.22361E-01
  -1.18138E-01 -1.08044E-01 -1.10242E-01 -9.97898E-02 -1.09086E-01 -9.86743E-02 -1.15886E-01 -9.74491E-02 -1.10255E-01 -8.77088E-02
  -9.99455E-02 -7.55263E-02 -8.89905E-02 -6.79634E-02 -8.51244E-02 -7.05607E-02 -9.21431E-02 -8.22480E-02 -1.03878E-01 -9.59385E-02
  -1.13019E-01 -1.03800E-01 -1.12117E-01 -1.00549E-01 -9.93810E-02 -8.65442E-02 -7.90868E-02 -6.66389E-02 -5.63567E-02 -4.15838E-02
  -2.80662E-02 -1.73355E-02 -9.91114E-03 -1.39517E-03  1.31834E-03  3.27537E-03 -2.14030E-03 -1.02793E-03 -1.24943E-02 -1.46715E-02
  -2.71358E-02 -2.74087E-02 -3.96149E-02 -3.68265E-02 -4.70059E-02 -4.26821E-02 -4.93516E-02 -4.38183E-02 -4.66031E-02 -4.58928E-02
  -4.53431E-02 -5.06294E-02 -4.78155E-02 -5.92570E-02 -5.26472E-02 -5.97559E-02 -2.30208E-02 -2.03937E-02  9.18593E-03  1.70585E-02
   5.51201E-02  7.32380E-02  1.18974E-01  1.48379E-01  1.99824E-01  2.38555E-01  2.95282E-01  3.38983E-01  3.87874E-01  4.28060E-01
   4.54863E-01  4.81588E-01  4.67619E-01  4.74136E-01  4.20327E-01  4.08525E-01  3.35068E-01  3.13948E-01  2.41211E-01  2.16302E-01
   1.42235E-01  1.15299E-01  5.30028E-02  3.02240E-02 -9.89691E-03 -2.37558E-02 -3.84784E-02 -4.35342E-02 -4.56168E-02 -4.67781E-02
  -4.76748E-02 -4.82403E-02 -4.86267E-02 -4.88196E-02 -4.88408E-02 -4.86735E-02 -4.84554E-02 -4.79719E-02 -4.75259E-02 -4.67300E-02
  -4.60677E-02 -4.49903E-02 -4.41458E-02 -4.28403E-02 -4.18915E-02 -4.04803E-02 -3.94863E-02 -3.80439E-02 -3.69736E-02 -3.54973E-02
  -3.43046E-02 -3.27014E-02 -3.12906E-02 -2.95001E-02 -2.78144E-02 -2.58071E-02 -2.38231E-02 -2.15610E-02 -1.92606E-02 -1.67075E-02
  -1.40886E-02 -1.11921E-02 -8.19495E-03 -4.86686E-03 -1.39501E-03  2.46156E-03  6.51750E-03  1.10448E-02  1.58678E-02  2.12819E-02
   2.71168E-02  3.36989E-02  4.08996E-02  4.91097E-02  5.82743E-02  6.88733E-02  8.09816E-02  9.52920E-02  1.12241E-01  1.33145E-01
   1.59639E-01  1.95865E-01  2.52303E-01  3.41794E-01  3.60410E-01  3.92796E-01  4.14733E-01  4.59300E-01  4.72804E-01  5.05177E-01
   5.01341E-01  6.09891E-01  6.20866E-01  7.09465E-01  6.80468E-01  7.54649E-01  7.01013E-01  7.63927E-01  7.00018E-01  7.48391E-01
   7.13209E-01  8.03891E-01  8.26948E-01  9.81737E-01  1.03296E+00  1.21278E+00  1.22335E+00  1.30475E+00  1.25466E+00  1.22931E+00
   1.13358E+00  1.05652E+00  9.52518E-01  8.89211E-01  7.93490E-01  6.98021E-01  5.98631E-01  4.72044E-01  3.80852E-01  2.64845E-01
   1.93412E-01  1.26018E-01  8.48813E-02  5.82295E-02  3.92345E-02  2.52257E-02  1.43926E-02  6.04200E-03 -6.56297E-04 -5.85036E-03
  -1.00443E-02 -1.31849E-02 -1.56482E-02 -1.72991E-02 -1.84550E-02 -1.89371E-02 -1.90279E-02 -1.85266E-02 -1.77039E-02 -1.63548E-02
  -1.47474E-02 -1.26758E-02 -1.04101E-02 -7.75357E-03 -4.99042E-03 -1.93972E-03  1.10189E-03  4.30481E-03  7.36237E-03  1.04336E-02
   1.32030E-02  1.58271E-02  1.79968E-02  1.98807E-02  2.11860E-02  2.20997E-02  2.23525E-02  2.21615E-02  2.12917E-02  1.99945E-02
   1.80662E-02  1.57850E-02  1.29714E-02  9.92607E-03  6.48681E-03  2.96364E-03 -8.04553E-04 -4.51310E-03 -8.33126E-03 -1.19649E-02
  -1.55968E-02 -1.89510E-02 -2.22307E-02 -2.51800E-02 -2.80183E-02 -3.05041E-02 -3.28694E-02 -3.48862E-02 -3.67977E-02 -3.83835E-02
  -3.98902E-02 -4.10990E-02 -4.22580E-02 -4.31508E-02 -4.40260E-02 -4.46654E-02 -4.53137E-02 -4.57498E-02 -4.62170E-02 -4.64936E-02
  -4.68214E-02 -4.69751E-02 -4.71930E-02 -4.72480E-02 -4.73784E-02 -4.73569E-02 -4.74204E-02 -4.73388E-02 -4.73471E-02 -4.72152E-02
  -4.71788E-02 -4.70080E-02 -4.69367E-02 -4.67334E-02 -4.66313E-02 -4.63996E-02 -4.62725E-02 -4.60190E-02 -4.58715E-02 -4.55980E-02
  -4.54310E-02 -4.51400E-02 -4.49577E-02 -4.46529E-02 -4.44568E-02 -4.41381E-02 -4.39283E-02 -4.35976E-02 -4.33773E-02 -4.30366E-02
  -4.28055E-02 -4.24535E-02 -4.22119E-02 -4.18507E-02 -4.16005E-02 -4.12302E-02 -4.09699E-02 -4.05893E-02 -4.03194E-02 -3.99300E-02
  -3.96512E-02 -3.92516E-02 -3.89614E-02 -3.85504E-02 -3.82494E-02 -3.78275E-02 -3.75142E-02 -3.70783E-02 -3.67498E-02 -3.62983E-02
  -3.59537E-02 -3.54845E-02 -3.51194E-02 -3.46268E-02 -3.42360E-02 -3.37156E-02 -3.32933E-02 -3.27359E-02
 NY background values follow
    -1.662E-01   -1.659E-01   -1.657E-01   -1.654E-01   -1.651E-01   -1.648E-01   -1.645E-01   -1.643E-01   -1.640E-01   -1.637E-01
    -1.634E-01   -1.631E-01   -1.628E-01   -1.625E-01   -1.623E-01   -1.620E-01   -1.617E-01   -1.614E-01   -1.611E-01   -1.608E-01
    -1.606E-01   -1.603E-01   -1.600E-01   -1.597E-01   -1.594E-01   -1.591E-01   -1.589E-01   -1.586E-01   -1.583E-01   -1.580E-01
    -1.577E-01   -1.574E-01   -1.571E-01   -1.569E-01   -1.566E-01   -1.563E-01   -1.560E-01   -1.557E-01   -1.554E-01   -1.552E-01
    -1.549E-01   -1.546E-01   -1.543E-01   -1.540E-01   -1.537E-01   -1.534E-01   -1.532E-01   -1.529E-01   -1.526E-01   -1.523E-01
    -1.520E-01   -1.517E-01   -1.514E-01   -1.512E-01   -1.509E-01   -1.506E-01   -1.503E-01   -1.500E-01   -1.497E-01   -1.494E-01
    -1.491E-01   -1.489E-01   -1.486E-01   -1.483E-01   -1.480E-01   -1.477E-01   -1.474E-01   -1.471E-01   -1.468E-01   -1.466E-01
    -1.463E-01   -1.460E-01   -1.457E-01   -1.454E-01   -1.451E-01   -1.448E-01   -1.445E-01   -1.443E-01   -1.440E-01   -1.437E-01
    -1.434E-01   -1.431E-01   -1.428E-01   -1.425E-01   -1.422E-01   -1.420E-01   -1.417E-01   -1.414E-01   -1.411E-01   -1.408E-01
    -1.405E-01   -1.402E-01   -1.399E-01   -1.396E-01   -1.394E-01   -1.391E-01   -1.388E-01   -1.385E-01   -1.382E-01   -1.379E-01
    -1.376E-01   -1.373E-01   -1.370E-01   -1.368E-01   -1.365E-01   -1.362E-01   -1.359E-01   -1.356E-01   -1.353E-01   -1.350E-01
    -1.347E-01   -1.344E-01   -1.342E-01   -1.339E-01   -1.336E-01   -1.333E-01   -1.330E-01   -1.327E-01   -1.324E-01   -1.321E-01
    -1.318E-01   -1.315E-01   -1.313E-01   -1.310E-01   -1.307E-01   -1.304E-01   -1.301E-01   -1.298E-01   -1.295E-01   -1.292E-01
    -1.289E-01   -1.286E-01   -1.283E-01   -1.281E-01   -1.278E-01   -1.275E-01   -1.272E-01   -1.269E-01   -1.266E-01   -1.263E-01
    -1.260E-01   -1.257E-01   -1.254E-01   -1.251E-01   -1.249E-01   -1.246E-01   -1.243E-01   -1.240E-01   -1.237E-01   -1.234E-01
    -1.231E-01   -1.228E-01   -1.225E-01   -1.222E-01   -1.219E-01   -1.216E-01   -1.214E-01   -1.211E-01   -1.208E-01   -1.205E-01
    -1.202E-01   -1.199E-01   -1.196E-01   -1.193E-01   -1.190E-01   -1.187E-01   -1.184E-01   -1.181E-01   -1.179E-01   -1.176E-01
    -1.173E-01   -1.170E-01   -1.167E-01   -1.164E-01   -1.161E-01   -1.158E-01   -1.155E-01   -1.152E-01   -1.149E-01   -1.146E-01
    -1.143E-01   -1.140E-01   -1.138E-01   -1.135E-01   -1.132E-01   -1.129E-01   -1.126E-01   -1.123E-01   -1.120E-01   -1.117E-01
    -1.114E-01   -1.111E-01   -1.108E-01   -1.105E-01   -1.102E-01   -1.099E-01   -1.097E-01   -1.094E-01   -1.091E-01   -1.088E-01
    -1.085E-01   -1.082E-01   -1.079E-01   -1.076E-01   -1.073E-01   -1.070E-01   -1.067E-01   -1.064E-01   -1.061E-01   -1.058E-01
    -1.055E-01   -1.053E-01   -1.050E-01   -1.047E-01   -1.044E-01   -1.041E-01   -1.038E-01   -1.035E-01   -1.032E-01   -1.029E-01
    -1.026E-01   -1.023E-01   -1.020E-01   -1.017E-01   -1.014E-01   -1.011E-01   -1.008E-01   -1.005E-01   -1.003E-01   -9.996E-02
    -9.967E-02   -9.937E-02   -9.908E-02   -9.878E-02   -9.849E-02   -9.819E-02   -9.790E-02   -9.761E-02   -9.731E-02   -9.702E-02
    -9.672E-02   -9.643E-02   -9.613E-02   -9.584E-02   -9.554E-02   -9.525E-02   -9.495E-02   -9.466E-02   -9.437E-02   -9.407E-02
    -9.378E-02   -9.348E-02   -9.319E-02   -9.289E-02   -9.260E-02   -9.230E-02   -9.201E-02   -9.171E-02   -9.142E-02   -9.112E-02
    -9.083E-02   -9.053E-02   -9.024E-02   -8.994E-02   -8.965E-02   -8.935E-02   -8.906E-02   -8.876E-02   -8.847E-02   -8.817E-02
    -8.788E-02   -8.758E-02   -8.729E-02   -8.699E-02   -8.670E-02   -8.640E-02   -8.611E-02   -8.581E-02   -8.552E-02   -8.522E-02
    -8.493E-02   -8.463E-02   -8.434E-02   -8.404E-02   -8.375E-02   -8.345E-02   -8.315E-02   -8.286E-02   -8.256E-02   -8.227E-02
    -8.197E-02   -8.168E-02   -8.138E-02   -8.109E-02   -8.079E-02   -8.050E-02   -8.020E-02   -7.991E-02   -7.961E-02   -7.931E-02
    -7.902E-02   -7.872E-02   -7.843E-02   -7.813E-02   -7.784E-02   -7.754E-02   -7.725E-02   -7.695E-02   -7.665E-02   -7.636E-02
    -7.606E-02   -7.577E-02   -7.547E-02   -7.518E-02   -7.488E-02   -7.459E-02   -7.429E-02   -7.399E-02   -7.370E-02   -7.340E-02
    -7.311E-02   -7.281E-02   -7.252E-02   -7.222E-02   -7.193E-02   -7.163E-02   -7.133E-02   -7.104E-02   -7.074E-02   -7.045E-02
    -7.015E-02   -6.986E-02   -6.956E-02   -6.926E-02   -6.897E-02   -6.867E-02   -6.838E-02   -6.808E-02   -6.779E-02   -6.749E-02
    -6.719E-02   -6.690E-02   -6.660E-02   -6.631E-02   -6.601E-02   -6.572E-02   -6.542E-02   -6.512E-02   -6.483E-02   -6.453E-02
    -6.424E-02   -6.394E-02   -6.365E-02   -6.335E-02   -6.305E-02   -6.276E-02   -6.246E-02   -6.217E-02   -6.187E-02   -6.158E-02
    -6.128E-02   -6.099E-02   -6.069E-02   -6.039E-02   -6.010E-02   -5.980E-02   -5.951E-02   -5.921E-02   -5.892E-02   -5.862E-02
    -5.832E-02   -5.803E-02   -5.773E-02   -5.744E-02   -5.714E-02   -5.685E-02   -5.655E-02   -5.626E-02   -5.596E-02   -5.566E-02
    -5.537E-02   -5.507E-02   -5.478E-02   -5.448E-02   -5.419E-02   -5.389E-02   -5.360E-02   -5.330E-02   -5.300E-02   -5.271E-02
    -5.241E-02   -5.212E-02   -5.182E-02   -5.153E-02   -5.123E-02   -5.094E-02   -5.064E-02   -5.035E-02   -5.005E-02   -4.976E-02
    -4.946E-02   -4.916E-02   -4.887E-02   -4.857E-02   -4.828E-02   -4.798E-02   -4.769E-02   -4.739E-02   -4.710E-02   -4.680E-02
    -4.651E-02   -4.621E-02   -4.592E-02   -4.562E-02   -4.533E-02   -4.503E-02   -4.474E-02   -4.444E-02   -4.415E-02   -4.385E-02
    -4.356E-02   -4.326E-02   -4.297E-02   -4.267E-02   -4.238E-02   -4.208E-02   -4.179E-02   -4.149E-02   -4.120E-02   -4.090E-02
    -4.061E-02   -4.031E-02   -4.002E-02   -3.972E-02   -3.943E-02   -3.913E-02   -3.884E-02   -3.854E-02   -3.825E-02   -3.795E-02
    -3.766E-02   -3.736E-02   -3.707E-02   -3.678E-02   -3.648E-02   -3.619E-02   -3.589E-02   -3.560E-02   -3.530E-02   -3.501E-02
    -3.471E-02   -3.442E-02   -3.413E-02   -3.383E-02   -3.354E-02   -3.324E-02   -3.295E-02   -3.265E-02   -3.236E-02   -3.207E-02
    -3.177E-02   -3.148E-02   -3.118E-02   -3.089E-02   -3.060E-02   -3.030E-02   -3.001E-02   -2.971E-02   -2.942E-02   -2.913E-02
    -2.883E-02   -2.854E-02   -2.824E-02   -2.795E-02   -2.766E-02   -2.736E-02   -2.707E-02   -2.678E-02   -2.648E-02   -2.619E-02
    -2.589E-02   -2.560E-02   -2.531E-02   -2.501E-02   -2.472E-02   -2.443E-02   -2.413E-02   -2.384E-02   -2.355E-02   -2.325E-02
    -2.296E-02   -2.267E-02   -2.237E-02   -2.208E-02   -2.179E-02   -2.149E-02   -2.120E-02   -2.091E-02
 Asp      Conc. = 5.03E+00
