 LCModel (Version 6.3-1L) Copyright: S.W. Provencher.          Ref.: Magn. Reson. Med. 30:672-679 (1993).                
 Slice#2 Row#11 Col#2  PD_05_press_1_raw_act
 36 lines in following concentration table = NCONC+1
    Conc.  %SD /Cr+PCr  Metabolite                                         
    0.000 999%   0.000 Ala                                                 
    0.575 999% 1.6E-02 Asp                                                 
    0.000 999%   0.000 Cr                                                  
   35.658  45%   1.000 PCr                                                 
    5.498 180%   0.154 GABA                                                
    1.970 502% 5.5E-02 Glc                                                 
    6.384 999%   0.179 Gln                                                 
    0.000 999%   0.000 Glu                                                 
    9.190  68%   0.258 GPC                                                 
    0.000 999%   0.000 PCh                                                 
    0.000 999%   0.000 GSH                                                 
   49.226 179%   1.380 Ins                                                 
    7.461 631%   0.209 Lac                                                 
   55.039  35%   1.544 NAA                                                 
    0.000 999%   0.000 NAAG                                                
    3.252  98% 9.1E-02 Scyllo                                              
    9.100 180%   0.255 Tau                                                 
    0.000 999%   0.000 -CrCH2                                              
    9.190  68%   0.258 GPC+PCh                                             
   55.039  35%   1.544 NAA+NAAG                                            
   35.658  45%   1.000 Cr+PCr                                              
    6.384 999%   0.179 Glu+Gln                                             
  381.038  46%  10.686 Lip13a                                              
   38.536 134%   1.081 Lip13b                                              
    0.000 999%   0.000 Lip09                                               
  197.254  30%   5.532 MM09                                                
  178.784  29%   5.014 Lip20                                               
  325.491  28%   9.128 MM20                                                
   58.745  37%   1.647 MM12                                                
  199.555  31%   5.596 MM14                                                
   89.791  46%   2.518 MM17                                                
  419.573  33%  11.766 Lip13a+Lip13b                                       
  677.874  23%  19.010 MM14+Lip13a+Lip13b+MM12                             
  197.254  30%   5.532 MM09+Lip09                                          
  504.275  19%  14.142 MM20+Lip20                                          
   6 lines in following misc. output table
  FWHM = 0.061 ppm    S/N =   1                                            
  Data shift = 0.008 ppm                                                   
  Ph: 134 deg      -5.3 deg/ppm                                            
  alphaB,S = 5.2E-01,   8.3E+01                                            
   14 spline knots.   Ns = 7(1)                                            
   2 inflections.     1 extrema                                            
  498 points on ppm-axis = NY
      4.000000     3.992357     3.984714     3.977070     3.969427     3.961784     3.954141     3.946497     3.938854     3.931211
      3.923568     3.915925     3.908281     3.900638     3.892995     3.885352     3.877708     3.870065     3.862422     3.854779
      3.847136     3.839492     3.831849     3.824206     3.816563     3.808919     3.801276     3.793633     3.785990     3.778347
      3.770703     3.763060     3.755417     3.747774     3.740130     3.732487     3.724844     3.717201     3.709558     3.701914
      3.694271     3.686628     3.678985     3.671341     3.663698     3.656055     3.648412     3.640769     3.633125     3.625482
      3.617839     3.610196     3.602552     3.594909     3.587266     3.579623     3.571980     3.564336     3.556693     3.549050
      3.541407     3.533763     3.526120     3.518477     3.510834     3.503191     3.495547     3.487904     3.480261     3.472618
      3.464974     3.457331     3.449688     3.442045     3.434402     3.426758     3.419115     3.411472     3.403829     3.396185
      3.388542     3.380899     3.373256     3.365613     3.357969     3.350326     3.342683     3.335040     3.327396     3.319753
      3.312110     3.304467     3.296824     3.289180     3.281537     3.273894     3.266251     3.258607     3.250964     3.243321
      3.235678     3.228034     3.220391     3.212748     3.205105     3.197462     3.189818     3.182175     3.174532     3.166889
      3.159245     3.151602     3.143959     3.136316     3.128673     3.121029     3.113386     3.105743     3.098100     3.090456
      3.082813     3.075170     3.067527     3.059884     3.052240     3.044597     3.036954     3.029311     3.021667     3.014024
      3.006381     2.998738     2.991095     2.983451     2.975808     2.968165     2.960522     2.952878     2.945235     2.937592
      2.929949     2.922306     2.914662     2.907019     2.899376     2.891733     2.884089     2.876446     2.868803     2.861160
      2.853517     2.845873     2.838230     2.830587     2.822944     2.815300     2.807657     2.800014     2.792371     2.784728
      2.777084     2.769441     2.761798     2.754155     2.746511     2.738868     2.731225     2.723582     2.715939     2.708295
      2.700652     2.693009     2.685366     2.677722     2.670079     2.662436     2.654793     2.647150     2.639506     2.631863
      2.624220     2.616577     2.608933     2.601290     2.593647     2.586004     2.578361     2.570717     2.563074     2.555431
      2.547788     2.540144     2.532501     2.524858     2.517215     2.509572     2.501928     2.494285     2.486642     2.478999
      2.471355     2.463712     2.456069     2.448426     2.440783     2.433139     2.425496     2.417853     2.410210     2.402566
      2.394923     2.387280     2.379637     2.371994     2.364350     2.356707     2.349064     2.341421     2.333777     2.326134
      2.318491     2.310848     2.303205     2.295561     2.287918     2.280275     2.272632     2.264988     2.257345     2.249702
      2.242059     2.234416     2.226772     2.219129     2.211486     2.203843     2.196199     2.188556     2.180913     2.173270
      2.165627     2.157983     2.150340     2.142697     2.135054     2.127410     2.119767     2.112124     2.104481     2.096838
      2.089194     2.081551     2.073908     2.066265     2.058621     2.050978     2.043335     2.035692     2.028049     2.020405
      2.012762     2.005119     1.997476     1.989833     1.982190     1.974546     1.966903     1.959260     1.951617     1.943974
      1.936331     1.928688     1.921045     1.913402     1.905759     1.898115     1.890472     1.882829     1.875186     1.867543
      1.859900     1.852257     1.844614     1.836971     1.829327     1.821684     1.814041     1.806398     1.798755     1.791112
      1.783469     1.775826     1.768183     1.760540     1.752896     1.745253     1.737610     1.729967     1.722324     1.714681
      1.707038     1.699395     1.691752     1.684108     1.676465     1.668822     1.661179     1.653536     1.645893     1.638250
      1.630607     1.622964     1.615321     1.607677     1.600034     1.592391     1.584748     1.577105     1.569462     1.561819
      1.554176     1.546533     1.538890     1.531246     1.523603     1.515960     1.508317     1.500674     1.493031     1.485388
      1.477745     1.470102     1.462458     1.454815     1.447172     1.439529     1.431886     1.424243     1.416600     1.408957
      1.401314     1.393671     1.386027     1.378384     1.370741     1.363098     1.355455     1.347812     1.340169     1.332526
      1.324883     1.317240     1.309596     1.301953     1.294310     1.286667     1.279024     1.271381     1.263738     1.256095
      1.248452     1.240808     1.233165     1.225522     1.217879     1.210236     1.202593     1.194950     1.187307     1.179664
      1.172021     1.164377     1.156734     1.149091     1.141448     1.133805     1.126162     1.118519     1.110876     1.103233
      1.095590     1.087946     1.080303     1.072660     1.065017     1.057374     1.049731     1.042088     1.034445     1.026802
      1.019158     1.011515     1.003872     0.996229     0.988586     0.980943     0.973300     0.965657     0.958014     0.950371
      0.942727     0.935084     0.927441     0.919798     0.912155     0.904512     0.896869     0.889226     0.881583     0.873940
      0.866296     0.858653     0.851010     0.843367     0.835724     0.828081     0.820438     0.812795     0.805152     0.797508
      0.789865     0.782222     0.774579     0.766936     0.759293     0.751650     0.744007     0.736364     0.728721     0.721077
      0.713434     0.705791     0.698148     0.690505     0.682862     0.675219     0.667576     0.659933     0.652290     0.644646
      0.637003     0.629360     0.621717     0.614074     0.606431     0.598788     0.591145     0.583502     0.575858     0.568215
      0.560572     0.552929     0.545286     0.537643     0.530000     0.522357     0.514714     0.507071     0.499427     0.491784
      0.484141     0.476498     0.468855     0.461212     0.453569     0.445925     0.438282     0.430639     0.422996     0.415353
      0.407710     0.400067     0.392424     0.384780     0.377137     0.369494     0.361851     0.354208     0.346565     0.338922
      0.331278     0.323635     0.315992     0.308349     0.300706     0.293063     0.285420     0.277777     0.270133     0.262490
      0.254847     0.247204     0.239561     0.231918     0.224275     0.216631     0.208988     0.201345
 NY phased data points follow
   6.59631E+01  6.28157E+01  6.42616E+01  6.37623E+01  6.22404E+01  6.10361E+01  6.27675E+01  6.01010E+01  5.99462E+01  5.94963E+01
   5.95410E+01  5.72748E+01  5.70945E+01  5.74744E+01  5.64654E+01  5.52909E+01  5.48348E+01  5.43945E+01  5.48414E+01  5.08718E+01
   5.21201E+01  5.17641E+01  5.05997E+01  5.20858E+01  4.92731E+01  4.85383E+01  4.90116E+01  4.73988E+01  4.77148E+01  4.63897E+01
   4.61123E+01  4.79655E+01  4.46672E+01  4.57677E+01  4.44091E+01  4.40030E+01  4.43495E+01  4.40276E+01  4.40352E+01  4.22914E+01
   4.25816E+01  4.34862E+01  4.10466E+01  4.19906E+01  4.19315E+01  4.15674E+01  4.03970E+01  4.08995E+01  4.05258E+01  3.98445E+01
   4.11663E+01  3.85150E+01  3.86157E+01  3.85280E+01  3.83223E+01  3.83674E+01  3.73278E+01  3.71563E+01  3.59509E+01  3.53099E+01
   3.38986E+01  3.58911E+01  3.46751E+01  3.37835E+01  3.36445E+01  3.49853E+01  3.40788E+01  3.35044E+01  3.33518E+01  3.27029E+01
   3.26821E+01  3.31972E+01  3.32421E+01  3.18469E+01  3.09448E+01  3.23993E+01  2.96697E+01  3.06430E+01  3.10462E+01  3.16659E+01
   2.91301E+01  2.87800E+01  2.93146E+01  2.89618E+01  2.89511E+01  2.97226E+01  2.99716E+01  2.84427E+01  2.69344E+01  2.87159E+01
   2.76557E+01  2.64718E+01  2.65651E+01  2.45917E+01  2.69741E+01  2.74006E+01  2.56959E+01  2.65004E+01  2.58009E+01  2.52078E+01
   2.58957E+01  2.42297E+01  2.44101E+01  2.45839E+01  2.60428E+01  2.24435E+01  2.42367E+01  2.32239E+01  2.35494E+01  2.21583E+01
   2.06664E+01  2.36597E+01  2.17640E+01  2.20309E+01  2.12284E+01  2.13061E+01  2.07487E+01  2.05648E+01  1.95971E+01  2.15649E+01
   2.12155E+01  2.02111E+01  2.04007E+01  1.94828E+01  1.93553E+01  2.02299E+01  1.94857E+01  2.02464E+01  2.06265E+01  1.82276E+01
   1.99598E+01  1.92947E+01  1.80801E+01  1.85290E+01  1.91033E+01  1.86829E+01  1.75775E+01  1.68279E+01  1.62684E+01  1.72525E+01
   1.66942E+01  1.81760E+01  1.78185E+01  1.71722E+01  1.73009E+01  1.52753E+01  1.74843E+01  1.58301E+01  1.64199E+01  1.66087E+01
   1.75556E+01  1.82356E+01  1.62667E+01  1.73296E+01  1.66836E+01  1.67446E+01  1.52625E+01  1.66092E+01  1.58850E+01  1.44500E+01
   1.47057E+01  1.46450E+01  1.50562E+01  1.56216E+01  1.44418E+01  1.36583E+01  1.47830E+01  1.44270E+01  1.40319E+01  1.49998E+01
   1.42897E+01  1.41255E+01  1.42902E+01  1.35024E+01  1.30323E+01  1.56589E+01  1.23327E+01  1.38173E+01  1.30185E+01  1.27387E+01
   1.27435E+01  1.10568E+01  1.19106E+01  1.24337E+01  1.20437E+01  1.15723E+01  1.25174E+01  1.25946E+01  1.19039E+01  1.15333E+01
   1.09017E+01  1.18432E+01  9.72779E+00  1.19656E+01  1.27689E+01  1.00426E+01  1.06674E+01  1.04980E+01  1.03694E+01  1.14886E+01
   1.13041E+01  1.06340E+01  1.18090E+01  1.18908E+01  1.09115E+01  1.01559E+01  1.43043E+01  1.25338E+01  1.34309E+01  1.05551E+01
   1.31500E+01  1.11192E+01  1.27048E+01  1.37564E+01  1.25562E+01  1.35571E+01  1.30447E+01  1.33083E+01  1.20463E+01  1.29065E+01
   1.47170E+01  1.46855E+01  1.30638E+01  1.29812E+01  1.54670E+01  1.59550E+01  1.69765E+01  1.50489E+01  1.65824E+01  1.68101E+01
   1.60955E+01  1.62178E+01  1.61201E+01  1.77009E+01  1.66631E+01  1.72879E+01  1.86530E+01  1.71325E+01  1.70003E+01  1.71807E+01
   1.75069E+01  1.70071E+01  1.75368E+01  1.87292E+01  1.86563E+01  1.73104E+01  1.67678E+01  1.86178E+01  1.78397E+01  1.94555E+01
   1.89228E+01  1.96196E+01  1.77980E+01  1.74090E+01  1.88785E+01  1.89238E+01  1.93652E+01  1.94862E+01  2.04581E+01  1.97270E+01
   2.25521E+01  1.94731E+01  2.08287E+01  2.10103E+01  2.22514E+01  2.04333E+01  1.80884E+01  1.93892E+01  1.83556E+01  1.83604E+01
   1.83382E+01  1.91890E+01  1.84259E+01  2.02073E+01  2.03704E+01  1.81699E+01  1.94333E+01  1.95989E+01  2.01643E+01  1.89067E+01
   1.91885E+01  2.09294E+01  2.03986E+01  2.08696E+01  1.87492E+01  1.94344E+01  1.98535E+01  2.12821E+01  1.93280E+01  2.06099E+01
   2.08763E+01  2.07276E+01  2.04463E+01  2.07686E+01  2.17536E+01  2.22932E+01  2.02684E+01  2.07306E+01  2.02904E+01  2.13007E+01
   2.05156E+01  1.99246E+01  2.03841E+01  1.83371E+01  1.84719E+01  1.91627E+01  2.01767E+01  2.17688E+01  1.97854E+01  2.16352E+01
   2.29967E+01  2.13618E+01  2.13374E+01  1.98554E+01  2.15979E+01  1.89834E+01  1.98713E+01  2.09673E+01  1.92637E+01  2.11965E+01
   2.07193E+01  2.18102E+01  2.10642E+01  2.03567E+01  1.97271E+01  1.92616E+01  2.01824E+01  2.06153E+01  2.05438E+01  2.07478E+01
   2.08761E+01  2.28634E+01  2.03938E+01  2.12199E+01  2.18182E+01  2.10706E+01  2.20940E+01  2.15673E+01  2.15972E+01  2.05393E+01
   2.09841E+01  2.03743E+01  2.08898E+01  1.98603E+01  1.94874E+01  2.00035E+01  1.93858E+01  2.00836E+01  1.91659E+01  1.97323E+01
   1.94423E+01  2.05465E+01  2.00657E+01  1.99789E+01  2.00683E+01  2.09947E+01  1.98583E+01  1.93932E+01  1.91578E+01  1.91711E+01
   2.12038E+01  1.99139E+01  1.79292E+01  1.94514E+01  1.72759E+01  1.75870E+01  1.92629E+01  1.76160E+01  1.63466E+01  1.89320E+01
   1.83444E+01  1.66415E+01  1.77598E+01  1.70182E+01  1.60189E+01  1.67598E+01  1.55050E+01  1.80321E+01  1.47492E+01  1.64999E+01
   1.41707E+01  1.70788E+01  1.58693E+01  1.68758E+01  1.73346E+01  1.65462E+01  1.50072E+01  1.55428E+01  1.61647E+01  1.49107E+01
   1.55997E+01  1.59233E+01  1.45732E+01  1.48080E+01  1.68313E+01  1.53293E+01  1.59130E+01  1.40430E+01  1.54119E+01  1.57525E+01
   1.44740E+01  1.50989E+01  1.37120E+01  1.47008E+01  1.38074E+01  1.51281E+01  1.56847E+01  1.50490E+01  1.44781E+01  1.38683E+01
   1.47011E+01  1.51057E+01  1.35384E+01  1.46574E+01  1.31460E+01  1.30995E+01  1.30020E+01  1.45278E+01  1.46001E+01  1.37828E+01
   1.31646E+01  1.29880E+01  1.31394E+01  1.30947E+01  1.21473E+01  1.27907E+01  1.20420E+01  1.30449E+01  1.26765E+01  1.29212E+01
   1.17760E+01  1.26203E+01  1.28549E+01  1.18640E+01  1.35835E+01  1.26688E+01  1.24931E+01  1.25554E+01  1.32165E+01  1.17080E+01
   1.17317E+01  1.32129E+01  1.34758E+01  1.25515E+01  1.36579E+01  1.26310E+01  9.20166E+00  1.33319E+01  1.21617E+01  1.18999E+01
   1.11739E+01  1.21128E+01  9.23800E+00  1.16566E+01  1.06137E+01  1.26604E+01  1.21171E+01  1.08582E+01  1.03042E+01  1.08644E+01
   1.24667E+01  1.05057E+01  1.10482E+01  1.10273E+01  1.21547E+01  1.09761E+01  8.71272E+00  1.08891E+01  9.43099E+00  1.12683E+01
   1.02218E+01  1.10579E+01  1.11619E+01  9.34979E+00  1.01297E+01  9.15781E+00  1.18944E+01  9.23289E+00  9.22909E+00  1.15786E+01
   9.57212E+00  9.54402E+00  8.43776E+00  9.15593E+00  9.29817E+00  9.28108E+00  7.98245E+00  8.38565E+00  1.08911E+01  1.18227E+01
   8.62225E+00  8.50075E+00  9.02506E+00  8.40737E+00  7.88826E+00  7.34294E+00  7.32031E+00  9.31379E+00
 NY points of the fit to the data follow
   6.27877E+01  6.22535E+01  6.17543E+01  6.12926E+01  6.08561E+01  6.04372E+01  6.00267E+01  5.96127E+01  5.91841E+01  5.87300E+01
   5.82417E+01  5.77147E+01  5.71487E+01  5.65472E+01  5.59215E+01  5.52917E+01  5.46805E+01  5.41076E+01  5.35805E+01  5.30773E+01
   5.25805E+01  5.20871E+01  5.15967E+01  5.11094E+01  5.06261E+01  5.01476E+01  4.96742E+01  4.92052E+01  4.87407E+01  4.82807E+01
   4.78257E+01  4.73766E+01  4.69335E+01  4.64943E+01  4.60560E+01  4.56174E+01  4.51786E+01  4.47394E+01  4.42999E+01  4.38622E+01
   4.34308E+01  4.30131E+01  4.26127E+01  4.22275E+01  4.18538E+01  4.14887E+01  4.11289E+01  4.07688E+01  4.04010E+01  4.00181E+01
   3.96181E+01  3.92029E+01  3.87767E+01  3.83468E+01  3.79247E+01  3.75228E+01  3.71494E+01  3.68051E+01  3.64798E+01  3.61603E+01
   3.58384E+01  3.55119E+01  3.51806E+01  3.48450E+01  3.45061E+01  3.41666E+01  3.38308E+01  3.35015E+01  3.31834E+01  3.28795E+01
   3.25872E+01  3.23018E+01  3.20179E+01  3.17314E+01  3.14409E+01  3.11471E+01  3.08514E+01  3.05551E+01  3.02611E+01  2.99749E+01
   2.96987E+01  2.94311E+01  2.91693E+01  2.89106E+01  2.86538E+01  2.83966E+01  2.81349E+01  2.78664E+01  2.75919E+01  2.73136E+01
   2.70354E+01  2.67618E+01  2.64980E+01  2.62480E+01  2.60156E+01  2.58095E+01  2.56391E+01  2.54940E+01  2.53624E+01  2.52380E+01
   2.51147E+01  2.49845E+01  2.48366E+01  2.46603E+01  2.44486E+01  2.41989E+01  2.39120E+01  2.35918E+01  2.32513E+01  2.29126E+01
   2.26009E+01  2.23367E+01  2.21213E+01  2.19252E+01  2.17345E+01  2.15476E+01  2.13642E+01  2.11852E+01  2.10125E+01  2.08581E+01
   2.07476E+01  2.06795E+01  2.06389E+01  2.06137E+01  2.05926E+01  2.05618E+01  2.05056E+01  2.04073E+01  2.02543E+01  2.00413E+01
   1.97689E+01  1.94437E+01  1.90850E+01  1.87251E+01  1.83989E+01  1.81350E+01  1.79383E+01  1.77713E+01  1.76127E+01  1.74589E+01
   1.73086E+01  1.71606E+01  1.70141E+01  1.68688E+01  1.67247E+01  1.65820E+01  1.64406E+01  1.63008E+01  1.61628E+01  1.60267E+01
   1.58924E+01  1.57598E+01  1.56287E+01  1.54988E+01  1.53687E+01  1.52378E+01  1.51068E+01  1.49765E+01  1.48484E+01  1.47224E+01
   1.45981E+01  1.44757E+01  1.43556E+01  1.42379E+01  1.41226E+01  1.40096E+01  1.38985E+01  1.37884E+01  1.36782E+01  1.35665E+01
   1.34536E+01  1.33446E+01  1.32431E+01  1.31505E+01  1.30656E+01  1.29864E+01  1.29129E+01  1.28459E+01  1.27857E+01  1.27313E+01
   1.26818E+01  1.26370E+01  1.25976E+01  1.25631E+01  1.25334E+01  1.25092E+01  1.24925E+01  1.24844E+01  1.24830E+01  1.24863E+01
   1.24932E+01  1.25035E+01  1.25160E+01  1.25287E+01  1.25402E+01  1.25503E+01  1.25610E+01  1.25765E+01  1.25984E+01  1.26261E+01
   1.26587E+01  1.26957E+01  1.27363E+01  1.27796E+01  1.28252E+01  1.28728E+01  1.29204E+01  1.29665E+01  1.30124E+01  1.30611E+01
   1.31156E+01  1.31792E+01  1.32544E+01  1.33417E+01  1.34394E+01  1.35458E+01  1.36590E+01  1.37776E+01  1.38999E+01  1.40238E+01
   1.41484E+01  1.42729E+01  1.43957E+01  1.45172E+01  1.46374E+01  1.47558E+01  1.48726E+01  1.49885E+01  1.51042E+01  1.52205E+01
   1.53392E+01  1.54625E+01  1.55921E+01  1.57286E+01  1.58717E+01  1.60206E+01  1.61739E+01  1.63304E+01  1.64891E+01  1.66492E+01
   1.68110E+01  1.69749E+01  1.71404E+01  1.73062E+01  1.74713E+01  1.76350E+01  1.77975E+01  1.79589E+01  1.81183E+01  1.82749E+01
   1.84274E+01  1.85756E+01  1.87256E+01  1.89090E+01  1.91474E+01  1.94201E+01  1.97055E+01  1.99872E+01  2.02477E+01  2.04668E+01
   2.06223E+01  2.06942E+01  2.06718E+01  2.05543E+01  2.03491E+01  2.00774E+01  1.97812E+01  1.95141E+01  1.93250E+01  1.92434E+01
   1.92380E+01  1.92524E+01  1.92731E+01  1.92980E+01  1.93264E+01  1.93574E+01  1.93905E+01  1.94249E+01  1.94601E+01  1.94960E+01
   1.95332E+01  1.95720E+01  1.96129E+01  1.96564E+01  1.97027E+01  1.97519E+01  1.98037E+01  1.98573E+01  1.99123E+01  1.99679E+01
   2.00237E+01  2.00790E+01  2.01334E+01  2.01867E+01  2.02384E+01  2.02883E+01  2.03358E+01  2.03803E+01  2.04215E+01  2.04587E+01
   2.04916E+01  2.05197E+01  2.05427E+01  2.05607E+01  2.05736E+01  2.05816E+01  2.05851E+01  2.05847E+01  2.05809E+01  2.05744E+01
   2.05660E+01  2.05565E+01  2.05466E+01  2.05372E+01  2.05289E+01  2.05224E+01  2.05181E+01  2.05164E+01  2.05177E+01  2.05221E+01
   2.05295E+01  2.05397E+01  2.05526E+01  2.05675E+01  2.05839E+01  2.06013E+01  2.06187E+01  2.06355E+01  2.06509E+01  2.06639E+01
   2.06740E+01  2.06805E+01  2.06827E+01  2.06804E+01  2.06731E+01  2.06610E+01  2.06440E+01  2.06226E+01  2.05973E+01  2.05695E+01
   2.05411E+01  2.05117E+01  2.04793E+01  2.04437E+01  2.04054E+01  2.03651E+01  2.03233E+01  2.02812E+01  2.02422E+01  2.02093E+01
   2.01824E+01  2.01596E+01  2.01380E+01  2.01134E+01  2.00801E+01  2.00309E+01  1.99579E+01  1.98529E+01  1.97131E+01  1.95422E+01
   1.93460E+01  1.91327E+01  1.89117E+01  1.86927E+01  1.84837E+01  1.82868E+01  1.81010E+01  1.79252E+01  1.77582E+01  1.75989E+01
   1.74463E+01  1.72997E+01  1.71587E+01  1.70231E+01  1.68930E+01  1.67684E+01  1.66497E+01  1.65370E+01  1.64306E+01  1.63307E+01
   1.62375E+01  1.61510E+01  1.60713E+01  1.59986E+01  1.59327E+01  1.58737E+01  1.58214E+01  1.57756E+01  1.57360E+01  1.57021E+01
   1.56734E+01  1.56492E+01  1.56285E+01  1.56104E+01  1.55936E+01  1.55769E+01  1.55589E+01  1.55381E+01  1.55131E+01  1.54825E+01
   1.54450E+01  1.53996E+01  1.53454E+01  1.52818E+01  1.52085E+01  1.51257E+01  1.50336E+01  1.49329E+01  1.48247E+01  1.47100E+01
   1.45901E+01  1.44664E+01  1.43404E+01  1.42134E+01  1.40869E+01  1.39620E+01  1.38397E+01  1.37211E+01  1.36067E+01  1.34971E+01
   1.33926E+01  1.32932E+01  1.31991E+01  1.31101E+01  1.30259E+01  1.29463E+01  1.28709E+01  1.27994E+01  1.27313E+01  1.26663E+01
   1.26040E+01  1.25441E+01  1.24863E+01  1.24302E+01  1.23756E+01  1.23222E+01  1.22699E+01  1.22184E+01  1.21675E+01  1.21170E+01
   1.20670E+01  1.20171E+01  1.19674E+01  1.19176E+01  1.18677E+01  1.18177E+01  1.17673E+01  1.17166E+01  1.16655E+01  1.16138E+01
   1.15616E+01  1.15088E+01  1.14553E+01  1.14011E+01  1.13461E+01  1.12904E+01  1.12340E+01  1.11769E+01  1.11191E+01  1.10606E+01
   1.10015E+01  1.09418E+01  1.08814E+01  1.08204E+01  1.07588E+01  1.06967E+01  1.06340E+01  1.05708E+01  1.05070E+01  1.04427E+01
   1.03780E+01  1.03128E+01  1.02471E+01  1.01811E+01  1.01146E+01  1.00477E+01  9.98051E+00  9.91294E+00  9.84504E+00  9.77684E+00
   9.70835E+00  9.63960E+00  9.57060E+00  9.50138E+00  9.43196E+00  9.36235E+00  9.29258E+00  9.22267E+00  9.15265E+00  9.08252E+00
   9.01231E+00  8.94204E+00  8.87174E+00  8.80142E+00  8.73111E+00  8.66082E+00  8.59058E+00  8.52041E+00
 NY background values follow
     6.258E+01    6.206E+01    6.154E+01    6.103E+01    6.052E+01    6.000E+01    5.949E+01    5.898E+01    5.847E+01    5.796E+01
     5.745E+01    5.695E+01    5.644E+01    5.594E+01    5.544E+01    5.494E+01    5.444E+01    5.395E+01    5.345E+01    5.296E+01
     5.247E+01    5.198E+01    5.150E+01    5.102E+01    5.054E+01    5.006E+01    4.959E+01    4.911E+01    4.865E+01    4.818E+01
     4.772E+01    4.726E+01    4.680E+01    4.635E+01    4.590E+01    4.545E+01    4.501E+01    4.457E+01    4.414E+01    4.371E+01
     4.328E+01    4.286E+01    4.244E+01    4.202E+01    4.161E+01    4.121E+01    4.080E+01    4.041E+01    4.001E+01    3.963E+01
     3.924E+01    3.886E+01    3.849E+01    3.811E+01    3.775E+01    3.738E+01    3.702E+01    3.667E+01    3.632E+01    3.597E+01
     3.563E+01    3.529E+01    3.495E+01    3.462E+01    3.429E+01    3.396E+01    3.364E+01    3.332E+01    3.301E+01    3.269E+01
     3.239E+01    3.208E+01    3.178E+01    3.148E+01    3.119E+01    3.089E+01    3.060E+01    3.032E+01    3.004E+01    2.976E+01
     2.948E+01    2.920E+01    2.893E+01    2.866E+01    2.840E+01    2.813E+01    2.787E+01    2.761E+01    2.736E+01    2.710E+01
     2.685E+01    2.660E+01    2.635E+01    2.611E+01    2.587E+01    2.563E+01    2.539E+01    2.516E+01    2.492E+01    2.469E+01
     2.446E+01    2.424E+01    2.401E+01    2.379E+01    2.357E+01    2.335E+01    2.313E+01    2.292E+01    2.271E+01    2.250E+01
     2.229E+01    2.208E+01    2.188E+01    2.167E+01    2.147E+01    2.127E+01    2.108E+01    2.088E+01    2.069E+01    2.050E+01
     2.031E+01    2.012E+01    1.994E+01    1.975E+01    1.957E+01    1.939E+01    1.921E+01    1.903E+01    1.885E+01    1.868E+01
     1.851E+01    1.834E+01    1.817E+01    1.800E+01    1.783E+01    1.767E+01    1.750E+01    1.734E+01    1.718E+01    1.702E+01
     1.687E+01    1.671E+01    1.656E+01    1.641E+01    1.626E+01    1.611E+01    1.596E+01    1.582E+01    1.568E+01    1.554E+01
     1.540E+01    1.526E+01    1.513E+01    1.500E+01    1.487E+01    1.475E+01    1.462E+01    1.450E+01    1.438E+01    1.427E+01
     1.416E+01    1.405E+01    1.394E+01    1.383E+01    1.373E+01    1.363E+01    1.354E+01    1.345E+01    1.336E+01    1.327E+01
     1.319E+01    1.311E+01    1.303E+01    1.296E+01    1.289E+01    1.282E+01    1.276E+01    1.270E+01    1.265E+01    1.260E+01
     1.255E+01    1.251E+01    1.247E+01    1.243E+01    1.240E+01    1.237E+01    1.234E+01    1.232E+01    1.230E+01    1.229E+01
     1.228E+01    1.227E+01    1.227E+01    1.227E+01    1.227E+01    1.228E+01    1.229E+01    1.230E+01    1.231E+01    1.233E+01
     1.235E+01    1.238E+01    1.241E+01    1.244E+01    1.247E+01    1.251E+01    1.255E+01    1.259E+01    1.264E+01    1.268E+01
     1.273E+01    1.279E+01    1.284E+01    1.290E+01    1.296E+01    1.303E+01    1.309E+01    1.316E+01    1.323E+01    1.330E+01
     1.338E+01    1.345E+01    1.353E+01    1.362E+01    1.370E+01    1.378E+01    1.387E+01    1.396E+01    1.405E+01    1.415E+01
     1.424E+01    1.434E+01    1.444E+01    1.454E+01    1.464E+01    1.474E+01    1.484E+01    1.495E+01    1.505E+01    1.516E+01
     1.526E+01    1.537E+01    1.548E+01    1.559E+01    1.569E+01    1.580E+01    1.591E+01    1.602E+01    1.613E+01    1.624E+01
     1.635E+01    1.645E+01    1.656E+01    1.667E+01    1.677E+01    1.688E+01    1.699E+01    1.709E+01    1.719E+01    1.729E+01
     1.739E+01    1.749E+01    1.759E+01    1.769E+01    1.778E+01    1.788E+01    1.797E+01    1.806E+01    1.815E+01    1.823E+01
     1.831E+01    1.840E+01    1.848E+01    1.855E+01    1.863E+01    1.870E+01    1.877E+01    1.883E+01    1.890E+01    1.896E+01
     1.902E+01    1.908E+01    1.914E+01    1.919E+01    1.924E+01    1.929E+01    1.933E+01    1.938E+01    1.942E+01    1.946E+01
     1.950E+01    1.953E+01    1.956E+01    1.959E+01    1.962E+01    1.965E+01    1.967E+01    1.969E+01    1.971E+01    1.973E+01
     1.974E+01    1.975E+01    1.976E+01    1.977E+01    1.977E+01    1.978E+01    1.978E+01    1.977E+01    1.977E+01    1.976E+01
     1.976E+01    1.974E+01    1.973E+01    1.972E+01    1.970E+01    1.968E+01    1.966E+01    1.963E+01    1.961E+01    1.958E+01
     1.955E+01    1.951E+01    1.948E+01    1.944E+01    1.940E+01    1.936E+01    1.932E+01    1.927E+01    1.923E+01    1.918E+01
     1.913E+01    1.908E+01    1.903E+01    1.897E+01    1.892E+01    1.886E+01    1.880E+01    1.874E+01    1.868E+01    1.862E+01
     1.855E+01    1.849E+01    1.842E+01    1.836E+01    1.829E+01    1.822E+01    1.815E+01    1.808E+01    1.801E+01    1.793E+01
     1.786E+01    1.779E+01    1.771E+01    1.764E+01    1.756E+01    1.749E+01    1.741E+01    1.733E+01    1.725E+01    1.718E+01
     1.710E+01    1.702E+01    1.694E+01    1.686E+01    1.678E+01    1.670E+01    1.662E+01    1.655E+01    1.647E+01    1.639E+01
     1.631E+01    1.623E+01    1.615E+01    1.607E+01    1.599E+01    1.591E+01    1.583E+01    1.576E+01    1.568E+01    1.560E+01
     1.552E+01    1.545E+01    1.537E+01    1.529E+01    1.522E+01    1.514E+01    1.507E+01    1.499E+01    1.492E+01    1.485E+01
     1.477E+01    1.470E+01    1.463E+01    1.456E+01    1.449E+01    1.442E+01    1.435E+01    1.428E+01    1.422E+01    1.415E+01
     1.409E+01    1.402E+01    1.396E+01    1.390E+01    1.384E+01    1.378E+01    1.372E+01    1.366E+01    1.360E+01    1.355E+01
     1.349E+01    1.344E+01    1.339E+01    1.334E+01    1.328E+01    1.323E+01    1.318E+01    1.314E+01    1.309E+01    1.304E+01
     1.299E+01    1.295E+01    1.290E+01    1.285E+01    1.281E+01    1.276E+01    1.272E+01    1.268E+01    1.263E+01    1.259E+01
     1.254E+01    1.250E+01    1.246E+01    1.241E+01    1.237E+01    1.233E+01    1.228E+01    1.224E+01    1.219E+01    1.215E+01
     1.210E+01    1.206E+01    1.201E+01    1.197E+01    1.192E+01    1.187E+01    1.183E+01    1.178E+01    1.173E+01    1.168E+01
     1.163E+01    1.158E+01    1.152E+01    1.147E+01    1.142E+01    1.136E+01    1.131E+01    1.125E+01    1.119E+01    1.114E+01
     1.108E+01    1.102E+01    1.096E+01    1.090E+01    1.084E+01    1.077E+01    1.071E+01    1.065E+01    1.059E+01    1.052E+01
     1.046E+01    1.039E+01    1.033E+01    1.026E+01    1.019E+01    1.013E+01    1.006E+01    9.992E+00    9.924E+00    9.855E+00
     9.787E+00    9.718E+00    9.649E+00    9.580E+00    9.510E+00    9.440E+00    9.370E+00    9.300E+00    9.230E+00    9.160E+00
     9.089E+00    9.019E+00    8.948E+00    8.878E+00    8.807E+00    8.736E+00    8.666E+00    8.595E+00
 Asp      Conc. = 5.75E-01
