 LCModel (Version 6.3-1L) Copyright: S.W. Provencher.          Ref.: Magn. Reson. Med. 30:672-679 (1993).                
 Slice#2 Row#13 Col#10  PD_05_press_1_raw_act
 36 lines in following concentration table = NCONC+1
    Conc.  %SD /Cr+PCr  Metabolite                                         
   15.142 264%   0.183 Ala                                                 
   14.622 136%   0.177 Asp                                                 
   82.673  19%   1.000 Cr                                                  
    0.000 999%   0.000 PCr                                                 
   11.513 105%   0.139 GABA                                                
   12.266  98%   0.148 Glc                                                 
    9.748 853%   0.118 Gln                                                 
    3.568 999% 4.3E-02 Glu                                                 
    0.000 999%   0.000 GPC                                                 
   28.337  20%   0.343 PCh                                                 
    0.000 999%   0.000 GSH                                                 
    0.000 999%   0.000 Ins                                                 
   65.888  68%   0.797 Lac                                                 
  206.708   9%   2.500 NAA                                                 
    0.000 999%   0.000 NAAG                                                
    6.303  58% 7.6E-02 Scyllo                                              
   31.187  63%   0.377 Tau                                                 
   85.721  26%   1.037 -CrCH2                                              
   28.337  20%   0.343 GPC+PCh                                             
  206.708   9%   2.500 NAA+NAAG                                            
   82.673  19%   1.000 Cr+PCr                                              
   13.316 999%   0.161 Glu+Gln                                             
    0.000 999%   0.000 Lip13a                                              
    0.000 999%   0.000 Lip13b                                              
    0.000 999%   0.000 Lip09                                               
  109.243  36%   1.321 MM09                                                
    6.129 297% 7.4E-02 Lip20                                               
  212.913  34%   2.575 MM20                                                
   32.754  60%   0.396 MM12                                                
  111.206  50%   1.345 MM14                                                
  150.115  25%   1.816 MM17                                                
    0.000 999%   0.000 Lip13a+Lip13b                                       
  143.960  44%   1.741 MM14+Lip13a+Lip13b+MM12                             
  109.243  36%   1.321 MM09+Lip09                                          
  219.041  33%   2.649 MM20+Lip20                                          
   6 lines in following misc. output table
  FWHM = 0.069 ppm    S/N =   3                                            
  Data shift = 0.031 ppm                                                   
  Ph: -38 deg     -18.8 deg/ppm                                            
  alphaB,S = 1.5E+00,   8.2E+01                                            
   14 spline knots.   Ns = 7(1)                                            
  ( 8) 2 infls.   ( 9) 1 extrs.                                            
  498 points on ppm-axis = NY
      4.000000     3.992357     3.984714     3.977070     3.969427     3.961784     3.954141     3.946497     3.938854     3.931211
      3.923568     3.915925     3.908281     3.900638     3.892995     3.885352     3.877708     3.870065     3.862422     3.854779
      3.847136     3.839492     3.831849     3.824206     3.816563     3.808919     3.801276     3.793633     3.785990     3.778347
      3.770703     3.763060     3.755417     3.747774     3.740130     3.732487     3.724844     3.717201     3.709558     3.701914
      3.694271     3.686628     3.678985     3.671341     3.663698     3.656055     3.648412     3.640769     3.633125     3.625482
      3.617839     3.610196     3.602552     3.594909     3.587266     3.579623     3.571980     3.564336     3.556693     3.549050
      3.541407     3.533763     3.526120     3.518477     3.510834     3.503191     3.495547     3.487904     3.480261     3.472618
      3.464974     3.457331     3.449688     3.442045     3.434402     3.426758     3.419115     3.411472     3.403829     3.396185
      3.388542     3.380899     3.373256     3.365613     3.357969     3.350326     3.342683     3.335040     3.327396     3.319753
      3.312110     3.304467     3.296824     3.289180     3.281537     3.273894     3.266251     3.258607     3.250964     3.243321
      3.235678     3.228034     3.220391     3.212748     3.205105     3.197462     3.189818     3.182175     3.174532     3.166889
      3.159245     3.151602     3.143959     3.136316     3.128673     3.121029     3.113386     3.105743     3.098100     3.090456
      3.082813     3.075170     3.067527     3.059884     3.052240     3.044597     3.036954     3.029311     3.021667     3.014024
      3.006381     2.998738     2.991095     2.983451     2.975808     2.968165     2.960522     2.952878     2.945235     2.937592
      2.929949     2.922306     2.914662     2.907019     2.899376     2.891733     2.884089     2.876446     2.868803     2.861160
      2.853517     2.845873     2.838230     2.830587     2.822944     2.815300     2.807657     2.800014     2.792371     2.784728
      2.777084     2.769441     2.761798     2.754155     2.746511     2.738868     2.731225     2.723582     2.715939     2.708295
      2.700652     2.693009     2.685366     2.677722     2.670079     2.662436     2.654793     2.647150     2.639506     2.631863
      2.624220     2.616577     2.608933     2.601290     2.593647     2.586004     2.578361     2.570717     2.563074     2.555431
      2.547788     2.540144     2.532501     2.524858     2.517215     2.509572     2.501928     2.494285     2.486642     2.478999
      2.471355     2.463712     2.456069     2.448426     2.440783     2.433139     2.425496     2.417853     2.410210     2.402566
      2.394923     2.387280     2.379637     2.371994     2.364350     2.356707     2.349064     2.341421     2.333777     2.326134
      2.318491     2.310848     2.303205     2.295561     2.287918     2.280275     2.272632     2.264988     2.257345     2.249702
      2.242059     2.234416     2.226772     2.219129     2.211486     2.203843     2.196199     2.188556     2.180913     2.173270
      2.165627     2.157983     2.150340     2.142697     2.135054     2.127410     2.119767     2.112124     2.104481     2.096838
      2.089194     2.081551     2.073908     2.066265     2.058621     2.050978     2.043335     2.035692     2.028049     2.020405
      2.012762     2.005119     1.997476     1.989833     1.982190     1.974546     1.966903     1.959260     1.951617     1.943974
      1.936331     1.928688     1.921045     1.913402     1.905759     1.898115     1.890472     1.882829     1.875186     1.867543
      1.859900     1.852257     1.844614     1.836971     1.829327     1.821684     1.814041     1.806398     1.798755     1.791112
      1.783469     1.775826     1.768183     1.760540     1.752896     1.745253     1.737610     1.729967     1.722324     1.714681
      1.707038     1.699395     1.691752     1.684108     1.676465     1.668822     1.661179     1.653536     1.645893     1.638250
      1.630607     1.622964     1.615321     1.607677     1.600034     1.592391     1.584748     1.577105     1.569462     1.561819
      1.554176     1.546533     1.538890     1.531246     1.523603     1.515960     1.508317     1.500674     1.493031     1.485388
      1.477745     1.470102     1.462458     1.454815     1.447172     1.439529     1.431886     1.424243     1.416600     1.408957
      1.401314     1.393671     1.386027     1.378384     1.370741     1.363098     1.355455     1.347812     1.340169     1.332526
      1.324883     1.317240     1.309596     1.301953     1.294310     1.286667     1.279024     1.271381     1.263738     1.256095
      1.248452     1.240808     1.233165     1.225522     1.217879     1.210236     1.202593     1.194950     1.187307     1.179664
      1.172021     1.164377     1.156734     1.149091     1.141448     1.133805     1.126162     1.118519     1.110876     1.103233
      1.095590     1.087946     1.080303     1.072660     1.065017     1.057374     1.049731     1.042088     1.034445     1.026802
      1.019158     1.011515     1.003872     0.996229     0.988586     0.980943     0.973300     0.965657     0.958014     0.950371
      0.942727     0.935084     0.927441     0.919798     0.912155     0.904512     0.896869     0.889226     0.881583     0.873940
      0.866296     0.858653     0.851010     0.843367     0.835724     0.828081     0.820438     0.812795     0.805152     0.797508
      0.789865     0.782222     0.774579     0.766936     0.759293     0.751650     0.744007     0.736364     0.728721     0.721077
      0.713434     0.705791     0.698148     0.690505     0.682862     0.675219     0.667576     0.659933     0.652290     0.644646
      0.637003     0.629360     0.621717     0.614074     0.606431     0.598788     0.591145     0.583502     0.575858     0.568215
      0.560572     0.552929     0.545286     0.537643     0.530000     0.522357     0.514714     0.507071     0.499427     0.491784
      0.484141     0.476498     0.468855     0.461212     0.453569     0.445925     0.438282     0.430639     0.422996     0.415353
      0.407710     0.400067     0.392424     0.384780     0.377137     0.369494     0.361851     0.354208     0.346565     0.338922
      0.331278     0.323635     0.315992     0.308349     0.300706     0.293063     0.285420     0.277777     0.270133     0.262490
      0.254847     0.247204     0.239561     0.231918     0.224275     0.216631     0.208988     0.201345
 NY phased data points follow
  -9.07756E+00 -9.55025E+00 -9.06724E+00 -9.42994E+00 -8.88102E+00 -9.52954E+00 -7.74759E+00 -8.28174E+00 -7.75523E+00 -6.45902E+00
  -6.86744E+00 -7.09977E+00 -7.27574E+00 -7.99467E+00 -6.14335E+00 -8.23309E+00 -8.96781E+00 -7.22373E+00 -8.17624E+00 -7.10777E+00
  -9.34535E+00 -8.29636E+00 -6.01480E+00 -8.24351E+00 -5.99947E+00 -6.06151E+00 -6.26098E+00 -7.10618E+00 -6.66022E+00 -8.43990E+00
  -6.81743E+00 -5.20240E+00 -5.42208E+00 -7.21374E+00 -6.37660E+00 -6.02908E+00 -5.77634E+00 -6.96848E+00 -4.90473E+00 -5.64930E+00
  -6.99772E+00 -7.73514E+00 -6.32504E+00 -5.44834E+00 -4.26830E+00 -5.77133E+00 -5.49078E+00 -4.48911E+00 -5.77494E+00 -5.10036E+00
  -5.10050E+00 -5.12966E+00 -4.90016E+00 -5.36702E+00 -4.08340E+00 -5.21161E+00 -5.00364E+00 -4.77543E+00 -5.13416E+00 -8.32993E+00
  -5.19708E+00 -5.91211E+00 -3.75604E+00 -5.35582E+00 -5.86075E+00 -4.98170E+00 -5.50113E+00 -3.41878E+00 -4.44941E+00 -4.74259E+00
  -4.05987E+00 -5.55338E+00 -4.68817E+00 -4.30865E+00 -4.52359E+00 -4.62673E+00 -2.86136E+00 -3.83496E+00 -2.58452E+00 -3.96539E+00
  -5.47889E+00 -4.90669E+00 -3.85547E+00 -2.86623E+00 -5.13082E+00 -3.92245E+00 -3.90482E+00 -1.94653E+00 -3.62396E+00 -3.04538E+00
  -3.05848E+00 -4.40713E+00 -3.42746E+00 -2.39695E+00 -3.89397E+00 -4.57983E+00 -4.40351E+00 -4.50272E+00 -2.31340E+00 -1.56065E+00
  -2.11835E+00 -4.22072E+00 -2.62630E+00 -2.70787E-01 -1.22935E+00 -2.71368E+00 -5.02891E-01 -6.57116E-01 -1.88091E+00 -2.65680E+00
  -2.75167E+00 -3.68265E+00 -1.88660E-01 -2.82441E+00 -1.18157E+00 -1.36714E+00 -2.98545E+00 -4.33051E+00 -3.67675E+00 -3.11274E+00
  -2.52885E+00 -2.03246E+00  5.69159E-01 -2.25591E+00 -1.26304E+00  6.30642E-01 -8.22143E-01  5.91792E-01 -4.86250E-01 -1.46857E+00
  -8.97149E-02 -4.24794E+00 -1.23761E+00 -2.16339E+00 -2.00316E+00 -2.41328E+00 -2.41224E+00 -3.67207E+00 -2.27948E+00 -2.22194E+00
  -3.15116E+00 -3.34250E+00 -1.36156E+00 -1.24877E+00 -1.01928E+00 -2.18670E+00 -2.10274E+00 -1.99064E+00 -2.07802E+00 -1.22181E+00
   1.38213E-01 -1.46559E+00 -3.06311E+00 -1.34797E+00 -4.21619E+00 -2.69538E+00 -1.22549E+00 -2.17030E+00 -1.25778E+00 -2.38636E+00
  -3.32406E+00 -9.46155E-01 -2.32592E+00 -1.74281E+00 -2.11063E+00 -2.25227E+00 -2.85524E+00 -3.47515E+00 -8.62986E-01 -1.06589E+00
  -2.44829E+00 -2.23147E+00 -3.00687E+00 -3.01443E+00 -3.64937E+00 -2.20463E+00 -2.58799E+00 -2.09965E+00  1.00150E-02 -2.15280E+00
  -2.23261E+00 -7.43235E-01 -2.43777E+00 -7.51968E-01 -1.34547E+00 -1.97967E+00 -3.16256E+00 -1.58534E+00 -1.47527E+00 -2.24441E+00
  -1.23080E+00 -3.86249E-01 -7.62633E-01 -2.22575E+00 -2.20939E+00 -3.39866E+00  3.74877E-01 -2.48089E+00 -1.66809E+00 -1.24649E+00
  -2.78752E+00 -6.43056E-01 -2.87826E-01  1.06440E+00 -2.68926E+00 -1.89125E+00 -1.35799E+00 -1.76628E+00 -1.81652E+00 -8.25161E-01
  -2.53566E+00 -2.52938E+00 -1.03030E+00 -1.89966E+00 -1.80581E+00 -4.97742E-01 -1.23026E+00  1.03114E+00 -1.24087E+00 -8.77723E-01
   8.07016E-01 -1.73034E+00 -1.79901E+00 -2.41191E+00 -7.36359E-01  5.76940E-01 -2.39602E-01 -2.62321E+00 -9.08525E-01 -8.08538E-01
  -3.86145E-01 -1.03229E+00  1.93658E-01 -1.32504E+00  1.09404E+00 -6.33049E-02 -2.08094E-01 -2.24769E-01 -2.06596E+00 -1.02979E-01
  -1.12744E+00  1.05773E+00 -2.30871E-01 -1.78647E+00  2.03616E+00 -1.16105E-01 -1.71720E-01  2.10969E+00 -3.21055E-01  6.46677E-01
   1.06927E+00  8.13330E-01  6.22211E-02  1.44230E+00  1.62700E+00  1.77977E+00  1.66397E+00  6.23573E+00  7.64005E+00  5.51598E+00
   4.93493E+00  4.48994E+00  5.12767E+00  5.74222E+00  5.21742E+00  9.04795E-01  2.39976E-01  6.71354E-01  1.49047E+00  1.47031E+00
  -1.30576E+00 -7.05434E-02 -1.52762E-02  4.85076E-01  6.09716E-02 -5.36479E-01 -9.00939E-01  1.23372E+00  4.83187E-01  1.44789E+00
   1.40577E+00  3.57684E-01 -1.55610E-01 -1.14889E+00 -5.86892E-01 -6.68567E-01 -1.03369E-01 -4.88178E-02 -4.03552E-02 -3.41230E-01
  -2.90953E-01 -3.89977E-01  2.04446E+00  4.89653E-01 -2.14703E-01  1.21927E-02 -2.69669E-01  1.76448E-01  2.03947E+00  1.55993E+00
   2.77064E-01 -1.73851E-01  6.54519E-01  1.61587E+00  1.45657E+00  1.49791E-01  1.62359E+00  4.15640E-01  1.39719E-01  6.62781E-01
   2.32872E+00  1.25170E+00  2.57338E+00  1.25006E+00  4.01118E-01  2.66727E+00  1.80636E+00  3.00705E+00  3.15458E+00  2.08497E+00
   2.49045E+00  5.43017E-01 -1.51015E-01 -7.97586E-01  1.70649E+00  3.11370E-01  1.03340E+00  1.06140E+00  6.88973E-01  2.47080E+00
   3.07524E-01  9.17793E-02 -8.43511E-02 -1.52378E-01  6.06219E-01  1.13206E+00  9.17795E-01 -3.40080E-01  1.05863E+00  1.09288E+00
   1.25699E+00  1.84479E-01  2.82083E-02  4.40338E-01  1.11250E+00  9.92393E-02  1.41618E+00  3.09242E-01 -2.55430E-01  1.85284E-01
  -2.78489E-01 -2.51686E-01 -1.28920E-01 -4.39076E-01 -3.43654E-01 -8.40622E-01  7.69469E-02 -3.44057E-01  7.25353E-01  2.08432E+00
   1.61189E+00 -3.58838E-01  3.37951E-01  1.08317E+00  8.83817E-01  1.06479E+00 -3.77500E-01  9.57585E-01  2.42937E+00  3.72287E-01
  -3.76575E-01 -4.36052E-01  1.77997E+00  3.98099E-01  2.00075E-01  1.17097E+00 -5.59166E-03  1.90847E+00  1.03686E+00  1.56151E+00
   2.42800E-01  6.31037E-01 -1.38413E+00  3.00529E+00  5.10547E-02 -6.68823E-01 -6.11371E-01 -1.13702E+00  1.04361E+00  4.07037E-01
  -4.53918E-01 -1.31764E+00  1.74083E-01 -1.33773E+00  1.60375E+00 -7.65912E-01 -1.09928E-01  2.13413E+00  4.90980E-01  4.40959E-01
   1.22912E+00 -3.20364E-02 -8.35214E-01  2.44034E+00  1.64583E+00  1.36475E+00  1.40458E+00  7.44950E-02 -4.32805E-01  3.57382E-01
   6.17273E-01 -1.35623E-01  8.33852E-01  1.03749E+00  2.02024E+00  1.26415E+00  1.30919E+00  2.20755E+00  3.01525E-01  2.09228E+00
  -3.93962E-01  1.10488E+00 -4.55192E-01  5.65120E-01  1.78420E+00 -1.27928E+00  2.41185E-01 -5.39686E-01  1.25779E+00 -5.60719E-01
  -1.27247E+00 -8.30593E-01 -7.68917E-01 -7.87468E-01  1.39394E+00 -1.41467E-01  6.12224E-01 -2.67914E-01 -1.73803E-01  9.60435E-01
  -1.13918E+00  2.14290E+00 -1.03061E+00  1.16625E+00  7.01396E-01 -4.10539E-01  1.18731E+00 -2.34688E-01  1.87927E+00  7.71979E-01
   1.53385E+00  5.18174E-01 -5.91860E-01  2.99261E-01  8.38936E-01  1.05736E+00  9.88695E-01  7.14911E-01  1.07686E+00 -3.08146E-01
  -6.12377E-01  3.49764E-01 -1.04083E-01  1.98270E+00 -8.48911E-02  1.64765E+00  4.45574E-01  7.24691E-01 -1.18387E-01 -1.01538E+00
  -8.68343E-01 -3.97906E-02  8.15261E-02  6.10027E-01 -2.31107E-01 -1.24171E+00  1.09829E+00  9.16656E-02  1.27574E+00  3.39622E-02
   7.39894E-01  1.14910E-01 -4.42736E-01 -6.73614E-01  1.30691E+00  9.44549E-03  1.05286E+00 -1.07487E+00 -6.60271E-01 -2.64015E-01
   1.86477E+00  2.78382E+00  9.75177E-01 -1.74337E+00 -7.97420E-01  3.00107E+00  1.31447E+00  1.78128E-01
 NY points of the fit to the data follow
  -7.36789E+00 -7.37106E+00 -7.45307E+00 -7.59145E+00 -7.70066E+00 -7.74069E+00 -7.68969E+00 -7.54420E+00 -7.34313E+00 -7.14955E+00
  -6.99518E+00 -6.85211E+00 -6.67453E+00 -6.48121E+00 -6.36258E+00 -6.36955E+00 -6.44596E+00 -6.52395E+00 -6.59019E+00 -6.62002E+00
  -6.59931E+00 -6.55880E+00 -6.51590E+00 -6.47467E+00 -6.43782E+00 -6.40510E+00 -6.37484E+00 -6.34459E+00 -6.31332E+00 -6.27998E+00
  -6.24331E+00 -6.20299E+00 -6.16105E+00 -6.11871E+00 -6.07634E+00 -6.03468E+00 -5.99720E+00 -5.96573E+00 -5.93967E+00 -5.91716E+00
  -5.89574E+00 -5.87283E+00 -5.84781E+00 -5.82046E+00 -5.79180E+00 -5.76258E+00 -5.73114E+00 -5.69526E+00 -5.65433E+00 -5.60897E+00
  -5.56126E+00 -5.51382E+00 -5.46978E+00 -5.42904E+00 -5.39023E+00 -5.35267E+00 -5.31620E+00 -5.28125E+00 -5.24783E+00 -5.21318E+00
  -5.17528E+00 -5.13492E+00 -5.09134E+00 -5.04737E+00 -5.00717E+00 -4.97151E+00 -4.93922E+00 -4.90920E+00 -4.87610E+00 -4.83349E+00
  -4.78270E+00 -4.72789E+00 -4.67403E+00 -4.62764E+00 -4.59248E+00 -4.56527E+00 -4.54087E+00 -4.51648E+00 -4.48905E+00 -4.45108E+00
  -4.39599E+00 -4.32284E+00 -4.23434E+00 -4.14073E+00 -4.05385E+00 -3.98263E+00 -3.93348E+00 -3.90639E+00 -3.90044E+00 -3.91921E+00
  -3.96272E+00 -4.01288E+00 -4.04277E+00 -4.04209E+00 -4.01357E+00 -3.95454E+00 -3.83477E+00 -3.57760E+00 -3.18321E+00 -2.70352E+00
  -2.20824E+00 -1.78092E+00 -1.49364E+00 -1.36364E+00 -1.35226E+00 -1.42109E+00 -1.57936E+00 -1.86125E+00 -2.24988E+00 -2.64891E+00
  -2.96513E+00 -3.17865E+00 -3.30164E+00 -3.33620E+00 -3.32970E+00 -3.31047E+00 -3.28444E+00 -3.25018E+00 -3.19815E+00 -3.07414E+00
  -2.80151E+00 -2.40148E+00 -1.93031E+00 -1.45773E+00 -1.06459E+00 -8.10371E-01 -6.99839E-01 -6.96450E-01 -7.75933E-01 -9.58619E-01
  -1.27496E+00 -1.68709E+00 -2.08408E+00 -2.38509E+00 -2.58540E+00 -2.69411E+00 -2.72075E+00 -2.71751E+00 -2.70514E+00 -2.68750E+00
  -2.66648E+00 -2.64378E+00 -2.62107E+00 -2.60031E+00 -2.58235E+00 -2.56566E+00 -2.54894E+00 -2.53183E+00 -2.51476E+00 -2.49838E+00
  -2.48242E+00 -2.46582E+00 -2.44765E+00 -2.42963E+00 -2.41919E+00 -2.41957E+00 -2.42819E+00 -2.43886E+00 -2.44033E+00 -2.42808E+00
  -2.40480E+00 -2.37671E+00 -2.35149E+00 -2.33220E+00 -2.31476E+00 -2.29410E+00 -2.27313E+00 -2.26116E+00 -2.26521E+00 -2.28729E+00
  -2.32132E+00 -2.34979E+00 -2.36320E+00 -2.36000E+00 -2.34365E+00 -2.32159E+00 -2.29799E+00 -2.27358E+00 -2.24448E+00 -2.20606E+00
  -2.16238E+00 -2.12120E+00 -2.08616E+00 -2.05192E+00 -2.00506E+00 -1.93938E+00 -1.86166E+00 -1.78205E+00 -1.70815E+00 -1.63674E+00
  -1.56041E+00 -1.48107E+00 -1.41092E+00 -1.36193E+00 -1.33579E+00 -1.32759E+00 -1.32826E+00 -1.32115E+00 -1.29961E+00 -1.26915E+00
  -1.23777E+00 -1.21078E+00 -1.18898E+00 -1.17231E+00 -1.16117E+00 -1.15700E+00 -1.16692E+00 -1.19654E+00 -1.23999E+00 -1.28306E+00
  -1.31218E+00 -1.32057E+00 -1.30682E+00 -1.27334E+00 -1.22825E+00 -1.17643E+00 -1.11714E+00 -1.04925E+00 -9.78613E-01 -9.14146E-01
  -8.57996E-01 -8.08979E-01 -7.69123E-01 -7.37767E-01 -7.13005E-01 -6.92732E-01 -6.74656E-01 -6.57370E-01 -6.39128E-01 -6.18014E-01
  -5.91967E-01 -5.60083E-01 -5.21813E-01 -4.75809E-01 -4.21433E-01 -3.61516E-01 -3.01802E-01 -2.46102E-01 -1.94942E-01 -1.47267E-01
  -1.01790E-01 -5.73548E-02 -1.36603E-02  2.92478E-02  7.18230E-02  1.14912E-01  1.60525E-01  2.10252E-01  2.64116E-01  3.22147E-01
   3.86678E-01  4.66039E-01  5.97718E-01  9.47037E-01  1.65532E+00  2.62657E+00  3.70848E+00  4.71858E+00  5.46524E+00  5.83802E+00
   5.86649E+00  5.65517E+00  5.24954E+00  4.58610E+00  3.61667E+00  2.48715E+00  1.47565E+00  7.34582E-01  2.45323E-01 -1.03899E-02
  -8.77614E-02 -1.14939E-01 -1.28592E-01 -1.35550E-01 -1.39064E-01 -1.41752E-01 -1.45145E-01 -1.49676E-01 -1.55196E-01 -1.61097E-01
  -1.66258E-01 -1.69409E-01 -1.69101E-01 -1.64420E-01 -1.55434E-01 -1.42234E-01 -1.24883E-01 -1.03886E-01 -7.97018E-02 -5.25870E-02
  -2.26280E-02  1.06340E-02  4.78440E-02  8.94587E-02  1.35910E-01  1.87532E-01  2.44250E-01  3.05725E-01  3.71472E-01  4.40721E-01
   5.12322E-01  5.84967E-01  6.57220E-01  7.27479E-01  7.94147E-01  8.55667E-01  9.10554E-01  9.57496E-01  9.95421E-01  1.02360E+00
   1.04169E+00  1.04977E+00  1.04831E+00  1.03819E+00  1.02063E+00  9.97198E-01  9.69734E-01  9.40351E-01  9.11546E-01  8.86842E-01
   8.70820E-01  8.60293E-01  8.47293E-01  8.26491E-01  7.94198E-01  7.49497E-01  6.95464E-01  6.37470E-01  5.84942E-01  5.46482E-01
   5.23934E-01  5.20605E-01  5.41418E-01  5.84116E-01  6.37651E-01  6.92717E-01  7.47738E-01  8.00706E-01  8.48855E-01  8.94033E-01
   9.51228E-01  1.02345E+00  1.07848E+00  1.08898E+00  1.03688E+00  9.13202E-01  7.23546E-01  4.92036E-01  2.68758E-01  9.60059E-02
  -2.01718E-02 -7.28165E-02 -4.25308E-02  7.28376E-02  2.37328E-01  4.10096E-01  5.78429E-01  7.29318E-01  8.28769E-01  8.54164E-01
   8.08932E-01  7.27444E-01  6.41918E-01  5.64443E-01  5.07562E-01  4.74657E-01  4.53742E-01  4.38992E-01  4.27969E-01  4.19432E-01
   4.12687E-01  4.07339E-01  4.03178E-01  4.00119E-01  3.98153E-01  3.97329E-01  3.97727E-01  3.99459E-01  4.02657E-01  4.07472E-01
   4.14062E-01  4.22594E-01  4.33233E-01  4.46153E-01  4.61520E-01  4.79495E-01  5.00211E-01  5.23779E-01  5.50262E-01  5.79673E-01
   6.11953E-01  6.46953E-01  6.84423E-01  7.23998E-01  7.65193E-01  8.07403E-01  8.49899E-01  8.91849E-01  9.32333E-01  9.70379E-01
   1.00500E+00  1.03524E+00  1.06019E+00  1.07909E+00  1.09131E+00  1.09643E+00  1.09425E+00  1.08478E+00  1.06829E+00  1.04524E+00
   1.01631E+00  9.82336E-01  9.44256E-01  9.03091E-01  8.59875E-01  8.15622E-01  7.71282E-01  7.27709E-01  6.85636E-01  6.45659E-01
   6.08233E-01  5.73674E-01  5.42173E-01  5.13804E-01  4.88544E-01  4.66290E-01  4.46880E-01  4.30114E-01  4.15766E-01  4.03600E-01
   3.93377E-01  3.84867E-01  3.77853E-01  3.72140E-01  3.67551E-01  3.63927E-01  3.61130E-01  3.59037E-01  3.57547E-01  3.56573E-01
   3.56041E-01  3.55888E-01  3.56058E-01  3.56506E-01  3.57196E-01  3.58097E-01  3.59181E-01  3.60425E-01  3.61807E-01  3.63312E-01
   3.64926E-01  3.66638E-01  3.68437E-01  3.70311E-01  3.72253E-01  3.74256E-01  3.76315E-01  3.78426E-01  3.80581E-01  3.82776E-01
   3.85008E-01  3.87273E-01  3.89571E-01  3.91897E-01  3.94249E-01  3.96623E-01  3.99019E-01  4.01436E-01  4.03874E-01  4.06328E-01
   4.08799E-01  4.11283E-01  4.13782E-01  4.16296E-01  4.18823E-01  4.21363E-01  4.23913E-01  4.26473E-01  4.29046E-01  4.31630E-01
   4.34226E-01  4.36830E-01  4.39444E-01  4.42068E-01  4.44705E-01  4.47352E-01  4.50010E-01  4.52678E-01  4.55357E-01  4.58049E-01
   4.60755E-01  4.63475E-01  4.66209E-01  4.68957E-01  4.71722E-01  4.74507E-01  4.77314E-01  4.80143E-01
 NY background values follow
    -7.325E+00   -7.290E+00   -7.255E+00   -7.220E+00   -7.185E+00   -7.150E+00   -7.115E+00   -7.080E+00   -7.045E+00   -7.010E+00
    -6.975E+00   -6.940E+00   -6.905E+00   -6.870E+00   -6.835E+00   -6.800E+00   -6.765E+00   -6.730E+00   -6.695E+00   -6.660E+00
    -6.625E+00   -6.590E+00   -6.555E+00   -6.521E+00   -6.486E+00   -6.451E+00   -6.416E+00   -6.381E+00   -6.346E+00   -6.311E+00
    -6.276E+00   -6.242E+00   -6.207E+00   -6.172E+00   -6.137E+00   -6.103E+00   -6.068E+00   -6.033E+00   -5.999E+00   -5.964E+00
    -5.930E+00   -5.895E+00   -5.861E+00   -5.826E+00   -5.792E+00   -5.757E+00   -5.723E+00   -5.689E+00   -5.655E+00   -5.620E+00
    -5.586E+00   -5.552E+00   -5.518E+00   -5.484E+00   -5.450E+00   -5.416E+00   -5.382E+00   -5.348E+00   -5.315E+00   -5.281E+00
    -5.247E+00   -5.214E+00   -5.180E+00   -5.147E+00   -5.113E+00   -5.080E+00   -5.047E+00   -5.013E+00   -4.980E+00   -4.947E+00
    -4.914E+00   -4.881E+00   -4.848E+00   -4.815E+00   -4.783E+00   -4.750E+00   -4.717E+00   -4.685E+00   -4.652E+00   -4.620E+00
    -4.588E+00   -4.556E+00   -4.524E+00   -4.492E+00   -4.460E+00   -4.428E+00   -4.396E+00   -4.364E+00   -4.333E+00   -4.301E+00
    -4.270E+00   -4.239E+00   -4.208E+00   -4.177E+00   -4.146E+00   -4.115E+00   -4.084E+00   -4.053E+00   -4.023E+00   -3.992E+00
    -3.962E+00   -3.932E+00   -3.902E+00   -3.872E+00   -3.842E+00   -3.812E+00   -3.782E+00   -3.752E+00   -3.723E+00   -3.694E+00
    -3.664E+00   -3.635E+00   -3.606E+00   -3.577E+00   -3.548E+00   -3.519E+00   -3.491E+00   -3.462E+00   -3.434E+00   -3.406E+00
    -3.378E+00   -3.350E+00   -3.322E+00   -3.294E+00   -3.266E+00   -3.239E+00   -3.211E+00   -3.184E+00   -3.157E+00   -3.130E+00
    -3.103E+00   -3.076E+00   -3.049E+00   -3.022E+00   -2.996E+00   -2.970E+00   -2.944E+00   -2.917E+00   -2.892E+00   -2.866E+00
    -2.840E+00   -2.814E+00   -2.789E+00   -2.764E+00   -2.739E+00   -2.713E+00   -2.689E+00   -2.664E+00   -2.639E+00   -2.615E+00
    -2.590E+00   -2.566E+00   -2.542E+00   -2.518E+00   -2.494E+00   -2.470E+00   -2.446E+00   -2.423E+00   -2.399E+00   -2.376E+00
    -2.353E+00   -2.330E+00   -2.307E+00   -2.284E+00   -2.261E+00   -2.239E+00   -2.216E+00   -2.194E+00   -2.172E+00   -2.150E+00
    -2.128E+00   -2.106E+00   -2.084E+00   -2.063E+00   -2.041E+00   -2.020E+00   -1.998E+00   -1.977E+00   -1.956E+00   -1.936E+00
    -1.915E+00   -1.894E+00   -1.874E+00   -1.853E+00   -1.833E+00   -1.813E+00   -1.793E+00   -1.773E+00   -1.753E+00   -1.733E+00
    -1.714E+00   -1.694E+00   -1.675E+00   -1.656E+00   -1.637E+00   -1.618E+00   -1.599E+00   -1.580E+00   -1.562E+00   -1.543E+00
    -1.525E+00   -1.506E+00   -1.488E+00   -1.470E+00   -1.452E+00   -1.434E+00   -1.417E+00   -1.399E+00   -1.381E+00   -1.364E+00
    -1.347E+00   -1.330E+00   -1.313E+00   -1.296E+00   -1.279E+00   -1.262E+00   -1.245E+00   -1.229E+00   -1.212E+00   -1.196E+00
    -1.180E+00   -1.164E+00   -1.148E+00   -1.132E+00   -1.116E+00   -1.101E+00   -1.085E+00   -1.069E+00   -1.054E+00   -1.039E+00
    -1.024E+00   -1.009E+00   -9.937E-01   -9.789E-01   -9.642E-01   -9.496E-01   -9.350E-01   -9.206E-01   -9.063E-01   -8.921E-01
    -8.780E-01   -8.640E-01   -8.501E-01   -8.363E-01   -8.226E-01   -8.090E-01   -7.955E-01   -7.821E-01   -7.688E-01   -7.556E-01
    -7.425E-01   -7.296E-01   -7.167E-01   -7.039E-01   -6.912E-01   -6.787E-01   -6.662E-01   -6.539E-01   -6.416E-01   -6.294E-01
    -6.174E-01   -6.054E-01   -5.936E-01   -5.818E-01   -5.702E-01   -5.586E-01   -5.472E-01   -5.358E-01   -5.246E-01   -5.134E-01
    -5.024E-01   -4.914E-01   -4.806E-01   -4.699E-01   -4.592E-01   -4.487E-01   -4.382E-01   -4.279E-01   -4.176E-01   -4.075E-01
    -3.974E-01   -3.875E-01   -3.776E-01   -3.679E-01   -3.582E-01   -3.486E-01   -3.391E-01   -3.298E-01   -3.205E-01   -3.113E-01
    -3.022E-01   -2.932E-01   -2.843E-01   -2.754E-01   -2.667E-01   -2.581E-01   -2.495E-01   -2.410E-01   -2.327E-01   -2.244E-01
    -2.162E-01   -2.081E-01   -2.001E-01   -1.921E-01   -1.843E-01   -1.765E-01   -1.689E-01   -1.613E-01   -1.538E-01   -1.463E-01
    -1.390E-01   -1.318E-01   -1.246E-01   -1.175E-01   -1.105E-01   -1.036E-01   -9.677E-02   -9.001E-02   -8.334E-02   -7.675E-02
    -7.023E-02   -6.379E-02   -5.743E-02   -5.115E-02   -4.494E-02   -3.881E-02   -3.275E-02   -2.676E-02   -2.084E-02   -1.499E-02
    -9.215E-03   -3.507E-03    2.133E-03    7.706E-03    1.321E-02    1.865E-02    2.403E-02    2.935E-02    3.460E-02    3.979E-02
     4.492E-02    4.998E-02    5.499E-02    5.995E-02    6.484E-02    6.968E-02    7.446E-02    7.919E-02    8.386E-02    8.848E-02
     9.305E-02    9.757E-02    1.020E-01    1.065E-01    1.108E-01    1.152E-01    1.194E-01    1.237E-01    1.279E-01    1.320E-01
     1.361E-01    1.402E-01    1.442E-01    1.482E-01    1.521E-01    1.560E-01    1.598E-01    1.637E-01    1.675E-01    1.712E-01
     1.749E-01    1.786E-01    1.822E-01    1.859E-01    1.894E-01    1.930E-01    1.965E-01    2.000E-01    2.034E-01    2.068E-01
     2.102E-01    2.136E-01    2.169E-01    2.202E-01    2.235E-01    2.268E-01    2.300E-01    2.332E-01    2.364E-01    2.396E-01
     2.427E-01    2.458E-01    2.489E-01    2.520E-01    2.551E-01    2.581E-01    2.611E-01    2.641E-01    2.671E-01    2.701E-01
     2.730E-01    2.760E-01    2.789E-01    2.818E-01    2.847E-01    2.876E-01    2.904E-01    2.933E-01    2.961E-01    2.990E-01
     3.018E-01    3.046E-01    3.074E-01    3.102E-01    3.130E-01    3.158E-01    3.186E-01    3.213E-01    3.241E-01    3.268E-01
     3.295E-01    3.323E-01    3.350E-01    3.377E-01    3.404E-01    3.431E-01    3.458E-01    3.484E-01    3.511E-01    3.538E-01
     3.564E-01    3.591E-01    3.617E-01    3.644E-01    3.670E-01    3.696E-01    3.723E-01    3.749E-01    3.775E-01    3.801E-01
     3.827E-01    3.853E-01    3.879E-01    3.905E-01    3.930E-01    3.956E-01    3.982E-01    4.008E-01    4.033E-01    4.059E-01
     4.085E-01    4.110E-01    4.136E-01    4.161E-01    4.187E-01    4.212E-01    4.238E-01    4.263E-01    4.288E-01    4.314E-01
     4.339E-01    4.364E-01    4.390E-01    4.415E-01    4.440E-01    4.466E-01    4.491E-01    4.516E-01    4.541E-01    4.566E-01
     4.592E-01    4.617E-01    4.642E-01    4.667E-01    4.692E-01    4.717E-01    4.742E-01    4.768E-01    4.793E-01    4.818E-01
     4.843E-01    4.868E-01    4.893E-01    4.918E-01    4.943E-01    4.968E-01    4.993E-01    5.018E-01    5.043E-01    5.068E-01
     5.093E-01    5.118E-01    5.144E-01    5.169E-01    5.194E-01    5.219E-01    5.244E-01    5.269E-01
 Ala      Conc. = 1.51E+01
