 LCModel (Version 6.3-1L) Copyright: S.W. Provencher.          Ref.: Magn. Reson. Med. 30:672-679 (1993).                
 Slice#1 Row#14 Col#3  PD_05_press_1_raw_act
 36 lines in following concentration table = NCONC+1
    Conc.  %SD /Cr+PCr  Metabolite                                         
   11.934 259%   0.530 Ala                                                 
    3.659  51%   0.163 Asp                                                 
    0.000 999%   0.000 Cr                                                  
   22.503  58%   1.000 PCr                                                 
    2.170  52% 9.6E-02 GABA                                                
    2.179  52% 9.7E-02 Glc                                                 
  176.581  43%   7.847 Gln                                                 
   82.744 103%   3.677 Glu                                                 
   14.979  34%   0.666 GPC                                                 
    0.000 999%   0.000 PCh                                                 
   42.970  45%   1.910 GSH                                                 
  250.939  26%  11.152 Ins                                                 
   45.249  77%   2.011 Lac                                                 
    0.000 999%   0.000 NAA                                                 
    5.220 296%   0.232 NAAG                                                
    0.744  50% 3.3E-02 Scyllo                                              
    3.693  51%   0.164 Tau                                                 
    2.215  62% 9.8E-02 -CrCH2                                              
   14.979  34%   0.666 GPC+PCh                                             
    5.220 296%   0.232 NAA+NAAG                                            
   22.503  58%   1.000 Cr+PCr                                              
  259.325  51%  11.524 Glu+Gln                                             
  234.964  33%  10.442 Lip13a                                              
    0.000 999%   0.000 Lip13b                                              
   50.684  58%   2.252 Lip09                                               
  134.190  30%   5.963 MM09                                                
   25.780  75%   1.146 Lip20                                               
  132.380  50%   5.883 MM20                                                
   42.957  45%   1.909 MM12                                                
  293.416  16%  13.039 MM14                                                
  186.767  17%   8.300 MM17                                                
  234.964  33%  10.442 Lip13a+Lip13b                                       
  571.336  14%  25.390 MM14+Lip13a+Lip13b+MM12                             
  184.874  20%   8.216 MM09+Lip09                                          
  158.160  42%   7.029 MM20+Lip20                                          
   6 lines in following misc. output table
  FWHM = 0.054 ppm    S/N =   1                                            
  Data shift = 0.061 ppm                                                   
  Ph:-126 deg      -6.6 deg/ppm                                            
  alphaB,S = 2.1E+00,   2.7E+00                                            
   14 spline knots.   Ns = 5(1)                                            
  ( 7) 3 infls.   ( 7) 3 extrs.                                            
  498 points on ppm-axis = NY
      4.000000     3.992357     3.984714     3.977070     3.969427     3.961784     3.954141     3.946497     3.938854     3.931211
      3.923568     3.915925     3.908281     3.900638     3.892995     3.885352     3.877708     3.870065     3.862422     3.854779
      3.847136     3.839492     3.831849     3.824206     3.816563     3.808919     3.801276     3.793633     3.785990     3.778347
      3.770703     3.763060     3.755417     3.747774     3.740130     3.732487     3.724844     3.717201     3.709558     3.701914
      3.694271     3.686628     3.678985     3.671341     3.663698     3.656055     3.648412     3.640769     3.633125     3.625482
      3.617839     3.610196     3.602552     3.594909     3.587266     3.579623     3.571980     3.564336     3.556693     3.549050
      3.541407     3.533763     3.526120     3.518477     3.510834     3.503191     3.495547     3.487904     3.480261     3.472618
      3.464974     3.457331     3.449688     3.442045     3.434402     3.426758     3.419115     3.411472     3.403829     3.396185
      3.388542     3.380899     3.373256     3.365613     3.357969     3.350326     3.342683     3.335040     3.327396     3.319753
      3.312110     3.304467     3.296824     3.289180     3.281537     3.273894     3.266251     3.258607     3.250964     3.243321
      3.235678     3.228034     3.220391     3.212748     3.205105     3.197462     3.189818     3.182175     3.174532     3.166889
      3.159245     3.151602     3.143959     3.136316     3.128673     3.121029     3.113386     3.105743     3.098100     3.090456
      3.082813     3.075170     3.067527     3.059884     3.052240     3.044597     3.036954     3.029311     3.021667     3.014024
      3.006381     2.998738     2.991095     2.983451     2.975808     2.968165     2.960522     2.952878     2.945235     2.937592
      2.929949     2.922306     2.914662     2.907019     2.899376     2.891733     2.884089     2.876446     2.868803     2.861160
      2.853517     2.845873     2.838230     2.830587     2.822944     2.815300     2.807657     2.800014     2.792371     2.784728
      2.777084     2.769441     2.761798     2.754155     2.746511     2.738868     2.731225     2.723582     2.715939     2.708295
      2.700652     2.693009     2.685366     2.677722     2.670079     2.662436     2.654793     2.647150     2.639506     2.631863
      2.624220     2.616577     2.608933     2.601290     2.593647     2.586004     2.578361     2.570717     2.563074     2.555431
      2.547788     2.540144     2.532501     2.524858     2.517215     2.509572     2.501928     2.494285     2.486642     2.478999
      2.471355     2.463712     2.456069     2.448426     2.440783     2.433139     2.425496     2.417853     2.410210     2.402566
      2.394923     2.387280     2.379637     2.371994     2.364350     2.356707     2.349064     2.341421     2.333777     2.326134
      2.318491     2.310848     2.303205     2.295561     2.287918     2.280275     2.272632     2.264988     2.257345     2.249702
      2.242059     2.234416     2.226772     2.219129     2.211486     2.203843     2.196199     2.188556     2.180913     2.173270
      2.165627     2.157983     2.150340     2.142697     2.135054     2.127410     2.119767     2.112124     2.104481     2.096838
      2.089194     2.081551     2.073908     2.066265     2.058621     2.050978     2.043335     2.035692     2.028049     2.020405
      2.012762     2.005119     1.997476     1.989833     1.982190     1.974546     1.966903     1.959260     1.951617     1.943974
      1.936331     1.928688     1.921045     1.913402     1.905759     1.898115     1.890472     1.882829     1.875186     1.867543
      1.859900     1.852257     1.844614     1.836971     1.829327     1.821684     1.814041     1.806398     1.798755     1.791112
      1.783469     1.775826     1.768183     1.760540     1.752896     1.745253     1.737610     1.729967     1.722324     1.714681
      1.707038     1.699395     1.691752     1.684108     1.676465     1.668822     1.661179     1.653536     1.645893     1.638250
      1.630607     1.622964     1.615321     1.607677     1.600034     1.592391     1.584748     1.577105     1.569462     1.561819
      1.554176     1.546533     1.538890     1.531246     1.523603     1.515960     1.508317     1.500674     1.493031     1.485388
      1.477745     1.470102     1.462458     1.454815     1.447172     1.439529     1.431886     1.424243     1.416600     1.408957
      1.401314     1.393671     1.386027     1.378384     1.370741     1.363098     1.355455     1.347812     1.340169     1.332526
      1.324883     1.317240     1.309596     1.301953     1.294310     1.286667     1.279024     1.271381     1.263738     1.256095
      1.248452     1.240808     1.233165     1.225522     1.217879     1.210236     1.202593     1.194950     1.187307     1.179664
      1.172021     1.164377     1.156734     1.149091     1.141448     1.133805     1.126162     1.118519     1.110876     1.103233
      1.095590     1.087946     1.080303     1.072660     1.065017     1.057374     1.049731     1.042088     1.034445     1.026802
      1.019158     1.011515     1.003872     0.996229     0.988586     0.980943     0.973300     0.965657     0.958014     0.950371
      0.942727     0.935084     0.927441     0.919798     0.912155     0.904512     0.896869     0.889226     0.881583     0.873940
      0.866296     0.858653     0.851010     0.843367     0.835724     0.828081     0.820438     0.812795     0.805152     0.797508
      0.789865     0.782222     0.774579     0.766936     0.759293     0.751650     0.744007     0.736364     0.728721     0.721077
      0.713434     0.705791     0.698148     0.690505     0.682862     0.675219     0.667576     0.659933     0.652290     0.644646
      0.637003     0.629360     0.621717     0.614074     0.606431     0.598788     0.591145     0.583502     0.575858     0.568215
      0.560572     0.552929     0.545286     0.537643     0.530000     0.522357     0.514714     0.507071     0.499427     0.491784
      0.484141     0.476498     0.468855     0.461212     0.453569     0.445925     0.438282     0.430639     0.422996     0.415353
      0.407710     0.400067     0.392424     0.384780     0.377137     0.369494     0.361851     0.354208     0.346565     0.338922
      0.331278     0.323635     0.315992     0.308349     0.300706     0.293063     0.285420     0.277777     0.270133     0.262490
      0.254847     0.247204     0.239561     0.231918     0.224275     0.216631     0.208988     0.201345
 NY phased data points follow
   2.13341E-01  1.05344E+00  6.94269E-01  3.95599E+00  3.49603E+00  1.46332E+00  2.56271E+00  4.05276E+00  3.45595E+00  1.37958E+00
   1.39787E+00  6.51555E-01  2.86853E+00  1.75954E+00  9.25735E-01  3.54515E+00  1.73425E+00  3.08929E+00  5.35573E-01  1.83965E+00
   1.02012E+00  3.71319E-01  1.04965E+00  1.55108E+00  1.41998E+00 -5.13867E-01  4.68395E-01  8.47249E-01  9.93241E-01  1.77379E+00
   3.12295E+00  3.03272E+00  9.37380E-02  8.60254E-01  1.93971E-01  1.68860E+00  2.37777E+00  2.10119E+00  1.79165E+00  2.14371E+00
   2.57441E+00  9.49508E-01  9.31340E-01  5.28605E-01  4.57067E-01  9.89988E-01  2.29312E+00  1.80878E+00  2.02815E+00  1.20821E+00
  -2.90577E-01  1.59123E+00  2.48155E+00  5.23173E-01  1.66947E+00 -7.89372E-02  1.63996E+00  6.50762E-01  5.26067E-01  1.48184E+00
   1.12007E+00  1.09384E+00  1.98650E+00  1.99410E+00  2.40681E-01  1.81830E+00  1.55410E+00  9.73754E-01 -4.75042E-02  4.71426E-01
   1.06917E+00  1.81512E+00 -5.96691E-01  1.30075E-01  1.70823E+00  2.06088E+00 -1.08097E+00 -7.15751E-01  6.92369E-01 -4.82567E-01
   5.73512E-01  4.64001E-01 -1.35073E-01 -6.80705E-01 -3.99489E-01  2.18363E-01  1.30127E+00  1.03461E+00  6.55531E-01  1.73183E+00
  -6.13526E-01  1.48266E+00  4.59970E-01 -1.15457E+00 -4.75654E-01 -1.96817E+00  1.51468E-01 -1.35224E-01  6.30202E-01 -1.43620E+00
  -3.89358E-01  1.85578E+00  4.07309E-01  2.10748E+00  1.69944E+00 -1.58867E-01  7.74851E-01 -1.33168E+00 -1.82533E-01  1.03578E+00
   1.25540E+00 -1.38174E-01 -2.69112E-01  8.57920E-01 -1.44548E+00  3.25771E-01  8.99331E-01 -1.17391E+00  1.24892E+00 -1.27290E+00
  -1.45370E+00 -2.08117E-01  6.33514E-01 -1.85429E+00  1.29969E+00 -7.82066E-02 -8.12073E-01 -1.18680E-01 -5.39177E-01  8.75655E-01
  -1.04628E+00  7.55428E-01 -4.88787E-01 -6.92696E-01  3.31681E-01  4.97113E-01 -1.53456E+00 -1.68085E-01  2.27521E-02 -2.66850E-02
   1.32282E-01 -2.30913E-01 -1.30363E+00 -1.28001E+00  3.20218E-01 -1.93658E+00 -1.79956E+00 -2.43063E-01 -4.54345E-01 -1.24628E+00
  -1.13603E+00 -2.25967E-01 -2.13079E+00 -5.98858E-01 -4.09796E-01 -8.21391E-01 -2.23974E-01 -9.87292E-01  5.49706E-02  5.00232E-01
  -1.29619E+00 -1.39124E+00 -1.22396E+00 -1.22404E+00 -2.44715E-01 -9.18269E-01 -3.49799E-02  1.71524E-01 -4.58698E-01 -8.69001E-01
   3.98316E-01  4.47394E-01 -3.31492E-01 -5.88033E-02  8.09631E-02 -5.49712E-01 -1.81173E+00  1.04607E+00  2.46104E-01  1.54711E+00
   7.69869E-01 -3.21964E-01 -2.41439E+00 -1.36849E+00 -1.00292E+00  3.06890E-02  1.85726E+00 -1.69322E+00 -3.94055E-01  5.33174E-01
   2.35893E-01  4.41107E-01  9.56436E-01 -3.88459E-02  8.23758E-01 -3.45277E-01  1.09339E-01  1.36479E+00  5.58968E-02 -1.16832E+00
  -1.18296E-01 -5.07331E-01  4.34848E-01  3.80587E-01 -5.29325E-01  1.36497E+00  7.60576E-01  8.80466E-01  1.31560E+00 -1.02837E+00
  -9.70659E-01  1.11178E+00  1.51215E+00  9.60966E-01  5.62046E-01  5.63774E-01 -1.19113E+00  2.03891E+00  3.77279E-02  1.06491E+00
   3.94319E-02  6.41362E-01 -3.91139E-01  6.05749E-01  2.43061E+00  1.27373E+00  5.87838E-01  1.05245E+00  4.83404E-01 -1.22591E-01
  -8.59704E-01 -1.87163E-01 -4.36939E-01  1.44251E-01 -9.07164E-01  1.52219E+00 -5.62242E-01 -4.39081E-02 -4.09460E-02  1.06053E+00
  -1.99930E+00  4.58843E-01  9.18112E-01  3.08487E-01  1.71871E+00  1.42028E+00  1.74612E-01  9.54755E-01  4.89347E-01  5.66886E-01
   1.86489E+00  2.22922E-01  1.25865E+00 -5.88758E-01 -6.33972E-02 -4.59877E-01  2.50009E+00  1.05447E-01 -9.03154E-01  7.53410E-01
   1.34037E+00 -6.25260E-01  2.50704E-01  4.68836E-01 -1.05032E+00 -2.65902E-02 -8.99351E-01 -4.21779E-01 -4.96149E-01  7.34143E-02
  -8.90787E-02  1.15885E+00 -9.64202E-01  4.54110E-01  2.95572E-01  4.09006E-01 -5.36498E-01 -1.26292E+00  7.14970E-01 -2.39040E-01
  -1.90606E-01 -4.25100E-01 -1.21749E+00 -2.24938E+00 -6.45174E-01 -3.25342E-01 -9.75168E-01 -1.18578E-01 -3.80122E-01  5.91578E-01
   9.09612E-01 -7.25667E-01  1.15345E+00  8.97994E-01 -1.55467E-01  2.99295E-01  3.02566E+00  1.96145E-01  1.53415E+00  8.92263E-01
   1.79735E+00  1.72693E+00  1.84250E+00  9.04801E-01  1.42885E+00  3.21121E+00  2.82559E+00  3.95210E+00  2.46364E+00  1.49138E+00
   2.66470E+00  3.31541E+00  2.56208E+00  2.34650E+00  2.35404E+00  3.44633E+00  1.64055E+00  2.40768E+00  2.63093E+00  2.45379E+00
   2.62771E+00  2.81178E+00  4.02544E+00  2.43287E+00  1.58748E+00  2.34781E+00  2.20573E+00  1.93054E+00  2.96495E+00  3.36106E+00
   1.76098E+00  2.65284E+00  2.22302E+00  3.60215E+00  1.89702E+00  7.39118E-01  1.30087E+00  3.19542E-01  1.69791E+00  1.62061E+00
   3.04830E+00  2.41974E+00  7.54114E-01  2.76462E+00  6.08344E-01  1.80688E+00  7.69134E-01  3.05415E+00  2.09628E+00  7.46127E-01
   3.71037E-01  1.35024E+00  4.92843E-01  2.36767E+00  1.33052E+00  1.35664E+00  1.32919E+00  3.71208E-01  5.77378E-01  6.70156E-01
   6.62905E-01  7.56434E-01  1.87689E+00  7.65310E-01  1.54352E+00  2.88965E+00  1.43733E+00  5.89699E-01  1.51998E+00  1.25198E+00
   2.15617E+00 -1.19417E-01  6.75266E-01  1.17601E+00  2.01385E+00 -2.72525E-01  4.49339E-03  1.77893E-01  7.40060E-01  1.09229E+00
  -7.38818E-01  2.85965E-01 -3.10499E-01  8.85587E-01  9.13584E-01 -5.57223E-01  2.30248E+00  1.79777E+00 -9.30229E-01  7.60639E-02
   2.23985E+00  4.43691E-01  3.27304E-01  6.91062E-01 -8.56202E-01  1.55209E+00  2.36562E-01  1.28801E+00  1.06638E+00  9.95017E-01
   2.92015E-01  1.93404E-01  1.17450E+00  5.96516E-02  2.80393E+00  5.81994E-01  6.05518E-01 -3.58197E-01 -3.90379E-02  2.72482E+00
   1.47581E+00  1.45628E+00  9.83989E-01  1.68331E+00  7.26188E-01  7.70701E-01  2.15157E-02 -9.95147E-01  7.54000E-01 -3.20911E-01
  -6.63627E-01  7.58186E-01  1.33972E+00  3.95502E-02  1.18254E+00  1.24813E-01  1.04554E+00  1.20504E+00 -5.80874E-02 -1.59967E+00
   1.26046E+00 -1.01628E-01  8.29368E-01  4.03640E-01 -6.07031E-01 -5.08689E-01 -6.06156E-01  2.36514E-01  2.08102E-01 -1.00255E+00
   3.47727E-01  4.63955E-02  1.24444E+00 -1.12221E+00 -3.46384E-01  8.41317E-01  1.35359E+00  2.53434E-01 -3.75618E-01  1.58784E-01
  -1.68935E+00  1.09692E+00  5.54746E-01  2.61635E-01 -3.14502E-01  1.86198E+00 -1.92802E+00  7.39024E-01 -7.14691E-01  6.51413E-01
   4.47977E-01  2.45395E-01  1.52975E+00  8.17718E-01 -8.70669E-01 -2.91638E-01  3.75893E-01  1.41498E+00  1.62361E+00  1.11485E+00
   8.70787E-01 -5.05469E-01 -2.16231E-01 -4.46534E-01 -1.54802E-01 -1.49171E+00 -1.54955E+00  4.83474E-01 -7.49209E-01  3.73568E-02
  -3.91339E-01 -1.47984E+00  3.10847E-01  7.99008E-01  1.55793E+00 -8.29641E-01  5.71137E-01  2.07956E-01  9.12187E-01 -4.62051E-01
  -5.66616E-01 -2.23022E-01 -1.37476E-01 -3.44243E-01 -2.30897E-01  5.43806E-01 -1.00602E-01 -2.18274E-01
 NY points of the fit to the data follow
   1.20851E+00  1.25801E+00  9.68523E-01  9.13824E-01  9.83794E-01  9.19441E-01  1.03162E+00  1.17890E+00  1.31156E+00  1.19341E+00
   8.90617E-01  8.49015E-01  1.02527E+00  1.24902E+00  1.25324E+00  9.24174E-01  8.76056E-01  9.20588E-01  9.50154E-01  9.66480E-01
   1.02573E+00  9.80740E-01  9.10039E-01  9.83860E-01  1.05244E+00  1.22229E+00  1.20289E+00  1.09823E+00  1.52443E+00  2.00192E+00
   2.52323E+00  2.25094E+00  1.41032E+00  9.31013E-01  8.98349E-01  1.48086E+00  1.84020E+00  1.58482E+00  1.25099E+00  7.97898E-01
   6.66074E-01  8.04190E-01  1.25919E+00  1.38973E+00  1.31264E+00  1.59927E+00  2.14299E+00  2.41789E+00  1.71461E+00  5.61749E-01
   2.32613E-01  1.00907E+00  1.86893E+00  1.63229E+00  7.59048E-01  2.64472E-01  3.52324E-01  4.90766E-01  6.57014E-01  9.45015E-01
   9.62012E-01  7.80914E-01  5.45789E-01  4.64932E-01  7.81473E-01  8.74478E-01  8.96225E-01  8.65696E-01  5.92112E-01  5.31503E-01
   5.54371E-01  7.23480E-01  8.61628E-01  7.23242E-01  6.43567E-01  6.04472E-01  7.04716E-01  7.50895E-01  5.42374E-01  4.22702E-01
   3.75238E-01  2.98575E-01  1.61591E-01  1.03609E-01  7.14508E-02  3.72346E-03 -1.73118E-01 -3.05945E-01 -2.10904E-01  3.58869E-02
   1.97446E-01  1.84282E-01 -4.20086E-02 -4.76672E-02  1.15320E-01  2.82678E-01  3.58892E-01  3.64985E-01  6.74465E-01  8.24963E-01
   5.66796E-01  9.09786E-01  1.18143E+00  1.47398E+00  1.06713E+00  1.75214E-01  3.62138E-02  5.13013E-01  1.26578E+00  1.21048E+00
   2.32094E-01  1.54314E-02  6.57236E-03  3.15887E-02  4.72604E-02  5.87937E-02  8.09378E-02  1.09253E-01  1.27859E-01  1.56744E-01
   2.21303E-01  4.28421E-01  5.04294E-01  3.61376E-01  5.34386E-01  7.69692E-01  9.91475E-01  7.89959E-01  3.18380E-01  2.77011E-01
   4.89883E-01  8.16401E-01  8.17126E-01  3.12409E-01  1.39110E-01 -7.68652E-03 -1.72050E-01 -5.93246E-02  1.03022E-01  2.53902E-01
   2.18872E-01  5.62545E-02  4.13615E-02 -3.06388E-04 -8.67926E-03  1.18679E-01  1.57694E-01  2.10569E-01  1.47264E-01  5.69585E-02
   1.29374E-02 -1.75800E-02 -2.87598E-02 -3.98877E-02 -3.88653E-02 -4.39404E-02 -4.45267E-02 -3.37904E-02 -4.50302E-02 -7.00376E-02
  -8.40566E-02 -7.04575E-02 -4.37076E-02 -4.76366E-02 -6.18048E-02 -7.45693E-02 -6.97621E-02 -6.26764E-02 -6.08464E-02 -6.53738E-02
  -7.39123E-02 -7.36982E-02 -6.20991E-02 -6.17344E-02 -7.51337E-02 -9.70388E-02 -1.07124E-01 -9.94200E-02 -9.38839E-02 -8.90165E-02
  -1.15091E-01 -1.54263E-01 -1.31934E-01 -1.21786E-01 -1.16711E-01 -1.10569E-01 -1.00286E-01 -5.23554E-02 -2.88633E-02 -5.57266E-02
  -1.71074E-02 -7.40586E-02 -1.67256E-01 -3.02848E-01 -4.26771E-01 -3.30781E-01 -2.20873E-01 -1.15274E-01 -6.13669E-02  1.67685E-03
   3.53211E-01  4.43554E-01  2.58502E-01  8.72719E-02 -8.77911E-02 -1.39465E-01  1.15101E-01  1.98082E-01 -3.22146E-01 -7.85163E-01
  -6.40317E-01  1.98867E-01  6.04461E-01  4.17064E-01 -1.05229E-01 -4.80356E-01  6.04996E-02  5.61281E-01  4.72074E-01  5.23656E-01
   5.60681E-01  4.71949E-01  1.61269E-01  2.49081E-01  5.06790E-01  4.74453E-01  2.12809E-01  3.78614E-02  2.38668E-01  5.54290E-01
   4.93445E-01  1.69908E-01  2.99874E-01  5.56263E-01  5.33619E-01  2.91260E-01  1.91365E-01  4.67976E-01  7.07342E-01  8.48120E-01
   4.55683E-01  7.45151E-02  9.98446E-02  1.99716E-01  2.72379E-01  3.64230E-01  5.88105E-01  4.50791E-01 -3.82032E-02  1.06647E-01
   3.12452E-01  5.71033E-01  6.59547E-01  6.76925E-01  6.05588E-01  6.56079E-01  7.73539E-01  6.45683E-01  5.16575E-01  5.44082E-01
   6.37285E-01  6.77826E-01  4.67883E-01  3.21605E-01  2.79896E-01  3.17571E-01  3.65412E-01  3.63405E-01  3.49792E-01  3.27982E-01
   2.57847E-01  2.37734E-01  2.59407E-01  2.61809E-01  2.51234E-01  2.19965E-01  1.93242E-01  1.86571E-01  2.02618E-01  2.09158E-01
   1.92771E-01  1.82898E-01  1.82061E-01  1.80760E-01  1.79466E-01  1.78812E-01  1.85718E-01  2.03084E-01  2.22208E-01  2.45877E-01
   2.76413E-01  3.13591E-01  3.57342E-01  4.08388E-01  4.69705E-01  5.42819E-01  6.25076E-01  7.19385E-01  8.23497E-01  9.34504E-01
   1.05457E+00  1.18045E+00  1.30862E+00  1.43624E+00  1.55987E+00  1.67802E+00  1.78688E+00  1.88294E+00  1.96444E+00  2.02905E+00
   2.07650E+00  2.10763E+00  2.12274E+00  2.12381E+00  2.11352E+00  2.09461E+00  2.07036E+00  2.04419E+00  2.01946E+00  1.99935E+00
   1.98756E+00  1.99080E+00  2.01169E+00  1.96850E+00  1.94049E+00  1.98572E+00  2.00844E+00  1.97883E+00  1.84206E+00  1.74367E+00
   1.83345E+00  1.94738E+00  1.92624E+00  1.79408E+00  1.70563E+00  1.82172E+00  1.87412E+00  1.76849E+00  1.66278E+00  1.63458E+00
   1.73583E+00  1.85196E+00  1.86324E+00  1.82142E+00  1.51845E+00  1.58887E+00  1.67778E+00  1.66994E+00  1.29864E+00  6.86931E-01
   7.57536E-01  1.26194E+00  1.37087E+00  1.26154E+00  7.71110E-01  1.09487E+00  1.48840E+00  1.26130E+00  9.60002E-01  9.06202E-01
   1.25459E+00  1.68755E+00  1.44028E+00  1.21498E+00  1.09742E+00  1.01501E+00  9.46959E-01  8.86266E-01  8.30300E-01  7.78069E-01
   7.29348E-01  6.84010E-01  6.42071E-01  6.03577E-01  5.68815E-01  5.38066E-01  5.11629E-01  4.89592E-01  4.72065E-01  4.59123E-01
   4.51006E-01  4.47882E-01  4.49925E-01  4.57137E-01  4.69583E-01  4.87281E-01  5.10352E-01  5.38755E-01  5.72399E-01  6.10971E-01
   6.54156E-01  7.01476E-01  7.52421E-01  8.06205E-01  8.61922E-01  9.18421E-01  9.74552E-01  1.02902E+00  1.08055E+00  1.12774E+00
   1.16928E+00  1.20386E+00  1.23048E+00  1.24826E+00  1.25665E+00  1.25523E+00  1.24396E+00  1.22303E+00  1.19304E+00  1.15474E+00
   1.10915E+00  1.05734E+00  1.00059E+00  9.40168E-01  8.77423E-01  8.13562E-01  7.49752E-01  6.86937E-01  6.26018E-01  5.67663E-01
   5.12469E-01  4.60760E-01  4.12800E-01  3.68633E-01  3.28300E-01  2.91677E-01  2.58659E-01  2.28984E-01  2.02443E-01  1.78728E-01
   1.57629E-01  1.38859E-01  1.22225E-01  1.07434E-01  9.43085E-02  8.26082E-02  7.22219E-02  6.29606E-02  5.47301E-02  4.73489E-02
   4.07507E-02  3.48070E-02  2.95010E-02  2.47172E-02  2.04325E-02  1.65366E-02  1.30330E-02  9.84552E-03  6.99344E-03  4.39553E-03
   2.06276E-03 -8.06830E-05 -2.00169E-03 -3.76143E-03 -5.32161E-03 -6.75109E-03 -8.02483E-03 -9.20278E-03 -1.02437E-02 -1.11920E-02
  -1.20102E-02 -1.27627E-02 -1.34142E-02 -1.40193E-02 -1.45226E-02 -1.49743E-02 -1.53369E-02 -1.56721E-02 -1.59419E-02 -1.61829E-02
  -1.63436E-02 -1.64783E-02 -1.65510E-02 -1.66195E-02 -1.66342E-02 -1.66357E-02 -1.65720E-02 -1.65001E-02 -1.63837E-02 -1.62745E-02
  -1.61187E-02 -1.59567E-02 -1.57410E-02 -1.55312E-02 -1.52882E-02 -1.50591E-02 -1.47863E-02 -1.45130E-02 -1.41963E-02 -1.38963E-02
  -1.35698E-02 -1.32596E-02 -1.29072E-02 -1.25599E-02 -1.21781E-02 -1.18220E-02 -1.14436E-02 -1.10817E-02
 NY background values follow
     3.918E-01    3.883E-01    3.847E-01    3.812E-01    3.776E-01    3.741E-01    3.705E-01    3.669E-01    3.633E-01    3.598E-01
     3.562E-01    3.526E-01    3.490E-01    3.454E-01    3.418E-01    3.382E-01    3.346E-01    3.310E-01    3.274E-01    3.238E-01
     3.202E-01    3.166E-01    3.129E-01    3.093E-01    3.057E-01    3.021E-01    2.985E-01    2.949E-01    2.912E-01    2.876E-01
     2.840E-01    2.804E-01    2.767E-01    2.731E-01    2.695E-01    2.659E-01    2.623E-01    2.586E-01    2.550E-01    2.514E-01
     2.478E-01    2.442E-01    2.406E-01    2.370E-01    2.333E-01    2.297E-01    2.261E-01    2.225E-01    2.189E-01    2.153E-01
     2.117E-01    2.082E-01    2.046E-01    2.010E-01    1.974E-01    1.938E-01    1.903E-01    1.867E-01    1.832E-01    1.796E-01
     1.761E-01    1.725E-01    1.690E-01    1.655E-01    1.619E-01    1.584E-01    1.549E-01    1.514E-01    1.479E-01    1.444E-01
     1.410E-01    1.375E-01    1.341E-01    1.306E-01    1.272E-01    1.237E-01    1.203E-01    1.169E-01    1.135E-01    1.101E-01
     1.068E-01    1.034E-01    1.000E-01    9.669E-02    9.336E-02    9.005E-02    8.674E-02    8.345E-02    8.017E-02    7.691E-02
     7.365E-02    7.042E-02    6.719E-02    6.398E-02    6.079E-02    5.761E-02    5.444E-02    5.129E-02    4.816E-02    4.504E-02
     4.193E-02    3.885E-02    3.578E-02    3.272E-02    2.969E-02    2.667E-02    2.366E-02    2.068E-02    1.771E-02    1.476E-02
     1.183E-02    8.918E-03    6.024E-03    3.149E-03    2.938E-04   -2.542E-03   -5.359E-03   -8.155E-03   -1.093E-02   -1.369E-02
    -1.642E-02   -1.914E-02   -2.183E-02   -2.450E-02   -2.715E-02   -2.978E-02   -3.239E-02   -3.497E-02   -3.754E-02   -4.007E-02
    -4.259E-02   -4.508E-02   -4.755E-02   -5.000E-02   -5.242E-02   -5.482E-02   -5.719E-02   -5.954E-02   -6.186E-02   -6.416E-02
    -6.644E-02   -6.869E-02   -7.092E-02   -7.312E-02   -7.530E-02   -7.745E-02   -7.959E-02   -8.169E-02   -8.378E-02   -8.584E-02
    -8.787E-02   -8.989E-02   -9.188E-02   -9.385E-02   -9.579E-02   -9.771E-02   -9.961E-02   -1.015E-01   -1.033E-01   -1.052E-01
    -1.070E-01   -1.088E-01   -1.105E-01   -1.123E-01   -1.140E-01   -1.157E-01   -1.173E-01   -1.190E-01   -1.206E-01   -1.222E-01
    -1.238E-01   -1.254E-01   -1.269E-01   -1.284E-01   -1.299E-01   -1.314E-01   -1.329E-01   -1.343E-01   -1.357E-01   -1.371E-01
    -1.385E-01   -1.399E-01   -1.412E-01   -1.425E-01   -1.438E-01   -1.451E-01   -1.463E-01   -1.475E-01   -1.488E-01   -1.499E-01
    -1.511E-01   -1.523E-01   -1.534E-01   -1.545E-01   -1.556E-01   -1.567E-01   -1.577E-01   -1.588E-01   -1.598E-01   -1.608E-01
    -1.618E-01   -1.627E-01   -1.637E-01   -1.646E-01   -1.655E-01   -1.664E-01   -1.673E-01   -1.682E-01   -1.690E-01   -1.698E-01
    -1.706E-01   -1.714E-01   -1.722E-01   -1.729E-01   -1.737E-01   -1.744E-01   -1.751E-01   -1.758E-01   -1.765E-01   -1.771E-01
    -1.778E-01   -1.784E-01   -1.790E-01   -1.796E-01   -1.802E-01   -1.807E-01   -1.813E-01   -1.818E-01   -1.823E-01   -1.828E-01
    -1.833E-01   -1.838E-01   -1.843E-01   -1.847E-01   -1.851E-01   -1.856E-01   -1.860E-01   -1.863E-01   -1.867E-01   -1.871E-01
    -1.874E-01   -1.877E-01   -1.881E-01   -1.884E-01   -1.887E-01   -1.889E-01   -1.892E-01   -1.894E-01   -1.897E-01   -1.899E-01
    -1.901E-01   -1.903E-01   -1.905E-01   -1.906E-01   -1.908E-01   -1.909E-01   -1.910E-01   -1.911E-01   -1.912E-01   -1.913E-01
    -1.914E-01   -1.914E-01   -1.915E-01   -1.915E-01   -1.915E-01   -1.915E-01   -1.915E-01   -1.915E-01   -1.915E-01   -1.914E-01
    -1.914E-01   -1.913E-01   -1.912E-01   -1.911E-01   -1.910E-01   -1.909E-01   -1.907E-01   -1.906E-01   -1.904E-01   -1.903E-01
    -1.901E-01   -1.899E-01   -1.897E-01   -1.895E-01   -1.893E-01   -1.890E-01   -1.888E-01   -1.886E-01   -1.883E-01   -1.880E-01
    -1.878E-01   -1.875E-01   -1.872E-01   -1.869E-01   -1.866E-01   -1.862E-01   -1.859E-01   -1.856E-01   -1.852E-01   -1.849E-01
    -1.845E-01   -1.842E-01   -1.838E-01   -1.834E-01   -1.831E-01   -1.827E-01   -1.823E-01   -1.819E-01   -1.815E-01   -1.811E-01
    -1.807E-01   -1.803E-01   -1.799E-01   -1.794E-01   -1.790E-01   -1.786E-01   -1.781E-01   -1.777E-01   -1.773E-01   -1.768E-01
    -1.764E-01   -1.759E-01   -1.755E-01   -1.750E-01   -1.746E-01   -1.741E-01   -1.737E-01   -1.732E-01   -1.727E-01   -1.723E-01
    -1.718E-01   -1.713E-01   -1.708E-01   -1.704E-01   -1.699E-01   -1.694E-01   -1.689E-01   -1.684E-01   -1.679E-01   -1.674E-01
    -1.669E-01   -1.664E-01   -1.659E-01   -1.654E-01   -1.649E-01   -1.644E-01   -1.639E-01   -1.634E-01   -1.629E-01   -1.623E-01
    -1.618E-01   -1.613E-01   -1.608E-01   -1.602E-01   -1.597E-01   -1.592E-01   -1.587E-01   -1.581E-01   -1.576E-01   -1.570E-01
    -1.565E-01   -1.560E-01   -1.554E-01   -1.549E-01   -1.543E-01   -1.538E-01   -1.532E-01   -1.527E-01   -1.521E-01   -1.515E-01
    -1.510E-01   -1.504E-01   -1.498E-01   -1.493E-01   -1.487E-01   -1.481E-01   -1.476E-01   -1.470E-01   -1.464E-01   -1.458E-01
    -1.452E-01   -1.447E-01   -1.441E-01   -1.435E-01   -1.429E-01   -1.423E-01   -1.417E-01   -1.411E-01   -1.405E-01   -1.399E-01
    -1.393E-01   -1.387E-01   -1.381E-01   -1.375E-01   -1.368E-01   -1.362E-01   -1.356E-01   -1.350E-01   -1.344E-01   -1.337E-01
    -1.331E-01   -1.325E-01   -1.318E-01   -1.312E-01   -1.305E-01   -1.299E-01   -1.293E-01   -1.286E-01   -1.280E-01   -1.273E-01
    -1.266E-01   -1.260E-01   -1.253E-01   -1.247E-01   -1.240E-01   -1.233E-01   -1.227E-01   -1.220E-01   -1.213E-01   -1.206E-01
    -1.199E-01   -1.193E-01   -1.186E-01   -1.179E-01   -1.172E-01   -1.165E-01   -1.158E-01   -1.151E-01   -1.144E-01   -1.138E-01
    -1.131E-01   -1.124E-01   -1.117E-01   -1.110E-01   -1.103E-01   -1.096E-01   -1.089E-01   -1.081E-01   -1.074E-01   -1.067E-01
    -1.060E-01   -1.053E-01   -1.046E-01   -1.039E-01   -1.032E-01   -1.025E-01   -1.018E-01   -1.011E-01   -1.003E-01   -9.964E-02
    -9.893E-02   -9.821E-02   -9.750E-02   -9.679E-02   -9.608E-02   -9.536E-02   -9.465E-02   -9.394E-02   -9.322E-02   -9.251E-02
    -9.180E-02   -9.109E-02   -9.037E-02   -8.966E-02   -8.895E-02   -8.823E-02   -8.752E-02   -8.681E-02   -8.609E-02   -8.538E-02
    -8.467E-02   -8.395E-02   -8.324E-02   -8.253E-02   -8.182E-02   -8.110E-02   -8.039E-02   -7.968E-02   -7.896E-02   -7.825E-02
    -7.754E-02   -7.682E-02   -7.611E-02   -7.540E-02   -7.468E-02   -7.397E-02   -7.326E-02   -7.255E-02   -7.183E-02   -7.112E-02
    -7.041E-02   -6.970E-02   -6.898E-02   -6.827E-02   -6.756E-02   -6.685E-02   -6.614E-02   -6.542E-02
 Ala      Conc. = 1.19E+01
