 LCModel (Version 6.3-1L) Copyright: S.W. Provencher.          Ref.: Magn. Reson. Med. 30:672-679 (1993).                
 Slice#2 Row#8 Col#6  PD_05_press_1_raw_act
 36 lines in following concentration table = NCONC+1
    Conc.  %SD /Cr+PCr  Metabolite                                         
   16.974 389% 1.4E-02 Ala                                                 
    0.000 999%   0.000 Asp                                                 
  493.837  27%   0.399 Cr                                                  
  745.036  19%   0.601 PCr                                                 
    0.000 999%   0.000 GABA                                                
   20.421 636% 1.6E-02 Glc                                                 
  609.662  22%   0.492 Gln                                                 
 1.47E+03  11%   1.185 Glu                                                 
  555.686   3%   0.449 GPC                                                 
    0.000 999%   0.000 PCh                                                 
  365.320  14%   0.295 GSH                                                 
  910.869  19%   0.735 Ins                                                 
    0.000 999%   0.000 Lac                                                 
 1.98E+03   4%   1.598 NAA                                                 
  453.032  14%   0.366 NAAG                                                
   84.006  25% 6.8E-02 Scyllo                                              
  236.546  72%   0.191 Tau                                                 
  124.609  71%   0.101 -CrCH2                                              
  555.686   3%   0.449 GPC+PCh                                             
 2.43E+03   3%   1.964 NAA+NAAG                                            
 1.24E+03   4%   1.000 Cr+PCr                                              
 2.08E+03  10%   1.677 Glu+Gln                                             
 1.41E+03  32%   1.134 Lip13a                                              
    0.000 999%   0.000 Lip13b                                              
  240.874  98%   0.194 Lip09                                               
 1.17E+03  20%   0.946 MM09                                                
  189.761  85%   0.153 Lip20                                               
 2.42E+03  15%   1.953 MM20                                                
  418.323  39%   0.338 MM12                                                
    0.000 999%   0.000 MM14                                                
  736.299  31%   0.594 MM17                                                
 1.41E+03  32%   1.134 Lip13a+Lip13b                                       
 1.82E+03  23%   1.472 MM14+Lip13a+Lip13b+MM12                             
 1.41E+03  15%   1.140 MM09+Lip09                                          
 2.61E+03  14%   2.106 MM20+Lip20                                          
   6 lines in following misc. output table
  FWHM = 0.038 ppm    S/N =  17                                            
  Data shift = 0.008 ppm                                                   
  Ph: -48 deg     -12.8 deg/ppm                                            
  alphaB,S = 6.9E-01,   8.4E+01                                            
   14 spline knots.   Ns = 5(1)                                            
  ( 6) 4 infls.   ( 1) 1 extrs.                                            
  498 points on ppm-axis = NY
      4.000000     3.992357     3.984714     3.977070     3.969427     3.961784     3.954141     3.946497     3.938854     3.931211
      3.923568     3.915925     3.908281     3.900638     3.892995     3.885352     3.877708     3.870065     3.862422     3.854779
      3.847136     3.839492     3.831849     3.824206     3.816563     3.808919     3.801276     3.793633     3.785990     3.778347
      3.770703     3.763060     3.755417     3.747774     3.740130     3.732487     3.724844     3.717201     3.709558     3.701914
      3.694271     3.686628     3.678985     3.671341     3.663698     3.656055     3.648412     3.640769     3.633125     3.625482
      3.617839     3.610196     3.602552     3.594909     3.587266     3.579623     3.571980     3.564336     3.556693     3.549050
      3.541407     3.533763     3.526120     3.518477     3.510834     3.503191     3.495547     3.487904     3.480261     3.472618
      3.464974     3.457331     3.449688     3.442045     3.434402     3.426758     3.419115     3.411472     3.403829     3.396185
      3.388542     3.380899     3.373256     3.365613     3.357969     3.350326     3.342683     3.335040     3.327396     3.319753
      3.312110     3.304467     3.296824     3.289180     3.281537     3.273894     3.266251     3.258607     3.250964     3.243321
      3.235678     3.228034     3.220391     3.212748     3.205105     3.197462     3.189818     3.182175     3.174532     3.166889
      3.159245     3.151602     3.143959     3.136316     3.128673     3.121029     3.113386     3.105743     3.098100     3.090456
      3.082813     3.075170     3.067527     3.059884     3.052240     3.044597     3.036954     3.029311     3.021667     3.014024
      3.006381     2.998738     2.991095     2.983451     2.975808     2.968165     2.960522     2.952878     2.945235     2.937592
      2.929949     2.922306     2.914662     2.907019     2.899376     2.891733     2.884089     2.876446     2.868803     2.861160
      2.853517     2.845873     2.838230     2.830587     2.822944     2.815300     2.807657     2.800014     2.792371     2.784728
      2.777084     2.769441     2.761798     2.754155     2.746511     2.738868     2.731225     2.723582     2.715939     2.708295
      2.700652     2.693009     2.685366     2.677722     2.670079     2.662436     2.654793     2.647150     2.639506     2.631863
      2.624220     2.616577     2.608933     2.601290     2.593647     2.586004     2.578361     2.570717     2.563074     2.555431
      2.547788     2.540144     2.532501     2.524858     2.517215     2.509572     2.501928     2.494285     2.486642     2.478999
      2.471355     2.463712     2.456069     2.448426     2.440783     2.433139     2.425496     2.417853     2.410210     2.402566
      2.394923     2.387280     2.379637     2.371994     2.364350     2.356707     2.349064     2.341421     2.333777     2.326134
      2.318491     2.310848     2.303205     2.295561     2.287918     2.280275     2.272632     2.264988     2.257345     2.249702
      2.242059     2.234416     2.226772     2.219129     2.211486     2.203843     2.196199     2.188556     2.180913     2.173270
      2.165627     2.157983     2.150340     2.142697     2.135054     2.127410     2.119767     2.112124     2.104481     2.096838
      2.089194     2.081551     2.073908     2.066265     2.058621     2.050978     2.043335     2.035692     2.028049     2.020405
      2.012762     2.005119     1.997476     1.989833     1.982190     1.974546     1.966903     1.959260     1.951617     1.943974
      1.936331     1.928688     1.921045     1.913402     1.905759     1.898115     1.890472     1.882829     1.875186     1.867543
      1.859900     1.852257     1.844614     1.836971     1.829327     1.821684     1.814041     1.806398     1.798755     1.791112
      1.783469     1.775826     1.768183     1.760540     1.752896     1.745253     1.737610     1.729967     1.722324     1.714681
      1.707038     1.699395     1.691752     1.684108     1.676465     1.668822     1.661179     1.653536     1.645893     1.638250
      1.630607     1.622964     1.615321     1.607677     1.600034     1.592391     1.584748     1.577105     1.569462     1.561819
      1.554176     1.546533     1.538890     1.531246     1.523603     1.515960     1.508317     1.500674     1.493031     1.485388
      1.477745     1.470102     1.462458     1.454815     1.447172     1.439529     1.431886     1.424243     1.416600     1.408957
      1.401314     1.393671     1.386027     1.378384     1.370741     1.363098     1.355455     1.347812     1.340169     1.332526
      1.324883     1.317240     1.309596     1.301953     1.294310     1.286667     1.279024     1.271381     1.263738     1.256095
      1.248452     1.240808     1.233165     1.225522     1.217879     1.210236     1.202593     1.194950     1.187307     1.179664
      1.172021     1.164377     1.156734     1.149091     1.141448     1.133805     1.126162     1.118519     1.110876     1.103233
      1.095590     1.087946     1.080303     1.072660     1.065017     1.057374     1.049731     1.042088     1.034445     1.026802
      1.019158     1.011515     1.003872     0.996229     0.988586     0.980943     0.973300     0.965657     0.958014     0.950371
      0.942727     0.935084     0.927441     0.919798     0.912155     0.904512     0.896869     0.889226     0.881583     0.873940
      0.866296     0.858653     0.851010     0.843367     0.835724     0.828081     0.820438     0.812795     0.805152     0.797508
      0.789865     0.782222     0.774579     0.766936     0.759293     0.751650     0.744007     0.736364     0.728721     0.721077
      0.713434     0.705791     0.698148     0.690505     0.682862     0.675219     0.667576     0.659933     0.652290     0.644646
      0.637003     0.629360     0.621717     0.614074     0.606431     0.598788     0.591145     0.583502     0.575858     0.568215
      0.560572     0.552929     0.545286     0.537643     0.530000     0.522357     0.514714     0.507071     0.499427     0.491784
      0.484141     0.476498     0.468855     0.461212     0.453569     0.445925     0.438282     0.430639     0.422996     0.415353
      0.407710     0.400067     0.392424     0.384780     0.377137     0.369494     0.361851     0.354208     0.346565     0.338922
      0.331278     0.323635     0.315992     0.308349     0.300706     0.293063     0.285420     0.277777     0.270133     0.262490
      0.254847     0.247204     0.239561     0.231918     0.224275     0.216631     0.208988     0.201345
 NY phased data points follow
  -5.36260E+01 -5.05001E+01 -5.33342E+01 -5.26014E+01 -4.85877E+01 -4.37153E+01 -3.71907E+01 -3.35862E+01 -2.78104E+01 -1.70925E+01
  -1.80380E+01 -1.34898E+01 -1.60875E+01 -1.86086E+01 -2.57213E+01 -3.21798E+01 -3.60378E+01 -3.61745E+01 -3.98329E+01 -3.82130E+01
  -3.99879E+01 -4.03228E+01 -3.84240E+01 -4.00236E+01 -3.61558E+01 -3.19136E+01 -3.26595E+01 -2.84446E+01 -3.21038E+01 -3.38012E+01
  -2.29312E+01 -2.56520E+01 -2.22465E+01 -2.35277E+01 -2.35903E+01 -2.94246E+01 -2.94035E+01 -2.95393E+01 -2.96183E+01 -2.62745E+01
  -2.30109E+01 -2.42102E+01 -2.32029E+01 -2.18092E+01 -2.37326E+01 -2.20382E+01 -1.83955E+01 -1.67118E+01 -1.71182E+01 -1.65218E+01
  -1.78782E+01 -2.23154E+01 -2.45037E+01 -2.58123E+01 -2.85168E+01 -2.75034E+01 -2.65721E+01 -2.33624E+01 -2.17065E+01 -2.13093E+01
  -2.31108E+01 -2.20683E+01 -2.32205E+01 -2.77912E+01 -2.50300E+01 -2.61561E+01 -2.29405E+01 -2.42482E+01 -2.15772E+01 -2.63063E+01
  -2.55272E+01 -2.15373E+01 -2.36305E+01 -1.89793E+01 -1.83500E+01 -2.14857E+01 -1.94051E+01 -2.05649E+01 -1.88023E+01 -1.88641E+01
  -1.89664E+01 -1.87137E+01 -1.88023E+01 -1.52747E+01 -1.45209E+01 -1.53393E+01 -1.37732E+01 -1.52144E+01 -1.77778E+01 -1.27458E+01
  -1.39297E+01 -9.88354E+00 -1.31074E+01 -1.55390E+01 -1.09736E+01 -1.31654E+01 -1.13763E+01 -1.47611E+01 -8.16897E+00 -1.52176E+00
   6.58430E+00  2.86017E+01  4.11971E+01  4.95747E+01  4.01782E+01  3.28205E+01  2.33509E+01  1.27533E+01  4.12956E+00 -1.47647E+00
  -6.00694E+00 -6.22113E+00 -1.00736E+01 -8.39842E+00 -1.16249E+01 -1.01371E+01 -1.22098E+01 -7.03603E+00 -1.16996E+01 -1.12990E+01
  -8.71116E+00 -9.02312E+00 -7.87639E+00 -8.36156E+00  4.01723E+00  1.50549E+01  3.10300E+01  4.21450E+01  4.03332E+01  3.25160E+01
   2.03435E+01  1.22184E+01  7.81498E+00 -5.15360E-02 -4.21866E+00 -9.23633E+00 -9.28650E+00 -1.06131E+01 -1.04486E+01 -9.60726E+00
  -9.84057E+00 -9.41082E+00 -1.14006E+01 -7.38044E+00 -1.52747E+01 -1.29660E+01 -1.16037E+01 -1.11797E+01 -9.61043E+00 -9.10015E+00
  -1.02325E+01 -9.60011E+00 -9.59263E+00 -7.30135E+00 -1.01727E+01 -1.18722E+01 -8.86402E+00 -8.32273E+00 -8.22306E+00 -1.08448E+01
  -6.31407E+00 -1.65706E+01 -1.64133E+01 -1.34281E+01 -1.06665E+01 -7.19949E+00 -9.45678E+00 -1.19938E+01 -1.23585E+01 -1.23177E+01
  -1.33987E+01 -1.18563E+01 -1.43877E+01 -1.30698E+01 -1.70307E+01 -2.04219E+01 -1.91079E+01 -1.86895E+01 -1.45324E+01 -1.04751E+01
  -1.56542E+01 -1.61636E+01 -2.10478E+01 -1.88895E+01 -1.49602E+01 -1.57706E+01 -1.28473E+01 -1.17507E+01 -1.00708E+01 -6.09981E+00
  -3.39717E+00 -1.23057E-01  3.30510E-01 -1.30577E+00  1.48922E+00 -9.47756E-01 -2.43216E+00 -4.13820E+00 -5.47370E+00 -8.64367E+00
  -4.85922E+00 -6.81245E+00 -3.61285E-01  2.70525E+00  2.78738E+00  3.06113E+00 -5.81404E+00 -3.60416E+00 -8.11245E+00 -7.10415E+00
  -1.19551E+01 -9.16245E+00 -7.14302E+00 -4.76081E+00  3.54328E+00  6.46448E+00  1.60544E+01  1.11566E+01  8.67982E+00  5.04148E+00
   2.37733E+00 -3.67129E+00 -6.29965E+00 -4.52322E+00 -6.88088E+00 -2.75408E+00  3.76568E+00  4.51565E+00  9.72936E+00  8.34274E+00
   8.71802E+00  1.07855E+01  5.29681E+00  6.41969E+00  6.25113E+00  3.87926E+00  5.34569E+00  5.52742E+00  8.99090E+00  7.78870E+00
   6.45917E+00  2.34895E+00  3.41825E+00  5.41225E-01  2.18445E+00  7.54692E+00  1.06544E+01  1.19999E+01  1.35547E+01  1.12208E+01
   9.26010E+00  1.02240E+01  1.25972E+01  1.47810E+01  2.72908E+01  3.35033E+01  3.64806E+01  4.08637E+01  5.01901E+01  7.53428E+01
   9.85956E+01  1.07870E+02  8.85316E+01  6.35273E+01  3.92979E+01  3.74769E+01  2.87094E+01  1.99672E+01  1.17209E+01  9.66330E+00
   7.60582E+00  9.70910E+00  7.51091E+00  7.89365E+00  1.08188E+01  5.26160E+00 -8.08085E-01  5.64118E+00  3.65514E+00  2.86442E+00
   5.42417E+00  9.40280E+00  3.80736E+00  3.84225E+00  7.10590E+00  4.69264E+00  4.92868E+00 -6.94807E-01  3.63176E+00  6.66001E+00
   3.82681E+00  6.85443E+00  7.26670E+00  4.21877E+00  4.41450E+00  5.19241E+00  5.21705E+00  6.87153E+00  5.81228E+00  5.62958E+00
   2.33658E+00  4.11086E+00  9.15000E+00  1.18415E+01  3.97990E+00  9.97185E+00  7.29286E+00  1.17104E+01  7.85434E+00  7.84278E+00
   8.47519E+00  9.43297E+00  8.40697E+00  6.68174E+00  7.79097E+00  4.37776E+00  8.33473E+00  8.16297E+00  6.45808E+00  5.65950E+00
   8.34572E+00  4.23594E+00  4.76205E+00  5.20637E+00  1.48800E+00  4.42836E+00  3.15824E+00  4.85355E+00  5.18708E+00  3.68816E+00
   2.47507E+00  4.14447E+00  5.85119E+00  1.94205E+00  7.69608E+00  3.45642E+00  9.11264E+00  7.79847E+00  6.60640E+00  9.38438E+00
   7.07242E+00  3.89439E+00  5.74097E+00  6.81384E+00  7.63298E+00  5.14723E+00  9.24721E+00  6.88144E+00  1.12206E+01  9.93374E+00
   1.48233E+01  1.03486E+01  1.09844E+01  1.23427E+01  1.56704E+01  1.34928E+01  8.16163E+00  1.07223E+01  6.20303E+00  1.17051E+01
   1.15536E+01  1.38343E+01  1.60550E+01  1.87111E+01  1.43277E+01  1.65319E+01  1.42321E+01  1.33580E+01  1.70236E+01  1.20737E+01
   1.20597E+01  9.46638E+00  1.13163E+01  1.07089E+01  8.62281E+00  1.08746E+01  8.50319E+00  8.11177E+00  1.03352E+01  8.66285E+00
   1.09457E+01  8.03119E+00  9.65970E+00  3.85454E+00  7.21620E+00  7.28714E+00  6.97400E+00  7.63435E+00  1.11230E+01  5.96171E+00
   6.78713E+00  1.10861E+01  1.14686E+01  1.14743E+01  1.51436E+01  1.81888E+01  1.98078E+01  2.04833E+01  1.30832E+01  1.65335E+01
   1.51054E+01  1.36445E+01  1.69571E+01  1.70261E+01  1.52305E+01  1.76115E+01  1.48203E+01  1.50613E+01  1.86102E+01  1.83869E+01
   1.77146E+01  1.80086E+01  1.80535E+01  1.67501E+01  1.22050E+01  1.22036E+01  1.58932E+01  1.20900E+01  1.38953E+01  1.34740E+01
   9.71570E+00  1.04373E+01  9.63140E+00  1.17808E+01  9.81151E+00  9.78797E+00  1.05655E+01  1.29780E+01  9.35000E+00  8.53293E+00
   1.21164E+01  9.48759E+00  1.07069E+01  1.20330E+01  7.63505E+00  9.94728E+00  7.84431E+00  6.54136E+00  9.20312E+00  1.04561E+01
   1.40636E+01  1.29944E+01  1.06973E+01  9.04506E+00  9.15191E+00  7.88302E+00  9.93439E+00  8.30818E+00  1.24558E+01  1.02378E+01
   9.60232E+00  1.00245E+01  6.94386E+00  9.63318E+00  9.45896E+00  1.15546E+01  1.03088E+01  1.21725E+01  3.93232E+00  8.07553E+00
   9.59960E+00  9.13263E+00  1.04773E+01  8.31498E+00  9.34449E+00  6.76678E+00  7.04584E+00  1.09723E+01  1.15403E+01  9.97427E+00
   1.05763E+01  1.19547E+01  9.81873E+00  1.15680E+01  8.24362E+00  8.94053E+00  8.47395E+00  1.00708E+01  1.01451E+01  7.17609E+00
   9.16462E+00  8.96887E+00  9.85399E+00  1.05237E+01  7.52922E+00  8.18128E+00  9.27516E+00  1.22776E+01  8.71473E+00  4.99434E+00
   1.38316E+01  8.83254E+00  1.03550E+01  7.99553E+00  7.12596E+00  1.05860E+01  7.45615E+00  8.67418E+00
 NY points of the fit to the data follow
  -4.89176E+01 -4.86535E+01 -4.81917E+01 -4.73467E+01 -4.59440E+01 -4.35885E+01 -3.98096E+01 -3.39321E+01 -2.64776E+01 -1.92871E+01
  -1.46712E+01 -1.40097E+01 -1.68545E+01 -2.14102E+01 -2.59771E+01 -2.99822E+01 -3.30096E+01 -3.48909E+01 -3.64692E+01 -3.70727E+01
  -3.70728E+01 -3.69481E+01 -3.68587E+01 -3.68381E+01 -3.67945E+01 -3.65151E+01 -3.58668E+01 -3.44036E+01 -3.17782E+01 -2.84323E+01
  -2.54369E+01 -2.36850E+01 -2.31212E+01 -2.33780E+01 -2.43155E+01 -2.62456E+01 -2.89364E+01 -3.09143E+01 -3.19033E+01 -3.20074E+01
  -3.12863E+01 -3.00087E+01 -2.84052E+01 -2.67630E+01 -2.48551E+01 -2.23618E+01 -1.98031E+01 -1.83043E+01 -1.85712E+01 -2.02698E+01
  -2.21940E+01 -2.36214E+01 -2.47344E+01 -2.56723E+01 -2.60974E+01 -2.58782E+01 -2.52749E+01 -2.43934E+01 -2.32874E+01 -2.22101E+01
  -2.15631E+01 -2.15935E+01 -2.21229E+01 -2.27170E+01 -2.30533E+01 -2.30906E+01 -2.28281E+01 -2.23448E+01 -2.17852E+01 -2.11693E+01
  -2.05093E+01 -1.98301E+01 -1.92439E+01 -1.87833E+01 -1.84113E+01 -1.82258E+01 -1.82950E+01 -1.86831E+01 -1.92081E+01 -1.94458E+01
  -1.92662E+01 -1.87826E+01 -1.79904E+01 -1.68258E+01 -1.53425E+01 -1.38906E+01 -1.31506E+01 -1.35865E+01 -1.48315E+01 -1.59341E+01
  -1.63312E+01 -1.62899E+01 -1.63822E+01 -1.65138E+01 -1.62099E+01 -1.56331E+01 -1.48146E+01 -1.33590E+01 -9.98995E+00 -3.11785E+00
   8.94123E+00  2.58064E+01  4.20402E+01  4.98033E+01  4.54617E+01  3.30989E+01  2.03046E+01  1.09753E+01  3.34916E+00 -4.42383E+00
  -9.44921E+00 -1.11673E+01 -1.17945E+01 -1.20611E+01 -1.22004E+01 -1.22399E+01 -1.22194E+01 -1.21729E+01 -1.21063E+01 -1.19808E+01
  -1.17073E+01 -1.10780E+01 -9.25091E+00 -4.86084E+00  3.44020E+00  1.65175E+01  3.13089E+01  4.10122E+01  4.05969E+01  3.16505E+01
   2.06509E+01  1.25910E+01  6.89341E+00  3.06115E-01 -5.92762E+00 -8.99828E+00 -1.05444E+01 -1.10771E+01 -1.07856E+01 -1.00411E+01
  -9.14075E+00 -8.34482E+00 -7.96991E+00 -8.01245E+00 -8.25820E+00 -8.57580E+00 -8.86832E+00 -9.12302E+00 -9.35119E+00 -9.51665E+00
  -9.69829E+00 -9.91986E+00 -1.01634E+01 -1.03561E+01 -1.03873E+01 -1.01915E+01 -9.84349E+00 -9.59873E+00 -9.70837E+00 -1.03053E+01
  -1.11699E+01 -1.18009E+01 -1.17558E+01 -1.09833E+01 -1.00917E+01 -9.81765E+00 -1.03139E+01 -1.11051E+01 -1.17074E+01 -1.20267E+01
  -1.20788E+01 -1.21600E+01 -1.23975E+01 -1.27778E+01 -1.34533E+01 -1.40650E+01 -1.41116E+01 -1.35068E+01 -1.26499E+01 -1.22149E+01
  -1.24229E+01 -1.27190E+01 -1.24773E+01 -1.18223E+01 -1.14295E+01 -1.14065E+01 -1.12011E+01 -1.00681E+01 -7.89460E+00 -5.49892E+00
  -3.64359E+00 -2.80052E+00 -2.97599E+00 -3.71105E+00 -4.67034E+00 -5.68873E+00 -6.30856E+00 -6.38250E+00 -5.86451E+00 -4.69822E+00
  -3.07391E+00 -1.31456E+00  4.32977E-01  1.89165E+00  2.64357E+00  2.14191E+00  1.83021E-01 -2.77680E+00 -5.98223E+00 -8.52125E+00
  -9.73184E+00 -9.33272E+00 -7.35558E+00 -4.09283E+00  3.39419E-01  5.10000E+00  8.49910E+00  8.79900E+00  6.03585E+00  1.91531E+00
  -2.45952E+00 -6.67306E+00 -9.77897E+00 -1.04021E+01 -7.69907E+00 -3.32009E+00  7.25515E-01  3.50721E+00  5.22131E+00  6.14375E+00
   6.05447E+00  5.25650E+00  4.75133E+00  4.95747E+00  5.55022E+00  6.34823E+00  7.29552E+00  8.24004E+00  8.69804E+00  8.24941E+00
   7.04043E+00  5.60901E+00  4.54728E+00  4.27961E+00  5.13498E+00  6.78035E+00  8.30465E+00  9.27917E+00  9.85057E+00  1.02573E+01
   1.06247E+01  1.15833E+01  1.40500E+01  1.87461E+01  2.48919E+01  3.05894E+01  3.58125E+01  4.25133E+01  5.60271E+01  7.74945E+01
   9.73806E+01  1.02143E+02  8.84441E+01  6.69200E+01  4.89652E+01  3.75923E+01  2.70220E+01  1.52661E+01  9.80802E+00  8.33683E+00
   7.48831E+00  6.90379E+00  6.65236E+00  6.60418E+00  6.58430E+00  6.48100E+00  6.22253E+00  5.87879E+00  5.57541E+00  5.32972E+00
   5.07887E+00  4.86332E+00  4.76490E+00  4.75175E+00  4.73197E+00  4.67301E+00  4.60170E+00  4.55083E+00  4.51705E+00  4.51302E+00
   4.59119E+00  4.75998E+00  4.97560E+00  5.19944E+00  5.41423E+00  5.62804E+00  5.84465E+00  6.05132E+00  6.25175E+00  6.47692E+00
   6.73303E+00  7.00263E+00  7.26050E+00  7.48930E+00  7.68499E+00  7.84175E+00  7.94560E+00  7.99796E+00  8.00131E+00  7.95558E+00
   7.86380E+00  7.73163E+00  7.56477E+00  7.36839E+00  7.14861E+00  6.91283E+00  6.66966E+00  6.42717E+00  6.19219E+00  5.97030E+00
   5.76687E+00  5.58806E+00  5.44256E+00  5.33374E+00  5.25836E+00  5.19801E+00  5.11703E+00  4.99296E+00  4.84562E+00  4.72415E+00
   4.66787E+00  4.68082E+00  4.75201E+00  4.89812E+00  5.14320E+00  5.44383E+00  5.72925E+00  5.97581E+00  6.20539E+00  6.45482E+00
   6.73542E+00  7.03047E+00  7.34673E+00  7.70332E+00  8.09329E+00  8.50993E+00  8.94777E+00  9.40047E+00  9.86128E+00  1.03232E+01
   1.07793E+01  1.12216E+01  1.16417E+01  1.20308E+01  1.23809E+01  1.26852E+01  1.29382E+01  1.31350E+01  1.32721E+01  1.33473E+01
   1.33605E+01  1.33139E+01  1.32113E+01  1.30571E+01  1.28568E+01  1.26168E+01  1.23451E+01  1.20499E+01  1.17393E+01  1.14209E+01
   1.11018E+01  1.07888E+01  1.04885E+01  1.02070E+01  9.94902E+00  9.71830E+00  9.51807E+00  9.35133E+00  9.22104E+00  9.12940E+00
   9.07806E+00  9.06811E+00  9.10101E+00  9.17837E+00  9.30190E+00  9.47267E+00  9.69128E+00  9.95784E+00  1.02725E+01  1.06347E+01
   1.10432E+01  1.14948E+01  1.19849E+01  1.25077E+01  1.30560E+01  1.36214E+01  1.41937E+01  1.47607E+01  1.53098E+01  1.58277E+01
   1.63019E+01  1.67201E+01  1.70708E+01  1.73440E+01  1.75323E+01  1.76308E+01  1.76380E+01  1.75549E+01  1.73852E+01  1.71349E+01
   1.68128E+01  1.64295E+01  1.59972E+01  1.55281E+01  1.50344E+01  1.45278E+01  1.40196E+01  1.35200E+01  1.30375E+01  1.25785E+01
   1.21481E+01  1.17495E+01  1.13852E+01  1.10561E+01  1.07620E+01  1.05016E+01  1.02728E+01  1.00735E+01  9.90153E+00  9.75451E+00
   9.62977E+00  9.52444E+00  9.43613E+00  9.36278E+00  9.30278E+00  9.25430E+00  9.21564E+00  9.18510E+00  9.16156E+00  9.14419E+00
   9.13234E+00  9.12507E+00  9.12153E+00  9.12091E+00  9.12292E+00  9.12731E+00  9.13385E+00  9.14194E+00  9.15111E+00  9.16100E+00
   9.17168E+00  9.18309E+00  9.19508E+00  9.20716E+00  9.21916E+00  9.23102E+00  9.24301E+00  9.25510E+00  9.26717E+00  9.27885E+00
   9.29012E+00  9.30109E+00  9.31202E+00  9.32283E+00  9.33336E+00  9.34333E+00  9.35288E+00  9.36215E+00  9.37138E+00  9.38036E+00
   9.38894E+00  9.39697E+00  9.40469E+00  9.41227E+00  9.41982E+00  9.42709E+00  9.43397E+00  9.44042E+00  9.44675E+00  9.45307E+00
   9.45938E+00  9.46540E+00  9.47112E+00  9.47661E+00  9.48218E+00  9.48786E+00  9.49358E+00  9.49906E+00  9.50441E+00  9.50977E+00
   9.51542E+00  9.52126E+00  9.52719E+00  9.53301E+00  9.53892E+00  9.54511E+00  9.55178E+00  9.55873E+00
 NY background values follow
    -5.137E+01   -5.092E+01   -5.047E+01   -5.002E+01   -4.957E+01   -4.912E+01   -4.867E+01   -4.823E+01   -4.778E+01   -4.733E+01
    -4.689E+01   -4.644E+01   -4.599E+01   -4.555E+01   -4.511E+01   -4.467E+01   -4.423E+01   -4.379E+01   -4.335E+01   -4.291E+01
    -4.248E+01   -4.204E+01   -4.161E+01   -4.118E+01   -4.075E+01   -4.032E+01   -3.989E+01   -3.947E+01   -3.905E+01   -3.863E+01
    -3.821E+01   -3.780E+01   -3.738E+01   -3.697E+01   -3.656E+01   -3.616E+01   -3.575E+01   -3.535E+01   -3.495E+01   -3.456E+01
    -3.416E+01   -3.377E+01   -3.338E+01   -3.300E+01   -3.262E+01   -3.224E+01   -3.187E+01   -3.149E+01   -3.113E+01   -3.076E+01
    -3.040E+01   -3.004E+01   -2.968E+01   -2.933E+01   -2.898E+01   -2.864E+01   -2.830E+01   -2.796E+01   -2.762E+01   -2.729E+01
    -2.697E+01   -2.664E+01   -2.632E+01   -2.600E+01   -2.569E+01   -2.538E+01   -2.507E+01   -2.477E+01   -2.447E+01   -2.418E+01
    -2.388E+01   -2.360E+01   -2.331E+01   -2.303E+01   -2.276E+01   -2.248E+01   -2.221E+01   -2.195E+01   -2.169E+01   -2.143E+01
    -2.118E+01   -2.093E+01   -2.068E+01   -2.044E+01   -2.020E+01   -1.997E+01   -1.974E+01   -1.952E+01   -1.929E+01   -1.908E+01
    -1.886E+01   -1.866E+01   -1.845E+01   -1.825E+01   -1.805E+01   -1.786E+01   -1.767E+01   -1.749E+01   -1.731E+01   -1.713E+01
    -1.695E+01   -1.678E+01   -1.662E+01   -1.645E+01   -1.629E+01   -1.614E+01   -1.598E+01   -1.583E+01   -1.568E+01   -1.554E+01
    -1.540E+01   -1.526E+01   -1.512E+01   -1.499E+01   -1.486E+01   -1.473E+01   -1.461E+01   -1.448E+01   -1.436E+01   -1.425E+01
    -1.413E+01   -1.402E+01   -1.391E+01   -1.380E+01   -1.369E+01   -1.359E+01   -1.348E+01   -1.338E+01   -1.328E+01   -1.319E+01
    -1.309E+01   -1.300E+01   -1.290E+01   -1.281E+01   -1.272E+01   -1.263E+01   -1.255E+01   -1.246E+01   -1.238E+01   -1.229E+01
    -1.221E+01   -1.213E+01   -1.205E+01   -1.197E+01   -1.189E+01   -1.181E+01   -1.173E+01   -1.165E+01   -1.157E+01   -1.150E+01
    -1.142E+01   -1.134E+01   -1.126E+01   -1.118E+01   -1.111E+01   -1.103E+01   -1.095E+01   -1.087E+01   -1.079E+01   -1.071E+01
    -1.062E+01   -1.054E+01   -1.046E+01   -1.037E+01   -1.028E+01   -1.020E+01   -1.011E+01   -1.002E+01   -9.926E+00   -9.833E+00
    -9.738E+00   -9.641E+00   -9.542E+00   -9.441E+00   -9.338E+00   -9.233E+00   -9.126E+00   -9.016E+00   -8.904E+00   -8.790E+00
    -8.673E+00   -8.553E+00   -8.430E+00   -8.305E+00   -8.178E+00   -8.048E+00   -7.916E+00   -7.782E+00   -7.646E+00   -7.508E+00
    -7.368E+00   -7.227E+00   -7.085E+00   -6.941E+00   -6.795E+00   -6.649E+00   -6.502E+00   -6.354E+00   -6.205E+00   -6.056E+00
    -5.906E+00   -5.756E+00   -5.606E+00   -5.456E+00   -5.306E+00   -5.156E+00   -5.006E+00   -4.857E+00   -4.708E+00   -4.560E+00
    -4.413E+00   -4.266E+00   -4.121E+00   -3.977E+00   -3.835E+00   -3.693E+00   -3.554E+00   -3.416E+00   -3.280E+00   -3.145E+00
    -3.013E+00   -2.883E+00   -2.756E+00   -2.631E+00   -2.508E+00   -2.388E+00   -2.271E+00   -2.157E+00   -2.046E+00   -1.938E+00
    -1.832E+00   -1.729E+00   -1.629E+00   -1.532E+00   -1.437E+00   -1.344E+00   -1.254E+00   -1.167E+00   -1.081E+00   -9.985E-01
    -9.178E-01   -8.394E-01   -7.630E-01   -6.888E-01   -6.166E-01   -5.464E-01   -4.781E-01   -4.117E-01   -3.471E-01   -2.843E-01
    -2.233E-01   -1.638E-01   -1.060E-01   -4.976E-02    4.984E-03    5.828E-02    1.102E-01    1.607E-01    2.100E-01    2.580E-01
     3.048E-01    3.505E-01    3.952E-01    4.388E-01    4.814E-01    5.231E-01    5.639E-01    6.040E-01    6.432E-01    6.818E-01
     7.197E-01    7.570E-01    7.938E-01    8.300E-01    8.657E-01    9.009E-01    9.357E-01    9.700E-01    1.004E+00    1.037E+00
     1.070E+00    1.103E+00    1.135E+00    1.167E+00    1.199E+00    1.230E+00    1.261E+00    1.291E+00    1.322E+00    1.352E+00
     1.381E+00    1.411E+00    1.440E+00    1.470E+00    1.499E+00    1.527E+00    1.556E+00    1.585E+00    1.613E+00    1.641E+00
     1.670E+00    1.698E+00    1.726E+00    1.754E+00    1.782E+00    1.810E+00    1.839E+00    1.867E+00    1.895E+00    1.923E+00
     1.952E+00    1.980E+00    2.009E+00    2.037E+00    2.066E+00    2.095E+00    2.125E+00    2.154E+00    2.184E+00    2.214E+00
     2.244E+00    2.274E+00    2.305E+00    2.336E+00    2.367E+00    2.398E+00    2.430E+00    2.461E+00    2.494E+00    2.526E+00
     2.559E+00    2.592E+00    2.625E+00    2.658E+00    2.692E+00    2.727E+00    2.761E+00    2.796E+00    2.831E+00    2.867E+00
     2.903E+00    2.939E+00    2.976E+00    3.013E+00    3.050E+00    3.088E+00    3.126E+00    3.165E+00    3.204E+00    3.243E+00
     3.283E+00    3.323E+00    3.364E+00    3.405E+00    3.446E+00    3.488E+00    3.531E+00    3.573E+00    3.617E+00    3.661E+00
     3.705E+00    3.750E+00    3.795E+00    3.841E+00    3.887E+00    3.934E+00    3.981E+00    4.029E+00    4.077E+00    4.125E+00
     4.174E+00    4.223E+00    4.273E+00    4.323E+00    4.374E+00    4.425E+00    4.476E+00    4.528E+00    4.580E+00    4.633E+00
     4.686E+00    4.739E+00    4.792E+00    4.846E+00    4.900E+00    4.954E+00    5.009E+00    5.064E+00    5.119E+00    5.175E+00
     5.231E+00    5.287E+00    5.343E+00    5.400E+00    5.457E+00    5.514E+00    5.571E+00    5.628E+00    5.686E+00    5.744E+00
     5.802E+00    5.860E+00    5.918E+00    5.977E+00    6.035E+00    6.094E+00    6.153E+00    6.212E+00    6.271E+00    6.330E+00
     6.389E+00    6.449E+00    6.508E+00    6.567E+00    6.626E+00    6.685E+00    6.744E+00    6.803E+00    6.862E+00    6.920E+00
     6.978E+00    7.036E+00    7.093E+00    7.151E+00    7.207E+00    7.264E+00    7.320E+00    7.375E+00    7.430E+00    7.485E+00
     7.539E+00    7.592E+00    7.645E+00    7.698E+00    7.749E+00    7.800E+00    7.850E+00    7.900E+00    7.948E+00    7.996E+00
     8.043E+00    8.090E+00    8.135E+00    8.179E+00    8.223E+00    8.265E+00    8.307E+00    8.347E+00    8.386E+00    8.425E+00
     8.462E+00    8.498E+00    8.533E+00    8.566E+00    8.599E+00    8.630E+00    8.660E+00    8.689E+00    8.717E+00    8.744E+00
     8.771E+00    8.796E+00    8.820E+00    8.843E+00    8.865E+00    8.887E+00    8.908E+00    8.928E+00    8.947E+00    8.966E+00
     8.983E+00    9.000E+00    9.017E+00    9.033E+00    9.048E+00    9.063E+00    9.077E+00    9.091E+00    9.104E+00    9.117E+00
     9.130E+00    9.142E+00    9.154E+00    9.165E+00    9.177E+00    9.188E+00    9.198E+00    9.209E+00    9.220E+00    9.230E+00
     9.240E+00    9.250E+00    9.260E+00    9.271E+00    9.281E+00    9.291E+00    9.301E+00    9.312E+00
 Ala      Conc. = 1.70E+01
