 LCModel (Version 6.3-1L) Copyright: S.W. Provencher.          Ref.: Magn. Reson. Med. 30:672-679 (1993).                
 Slice#3 Row#9 Col#3  PD_05_press_1_raw_act
 36 lines in following concentration table = NCONC+1
    Conc.  %SD /Cr+PCr  Metabolite                                         
    0.000 999%   0.000 Ala                                                 
   69.089  93%   0.198 Asp                                                 
  144.415  77%   0.415 Cr                                                  
  203.948  56%   0.585 PCr                                                 
    0.000 999%   0.000 GABA                                                
   22.505 181% 6.5E-02 Glc                                                 
  441.718  31%   1.268 Gln                                                 
  433.551  35%   1.245 Glu                                                 
  104.881   9%   0.301 GPC                                                 
    0.000 999%   0.000 PCh                                                 
  127.297  28%   0.365 GSH                                                 
   57.059 232%   0.164 Ins                                                 
   46.036 141%   0.132 Lac                                                 
  646.858   5%   1.857 NAA                                                 
    0.000 999%   0.000 NAAG                                                
   16.721  63% 4.8E-02 Scyllo                                              
    0.000 999%   0.000 Tau                                                 
    0.000 999%   0.000 -CrCH2                                              
  104.881   9%   0.301 GPC+PCh                                             
  646.858   5%   1.857 NAA+NAAG                                            
  348.363   7%   1.000 Cr+PCr                                              
  875.269  28%   2.513 Glu+Gln                                             
    0.000 999%   0.000 Lip13a                                              
    0.000 999%   0.000 Lip13b                                              
    0.390 999% 1.1E-03 Lip09                                               
  448.232  22%   1.287 MM09                                                
    0.140 999% 4.0E-04 Lip20                                               
  873.130  22%   2.506 MM20                                                
   83.955 105%   0.241 MM12                                                
    0.000 999%   0.000 MM14                                                
    0.000 999%   0.000 MM17                                                
    0.000 999%   0.000 Lip13a+Lip13b                                       
   83.955 105%   0.241 MM14+Lip13a+Lip13b+MM12                             
  448.622  22%   1.288 MM09+Lip09                                          
  873.270  22%   2.507 MM20+Lip20                                          
   6 lines in following misc. output table
  FWHM = 0.061 ppm    S/N =   7                                            
  Data shift =-0.023 ppm                                                   
  Ph: -15 deg     -15.3 deg/ppm                                            
  alphaB,S = 3.5E-01,   1.0E+02                                            
   14 spline knots.   Ns = 9(1)                                            
  (16) 5 infls.   (16) 1 extrs.                                            
  498 points on ppm-axis = NY
      4.000000     3.992357     3.984714     3.977070     3.969427     3.961784     3.954141     3.946497     3.938854     3.931211
      3.923568     3.915925     3.908281     3.900638     3.892995     3.885352     3.877708     3.870065     3.862422     3.854779
      3.847136     3.839492     3.831849     3.824206     3.816563     3.808919     3.801276     3.793633     3.785990     3.778347
      3.770703     3.763060     3.755417     3.747774     3.740130     3.732487     3.724844     3.717201     3.709558     3.701914
      3.694271     3.686628     3.678985     3.671341     3.663698     3.656055     3.648412     3.640769     3.633125     3.625482
      3.617839     3.610196     3.602552     3.594909     3.587266     3.579623     3.571980     3.564336     3.556693     3.549050
      3.541407     3.533763     3.526120     3.518477     3.510834     3.503191     3.495547     3.487904     3.480261     3.472618
      3.464974     3.457331     3.449688     3.442045     3.434402     3.426758     3.419115     3.411472     3.403829     3.396185
      3.388542     3.380899     3.373256     3.365613     3.357969     3.350326     3.342683     3.335040     3.327396     3.319753
      3.312110     3.304467     3.296824     3.289180     3.281537     3.273894     3.266251     3.258607     3.250964     3.243321
      3.235678     3.228034     3.220391     3.212748     3.205105     3.197462     3.189818     3.182175     3.174532     3.166889
      3.159245     3.151602     3.143959     3.136316     3.128673     3.121029     3.113386     3.105743     3.098100     3.090456
      3.082813     3.075170     3.067527     3.059884     3.052240     3.044597     3.036954     3.029311     3.021667     3.014024
      3.006381     2.998738     2.991095     2.983451     2.975808     2.968165     2.960522     2.952878     2.945235     2.937592
      2.929949     2.922306     2.914662     2.907019     2.899376     2.891733     2.884089     2.876446     2.868803     2.861160
      2.853517     2.845873     2.838230     2.830587     2.822944     2.815300     2.807657     2.800014     2.792371     2.784728
      2.777084     2.769441     2.761798     2.754155     2.746511     2.738868     2.731225     2.723582     2.715939     2.708295
      2.700652     2.693009     2.685366     2.677722     2.670079     2.662436     2.654793     2.647150     2.639506     2.631863
      2.624220     2.616577     2.608933     2.601290     2.593647     2.586004     2.578361     2.570717     2.563074     2.555431
      2.547788     2.540144     2.532501     2.524858     2.517215     2.509572     2.501928     2.494285     2.486642     2.478999
      2.471355     2.463712     2.456069     2.448426     2.440783     2.433139     2.425496     2.417853     2.410210     2.402566
      2.394923     2.387280     2.379637     2.371994     2.364350     2.356707     2.349064     2.341421     2.333777     2.326134
      2.318491     2.310848     2.303205     2.295561     2.287918     2.280275     2.272632     2.264988     2.257345     2.249702
      2.242059     2.234416     2.226772     2.219129     2.211486     2.203843     2.196199     2.188556     2.180913     2.173270
      2.165627     2.157983     2.150340     2.142697     2.135054     2.127410     2.119767     2.112124     2.104481     2.096838
      2.089194     2.081551     2.073908     2.066265     2.058621     2.050978     2.043335     2.035692     2.028049     2.020405
      2.012762     2.005119     1.997476     1.989833     1.982190     1.974546     1.966903     1.959260     1.951617     1.943974
      1.936331     1.928688     1.921045     1.913402     1.905759     1.898115     1.890472     1.882829     1.875186     1.867543
      1.859900     1.852257     1.844614     1.836971     1.829327     1.821684     1.814041     1.806398     1.798755     1.791112
      1.783469     1.775826     1.768183     1.760540     1.752896     1.745253     1.737610     1.729967     1.722324     1.714681
      1.707038     1.699395     1.691752     1.684108     1.676465     1.668822     1.661179     1.653536     1.645893     1.638250
      1.630607     1.622964     1.615321     1.607677     1.600034     1.592391     1.584748     1.577105     1.569462     1.561819
      1.554176     1.546533     1.538890     1.531246     1.523603     1.515960     1.508317     1.500674     1.493031     1.485388
      1.477745     1.470102     1.462458     1.454815     1.447172     1.439529     1.431886     1.424243     1.416600     1.408957
      1.401314     1.393671     1.386027     1.378384     1.370741     1.363098     1.355455     1.347812     1.340169     1.332526
      1.324883     1.317240     1.309596     1.301953     1.294310     1.286667     1.279024     1.271381     1.263738     1.256095
      1.248452     1.240808     1.233165     1.225522     1.217879     1.210236     1.202593     1.194950     1.187307     1.179664
      1.172021     1.164377     1.156734     1.149091     1.141448     1.133805     1.126162     1.118519     1.110876     1.103233
      1.095590     1.087946     1.080303     1.072660     1.065017     1.057374     1.049731     1.042088     1.034445     1.026802
      1.019158     1.011515     1.003872     0.996229     0.988586     0.980943     0.973300     0.965657     0.958014     0.950371
      0.942727     0.935084     0.927441     0.919798     0.912155     0.904512     0.896869     0.889226     0.881583     0.873940
      0.866296     0.858653     0.851010     0.843367     0.835724     0.828081     0.820438     0.812795     0.805152     0.797508
      0.789865     0.782222     0.774579     0.766936     0.759293     0.751650     0.744007     0.736364     0.728721     0.721077
      0.713434     0.705791     0.698148     0.690505     0.682862     0.675219     0.667576     0.659933     0.652290     0.644646
      0.637003     0.629360     0.621717     0.614074     0.606431     0.598788     0.591145     0.583502     0.575858     0.568215
      0.560572     0.552929     0.545286     0.537643     0.530000     0.522357     0.514714     0.507071     0.499427     0.491784
      0.484141     0.476498     0.468855     0.461212     0.453569     0.445925     0.438282     0.430639     0.422996     0.415353
      0.407710     0.400067     0.392424     0.384780     0.377137     0.369494     0.361851     0.354208     0.346565     0.338922
      0.331278     0.323635     0.315992     0.308349     0.300706     0.293063     0.285420     0.277777     0.270133     0.262490
      0.254847     0.247204     0.239561     0.231918     0.224275     0.216631     0.208988     0.201345
 NY phased data points follow
  -8.65697E+00 -1.02120E+01 -9.60947E+00 -7.60705E+00 -7.55183E+00 -6.05509E+00 -6.84044E+00 -5.64309E+00 -1.51035E+00 -8.44551E-01
   1.06634E+00 -6.94860E-01 -1.58516E+00 -8.35109E-01 -3.40280E-01 -1.96618E+00 -1.92643E+00 -2.84877E+00 -4.30965E+00 -4.21802E+00
  -3.43563E+00 -5.04777E+00 -2.92518E+00 -1.98401E+00 -3.31853E+00 -4.15226E+00 -3.55595E+00 -3.43438E+00 -1.58412E+00 -2.36899E+00
  -1.16812E+00 -4.90015E-01 -1.54007E+00 -1.07389E+00  2.37188E-01 -6.53082E-01 -1.08359E+00 -2.72538E+00 -7.47053E-01 -1.37178E+00
   4.62298E-01  9.27429E-01 -2.10272E+00 -2.74287E+00  1.74389E-01 -1.13018E+00  5.22153E-01  1.18063E+00  1.16199E+00  1.20054E-01
   1.05610E+00  1.01327E+00  1.18312E+00  1.83666E+00  9.29531E-01  6.75339E-01  1.57700E+00  1.36916E+00  1.61254E+00  1.86637E+00
  -1.23226E+00  5.38763E-03  2.97877E-01  1.43689E+00  6.76483E-01  2.50527E+00  2.79586E-01 -5.99897E-01 -7.51822E-01  8.62844E-01
   1.44217E+00  3.52900E+00  1.04466E+00  1.92166E+00  2.80802E+00  5.67340E+00  3.92307E+00  5.84143E+00  3.31275E+00  4.34120E+00
   2.58496E+00  2.93085E+00  4.00366E+00  4.56419E+00  4.60257E+00  6.08674E+00  5.08422E+00  5.30119E+00  7.04927E+00  6.63021E+00
   5.31933E+00  6.33499E+00  7.09844E+00  6.96637E+00  8.28605E+00  7.09952E+00  1.06335E+01  7.72323E+00  1.01625E+01  8.93669E+00
   9.85206E+00  1.34244E+01  1.45872E+01  1.55933E+01  1.79044E+01  1.42463E+01  1.50511E+01  1.55619E+01  1.30803E+01  1.18204E+01
   1.29864E+01  1.13499E+01  1.36073E+01  1.32328E+01  1.00735E+01  1.03376E+01  9.20295E+00  1.29120E+01  1.25510E+01  1.29344E+01
   1.37934E+01  1.18843E+01  1.48780E+01  1.54316E+01  1.76550E+01  1.82744E+01  1.92861E+01  2.26791E+01  2.11970E+01  2.33162E+01
   2.10880E+01  2.06074E+01  2.03256E+01  1.79909E+01  1.91010E+01  1.84167E+01  1.76425E+01  1.72113E+01  1.71826E+01  1.61246E+01
   1.51917E+01  1.60329E+01  1.69750E+01  1.54373E+01  1.53669E+01  1.62490E+01  1.64902E+01  1.61180E+01  1.69962E+01  1.80379E+01
   1.58262E+01  1.78495E+01  1.72210E+01  1.82778E+01  1.96203E+01  1.72494E+01  1.81343E+01  1.92513E+01  1.91563E+01  1.96106E+01
   1.72057E+01  1.98936E+01  2.00950E+01  2.00641E+01  1.99115E+01  1.80443E+01  1.95316E+01  1.96829E+01  2.03468E+01  2.26727E+01
   2.07680E+01  2.12719E+01  2.21213E+01  2.18600E+01  2.11052E+01  2.18555E+01  1.89483E+01  1.79456E+01  2.03256E+01  2.15670E+01
   2.13721E+01  2.12772E+01  2.14341E+01  2.13760E+01  2.08089E+01  2.26482E+01  2.44149E+01  2.22133E+01  2.51856E+01  2.46112E+01
   2.41818E+01  2.51804E+01  2.69061E+01  2.61461E+01  2.56615E+01  2.72345E+01  2.72217E+01  2.53849E+01  2.80084E+01  2.83161E+01
   2.76066E+01  2.83425E+01  2.69984E+01  2.80557E+01  2.71814E+01  2.88949E+01  2.66158E+01  2.52873E+01  2.63700E+01  2.64433E+01
   2.76492E+01  2.61403E+01  3.04399E+01  2.93116E+01  2.99656E+01  2.96349E+01  2.86973E+01  2.93560E+01  2.86396E+01  2.83439E+01
   2.69752E+01  2.71222E+01  2.68776E+01  2.80574E+01  2.88538E+01  2.69514E+01  2.72135E+01  2.85038E+01  2.67907E+01  2.65351E+01
   2.73730E+01  2.57717E+01  2.64595E+01  2.50299E+01  2.69940E+01  2.54955E+01  2.50298E+01  2.49495E+01  2.38453E+01  2.31883E+01
   2.51470E+01  2.17495E+01  2.24950E+01  2.22167E+01  2.21879E+01  2.28511E+01  2.35533E+01  2.33307E+01  2.18902E+01  2.22190E+01
   2.11082E+01  2.02530E+01  2.57020E+01  2.43496E+01  2.22466E+01  2.35184E+01  2.41465E+01  2.81971E+01  3.11997E+01  3.05623E+01
   3.46289E+01  3.38061E+01  3.45872E+01  3.24711E+01  2.91870E+01  2.63903E+01  2.15441E+01  2.13503E+01  1.94738E+01  1.79447E+01
   1.65914E+01  1.57372E+01  1.48549E+01  1.24315E+01  1.28713E+01  1.22491E+01  1.23218E+01  1.10755E+01  1.07622E+01  7.35825E+00
   7.65620E+00  8.79034E+00  7.47759E+00  8.46414E+00  6.79592E+00  6.23774E+00  3.86544E+00  6.55390E+00  6.21039E+00  3.89031E+00
   2.59366E+00  2.24086E+00  2.01446E+00  2.50218E+00  3.20725E+00  1.18340E+00  2.96910E+00 -8.45092E-02  3.36594E-01  1.39518E+00
   2.08264E-01 -7.02233E-01 -1.43362E+00 -6.00252E-01 -1.64568E+00 -2.91458E+00 -3.36885E+00 -2.36107E+00 -5.38538E+00 -5.13244E+00
  -3.97034E+00 -3.06856E+00 -2.41533E+00 -6.32118E+00 -3.99937E+00 -4.23993E+00 -5.42137E+00 -5.88144E+00 -4.59615E+00 -5.98135E+00
  -7.79423E+00 -6.67028E+00 -7.88281E+00 -6.92179E+00 -8.61024E+00 -7.84607E+00 -8.51937E+00 -7.70843E+00 -8.64916E+00 -7.27899E+00
  -7.76352E+00 -8.56548E+00 -8.88382E+00 -5.56231E+00 -7.88253E+00 -6.70764E+00 -8.10865E+00 -8.33743E+00 -8.62889E+00 -1.03051E+01
  -9.79182E+00 -7.27834E+00 -1.17406E+01 -1.09866E+01 -8.03517E+00 -8.87093E+00 -8.15578E+00 -9.53897E+00 -1.00213E+01 -1.01238E+01
  -1.03931E+01 -9.06583E+00 -1.13326E+01 -1.10252E+01 -8.82741E+00 -9.23153E+00 -1.01847E+01 -9.35491E+00 -8.50014E+00 -9.63031E+00
  -9.14708E+00 -8.77603E+00 -8.47822E+00 -7.96793E+00 -9.87225E+00 -7.62069E+00 -8.81023E+00 -8.26258E+00 -1.06014E+01 -1.01782E+01
  -6.95739E+00 -7.92255E+00 -8.17952E+00 -9.53425E+00 -7.20963E+00 -1.08310E+01 -1.11325E+01 -9.52970E+00 -8.61326E+00 -7.90046E+00
  -7.94630E+00 -7.25596E+00 -5.19536E+00 -6.52677E+00 -5.55969E+00 -6.57333E+00 -6.13965E+00 -5.18569E+00 -4.13332E+00 -5.28461E+00
  -7.20445E+00 -3.69568E+00 -4.82593E+00 -5.40046E+00 -5.30715E+00 -5.87198E+00 -4.67090E+00 -4.86366E+00 -4.73453E+00 -6.44429E+00
  -5.26341E+00 -2.62367E+00 -4.06373E+00 -3.61887E+00 -1.52590E+00 -3.79712E+00 -3.76108E+00 -9.73334E-01 -4.32199E+00 -5.20127E+00
  -4.61318E+00 -3.18419E+00 -3.94631E+00 -4.05524E+00 -4.75647E+00 -5.52674E+00 -2.56357E+00 -3.52584E+00 -3.24768E+00 -4.24841E+00
  -3.81848E+00 -2.12454E+00 -2.94618E+00 -3.55680E+00 -4.44089E+00 -3.37179E+00 -2.43934E+00 -4.68687E+00 -2.23667E+00 -4.20691E+00
  -4.25905E+00 -3.84212E+00 -1.87412E+00 -3.87205E+00 -2.02135E+00 -2.32120E+00 -2.46201E+00 -2.94739E+00 -2.93268E+00 -2.57809E+00
  -3.51080E+00 -3.77719E+00 -2.51431E+00 -3.50754E+00 -3.79924E+00 -4.19957E+00 -2.29125E+00 -4.82081E+00 -2.36732E+00 -2.25883E+00
  -7.67495E-01 -3.60734E+00 -8.10801E-01 -2.27102E+00 -3.93799E+00 -1.44004E+00 -1.75184E+00 -2.16548E+00 -3.19523E+00 -4.03490E+00
  -3.66867E+00 -4.22131E-01 -3.68826E+00 -2.84858E+00 -2.61931E+00 -1.61025E+00 -3.55092E+00 -2.24768E+00 -3.66150E+00 -1.79064E+00
  -2.22328E+00 -1.24358E+00 -7.39810E-01 -1.14062E+00 -2.07215E+00 -2.12849E+00 -2.76781E+00 -4.33687E+00 -2.34839E+00  4.32321E-01
  -1.65753E+00 -1.07882E+00 -2.32563E+00  2.49215E-02 -1.24961E+00 -1.39414E+00 -2.21802E+00 -1.30265E+00 -1.10738E+00 -7.71080E-01
  -1.26601E+00 -1.76621E+00 -1.29207E+00 -1.88683E+00 -1.76124E+00 -5.71986E-02 -1.61009E+00 -1.35842E+00
 NY points of the fit to the data follow
  -8.91141E+00 -8.50656E+00 -8.06825E+00 -7.60525E+00 -7.08316E+00 -6.39352E+00 -5.44816E+00 -4.28460E+00 -3.05404E+00 -1.95574E+00
  -1.16051E+00 -7.56299E-01 -7.48701E-01 -1.06716E+00 -1.58210E+00 -2.11535E+00 -2.53275E+00 -2.82088E+00 -3.08037E+00 -3.44943E+00
  -3.82984E+00 -4.00308E+00 -4.00220E+00 -3.91493E+00 -3.88269E+00 -3.81375E+00 -3.56950E+00 -3.08177E+00 -2.37030E+00 -1.52055E+00
  -7.02802E-01 -1.32471E-01  2.72393E-02 -2.20109E-01 -7.07901E-01 -1.20237E+00 -1.51423E+00 -1.54750E+00 -1.37469E+00 -1.22219E+00
  -1.20906E+00 -1.21112E+00 -1.12617E+00 -9.88574E-01 -8.24364E-01 -5.89631E-01 -3.06716E-01 -5.63771E-02  9.14723E-02  1.54758E-01
   1.92954E-01  2.55843E-01  3.20480E-01  3.79884E-01  4.56051E-01  5.49744E-01  6.30208E-01  7.09278E-01  8.19058E-01  9.45192E-01
   1.05999E+00  1.16645E+00  1.27819E+00  1.39457E+00  1.51258E+00  1.63293E+00  1.76600E+00  1.91839E+00  2.08248E+00  2.24671E+00
   2.40988E+00  2.57618E+00  2.74571E+00  2.91776E+00  3.08940E+00  3.25943E+00  3.42962E+00  3.61694E+00  3.81602E+00  3.99446E+00
   4.16383E+00  4.36066E+00  4.60589E+00  4.89008E+00  5.17878E+00  5.44440E+00  5.66825E+00  5.83751E+00  5.95184E+00  6.02450E+00
   6.08166E+00  6.15623E+00  6.28183E+00  6.49125E+00  6.90749E+00  7.48173E+00  7.88438E+00  8.22604E+00  8.87018E+00  1.00013E+01
   1.15319E+01  1.31695E+01  1.46376E+01  1.57205E+01  1.62339E+01  1.61248E+01  1.54955E+01  1.45615E+01  1.36022E+01  1.29144E+01
   1.25956E+01  1.23932E+01  1.19575E+01  1.12183E+01  1.06802E+01  1.06768E+01  1.08556E+01  1.11272E+01  1.16524E+01  1.23699E+01
   1.29276E+01  1.34193E+01  1.42252E+01  1.55705E+01  1.73476E+01  1.92210E+01  2.08613E+01  2.20263E+01  2.25532E+01  2.24195E+01
   2.17453E+01  2.07461E+01  1.96969E+01  1.89052E+01  1.84402E+01  1.80276E+01  1.73372E+01  1.63741E+01  1.57552E+01  1.57707E+01
   1.60027E+01  1.62759E+01  1.65134E+01  1.66908E+01  1.68421E+01  1.70155E+01  1.72014E+01  1.73839E+01  1.75600E+01  1.77104E+01
   1.78324E+01  1.79468E+01  1.80601E+01  1.81917E+01  1.83466E+01  1.85183E+01  1.86939E+01  1.88528E+01  1.89727E+01  1.90743E+01
   1.91974E+01  1.93616E+01  1.95678E+01  1.98047E+01  2.00551E+01  2.02942E+01  2.04933E+01  2.06331E+01  2.07216E+01  2.08172E+01
   2.09533E+01  2.11119E+01  2.12368E+01  2.13014E+01  2.13599E+01  2.14469E+01  2.15782E+01  2.17404E+01  2.19036E+01  2.20780E+01
   2.22864E+01  2.25080E+01  2.27081E+01  2.28803E+01  2.30555E+01  2.32910E+01  2.36030E+01  2.39395E+01  2.42582E+01  2.45685E+01
   2.48692E+01  2.51443E+01  2.53380E+01  2.54014E+01  2.53839E+01  2.54280E+01  2.56171E+01  2.59236E+01  2.62759E+01  2.66318E+01
   2.69615E+01  2.72632E+01  2.75530E+01  2.77111E+01  2.75790E+01  2.71664E+01  2.66352E+01  2.61559E+01  2.57726E+01  2.55189E+01
   2.55164E+01  2.58436E+01  2.64050E+01  2.69708E+01  2.73824E+01  2.76374E+01  2.76917E+01  2.75288E+01  2.72198E+01  2.68426E+01
   2.63760E+01  2.59606E+01  2.58033E+01  2.58717E+01  2.60355E+01  2.61880E+01  2.63004E+01  2.64047E+01  2.64231E+01  2.63467E+01
   2.62151E+01  2.60866E+01  2.59704E+01  2.57901E+01  2.56090E+01  2.55482E+01  2.55783E+01  2.55813E+01  2.54629E+01  2.51883E+01
   2.47764E+01  2.42640E+01  2.37108E+01  2.32295E+01  2.29385E+01  2.28109E+01  2.27004E+01  2.25570E+01  2.24022E+01  2.22455E+01
   2.21562E+01  2.24123E+01  2.32280E+01  2.38129E+01  2.39662E+01  2.43416E+01  2.55471E+01  2.76455E+01  3.01479E+01  3.24497E+01
   3.40740E+01  3.45933E+01  3.37945E+01  3.17976E+01  2.90099E+01  2.59858E+01  2.33717E+01  2.15574E+01  2.01974E+01  1.85183E+01
   1.61452E+01  1.37908E+01  1.25753E+01  1.19173E+01  1.13791E+01  1.08870E+01  1.03951E+01  9.89637E+00  9.39912E+00  8.90783E+00
   8.42828E+00  7.96117E+00  7.49753E+00  7.03183E+00  6.57054E+00  6.11906E+00  5.67495E+00  5.23631E+00  4.80420E+00  4.38048E+00
   3.96515E+00  3.55455E+00  3.14782E+00  2.74636E+00  2.35045E+00  1.95999E+00  1.57502E+00  1.19579E+00  8.22366E-01  4.54406E-01
   9.22267E-02 -2.63966E-01 -6.14440E-01 -9.59221E-01 -1.29823E+00 -1.63134E+00 -1.95850E+00 -2.27966E+00 -2.59465E+00 -2.90317E+00
  -3.20497E+00 -3.49995E+00 -3.78812E+00 -4.06936E+00 -4.34333E+00 -4.60984E+00 -4.86864E+00 -5.11959E+00 -5.36278E+00 -5.59828E+00
  -5.82611E+00 -6.04628E+00 -6.25885E+00 -6.46388E+00 -6.66147E+00 -6.85164E+00 -7.03438E+00 -7.20966E+00 -7.37749E+00 -7.53789E+00
  -7.69084E+00 -7.83622E+00 -7.97385E+00 -8.10351E+00 -8.22485E+00 -8.33725E+00 -8.43946E+00 -8.52832E+00 -8.59844E+00 -8.66531E+00
  -8.74294E+00 -8.81030E+00 -8.84978E+00 -8.87033E+00 -8.89958E+00 -8.96027E+00 -9.04296E+00 -9.14998E+00 -9.29756E+00 -9.46998E+00
  -9.62402E+00 -9.71674E+00 -9.72703E+00 -9.66083E+00 -9.54904E+00 -9.43623E+00 -9.35221E+00 -9.29188E+00 -9.22576E+00 -9.16613E+00
  -9.13537E+00 -9.10767E+00 -9.06373E+00 -9.01177E+00 -8.97925E+00 -8.98105E+00 -8.97864E+00 -8.95160E+00 -8.91125E+00 -8.86254E+00
  -8.80714E+00 -8.74558E+00 -8.67797E+00 -8.60413E+00 -8.52371E+00 -8.43624E+00 -8.34114E+00 -8.23780E+00 -8.12562E+00 -8.00399E+00
  -7.87236E+00 -7.73017E+00 -7.57694E+00 -7.41234E+00 -7.23624E+00 -7.04869E+00 -6.84999E+00 -6.64070E+00 -6.42173E+00 -6.19436E+00
  -5.96029E+00 -5.72157E+00 -5.48063E+00 -5.24017E+00 -5.00320E+00 -4.77291E+00 -4.55258E+00 -4.34540E+00 -4.15437E+00 -3.98215E+00
  -3.83098E+00 -3.70259E+00 -3.59806E+00 -3.51777E+00 -3.46137E+00 -3.42786E+00 -3.41566E+00 -3.42263E+00 -3.44618E+00 -3.48335E+00
  -3.53100E+00 -3.58598E+00 -3.64529E+00 -3.70611E+00 -3.76589E+00 -3.82244E+00 -3.87394E+00 -3.91900E+00 -3.95664E+00 -3.98623E+00
  -4.00745E+00 -4.02024E+00 -4.02480E+00 -4.02152E+00 -4.01092E+00 -3.99360E+00 -3.97018E+00 -3.94130E+00 -3.90762E+00 -3.86978E+00
  -3.82839E+00 -3.78398E+00 -3.73703E+00 -3.68797E+00 -3.63721E+00 -3.58512E+00 -3.53202E+00 -3.47817E+00 -3.42377E+00 -3.36904E+00
  -3.31418E+00 -3.25934E+00 -3.20468E+00 -3.15029E+00 -3.09627E+00 -3.04271E+00 -2.98973E+00 -2.93740E+00 -2.88578E+00 -2.83490E+00
  -2.78483E+00 -2.73562E+00 -2.68733E+00 -2.63999E+00 -2.59357E+00 -2.54805E+00 -2.50342E+00 -2.45968E+00 -2.41680E+00 -2.37478E+00
  -2.33355E+00 -2.29310E+00 -2.25340E+00 -2.21444E+00 -2.17621E+00 -2.13864E+00 -2.10171E+00 -2.06538E+00 -2.02963E+00 -1.99445E+00
  -1.95980E+00 -1.92562E+00 -1.89187E+00 -1.85853E+00 -1.82558E+00 -1.79300E+00 -1.76072E+00 -1.72871E+00 -1.69693E+00 -1.66535E+00
  -1.63394E+00 -1.60269E+00 -1.57152E+00 -1.54039E+00 -1.50927E+00 -1.47814E+00 -1.44696E+00 -1.41570E+00 -1.38430E+00 -1.35271E+00
  -1.32090E+00 -1.28886E+00 -1.25654E+00 -1.22389E+00 -1.19085E+00 -1.15739E+00 -1.12348E+00 -1.08908E+00
 NY background values follow
    -9.389E+00   -9.213E+00   -9.038E+00   -8.864E+00   -8.690E+00   -8.516E+00   -8.342E+00   -8.170E+00   -7.997E+00   -7.825E+00
    -7.653E+00   -7.482E+00   -7.311E+00   -7.140E+00   -6.970E+00   -6.800E+00   -6.630E+00   -6.461E+00   -6.292E+00   -6.124E+00
    -5.956E+00   -5.788E+00   -5.621E+00   -5.453E+00   -5.287E+00   -5.120E+00   -4.954E+00   -4.788E+00   -4.622E+00   -4.457E+00
    -4.292E+00   -4.127E+00   -3.963E+00   -3.799E+00   -3.635E+00   -3.471E+00   -3.308E+00   -3.145E+00   -2.982E+00   -2.819E+00
    -2.657E+00   -2.495E+00   -2.333E+00   -2.172E+00   -2.010E+00   -1.849E+00   -1.688E+00   -1.527E+00   -1.367E+00   -1.206E+00
    -1.046E+00   -8.860E-01   -7.260E-01   -5.660E-01   -4.061E-01   -2.463E-01   -8.651E-02    7.329E-02    2.331E-01    3.929E-01
     5.528E-01    7.128E-01    8.729E-01    1.033E+00    1.193E+00    1.354E+00    1.514E+00    1.675E+00    1.836E+00    1.997E+00
     2.159E+00    2.321E+00    2.483E+00    2.645E+00    2.808E+00    2.971E+00    3.134E+00    3.298E+00    3.462E+00    3.627E+00
     3.792E+00    3.957E+00    4.123E+00    4.289E+00    4.456E+00    4.624E+00    4.792E+00    4.961E+00    5.130E+00    5.300E+00
     5.470E+00    5.642E+00    5.813E+00    5.986E+00    6.159E+00    6.333E+00    6.508E+00    6.683E+00    6.859E+00    7.036E+00
     7.214E+00    7.392E+00    7.572E+00    7.752E+00    7.933E+00    8.114E+00    8.297E+00    8.480E+00    8.665E+00    8.850E+00
     9.036E+00    9.223E+00    9.411E+00    9.600E+00    9.790E+00    9.981E+00    1.017E+01    1.037E+01    1.056E+01    1.075E+01
     1.095E+01    1.115E+01    1.134E+01    1.154E+01    1.174E+01    1.195E+01    1.215E+01    1.235E+01    1.256E+01    1.276E+01
     1.297E+01    1.318E+01    1.339E+01    1.360E+01    1.381E+01    1.402E+01    1.423E+01    1.445E+01    1.467E+01    1.488E+01
     1.510E+01    1.532E+01    1.554E+01    1.576E+01    1.598E+01    1.620E+01    1.642E+01    1.665E+01    1.687E+01    1.709E+01
     1.731E+01    1.753E+01    1.775E+01    1.797E+01    1.819E+01    1.841E+01    1.863E+01    1.885E+01    1.906E+01    1.928E+01
     1.949E+01    1.970E+01    1.991E+01    2.012E+01    2.033E+01    2.054E+01    2.074E+01    2.095E+01    2.115E+01    2.134E+01
     2.154E+01    2.173E+01    2.192E+01    2.211E+01    2.230E+01    2.248E+01    2.266E+01    2.284E+01    2.301E+01    2.318E+01
     2.335E+01    2.352E+01    2.368E+01    2.383E+01    2.399E+01    2.414E+01    2.428E+01    2.442E+01    2.456E+01    2.469E+01
     2.482E+01    2.494E+01    2.506E+01    2.517E+01    2.527E+01    2.538E+01    2.547E+01    2.556E+01    2.564E+01    2.572E+01
     2.579E+01    2.586E+01    2.592E+01    2.597E+01    2.601E+01    2.605E+01    2.608E+01    2.610E+01    2.612E+01    2.613E+01
     2.613E+01    2.612E+01    2.610E+01    2.608E+01    2.605E+01    2.601E+01    2.596E+01    2.590E+01    2.583E+01    2.575E+01
     2.567E+01    2.557E+01    2.547E+01    2.535E+01    2.523E+01    2.510E+01    2.495E+01    2.480E+01    2.463E+01    2.446E+01
     2.427E+01    2.408E+01    2.388E+01    2.366E+01    2.344E+01    2.321E+01    2.297E+01    2.273E+01    2.247E+01    2.221E+01
     2.194E+01    2.166E+01    2.138E+01    2.109E+01    2.079E+01    2.049E+01    2.018E+01    1.986E+01    1.954E+01    1.921E+01
     1.888E+01    1.854E+01    1.819E+01    1.784E+01    1.749E+01    1.713E+01    1.677E+01    1.640E+01    1.603E+01    1.566E+01
     1.528E+01    1.490E+01    1.452E+01    1.413E+01    1.375E+01    1.336E+01    1.296E+01    1.257E+01    1.217E+01    1.177E+01
     1.138E+01    1.097E+01    1.057E+01    1.017E+01    9.771E+00    9.368E+00    8.966E+00    8.563E+00    8.161E+00    7.760E+00
     7.359E+00    6.959E+00    6.559E+00    6.161E+00    5.765E+00    5.370E+00    4.976E+00    4.585E+00    4.195E+00    3.808E+00
     3.423E+00    3.041E+00    2.662E+00    2.286E+00    1.913E+00    1.543E+00    1.177E+00    8.148E-01    4.563E-01    1.019E-01
    -2.481E-01   -5.937E-01   -9.347E-01   -1.271E+00   -1.602E+00   -1.928E+00   -2.248E+00   -2.563E+00   -2.873E+00   -3.176E+00
    -3.473E+00   -3.764E+00   -4.048E+00   -4.326E+00   -4.597E+00   -4.861E+00   -5.117E+00   -5.367E+00   -5.609E+00   -5.843E+00
    -6.071E+00   -6.291E+00   -6.504E+00   -6.710E+00   -6.908E+00   -7.100E+00   -7.285E+00   -7.464E+00   -7.635E+00   -7.800E+00
    -7.958E+00   -8.110E+00   -8.255E+00   -8.394E+00   -8.527E+00   -8.653E+00   -8.773E+00   -8.887E+00   -8.994E+00   -9.096E+00
    -9.192E+00   -9.282E+00   -9.366E+00   -9.444E+00   -9.516E+00   -9.583E+00   -9.645E+00   -9.701E+00   -9.751E+00   -9.796E+00
    -9.836E+00   -9.870E+00   -9.900E+00   -9.924E+00   -9.943E+00   -9.957E+00   -9.966E+00   -9.971E+00   -9.970E+00   -9.965E+00
    -9.956E+00   -9.941E+00   -9.922E+00   -9.899E+00   -9.872E+00   -9.840E+00   -9.804E+00   -9.764E+00   -9.721E+00   -9.673E+00
    -9.622E+00   -9.568E+00   -9.510E+00   -9.449E+00   -9.385E+00   -9.317E+00   -9.247E+00   -9.175E+00   -9.099E+00   -9.021E+00
    -8.940E+00   -8.858E+00   -8.773E+00   -8.686E+00   -8.597E+00   -8.506E+00   -8.413E+00   -8.319E+00   -8.224E+00   -8.127E+00
    -8.029E+00   -7.929E+00   -7.829E+00   -7.728E+00   -7.626E+00   -7.524E+00   -7.420E+00   -7.317E+00   -7.213E+00   -7.109E+00
    -7.005E+00   -6.901E+00   -6.798E+00   -6.694E+00   -6.591E+00   -6.489E+00   -6.387E+00   -6.286E+00   -6.185E+00   -6.086E+00
    -5.987E+00   -5.890E+00   -5.793E+00   -5.697E+00   -5.602E+00   -5.508E+00   -5.415E+00   -5.323E+00   -5.232E+00   -5.142E+00
    -5.052E+00   -4.964E+00   -4.877E+00   -4.790E+00   -4.705E+00   -4.621E+00   -4.537E+00   -4.455E+00   -4.374E+00   -4.294E+00
    -4.215E+00   -4.136E+00   -4.060E+00   -3.984E+00   -3.909E+00   -3.835E+00   -3.763E+00   -3.691E+00   -3.621E+00   -3.552E+00
    -3.484E+00   -3.417E+00   -3.351E+00   -3.287E+00   -3.223E+00   -3.161E+00   -3.100E+00   -3.041E+00   -2.982E+00   -2.925E+00
    -2.869E+00   -2.815E+00   -2.761E+00   -2.709E+00   -2.658E+00   -2.608E+00   -2.560E+00   -2.512E+00   -2.466E+00   -2.421E+00
    -2.376E+00   -2.333E+00   -2.290E+00   -2.249E+00   -2.208E+00   -2.168E+00   -2.129E+00   -2.091E+00   -2.053E+00   -2.016E+00
    -1.979E+00   -1.943E+00   -1.908E+00   -1.873E+00   -1.839E+00   -1.805E+00   -1.771E+00   -1.738E+00   -1.705E+00   -1.672E+00
    -1.639E+00   -1.607E+00   -1.575E+00   -1.543E+00   -1.511E+00   -1.479E+00   -1.447E+00   -1.415E+00   -1.383E+00   -1.351E+00
    -1.318E+00   -1.286E+00   -1.253E+00   -1.220E+00   -1.187E+00   -1.153E+00   -1.119E+00   -1.084E+00
 Asp      Conc. = 6.91E+01
