 LCModel (Version 6.3-1L) Copyright: S.W. Provencher.          Ref.: Magn. Reson. Med. 30:672-679 (1993).                
 Slice#2 Row#7 Col#3  PD_05_press_1_raw_act
 36 lines in following concentration table = NCONC+1
    Conc.  %SD /Cr+PCr  Metabolite                                         
   31.663 182% 3.7E-02 Ala                                                 
   73.640 156% 8.6E-02 Asp                                                 
    0.000 999%   0.000 Cr                                                  
  859.592   4%   1.000 PCr                                                 
    1.176 999% 1.4E-03 GABA                                                
    0.000 999%   0.000 Glc                                                 
  275.658  43%   0.321 Gln                                                 
  690.351  20%   0.803 Glu                                                 
  218.771   5%   0.255 GPC                                                 
    0.000 999%   0.000 PCh                                                 
  219.033  18%   0.255 GSH                                                 
  515.029  26%   0.599 Ins                                                 
   45.113 141% 5.2E-02 Lac                                                 
 1.35E+03   4%   1.572 NAA                                                 
  153.230  38%   0.178 NAAG                                                
   25.828  53% 3.0E-02 Scyllo                                              
    0.000 999%   0.000 Tau                                                 
  354.105  16%   0.412 -CrCH2                                              
  218.771   5%   0.255 GPC+PCh                                             
 1.50E+03   3%   1.750 NAA+NAAG                                            
  859.592   4%   1.000 Cr+PCr                                              
  966.009  20%   1.124 Glu+Gln                                             
    0.000 999%   0.000 Lip13a                                              
   72.719  63% 8.5E-02 Lip13b                                              
    0.000 999%   0.000 Lip09                                               
  531.906  18%   0.619 MM09                                                
   16.789 127% 2.0E-02 Lip20                                               
 1.34E+03  12%   1.562+MM20                                                
  140.391  33%   0.163 MM12                                                
  216.586  58%   0.252 MM14                                                
  340.458  25%   0.396 MM17                                                
   72.719  63% 8.5E-02 Lip13a+Lip13b                                       
  429.697  36%   0.500 MM14+Lip13a+Lip13b+MM12                             
  531.906  18%   0.619 MM09+Lip09                                          
 1.36E+03  12%   1.582 MM20+Lip20                                          
   6 lines in following misc. output table
  FWHM = 0.054 ppm    S/N =  14                                            
  Data shift = 0.031 ppm                                                   
  Ph: -37 deg      -9.1 deg/ppm                                            
  alphaB,S = 1.2E+00,   1.0E+02                                            
   14 spline knots.   Ns = 7(1)                                            
  (10) 3 infls.   ( 9) 1 extrs.                                            
  498 points on ppm-axis = NY
      4.000000     3.992357     3.984714     3.977070     3.969427     3.961784     3.954141     3.946497     3.938854     3.931211
      3.923568     3.915925     3.908281     3.900638     3.892995     3.885352     3.877708     3.870065     3.862422     3.854779
      3.847136     3.839492     3.831849     3.824206     3.816563     3.808919     3.801276     3.793633     3.785990     3.778347
      3.770703     3.763060     3.755417     3.747774     3.740130     3.732487     3.724844     3.717201     3.709558     3.701914
      3.694271     3.686628     3.678985     3.671341     3.663698     3.656055     3.648412     3.640769     3.633125     3.625482
      3.617839     3.610196     3.602552     3.594909     3.587266     3.579623     3.571980     3.564336     3.556693     3.549050
      3.541407     3.533763     3.526120     3.518477     3.510834     3.503191     3.495547     3.487904     3.480261     3.472618
      3.464974     3.457331     3.449688     3.442045     3.434402     3.426758     3.419115     3.411472     3.403829     3.396185
      3.388542     3.380899     3.373256     3.365613     3.357969     3.350326     3.342683     3.335040     3.327396     3.319753
      3.312110     3.304467     3.296824     3.289180     3.281537     3.273894     3.266251     3.258607     3.250964     3.243321
      3.235678     3.228034     3.220391     3.212748     3.205105     3.197462     3.189818     3.182175     3.174532     3.166889
      3.159245     3.151602     3.143959     3.136316     3.128673     3.121029     3.113386     3.105743     3.098100     3.090456
      3.082813     3.075170     3.067527     3.059884     3.052240     3.044597     3.036954     3.029311     3.021667     3.014024
      3.006381     2.998738     2.991095     2.983451     2.975808     2.968165     2.960522     2.952878     2.945235     2.937592
      2.929949     2.922306     2.914662     2.907019     2.899376     2.891733     2.884089     2.876446     2.868803     2.861160
      2.853517     2.845873     2.838230     2.830587     2.822944     2.815300     2.807657     2.800014     2.792371     2.784728
      2.777084     2.769441     2.761798     2.754155     2.746511     2.738868     2.731225     2.723582     2.715939     2.708295
      2.700652     2.693009     2.685366     2.677722     2.670079     2.662436     2.654793     2.647150     2.639506     2.631863
      2.624220     2.616577     2.608933     2.601290     2.593647     2.586004     2.578361     2.570717     2.563074     2.555431
      2.547788     2.540144     2.532501     2.524858     2.517215     2.509572     2.501928     2.494285     2.486642     2.478999
      2.471355     2.463712     2.456069     2.448426     2.440783     2.433139     2.425496     2.417853     2.410210     2.402566
      2.394923     2.387280     2.379637     2.371994     2.364350     2.356707     2.349064     2.341421     2.333777     2.326134
      2.318491     2.310848     2.303205     2.295561     2.287918     2.280275     2.272632     2.264988     2.257345     2.249702
      2.242059     2.234416     2.226772     2.219129     2.211486     2.203843     2.196199     2.188556     2.180913     2.173270
      2.165627     2.157983     2.150340     2.142697     2.135054     2.127410     2.119767     2.112124     2.104481     2.096838
      2.089194     2.081551     2.073908     2.066265     2.058621     2.050978     2.043335     2.035692     2.028049     2.020405
      2.012762     2.005119     1.997476     1.989833     1.982190     1.974546     1.966903     1.959260     1.951617     1.943974
      1.936331     1.928688     1.921045     1.913402     1.905759     1.898115     1.890472     1.882829     1.875186     1.867543
      1.859900     1.852257     1.844614     1.836971     1.829327     1.821684     1.814041     1.806398     1.798755     1.791112
      1.783469     1.775826     1.768183     1.760540     1.752896     1.745253     1.737610     1.729967     1.722324     1.714681
      1.707038     1.699395     1.691752     1.684108     1.676465     1.668822     1.661179     1.653536     1.645893     1.638250
      1.630607     1.622964     1.615321     1.607677     1.600034     1.592391     1.584748     1.577105     1.569462     1.561819
      1.554176     1.546533     1.538890     1.531246     1.523603     1.515960     1.508317     1.500674     1.493031     1.485388
      1.477745     1.470102     1.462458     1.454815     1.447172     1.439529     1.431886     1.424243     1.416600     1.408957
      1.401314     1.393671     1.386027     1.378384     1.370741     1.363098     1.355455     1.347812     1.340169     1.332526
      1.324883     1.317240     1.309596     1.301953     1.294310     1.286667     1.279024     1.271381     1.263738     1.256095
      1.248452     1.240808     1.233165     1.225522     1.217879     1.210236     1.202593     1.194950     1.187307     1.179664
      1.172021     1.164377     1.156734     1.149091     1.141448     1.133805     1.126162     1.118519     1.110876     1.103233
      1.095590     1.087946     1.080303     1.072660     1.065017     1.057374     1.049731     1.042088     1.034445     1.026802
      1.019158     1.011515     1.003872     0.996229     0.988586     0.980943     0.973300     0.965657     0.958014     0.950371
      0.942727     0.935084     0.927441     0.919798     0.912155     0.904512     0.896869     0.889226     0.881583     0.873940
      0.866296     0.858653     0.851010     0.843367     0.835724     0.828081     0.820438     0.812795     0.805152     0.797508
      0.789865     0.782222     0.774579     0.766936     0.759293     0.751650     0.744007     0.736364     0.728721     0.721077
      0.713434     0.705791     0.698148     0.690505     0.682862     0.675219     0.667576     0.659933     0.652290     0.644646
      0.637003     0.629360     0.621717     0.614074     0.606431     0.598788     0.591145     0.583502     0.575858     0.568215
      0.560572     0.552929     0.545286     0.537643     0.530000     0.522357     0.514714     0.507071     0.499427     0.491784
      0.484141     0.476498     0.468855     0.461212     0.453569     0.445925     0.438282     0.430639     0.422996     0.415353
      0.407710     0.400067     0.392424     0.384780     0.377137     0.369494     0.361851     0.354208     0.346565     0.338922
      0.331278     0.323635     0.315992     0.308349     0.300706     0.293063     0.285420     0.277777     0.270133     0.262490
      0.254847     0.247204     0.239561     0.231918     0.224275     0.216631     0.208988     0.201345
 NY phased data points follow
  -1.97683E+01 -2.26238E+01 -1.83539E+01 -1.89215E+01 -1.74560E+01 -1.49367E+01 -1.19104E+01 -8.77480E+00 -4.18772E+00 -3.13742E+00
  -2.71522E+00 -5.65081E+00 -6.49022E+00 -9.00722E+00 -1.10431E+01 -1.03737E+01 -1.46725E+01 -1.75417E+01 -1.76244E+01 -1.74358E+01
  -1.48152E+01 -1.43316E+01 -1.58317E+01 -1.37899E+01 -1.19022E+01 -1.41758E+01 -1.26161E+01 -1.25625E+01 -9.80756E+00 -7.48553E+00
  -8.51318E+00 -1.09749E+01 -1.01406E+01 -1.31668E+01 -1.17920E+01 -1.22425E+01 -1.28392E+01 -1.34381E+01 -1.54504E+01 -1.24956E+01
  -1.05465E+01 -1.44241E+01 -9.02482E+00 -1.24819E+01 -8.38723E+00 -8.35590E+00 -6.39448E+00 -8.55391E+00 -6.51886E+00 -9.18974E+00
  -1.18529E+01 -8.85050E+00 -9.17343E+00 -1.06375E+01 -9.76168E+00 -9.47430E+00 -1.02364E+01 -1.09986E+01 -1.03126E+01 -1.04867E+01
  -1.36596E+01 -1.37601E+01 -1.41905E+01 -1.53768E+01 -1.55021E+01 -1.54044E+01 -1.48010E+01 -1.11652E+01 -1.51235E+01 -1.47484E+01
  -1.18193E+01 -1.32758E+01 -1.40748E+01 -1.28225E+01 -9.50166E+00 -1.34854E+01 -1.34441E+01 -1.21736E+01 -1.09786E+01 -8.68320E+00
  -1.13913E+01 -1.21232E+01 -9.82505E+00 -1.15188E+01 -1.09046E+01 -9.11936E+00 -1.03981E+01 -1.20687E+01 -9.23426E+00 -1.10974E+01
  -1.07620E+01 -8.39797E+00 -7.44940E+00 -4.98448E+00 -6.80152E+00 -4.33884E+00 -5.35879E+00 -4.56956E+00 -4.44930E+00 -7.20353E-01
   5.23316E+00  7.53285E+00  1.06094E+01  9.34751E+00  7.50520E+00  2.35515E+00  2.19554E+00 -1.06582E+00 -1.93470E+00 -3.27170E+00
  -6.82065E+00 -4.55824E+00 -5.41738E+00 -8.80625E+00 -5.60124E+00 -6.26275E+00 -7.85450E+00 -5.96017E+00 -3.21134E+00 -6.67695E+00
  -2.20584E+00 -3.45554E+00 -1.19742E-01  3.74303E+00  9.96301E+00  1.68853E+01  1.99672E+01  2.13950E+01  1.91794E+01  1.32682E+01
   9.82925E+00  5.78734E+00  2.77511E+00  1.35763E+00 -3.85004E+00 -2.51239E+00 -5.87466E+00 -5.72466E+00 -6.90497E+00 -4.67805E+00
  -9.34557E+00 -7.40109E+00 -6.51022E+00 -8.56192E+00 -5.54363E+00 -5.08024E+00 -6.77665E+00 -6.08004E+00 -6.71095E+00 -6.64925E+00
  -7.64877E+00 -4.89475E+00 -6.06289E+00 -7.31297E+00 -7.53946E+00 -6.89893E+00 -7.62492E+00 -4.79909E+00 -4.75077E+00 -9.48365E+00
  -6.82151E+00 -8.76668E+00 -8.81289E+00 -8.69652E+00 -7.01961E+00 -6.12488E+00 -7.41905E+00 -5.88872E+00 -8.00210E+00 -8.64632E+00
  -1.06142E+01 -9.65101E+00 -8.61237E+00 -1.18171E+01 -1.07856E+01 -1.00643E+01 -1.14609E+01 -1.01097E+01 -9.19221E+00 -7.98162E+00
  -8.67121E+00 -8.66926E+00 -6.93571E+00 -7.92806E+00 -9.80684E+00 -7.82786E+00 -7.59133E+00 -7.39140E+00 -7.44194E+00 -5.27539E+00
  -3.60067E+00 -1.81663E+00 -2.94879E+00 -1.54718E+00 -3.27676E+00 -2.27227E+00 -3.97342E+00 -4.97231E+00 -3.18977E+00 -5.19003E+00
  -1.02755E+00 -2.26476E+00 -3.11649E-01 -2.81992E+00 -8.08904E-01 -1.71818E+00 -6.12193E+00 -5.79142E+00 -2.03870E+00 -4.62444E+00
  -5.08004E+00 -3.20594E+00 -3.94301E+00 -1.91654E+00  8.97720E-01  1.20471E+00  1.51360E+00  5.96218E-01 -1.20885E-01 -1.59476E+00
  -5.61466E+00 -5.24669E+00 -2.59710E+00 -3.02033E+00 -9.08543E-01 -1.00803E+00  1.06427E+00  1.94579E+00  1.67424E+00  5.92052E-01
   1.58992E+00  4.19168E-02  5.20478E-01  2.47425E+00  1.26452E+00  2.24997E+00  9.01957E-01 -1.36422E+00  2.75487E+00  2.13072E+00
  -1.70140E-01  1.11207E+00 -1.87416E-01  1.42373E+00  5.68364E+00  3.90081E+00  3.20508E+00  5.12936E+00  6.03978E+00  6.91523E+00
   7.77981E+00  1.00830E+01  1.12048E+01  1.02038E+01  1.40149E+01  1.68596E+01  2.16449E+01  2.85856E+01  4.36461E+01  5.05940E+01
   4.99162E+01  4.49216E+01  3.81529E+01  3.04772E+01  2.51185E+01  1.40694E+01  1.00493E+01  1.19714E+01  7.14795E+00  7.41941E+00
   4.16987E+00  4.77871E+00  3.81805E+00  2.82103E+00  3.70903E+00  3.97150E+00  3.07126E+00  3.93894E-02  4.56096E-01  9.61793E-01
   7.39972E-01  1.79839E+00  2.36084E+00  1.54648E+00 -7.55569E-01 -3.20598E+00  5.41957E-01  1.17253E+00 -3.91710E-01 -1.29388E+00
  -5.90861E-01 -3.12951E-02 -1.75140E+00  6.59855E-01 -2.51313E+00  2.18781E+00  6.68130E-01 -7.71357E-01 -1.31048E+00 -8.40867E-01
  -2.35073E+00  1.78153E-01  2.17677E-01  3.80317E-01 -4.02950E-01 -1.20785E+00  1.38981E-01 -3.78784E-01  2.46002E+00  4.02156E+00
   1.13449E+00  1.75665E+00  2.96881E+00  4.45124E+00  1.53934E+00  4.07642E+00  2.11264E+00  2.36678E+00  2.10380E+00  1.01654E+00
   2.40380E+00  1.44028E+00  2.59008E-01  1.68512E+00  3.65358E+00  3.03781E+00 -7.39899E-01  1.06150E+00 -9.66675E-01 -1.75324E-01
   6.42605E-01  2.18622E-01 -1.13018E+00  1.65715E+00 -2.11148E+00  1.12855E+00 -1.02386E+00 -7.67722E-01  3.87746E-01 -2.36993E+00
   1.29829E+00  3.19948E-01 -1.55733E+00  6.42678E-01  9.89733E-01  9.00108E-01  9.92848E-01 -1.42201E+00  4.85402E-02  2.60756E-01
  -4.48968E-01 -5.91839E-01 -4.96544E-01  1.30288E+00  1.00630E+00  1.88538E+00  8.01238E-01  4.16294E+00  5.52367E-01  2.12991E+00
   2.38000E+00 -1.78153E+00 -4.21943E-01 -1.91315E+00 -5.17421E-01  6.28770E-01 -3.67984E+00 -3.61547E-01 -4.93144E-01  4.98805E-01
  -1.18011E+00 -4.83636E-01 -1.00482E+00  3.56404E-01  5.78534E-01 -1.45656E-01  1.12908E+00 -4.35807E-01 -8.41982E-01 -1.10306E+00
  -7.73646E-01 -4.58589E-02  3.45461E+00  5.58157E-01  1.76518E+00  5.33318E-01  7.26082E-01 -7.49197E-01  2.66786E+00  2.14465E+00
   1.41421E+00  3.57944E-01  1.10450E+00  7.14895E-01  1.43969E+00  4.46480E+00  2.61306E-01  2.34836E+00  2.60619E+00  2.63078E-01
   1.50552E+00  2.78749E+00  1.70561E+00 -5.03874E-01  1.77948E+00  2.53334E+00  1.67752E+00  1.65672E+00 -1.49694E+00  1.18929E+00
   1.92267E-01  2.86309E+00  2.22279E-01 -8.60301E-01 -2.26527E-01 -1.91878E+00 -5.85054E-02 -1.89072E+00  9.55728E-01 -5.85353E-01
   1.06610E+00  1.00650E+00  7.19183E-01  1.07509E-01  1.37627E-01 -2.24888E+00 -1.29143E+00  1.16220E+00 -8.82404E-02 -2.95270E-01
  -9.07554E-01 -9.93814E-01 -9.34633E-01 -8.94717E-01 -1.62073E+00  6.59806E-05  9.44562E-02 -3.01494E-01 -4.16418E-01 -1.51483E+00
   2.85505E-01 -7.50819E-02  1.86017E-01 -6.33013E-01 -1.10059E+00 -3.69046E-01  5.37874E-01  8.44683E-01 -1.23800E+00  1.63988E+00
  -2.79701E+00 -1.09090E+00 -3.03220E-01 -1.18410E-01  1.37356E+00  1.26697E+00  2.22648E+00 -1.06487E+00  3.67208E-02  1.02322E+00
   5.71554E-01  9.20813E-03 -2.45173E-01 -1.06111E+00 -1.10018E+00  1.90159E-01  5.73868E-01  6.24769E-01  1.68881E-01 -2.40323E+00
   1.40555E+00 -1.23152E+00  1.97257E-02 -9.52663E-01 -2.05865E+00 -1.93904E+00  1.09440E+00  2.46732E+00 -1.51864E+00  9.58369E-02
  -5.11374E-01 -1.31551E+00 -1.56884E+00  9.46094E-01 -1.83251E+00  1.36809E+00  2.08344E+00 -1.02715E+00  1.26400E+00  2.21945E-01
   1.24903E+00  7.73077E-01  1.75571E+00  2.44193E+00  2.57952E-03 -9.07845E-02 -2.93868E+00  7.44176E-01
 NY points of the fit to the data follow
  -1.72962E+01 -1.75403E+01 -1.74796E+01 -1.69548E+01 -1.63820E+01 -1.51095E+01 -1.22827E+01 -8.33385E+00 -4.89031E+00 -3.30277E+00
  -3.71520E+00 -5.30749E+00 -7.24885E+00 -9.21643E+00 -1.08549E+01 -1.17899E+01 -1.23934E+01 -1.34193E+01 -1.44884E+01 -1.48233E+01
  -1.48476E+01 -1.48665E+01 -1.48580E+01 -1.47216E+01 -1.45410E+01 -1.41435E+01 -1.32518E+01 -1.18990E+01 -1.04854E+01 -9.46223E+00
  -9.00325E+00 -9.08577E+00 -9.63543E+00 -1.05392E+01 -1.15729E+01 -1.24452E+01 -1.30249E+01 -1.34387E+01 -1.36979E+01 -1.35882E+01
  -1.32106E+01 -1.27147E+01 -1.21091E+01 -1.12925E+01 -1.03197E+01 -9.51435E+00 -9.17745E+00 -9.40398E+00 -1.00332E+01 -1.07762E+01
  -1.14902E+01 -1.20784E+01 -1.24075E+01 -1.25023E+01 -1.25127E+01 -1.24576E+01 -1.22364E+01 -1.18764E+01 -1.15628E+01 -1.14339E+01
  -1.15057E+01 -1.17178E+01 -1.19725E+01 -1.21815E+01 -1.22571E+01 -1.21697E+01 -1.19887E+01 -1.17755E+01 -1.15365E+01 -1.12947E+01
  -1.10963E+01 -1.09724E+01 -1.09266E+01 -1.09258E+01 -1.09405E+01 -1.09590E+01 -1.09631E+01 -1.09417E+01 -1.08917E+01 -1.08123E+01
  -1.07046E+01 -1.05658E+01 -1.03768E+01 -1.01704E+01 -1.00591E+01 -1.01223E+01 -1.03162E+01 -1.05127E+01 -1.06049E+01 -1.05512E+01
  -1.03833E+01 -1.01371E+01 -9.85731E+00 -9.61386E+00 -9.41823E+00 -9.05761E+00 -8.02416E+00 -6.31505E+00 -3.82934E+00 -3.81198E-02
   4.70373E+00  8.83009E+00  1.07415E+01  1.00272E+01  7.47524E+00  4.26036E+00  1.11441E+00 -1.61812E+00 -3.62465E+00 -4.97912E+00
  -6.21784E+00 -7.53877E+00 -8.29117E+00 -8.39036E+00 -8.30764E+00 -8.17085E+00 -8.00614E+00 -7.80426E+00 -7.52519E+00 -7.04709E+00
  -5.85092E+00 -3.54963E+00 -4.29583E-01  4.21403E+00  1.05636E+01  1.69691E+01  2.09444E+01  2.12329E+01  1.84535E+01  1.42399E+01
   9.86565E+00  5.77596E+00  2.32092E+00 -2.73690E-01 -2.49910E+00 -4.82640E+00 -6.58400E+00 -6.96791E+00 -6.76639E+00 -6.43517E+00
  -6.17739E+00 -6.06574E+00 -6.04151E+00 -6.04429E+00 -6.08201E+00 -6.14810E+00 -6.23081E+00 -6.34046E+00 -6.46880E+00 -6.60019E+00
  -6.71769E+00 -6.79574E+00 -6.83338E+00 -6.82536E+00 -6.79345E+00 -6.77537E+00 -6.80176E+00 -6.93263E+00 -7.15867E+00 -7.39694E+00
  -7.52868E+00 -7.43786E+00 -7.16255E+00 -6.88612E+00 -6.76673E+00 -6.83137E+00 -7.02052E+00 -7.24043E+00 -7.40986E+00 -7.51479E+00
  -7.61654E+00 -7.75866E+00 -7.98057E+00 -8.27408E+00 -8.48909E+00 -8.48856E+00 -8.28523E+00 -8.02674E+00 -7.87983E+00 -7.84861E+00
  -7.81615E+00 -7.71111E+00 -7.52607E+00 -7.31394E+00 -7.05251E+00 -6.64176E+00 -6.03406E+00 -5.22328E+00 -4.32558E+00 -3.55622E+00
  -3.09599E+00 -3.01345E+00 -3.18395E+00 -3.44276E+00 -3.65476E+00 -3.73652E+00 -3.68261E+00 -3.47517E+00 -3.08389E+00 -2.57549E+00
  -1.99463E+00 -1.39595E+00 -9.35021E-01 -8.47884E-01 -1.18074E+00 -1.90414E+00 -2.90314E+00 -3.93296E+00 -4.66312E+00 -4.86854E+00
  -4.57217E+00 -3.86287E+00 -2.76833E+00 -1.44147E+00 -3.07758E-01  1.49808E-01 -1.73412E-01 -1.02881E+00 -2.18085E+00 -3.51663E+00
  -4.58826E+00 -4.91798E+00 -4.45675E+00 -3.52815E+00 -2.47716E+00 -1.44586E+00 -5.55910E-01  1.33469E-03  1.93656E-01  2.03022E-01
   3.06136E-01  5.29567E-01  7.62254E-01  1.04565E+00  1.44519E+00  1.83835E+00  2.04065E+00  1.99769E+00  1.76808E+00  1.45871E+00
   1.15810E+00  1.02636E+00  1.22912E+00  1.74880E+00  2.38865E+00  2.95428E+00  3.43059E+00  3.83210E+00  4.21455E+00  4.75649E+00
   5.54072E+00  6.70262E+00  8.31193E+00  1.06661E+01  1.42792E+01  1.84105E+01  2.39365E+01  3.21267E+01  4.15378E+01  4.83306E+01
   4.97057E+01  4.58244E+01  3.88758E+01  3.10750E+01  2.36542E+01  1.75283E+01  1.32296E+01  1.00162E+01  6.62863E+00  3.34283E+00
   1.84070E+00  1.38431E+00  1.16618E+00  1.02284E+00  8.90031E-01  7.32843E-01  5.71189E-01  4.10399E-01  2.55543E-01  1.22229E-01
   1.94687E-02 -6.68108E-02 -1.49552E-01 -2.25923E-01 -2.91240E-01 -3.48835E-01 -4.04421E-01 -4.52451E-01 -4.81860E-01 -4.88907E-01
  -4.80740E-01 -4.61731E-01 -4.33625E-01 -3.97256E-01 -3.54314E-01 -3.04198E-01 -2.43941E-01 -1.68348E-01 -7.46936E-02  3.61804E-02
   1.62052E-01  3.01955E-01  4.52541E-01  6.09825E-01  7.69435E-01  9.28516E-01  1.08421E+00  1.23241E+00  1.36763E+00  1.48688E+00
   1.58693E+00  1.66517E+00  1.71980E+00  1.75026E+00  1.75644E+00  1.73972E+00  1.70230E+00  1.64792E+00  1.58130E+00  1.50990E+00
   1.44343E+00  1.37747E+00  1.31162E+00  1.25089E+00  1.17250E+00  1.04037E+00  8.42700E-01  6.05836E-01  3.81432E-01  2.05811E-01
   8.23707E-02  2.81846E-02  6.41421E-02  1.71037E-01  2.92198E-01  3.86424E-01  4.51243E-01  4.86417E-01  4.92944E-01  4.87637E-01
   4.95804E-01  5.21728E-01  5.55388E-01  5.89254E-01  6.00042E-01  5.50600E-01  4.14060E-01  2.24952E-01  6.33561E-02 -2.49154E-02
  -2.69246E-02  8.21932E-02  3.13234E-01  6.11077E-01  8.77945E-01  1.05420E+00  1.14588E+00  1.16066E+00  1.09653E+00  9.76334E-01
   8.33895E-01  6.93638E-01  5.52638E-01  4.03402E-01  2.74809E-01  1.81779E-01  1.15007E-01  6.86802E-02  3.82570E-02  2.02262E-02
   1.15346E-02  1.03319E-02  1.52981E-02  2.61169E-02  4.26475E-02  6.54161E-02  9.48951E-02  1.32056E-01  1.77625E-01  2.32592E-01
   2.97508E-01  3.73093E-01  4.59603E-01  5.57423E-01  6.66347E-01  7.86128E-01  9.15808E-01  1.05436E+00  1.20008E+00  1.35119E+00
   1.50518E+00  1.65946E+00  1.81082E+00  1.95617E+00  2.09205E+00  2.21532E+00  2.32268E+00  2.41136E+00  2.47871E+00  2.52296E+00
   2.54268E+00  2.53742E+00  2.50709E+00  2.45263E+00  2.37531E+00  2.27737E+00  2.16123E+00  2.02996E+00  1.88652E+00  1.73426E+00
   1.57622E+00  1.41566E+00  1.25525E+00  1.09763E+00  9.44748E-01  7.98470E-01  6.59991E-01  5.30454E-01  4.10311E-01  2.99983E-01
   1.99301E-01  1.08222E-01  2.62472E-02 -4.69254E-02 -1.12024E-01 -1.69540E-01 -2.20284E-01 -2.64722E-01 -3.03582E-01 -3.37267E-01
  -3.66479E-01 -3.91577E-01 -4.13168E-01 -4.31470E-01 -4.46966E-01 -4.59809E-01 -4.70455E-01 -4.79015E-01 -4.85851E-01 -4.90967E-01
  -4.94664E-01 -4.96941E-01 -4.98112E-01 -4.98144E-01 -4.97276E-01 -4.95415E-01 -4.92788E-01 -4.89333E-01 -4.85292E-01 -4.80565E-01
  -4.75332E-01 -4.69463E-01 -4.63162E-01 -4.56335E-01 -4.49183E-01 -4.41569E-01 -4.33647E-01 -4.25282E-01 -4.16666E-01 -4.07692E-01
  -3.98534E-01 -3.89033E-01 -3.79336E-01 -3.69309E-01 -3.59142E-01 -3.48715E-01 -3.38182E-01 -3.27377E-01 -3.16451E-01 -3.05274E-01
  -2.94033E-01 -2.82588E-01 -2.71082E-01 -2.59346E-01 -2.47539E-01 -2.35539E-01 -2.23524E-01 -2.11342E-01 -1.99127E-01 -1.86718E-01
  -1.74284E-01 -1.61700E-01 -1.49134E-01 -1.36421E-01 -1.23695E-01 -1.10803E-01 -9.79208E-02 -8.49206E-02 -7.19555E-02 -5.88538E-02
  -4.57539E-02 -3.25140E-02 -1.93116E-02 -6.00788E-03  7.25686E-03  2.06571E-02  3.40473E-02  4.75628E-02
 NY background values follow
    -1.913E+01   -1.904E+01   -1.895E+01   -1.886E+01   -1.877E+01   -1.867E+01   -1.858E+01   -1.849E+01   -1.840E+01   -1.831E+01
    -1.822E+01   -1.812E+01   -1.803E+01   -1.794E+01   -1.785E+01   -1.776E+01   -1.767E+01   -1.757E+01   -1.748E+01   -1.739E+01
    -1.730E+01   -1.721E+01   -1.712E+01   -1.703E+01   -1.694E+01   -1.684E+01   -1.675E+01   -1.666E+01   -1.657E+01   -1.648E+01
    -1.639E+01   -1.630E+01   -1.621E+01   -1.612E+01   -1.603E+01   -1.594E+01   -1.585E+01   -1.576E+01   -1.567E+01   -1.558E+01
    -1.549E+01   -1.540E+01   -1.531E+01   -1.522E+01   -1.513E+01   -1.505E+01   -1.496E+01   -1.487E+01   -1.478E+01   -1.469E+01
    -1.461E+01   -1.452E+01   -1.443E+01   -1.434E+01   -1.426E+01   -1.417E+01   -1.408E+01   -1.399E+01   -1.391E+01   -1.382E+01
    -1.374E+01   -1.365E+01   -1.356E+01   -1.348E+01   -1.339E+01   -1.331E+01   -1.322E+01   -1.314E+01   -1.305E+01   -1.297E+01
    -1.289E+01   -1.280E+01   -1.272E+01   -1.264E+01   -1.255E+01   -1.247E+01   -1.239E+01   -1.231E+01   -1.222E+01   -1.214E+01
    -1.206E+01   -1.198E+01   -1.190E+01   -1.182E+01   -1.174E+01   -1.166E+01   -1.158E+01   -1.150E+01   -1.142E+01   -1.134E+01
    -1.126E+01   -1.118E+01   -1.111E+01   -1.103E+01   -1.095E+01   -1.088E+01   -1.080E+01   -1.072E+01   -1.065E+01   -1.057E+01
    -1.049E+01   -1.042E+01   -1.034E+01   -1.027E+01   -1.020E+01   -1.012E+01   -1.005E+01   -9.975E+00   -9.902E+00   -9.830E+00
    -9.757E+00   -9.685E+00   -9.614E+00   -9.542E+00   -9.471E+00   -9.400E+00   -9.330E+00   -9.260E+00   -9.190E+00   -9.120E+00
    -9.051E+00   -8.982E+00   -8.914E+00   -8.845E+00   -8.777E+00   -8.710E+00   -8.642E+00   -8.575E+00   -8.509E+00   -8.442E+00
    -8.376E+00   -8.311E+00   -8.245E+00   -8.180E+00   -8.115E+00   -8.051E+00   -7.987E+00   -7.923E+00   -7.859E+00   -7.796E+00
    -7.733E+00   -7.670E+00   -7.608E+00   -7.546E+00   -7.484E+00   -7.423E+00   -7.361E+00   -7.301E+00   -7.240E+00   -7.179E+00
    -7.119E+00   -7.059E+00   -7.000E+00   -6.940E+00   -6.881E+00   -6.822E+00   -6.764E+00   -6.705E+00   -6.647E+00   -6.589E+00
    -6.531E+00   -6.474E+00   -6.416E+00   -6.359E+00   -6.302E+00   -6.245E+00   -6.189E+00   -6.132E+00   -6.076E+00   -6.020E+00
    -5.964E+00   -5.909E+00   -5.853E+00   -5.798E+00   -5.742E+00   -5.687E+00   -5.632E+00   -5.578E+00   -5.523E+00   -5.469E+00
    -5.414E+00   -5.360E+00   -5.306E+00   -5.252E+00   -5.198E+00   -5.144E+00   -5.091E+00   -5.037E+00   -4.984E+00   -4.931E+00
    -4.878E+00   -4.826E+00   -4.773E+00   -4.721E+00   -4.669E+00   -4.617E+00   -4.565E+00   -4.514E+00   -4.463E+00   -4.412E+00
    -4.361E+00   -4.311E+00   -4.261E+00   -4.211E+00   -4.162E+00   -4.112E+00   -4.063E+00   -4.015E+00   -3.966E+00   -3.918E+00
    -3.871E+00   -3.823E+00   -3.776E+00   -3.730E+00   -3.683E+00   -3.637E+00   -3.592E+00   -3.547E+00   -3.502E+00   -3.457E+00
    -3.413E+00   -3.370E+00   -3.327E+00   -3.284E+00   -3.242E+00   -3.200E+00   -3.158E+00   -3.117E+00   -3.077E+00   -3.037E+00
    -2.997E+00   -2.958E+00   -2.919E+00   -2.881E+00   -2.843E+00   -2.806E+00   -2.769E+00   -2.732E+00   -2.696E+00   -2.661E+00
    -2.626E+00   -2.591E+00   -2.557E+00   -2.524E+00   -2.491E+00   -2.458E+00   -2.426E+00   -2.394E+00   -2.363E+00   -2.332E+00
    -2.302E+00   -2.272E+00   -2.243E+00   -2.214E+00   -2.186E+00   -2.158E+00   -2.131E+00   -2.104E+00   -2.078E+00   -2.052E+00
    -2.027E+00   -2.002E+00   -1.978E+00   -1.954E+00   -1.931E+00   -1.908E+00   -1.886E+00   -1.864E+00   -1.843E+00   -1.822E+00
    -1.802E+00   -1.782E+00   -1.763E+00   -1.744E+00   -1.726E+00   -1.709E+00   -1.691E+00   -1.675E+00   -1.658E+00   -1.643E+00
    -1.627E+00   -1.613E+00   -1.598E+00   -1.584E+00   -1.571E+00   -1.558E+00   -1.545E+00   -1.533E+00   -1.521E+00   -1.510E+00
    -1.499E+00   -1.488E+00   -1.478E+00   -1.468E+00   -1.459E+00   -1.450E+00   -1.441E+00   -1.433E+00   -1.425E+00   -1.417E+00
    -1.410E+00   -1.403E+00   -1.396E+00   -1.390E+00   -1.384E+00   -1.378E+00   -1.373E+00   -1.367E+00   -1.363E+00   -1.358E+00
    -1.354E+00   -1.350E+00   -1.346E+00   -1.342E+00   -1.339E+00   -1.336E+00   -1.333E+00   -1.330E+00   -1.328E+00   -1.326E+00
    -1.324E+00   -1.322E+00   -1.320E+00   -1.319E+00   -1.318E+00   -1.317E+00   -1.316E+00   -1.315E+00   -1.314E+00   -1.314E+00
    -1.314E+00   -1.313E+00   -1.313E+00   -1.313E+00   -1.313E+00   -1.314E+00   -1.314E+00   -1.315E+00   -1.315E+00   -1.316E+00
    -1.316E+00   -1.317E+00   -1.318E+00   -1.319E+00   -1.319E+00   -1.320E+00   -1.321E+00   -1.322E+00   -1.323E+00   -1.324E+00
    -1.325E+00   -1.326E+00   -1.327E+00   -1.328E+00   -1.328E+00   -1.329E+00   -1.330E+00   -1.331E+00   -1.331E+00   -1.332E+00
    -1.333E+00   -1.333E+00   -1.333E+00   -1.334E+00   -1.334E+00   -1.334E+00   -1.334E+00   -1.334E+00   -1.334E+00   -1.333E+00
    -1.333E+00   -1.332E+00   -1.332E+00   -1.331E+00   -1.330E+00   -1.329E+00   -1.328E+00   -1.327E+00   -1.325E+00   -1.324E+00
    -1.322E+00   -1.320E+00   -1.318E+00   -1.316E+00   -1.314E+00   -1.311E+00   -1.308E+00   -1.306E+00   -1.303E+00   -1.299E+00
    -1.296E+00   -1.293E+00   -1.289E+00   -1.285E+00   -1.281E+00   -1.277E+00   -1.272E+00   -1.268E+00   -1.263E+00   -1.258E+00
    -1.253E+00   -1.247E+00   -1.241E+00   -1.235E+00   -1.229E+00   -1.223E+00   -1.216E+00   -1.210E+00   -1.203E+00   -1.195E+00
    -1.188E+00   -1.180E+00   -1.172E+00   -1.164E+00   -1.156E+00   -1.147E+00   -1.139E+00   -1.130E+00   -1.120E+00   -1.111E+00
    -1.102E+00   -1.092E+00   -1.082E+00   -1.072E+00   -1.062E+00   -1.051E+00   -1.041E+00   -1.030E+00   -1.019E+00   -1.008E+00
    -9.972E-01   -9.859E-01   -9.745E-01   -9.629E-01   -9.512E-01   -9.393E-01   -9.274E-01   -9.153E-01   -9.031E-01   -8.908E-01
    -8.783E-01   -8.658E-01   -8.532E-01   -8.404E-01   -8.276E-01   -8.147E-01   -8.016E-01   -7.885E-01   -7.754E-01   -7.621E-01
    -7.488E-01   -7.354E-01   -7.219E-01   -7.084E-01   -6.948E-01   -6.811E-01   -6.674E-01   -6.537E-01   -6.399E-01   -6.260E-01
    -6.121E-01   -5.981E-01   -5.841E-01   -5.700E-01   -5.559E-01   -5.418E-01   -5.276E-01   -5.134E-01   -4.991E-01   -4.848E-01
    -4.705E-01   -4.561E-01   -4.417E-01   -4.273E-01   -4.128E-01   -3.983E-01   -3.838E-01   -3.693E-01   -3.547E-01   -3.402E-01
    -3.256E-01   -3.110E-01   -2.963E-01   -2.817E-01   -2.670E-01   -2.524E-01   -2.377E-01   -2.231E-01   -2.084E-01   -1.937E-01
    -1.790E-01   -1.643E-01   -1.496E-01   -1.350E-01   -1.203E-01   -1.056E-01   -9.095E-02   -7.630E-02
 Ala      Conc. = 3.17E+01
