 LCModel (Version 6.3-1L) Copyright: S.W. Provencher.          Ref.: Magn. Reson. Med. 30:672-679 (1993).                
 Slice#2 Row#13 Col#6  PD_05_press_1_raw_act
 36 lines in following concentration table = NCONC+1
    Conc.  %SD /Cr+PCr  Metabolite                                         
  113.062  84%   0.259 Ala                                                 
   10.376 810% 2.4E-02 Asp                                                 
    0.000 999%   0.000 Cr                                                  
  436.077   8%   1.000 PCr                                                 
   23.281 241% 5.3E-02 GABA                                                
    0.000 999%   0.000 Glc                                                 
  722.392  37%   1.657 Gln                                                 
  634.510  48%   1.455 Glu                                                 
   47.199 134%   0.108 GPC                                                 
   80.351  80%   0.184 PCh                                                 
  150.024  33%   0.344 GSH                                                 
 1.32E+03  14%   3.016 Ins                                                 
  217.105  51%   0.498 Lac                                                 
  648.672   5%   1.488 NAA                                                 
    0.000 999%   0.000 NAAG                                                
   45.460  31%   0.104 Scyllo                                              
    0.000 999%   0.000 Tau                                                 
    0.000 999%   0.000 -CrCH2                                              
  127.550  10%   0.292 GPC+PCh                                             
  648.672   5%   1.488 NAA+NAAG                                            
  436.077   8%   1.000 Cr+PCr                                              
 1.36E+03  39%   3.112 Glu+Gln                                             
    0.000 999%   0.000 Lip13a                                              
    0.000 999%   0.000 Lip13b                                              
    0.000 999%   0.000 Lip09                                               
  272.922  27%   0.626 MM09                                                
 2.49E-03 999% 5.7E-06 Lip20                                               
  386.560  33%   0.886 MM20                                                
   75.868  46%   0.174 MM12                                                
  299.319  30%   0.686 MM14                                                
  173.300  40%   0.397 MM17                                                
    0.000 999%   0.000 Lip13a+Lip13b                                       
  375.188  29%   0.860 MM14+Lip13a+Lip13b+MM12                             
  272.922  27%   0.626 MM09+Lip09                                          
  386.562  33%   0.886 MM20+Lip20                                          
   6 lines in following misc. output table
  FWHM = 0.092 ppm    S/N =   5                                            
  Data shift = 0.031 ppm                                                   
  Ph:  55 deg      16.2 deg/ppm                                            
  alphaB,S = 6.6E-01,   2.7E+01                                            
   14 spline knots.   Ns =11(1)                                            
  (18)11 infls.   (19) 7 extrs.                                            
  498 points on ppm-axis = NY
      4.000000     3.992357     3.984714     3.977070     3.969427     3.961784     3.954141     3.946497     3.938854     3.931211
      3.923568     3.915925     3.908281     3.900638     3.892995     3.885352     3.877708     3.870065     3.862422     3.854779
      3.847136     3.839492     3.831849     3.824206     3.816563     3.808919     3.801276     3.793633     3.785990     3.778347
      3.770703     3.763060     3.755417     3.747774     3.740130     3.732487     3.724844     3.717201     3.709558     3.701914
      3.694271     3.686628     3.678985     3.671341     3.663698     3.656055     3.648412     3.640769     3.633125     3.625482
      3.617839     3.610196     3.602552     3.594909     3.587266     3.579623     3.571980     3.564336     3.556693     3.549050
      3.541407     3.533763     3.526120     3.518477     3.510834     3.503191     3.495547     3.487904     3.480261     3.472618
      3.464974     3.457331     3.449688     3.442045     3.434402     3.426758     3.419115     3.411472     3.403829     3.396185
      3.388542     3.380899     3.373256     3.365613     3.357969     3.350326     3.342683     3.335040     3.327396     3.319753
      3.312110     3.304467     3.296824     3.289180     3.281537     3.273894     3.266251     3.258607     3.250964     3.243321
      3.235678     3.228034     3.220391     3.212748     3.205105     3.197462     3.189818     3.182175     3.174532     3.166889
      3.159245     3.151602     3.143959     3.136316     3.128673     3.121029     3.113386     3.105743     3.098100     3.090456
      3.082813     3.075170     3.067527     3.059884     3.052240     3.044597     3.036954     3.029311     3.021667     3.014024
      3.006381     2.998738     2.991095     2.983451     2.975808     2.968165     2.960522     2.952878     2.945235     2.937592
      2.929949     2.922306     2.914662     2.907019     2.899376     2.891733     2.884089     2.876446     2.868803     2.861160
      2.853517     2.845873     2.838230     2.830587     2.822944     2.815300     2.807657     2.800014     2.792371     2.784728
      2.777084     2.769441     2.761798     2.754155     2.746511     2.738868     2.731225     2.723582     2.715939     2.708295
      2.700652     2.693009     2.685366     2.677722     2.670079     2.662436     2.654793     2.647150     2.639506     2.631863
      2.624220     2.616577     2.608933     2.601290     2.593647     2.586004     2.578361     2.570717     2.563074     2.555431
      2.547788     2.540144     2.532501     2.524858     2.517215     2.509572     2.501928     2.494285     2.486642     2.478999
      2.471355     2.463712     2.456069     2.448426     2.440783     2.433139     2.425496     2.417853     2.410210     2.402566
      2.394923     2.387280     2.379637     2.371994     2.364350     2.356707     2.349064     2.341421     2.333777     2.326134
      2.318491     2.310848     2.303205     2.295561     2.287918     2.280275     2.272632     2.264988     2.257345     2.249702
      2.242059     2.234416     2.226772     2.219129     2.211486     2.203843     2.196199     2.188556     2.180913     2.173270
      2.165627     2.157983     2.150340     2.142697     2.135054     2.127410     2.119767     2.112124     2.104481     2.096838
      2.089194     2.081551     2.073908     2.066265     2.058621     2.050978     2.043335     2.035692     2.028049     2.020405
      2.012762     2.005119     1.997476     1.989833     1.982190     1.974546     1.966903     1.959260     1.951617     1.943974
      1.936331     1.928688     1.921045     1.913402     1.905759     1.898115     1.890472     1.882829     1.875186     1.867543
      1.859900     1.852257     1.844614     1.836971     1.829327     1.821684     1.814041     1.806398     1.798755     1.791112
      1.783469     1.775826     1.768183     1.760540     1.752896     1.745253     1.737610     1.729967     1.722324     1.714681
      1.707038     1.699395     1.691752     1.684108     1.676465     1.668822     1.661179     1.653536     1.645893     1.638250
      1.630607     1.622964     1.615321     1.607677     1.600034     1.592391     1.584748     1.577105     1.569462     1.561819
      1.554176     1.546533     1.538890     1.531246     1.523603     1.515960     1.508317     1.500674     1.493031     1.485388
      1.477745     1.470102     1.462458     1.454815     1.447172     1.439529     1.431886     1.424243     1.416600     1.408957
      1.401314     1.393671     1.386027     1.378384     1.370741     1.363098     1.355455     1.347812     1.340169     1.332526
      1.324883     1.317240     1.309596     1.301953     1.294310     1.286667     1.279024     1.271381     1.263738     1.256095
      1.248452     1.240808     1.233165     1.225522     1.217879     1.210236     1.202593     1.194950     1.187307     1.179664
      1.172021     1.164377     1.156734     1.149091     1.141448     1.133805     1.126162     1.118519     1.110876     1.103233
      1.095590     1.087946     1.080303     1.072660     1.065017     1.057374     1.049731     1.042088     1.034445     1.026802
      1.019158     1.011515     1.003872     0.996229     0.988586     0.980943     0.973300     0.965657     0.958014     0.950371
      0.942727     0.935084     0.927441     0.919798     0.912155     0.904512     0.896869     0.889226     0.881583     0.873940
      0.866296     0.858653     0.851010     0.843367     0.835724     0.828081     0.820438     0.812795     0.805152     0.797508
      0.789865     0.782222     0.774579     0.766936     0.759293     0.751650     0.744007     0.736364     0.728721     0.721077
      0.713434     0.705791     0.698148     0.690505     0.682862     0.675219     0.667576     0.659933     0.652290     0.644646
      0.637003     0.629360     0.621717     0.614074     0.606431     0.598788     0.591145     0.583502     0.575858     0.568215
      0.560572     0.552929     0.545286     0.537643     0.530000     0.522357     0.514714     0.507071     0.499427     0.491784
      0.484141     0.476498     0.468855     0.461212     0.453569     0.445925     0.438282     0.430639     0.422996     0.415353
      0.407710     0.400067     0.392424     0.384780     0.377137     0.369494     0.361851     0.354208     0.346565     0.338922
      0.331278     0.323635     0.315992     0.308349     0.300706     0.293063     0.285420     0.277777     0.270133     0.262490
      0.254847     0.247204     0.239561     0.231918     0.224275     0.216631     0.208988     0.201345
 NY phased data points follow
   1.00888E+02  1.02742E+02  1.01762E+02  9.85223E+01  9.59700E+01  9.58081E+01  9.72412E+01  9.43173E+01  9.37002E+01  9.27792E+01
   9.28017E+01  8.86117E+01  8.93854E+01  8.69389E+01  8.59063E+01  8.45053E+01  8.16307E+01  8.22715E+01  7.83139E+01  7.88444E+01
   7.67662E+01  7.57236E+01  7.40601E+01  7.45167E+01  7.42191E+01  7.36507E+01  7.19462E+01  7.29130E+01  7.00062E+01  7.23564E+01
   6.95506E+01  7.11191E+01  6.82495E+01  6.65954E+01  6.76159E+01  6.80276E+01  6.61480E+01  6.68950E+01  6.61052E+01  6.53179E+01
   6.45883E+01  6.24567E+01  6.18372E+01  6.22535E+01  6.35966E+01  6.09098E+01  5.97005E+01  6.03844E+01  5.94830E+01  5.93749E+01
   5.52309E+01  5.67267E+01  5.46842E+01  5.30048E+01  5.10592E+01  5.06942E+01  5.17272E+01  5.08170E+01  4.85631E+01  4.85038E+01
   4.69391E+01  4.42236E+01  4.58240E+01  4.58328E+01  4.67146E+01  4.20983E+01  4.27058E+01  4.32142E+01  4.34141E+01  4.07251E+01
   4.14755E+01  4.10469E+01  4.07720E+01  4.04058E+01  3.92341E+01  3.90148E+01  3.65360E+01  3.76934E+01  3.73518E+01  3.71737E+01
   3.62174E+01  3.69057E+01  3.58787E+01  3.54985E+01  3.49235E+01  3.62247E+01  3.40803E+01  3.45007E+01  3.31811E+01  3.44655E+01
   3.24804E+01  3.18796E+01  3.18586E+01  3.34527E+01  3.17396E+01  3.14559E+01  3.23608E+01  3.01259E+01  3.36687E+01  3.15628E+01
   3.40706E+01  3.45334E+01  3.17748E+01  3.45308E+01  3.34242E+01  3.49222E+01  3.49892E+01  3.27980E+01  3.27374E+01  3.30252E+01
   2.95169E+01  3.10169E+01  2.87948E+01  2.81585E+01  2.71592E+01  2.64875E+01  2.93296E+01  2.61077E+01  2.67901E+01  2.86772E+01
   2.79156E+01  2.77062E+01  2.88407E+01  3.09465E+01  3.10808E+01  3.32880E+01  3.06100E+01  3.42485E+01  3.25662E+01  3.35962E+01
   3.21448E+01  2.97260E+01  3.08145E+01  2.87929E+01  2.80948E+01  2.62332E+01  2.74678E+01  2.50141E+01  2.40033E+01  2.32295E+01
   2.40174E+01  2.15437E+01  2.48301E+01  2.46997E+01  2.20117E+01  2.26650E+01  2.12175E+01  2.07191E+01  2.32478E+01  2.25847E+01
   2.05547E+01  1.97883E+01  2.02031E+01  1.91957E+01  1.83453E+01  1.98156E+01  1.94984E+01  1.84310E+01  1.69372E+01  1.80210E+01
   1.67204E+01  1.69594E+01  1.65526E+01  1.54129E+01  1.69133E+01  1.50515E+01  1.41948E+01  1.63988E+01  1.44673E+01  1.58070E+01
   1.65251E+01  1.29102E+01  1.35731E+01  1.36816E+01  1.23418E+01  1.18972E+01  1.16892E+01  1.10675E+01  1.12945E+01  1.00251E+01
   1.21500E+01  1.09892E+01  9.25119E+00  8.86432E+00  1.04169E+01  1.00080E+01  1.23280E+01  9.03113E+00  1.00649E+01  9.46092E+00
   9.97176E+00  1.06004E+01  1.08213E+01  9.35100E+00  8.42444E+00  9.41043E+00  1.02555E+01  7.39663E+00  9.69061E+00  8.61928E+00
   6.65057E+00  9.27567E+00  8.15285E+00  7.92151E+00  9.44845E+00  8.83320E+00  7.97119E+00  5.14779E+00  8.34945E+00  6.54577E+00
   8.11838E+00  8.27339E+00  6.19184E+00  9.11937E+00  7.52040E+00  8.55302E+00  6.40247E+00  7.72628E+00  7.17862E+00  8.13229E+00
   5.35854E+00  5.41988E+00  6.94917E+00  7.18925E+00  4.29361E+00  6.23229E+00  4.60855E+00  6.81994E+00  3.80676E+00  4.32015E+00
   6.47604E+00  8.30837E+00  5.19855E+00  6.01135E+00  5.54269E+00  4.69264E+00  6.12435E+00  4.71773E+00  5.00996E+00  4.19697E+00
   2.98210E+00  5.26562E+00  2.57516E+00  3.63977E+00  3.96323E+00  3.94694E+00  2.57534E+00  3.38083E+00  6.69544E+00  5.37951E+00
   4.87576E+00  6.78527E+00  6.58111E+00  4.65410E+00  9.82471E+00  1.26562E+01  1.58688E+01  1.62807E+01  1.61574E+01  1.67899E+01
   1.61864E+01  1.48387E+01  1.37660E+01  1.16223E+01  1.21398E+01  1.04018E+01  8.75920E+00  6.28199E+00  4.39339E+00  3.94923E+00
   1.67694E+00  2.12703E+00 -2.95555E-01  3.20787E+00  1.91668E+00  2.09474E+00  6.82352E-01  2.21932E+00  6.49898E-01  1.21109E+00
   1.97495E+00  8.71102E-01  1.18741E+00 -5.23355E-01  5.36182E-01  1.51298E+00  7.21060E-01 -7.21488E-01 -2.58477E-01  2.35419E+00
   9.06441E-01 -1.27657E+00 -7.50248E-01 -2.30737E+00 -1.02462E+00 -1.52682E+00 -5.10232E-01  1.39277E+00 -4.46446E-01  1.00232E+00
   1.01699E+00  1.21843E+00 -1.21970E+00 -2.74102E-01 -1.04942E+00 -4.92359E-01 -5.37759E-01 -6.79469E-01 -5.01766E-01 -4.38258E-01
  -2.24483E+00 -1.28632E+00 -1.04101E+00 -1.42978E+00 -3.51576E-01 -6.58052E-01  1.04854E+00  1.80709E+00  1.23155E+00 -1.88948E+00
  -5.65192E-01 -1.85151E+00 -2.58398E+00 -2.13686E+00 -2.66268E+00 -3.25559E+00 -2.46639E+00 -3.35819E+00 -3.13995E+00 -1.96570E+00
  -3.03320E+00 -4.18013E+00 -2.58272E+00 -1.67769E+00 -1.48567E+00 -2.12234E+00 -8.94121E-01 -4.69838E+00 -2.92412E+00 -2.30007E+00
  -4.36210E+00 -4.23125E+00 -3.43370E+00 -3.23669E+00 -3.88237E+00 -4.42081E+00 -5.56404E+00 -5.37302E+00 -6.42330E+00 -5.51618E+00
  -8.13842E+00 -7.15958E+00 -7.42942E+00 -7.75832E+00 -8.94054E+00 -7.85253E+00 -8.46256E+00 -7.13463E+00 -7.58720E+00 -7.17600E+00
  -8.19071E+00 -8.39085E+00 -7.59694E+00 -9.07285E+00 -7.77581E+00 -8.17469E+00 -7.46689E+00 -8.92170E+00 -8.73954E+00 -1.08201E+01
  -1.00068E+01 -8.21500E+00 -1.10544E+01 -1.11000E+01 -9.80218E+00 -9.28572E+00 -8.18938E+00 -7.34454E+00 -9.77230E+00 -9.90767E+00
  -9.25726E+00 -1.06062E+01 -9.21568E+00 -1.08319E+01 -1.18442E+01 -9.24266E+00 -1.04679E+01 -1.00105E+01 -1.14038E+01 -9.39584E+00
  -9.95292E+00 -1.07621E+01 -8.68452E+00 -9.39394E+00 -1.05588E+01 -1.12599E+01 -9.42946E+00 -1.12633E+01 -1.22336E+01 -1.09430E+01
  -1.15950E+01 -1.05304E+01 -1.12972E+01 -1.12741E+01 -1.27890E+01 -1.15046E+01 -1.21757E+01 -1.13022E+01 -1.20589E+01 -1.16526E+01
  -1.33128E+01 -1.41124E+01 -1.22183E+01 -1.29978E+01 -1.31901E+01 -1.22302E+01 -1.38599E+01 -1.22811E+01 -1.37195E+01 -1.39165E+01
  -1.26221E+01 -1.47072E+01 -1.22118E+01 -1.48910E+01 -1.51758E+01 -1.46704E+01 -1.61922E+01 -1.60085E+01 -1.38568E+01 -1.57581E+01
  -1.43663E+01 -1.32540E+01 -1.36789E+01 -1.43135E+01 -1.38661E+01 -1.41080E+01 -1.43474E+01 -1.32999E+01 -1.54350E+01 -1.49840E+01
  -1.46922E+01 -1.57582E+01 -1.57289E+01 -1.23305E+01 -1.28937E+01 -1.49676E+01 -1.34180E+01 -1.32932E+01 -1.39123E+01 -1.68091E+01
  -1.33926E+01 -1.43129E+01 -1.28265E+01 -1.46069E+01 -1.40401E+01 -1.58212E+01 -1.51066E+01 -1.33142E+01 -1.33062E+01 -1.49170E+01
  -1.42958E+01 -1.44556E+01 -1.41669E+01 -1.33175E+01 -1.52249E+01 -1.59018E+01 -1.56915E+01 -1.28344E+01 -1.58330E+01 -1.48972E+01
  -1.46778E+01 -1.33768E+01 -1.34310E+01 -1.32800E+01 -1.48553E+01 -1.39834E+01 -1.64633E+01 -1.53003E+01 -1.53359E+01 -1.52376E+01
  -1.20603E+01 -1.46682E+01 -1.39291E+01 -1.21428E+01 -1.18830E+01 -1.10551E+01 -1.27248E+01 -1.00207E+01 -1.24398E+01 -1.25276E+01
  -1.18951E+01 -1.06304E+01 -1.11675E+01 -1.12674E+01 -1.05478E+01 -1.08372E+01 -9.50310E+00 -1.01224E+01
 NY points of the fit to the data follow
   9.95755E+01  9.87121E+01  9.73255E+01  9.58901E+01  9.54427E+01  9.56786E+01  9.53245E+01  9.41846E+01  9.31821E+01  9.25002E+01
   9.16730E+01  9.05778E+01  8.91816E+01  8.77591E+01  8.65963E+01  8.52298E+01  8.34856E+01  8.19286E+01  8.06425E+01  7.93170E+01
   7.79868E+01  7.69879E+01  7.63915E+01  7.54120E+01  7.43527E+01  7.35407E+01  7.29739E+01  7.26262E+01  7.21731E+01  7.17897E+01
   7.12799E+01  7.05423E+01  6.97643E+01  6.88925E+01  6.78401E+01  6.68363E+01  6.60877E+01  6.53784E+01  6.45629E+01  6.38028E+01
   6.28059E+01  6.15743E+01  6.10120E+01  6.12389E+01  6.13463E+01  6.07742E+01  5.98112E+01  5.90555E+01  5.85333E+01  5.78053E+01
   5.67528E+01  5.56435E+01  5.45817E+01  5.35401E+01  5.23512E+01  5.13128E+01  5.07297E+01  5.01022E+01  4.91704E+01  4.82132E+01
   4.75577E+01  4.71664E+01  4.66471E+01  4.61124E+01  4.56368E+01  4.50594E+01  4.44426E+01  4.39179E+01  4.35277E+01  4.30629E+01
   4.24436E+01  4.18546E+01  4.13572E+01  4.09124E+01  4.04921E+01  4.00659E+01  3.96032E+01  3.90366E+01  3.84794E+01  3.77994E+01
   3.70810E+01  3.66451E+01  3.63116E+01  3.57760E+01  3.49938E+01  3.43145E+01  3.38200E+01  3.33402E+01  3.28605E+01  3.23542E+01
   3.19224E+01  3.17645E+01  3.20086E+01  3.21433E+01  3.18530E+01  3.20786E+01  3.20832E+01  3.16260E+01  3.20187E+01  3.33542E+01
   3.45219E+01  3.46621E+01  3.43419E+01  3.42768E+01  3.42851E+01  3.40246E+01  3.34052E+01  3.25336E+01  3.19322E+01  3.14254E+01
   3.05062E+01  2.94927E+01  2.88262E+01  2.82242E+01  2.73709E+01  2.69201E+01  2.74291E+01  2.74892E+01  2.78736E+01  2.84840E+01
   2.82458E+01  2.85251E+01  3.00877E+01  3.20728E+01  3.29208E+01  3.27040E+01  3.26832E+01  3.29356E+01  3.28650E+01  3.24360E+01
   3.15321E+01  3.06467E+01  2.99797E+01  2.88733E+01  2.74165E+01  2.63177E+01  2.55865E+01  2.45251E+01  2.33580E+01  2.27773E+01
   2.24948E+01  2.22325E+01  2.20134E+01  2.18072E+01  2.15756E+01  2.13305E+01  2.11069E+01  2.08896E+01  2.06521E+01  2.03649E+01
   2.00603E+01  1.97575E+01  1.94303E+01  1.91604E+01  1.89022E+01  1.85844E+01  1.82413E+01  1.78781E+01  1.75917E+01  1.73908E+01
   1.71695E+01  1.68796E+01  1.65441E+01  1.62394E+01  1.59565E+01  1.56370E+01  1.53454E+01  1.50236E+01  1.47200E+01  1.44392E+01
   1.40878E+01  1.37183E+01  1.33739E+01  1.31599E+01  1.29520E+01  1.25930E+01  1.22559E+01  1.20268E+01  1.18376E+01  1.17400E+01
   1.15995E+01  1.13560E+01  1.11557E+01  1.10355E+01  1.09856E+01  1.09050E+01  1.07357E+01  1.06764E+01  1.06314E+01  1.04891E+01
   1.03543E+01  1.03127E+01  1.02568E+01  1.00279E+01  9.81311E+00  9.64399E+00  9.49430E+00  9.53642E+00  9.65231E+00  9.43681E+00
   9.26545E+00  9.34270E+00  9.16898E+00  9.06820E+00  8.98320E+00  8.53996E+00  7.75162E+00  7.07373E+00  7.03482E+00  6.89283E+00
   6.50016E+00  6.42572E+00  6.58581E+00  6.76111E+00  6.78353E+00  6.66481E+00  6.76591E+00  6.91800E+00  6.67401E+00  6.22394E+00
   6.07284E+00  6.30708E+00  6.33491E+00  5.98563E+00  5.69839E+00  5.59777E+00  5.59150E+00  5.45566E+00  5.19687E+00  5.34592E+00
   5.73204E+00  5.74325E+00  5.30368E+00  5.27203E+00  5.50499E+00  5.43535E+00  5.30435E+00  5.26454E+00  5.12883E+00  4.77434E+00
   4.49009E+00  4.26956E+00  4.09285E+00  4.02588E+00  3.91251E+00  3.68651E+00  3.60867E+00  3.82117E+00  4.54634E+00  5.68154E+00
   5.95239E+00  7.21311E+00  8.02482E+00  7.73809E+00  9.05205E+00  1.19489E+01  1.47466E+01  1.54429E+01  1.50310E+01  1.52421E+01
   1.56665E+01  1.53913E+01  1.43903E+01  1.28212E+01  1.16935E+01  1.08441E+01  9.14684E+00  7.17302E+00  5.97368E+00  5.06147E+00
   3.49012E+00  2.07664E+00  1.60572E+00  1.43178E+00  1.29779E+00  1.17025E+00  1.06670E+00  9.73463E-01  8.71657E-01  7.83886E-01
   7.00243E-01  6.08651E-01  5.22233E-01  4.42704E-01  3.60572E-01  2.74754E-01  1.93656E-01  1.24221E-01  6.51761E-02  1.27800E-02
  -3.45725E-02 -7.36873E-02 -1.05670E-01 -1.36329E-01 -1.65108E-01 -1.89630E-01 -2.12506E-01 -2.34946E-01 -2.55315E-01 -2.74241E-01
  -2.94221E-01 -3.17104E-01 -3.43083E-01 -3.73241E-01 -4.08967E-01 -4.50928E-01 -4.99895E-01 -5.56176E-01 -6.19289E-01 -6.88579E-01
  -7.63309E-01 -8.41879E-01 -9.21883E-01 -1.00003E+00 -1.07037E+00 -1.11819E+00 -1.13938E+00 -1.24831E+00 -1.33648E+00 -1.40413E+00
  -1.56631E+00 -1.64931E+00 -1.63022E+00 -1.68458E+00 -1.85149E+00 -2.11050E+00 -2.32927E+00 -2.41518E+00 -2.62221E+00 -2.96084E+00
  -3.19942E+00 -3.20386E+00 -3.10264E+00 -3.15312E+00 -3.26522E+00 -3.21575E+00 -3.03734E+00 -3.07106E+00 -3.19785E+00 -3.21330E+00
  -3.38025E+00 -3.50363E+00 -3.48243E+00 -3.57551E+00 -3.82723E+00 -4.42021E+00 -4.98914E+00 -5.28692E+00 -5.80917E+00 -6.50396E+00
  -6.95759E+00 -6.99703E+00 -6.88774E+00 -7.05656E+00 -7.34195E+00 -7.38040E+00 -7.27307E+00 -7.27887E+00 -7.42808E+00 -7.48919E+00
  -7.39403E+00 -7.37366E+00 -7.54103E+00 -7.75460E+00 -7.88825E+00 -8.07835E+00 -8.40309E+00 -8.69739E+00 -8.90743E+00 -9.08394E+00
  -9.24225E+00 -9.38799E+00 -9.52402E+00 -9.65177E+00 -9.77185E+00 -9.88439E+00 -9.98933E+00 -1.00865E+01 -1.01757E+01 -1.02565E+01
  -1.03284E+01 -1.03912E+01 -1.04445E+01 -1.04883E+01 -1.05227E+01 -1.05480E+01 -1.05647E+01 -1.05736E+01 -1.05759E+01 -1.05731E+01
  -1.05670E+01 -1.05597E+01 -1.05533E+01 -1.05504E+01 -1.05535E+01 -1.05650E+01 -1.05874E+01 -1.06225E+01 -1.06720E+01 -1.07372E+01
  -1.08188E+01 -1.09169E+01 -1.10309E+01 -1.11600E+01 -1.13024E+01 -1.14565E+01 -1.16200E+01 -1.17904E+01 -1.19653E+01 -1.21421E+01
  -1.23185E+01 -1.24923E+01 -1.26618E+01 -1.28254E+01 -1.29818E+01 -1.31300E+01 -1.32697E+01 -1.34004E+01 -1.35222E+01 -1.36352E+01
  -1.37396E+01 -1.38359E+01 -1.39245E+01 -1.40060E+01 -1.40810E+01 -1.41497E+01 -1.42128E+01 -1.42708E+01 -1.43239E+01 -1.43727E+01
  -1.44173E+01 -1.44580E+01 -1.44951E+01 -1.45287E+01 -1.45591E+01 -1.45864E+01 -1.46106E+01 -1.46318E+01 -1.46502E+01 -1.46657E+01
  -1.46785E+01 -1.46886E+01 -1.46959E+01 -1.47005E+01 -1.47024E+01 -1.47017E+01 -1.46983E+01 -1.46923E+01 -1.46835E+01 -1.46720E+01
  -1.46578E+01 -1.46410E+01 -1.46215E+01 -1.45991E+01 -1.45741E+01 -1.45464E+01 -1.45161E+01 -1.44832E+01 -1.44477E+01 -1.44095E+01
  -1.43689E+01 -1.43257E+01 -1.42800E+01 -1.42319E+01 -1.41813E+01 -1.41283E+01 -1.40728E+01 -1.40150E+01 -1.39548E+01 -1.38923E+01
  -1.38275E+01 -1.37603E+01 -1.36908E+01 -1.36191E+01 -1.35451E+01 -1.34689E+01 -1.33905E+01 -1.33099E+01 -1.32271E+01 -1.31422E+01
  -1.30551E+01 -1.29659E+01 -1.28746E+01 -1.27812E+01 -1.26858E+01 -1.25883E+01 -1.24888E+01 -1.23872E+01 -1.22836E+01 -1.21781E+01
  -1.20705E+01 -1.19611E+01 -1.18496E+01 -1.17362E+01 -1.16209E+01 -1.15037E+01 -1.13845E+01 -1.12635E+01
 NY background values follow
     9.436E+01    9.339E+01    9.242E+01    9.145E+01    9.049E+01    8.952E+01    8.856E+01    8.760E+01    8.664E+01    8.568E+01
     8.473E+01    8.378E+01    8.283E+01    8.188E+01    8.094E+01    8.001E+01    7.907E+01    7.815E+01    7.722E+01    7.630E+01
     7.538E+01    7.447E+01    7.357E+01    7.267E+01    7.177E+01    7.088E+01    7.000E+01    6.912E+01    6.825E+01    6.738E+01
     6.652E+01    6.567E+01    6.483E+01    6.399E+01    6.316E+01    6.233E+01    6.152E+01    6.071E+01    5.991E+01    5.912E+01
     5.833E+01    5.756E+01    5.679E+01    5.603E+01    5.528E+01    5.454E+01    5.381E+01    5.309E+01    5.238E+01    5.168E+01
     5.099E+01    5.031E+01    4.964E+01    4.897E+01    4.832E+01    4.767E+01    4.704E+01    4.642E+01    4.580E+01    4.519E+01
     4.460E+01    4.401E+01    4.344E+01    4.287E+01    4.231E+01    4.176E+01    4.122E+01    4.070E+01    4.018E+01    3.967E+01
     3.917E+01    3.868E+01    3.820E+01    3.773E+01    3.726E+01    3.681E+01    3.637E+01    3.594E+01    3.552E+01    3.510E+01
     3.470E+01    3.431E+01    3.392E+01    3.355E+01    3.319E+01    3.283E+01    3.249E+01    3.215E+01    3.183E+01    3.151E+01
     3.121E+01    3.091E+01    3.062E+01    3.035E+01    3.008E+01    2.982E+01    2.957E+01    2.932E+01    2.909E+01    2.886E+01
     2.864E+01    2.842E+01    2.822E+01    2.801E+01    2.782E+01    2.763E+01    2.744E+01    2.726E+01    2.708E+01    2.691E+01
     2.674E+01    2.658E+01    2.642E+01    2.626E+01    2.610E+01    2.595E+01    2.580E+01    2.565E+01    2.550E+01    2.535E+01
     2.520E+01    2.506E+01    2.491E+01    2.476E+01    2.462E+01    2.447E+01    2.432E+01    2.417E+01    2.402E+01    2.386E+01
     2.371E+01    2.355E+01    2.338E+01    2.322E+01    2.305E+01    2.287E+01    2.269E+01    2.251E+01    2.232E+01    2.213E+01
     2.194E+01    2.174E+01    2.154E+01    2.133E+01    2.112E+01    2.091E+01    2.069E+01    2.047E+01    2.025E+01    2.003E+01
     1.980E+01    1.957E+01    1.934E+01    1.911E+01    1.888E+01    1.864E+01    1.840E+01    1.816E+01    1.792E+01    1.768E+01
     1.744E+01    1.720E+01    1.696E+01    1.671E+01    1.647E+01    1.623E+01    1.599E+01    1.574E+01    1.550E+01    1.526E+01
     1.502E+01    1.478E+01    1.454E+01    1.430E+01    1.406E+01    1.383E+01    1.360E+01    1.337E+01    1.314E+01    1.291E+01
     1.268E+01    1.246E+01    1.224E+01    1.203E+01    1.181E+01    1.160E+01    1.139E+01    1.118E+01    1.098E+01    1.078E+01
     1.058E+01    1.038E+01    1.019E+01    9.995E+00    9.805E+00    9.617E+00    9.432E+00    9.249E+00    9.068E+00    8.889E+00
     8.713E+00    8.538E+00    8.366E+00    8.196E+00    8.028E+00    7.862E+00    7.699E+00    7.537E+00    7.377E+00    7.219E+00
     7.064E+00    6.910E+00    6.758E+00    6.608E+00    6.459E+00    6.313E+00    6.169E+00    6.026E+00    5.885E+00    5.746E+00
     5.608E+00    5.473E+00    5.338E+00    5.206E+00    5.075E+00    4.946E+00    4.818E+00    4.692E+00    4.568E+00    4.445E+00
     4.324E+00    4.204E+00    4.085E+00    3.968E+00    3.853E+00    3.739E+00    3.626E+00    3.515E+00    3.405E+00    3.297E+00
     3.190E+00    3.084E+00    2.980E+00    2.877E+00    2.776E+00    2.675E+00    2.576E+00    2.478E+00    2.382E+00    2.287E+00
     2.192E+00    2.100E+00    2.008E+00    1.917E+00    1.828E+00    1.740E+00    1.653E+00    1.567E+00    1.482E+00    1.399E+00
     1.316E+00    1.234E+00    1.154E+00    1.074E+00    9.959E-01    9.184E-01    8.420E-01    7.665E-01    6.919E-01    6.183E-01
     5.457E-01    4.739E-01    4.030E-01    3.330E-01    2.637E-01    1.951E-01    1.271E-01    5.966E-02   -7.349E-03   -7.399E-02
    -1.403E-01   -2.064E-01   -2.724E-01   -3.383E-01   -4.041E-01   -4.701E-01   -5.362E-01   -6.025E-01   -6.691E-01   -7.361E-01
    -8.036E-01   -8.716E-01   -9.402E-01   -1.009E+00   -1.079E+00   -1.150E+00   -1.222E+00   -1.295E+00   -1.368E+00   -1.443E+00
    -1.519E+00   -1.597E+00   -1.676E+00   -1.756E+00   -1.837E+00   -1.921E+00   -2.006E+00   -2.092E+00   -2.181E+00   -2.271E+00
    -2.363E+00   -2.457E+00   -2.554E+00   -2.652E+00   -2.753E+00   -2.856E+00   -2.962E+00   -3.070E+00   -3.181E+00   -3.293E+00
    -3.409E+00   -3.526E+00   -3.645E+00   -3.766E+00   -3.890E+00   -4.015E+00   -4.142E+00   -4.270E+00   -4.400E+00   -4.531E+00
    -4.664E+00   -4.798E+00   -4.934E+00   -5.070E+00   -5.208E+00   -5.346E+00   -5.485E+00   -5.625E+00   -5.766E+00   -5.907E+00
    -6.049E+00   -6.191E+00   -6.333E+00   -6.476E+00   -6.618E+00   -6.761E+00   -6.904E+00   -7.046E+00   -7.189E+00   -7.331E+00
    -7.473E+00   -7.614E+00   -7.754E+00   -7.894E+00   -8.034E+00   -8.172E+00   -8.309E+00   -8.446E+00   -8.581E+00   -8.715E+00
    -8.848E+00   -8.979E+00   -9.109E+00   -9.238E+00   -9.365E+00   -9.490E+00   -9.614E+00   -9.737E+00   -9.858E+00   -9.977E+00
    -1.010E+01   -1.021E+01   -1.033E+01   -1.044E+01   -1.055E+01   -1.066E+01   -1.077E+01   -1.088E+01   -1.099E+01   -1.109E+01
    -1.120E+01   -1.130E+01   -1.140E+01   -1.150E+01   -1.160E+01   -1.169E+01   -1.179E+01   -1.188E+01   -1.197E+01   -1.206E+01
    -1.215E+01   -1.224E+01   -1.233E+01   -1.241E+01   -1.250E+01   -1.258E+01   -1.266E+01   -1.274E+01   -1.282E+01   -1.289E+01
    -1.297E+01   -1.304E+01   -1.312E+01   -1.319E+01   -1.326E+01   -1.333E+01   -1.340E+01   -1.346E+01   -1.353E+01   -1.359E+01
    -1.365E+01   -1.371E+01   -1.377E+01   -1.383E+01   -1.388E+01   -1.394E+01   -1.399E+01   -1.404E+01   -1.409E+01   -1.414E+01
    -1.419E+01   -1.423E+01   -1.428E+01   -1.432E+01   -1.436E+01   -1.439E+01   -1.443E+01   -1.446E+01   -1.450E+01   -1.453E+01
    -1.455E+01   -1.458E+01   -1.460E+01   -1.463E+01   -1.465E+01   -1.466E+01   -1.468E+01   -1.469E+01   -1.471E+01   -1.471E+01
    -1.472E+01   -1.473E+01   -1.473E+01   -1.473E+01   -1.473E+01   -1.472E+01   -1.472E+01   -1.471E+01   -1.469E+01   -1.468E+01
    -1.466E+01   -1.464E+01   -1.462E+01   -1.460E+01   -1.457E+01   -1.454E+01   -1.451E+01   -1.447E+01   -1.444E+01   -1.440E+01
    -1.436E+01   -1.431E+01   -1.426E+01   -1.422E+01   -1.416E+01   -1.411E+01   -1.405E+01   -1.399E+01   -1.393E+01   -1.387E+01
    -1.380E+01   -1.374E+01   -1.367E+01   -1.359E+01   -1.352E+01   -1.344E+01   -1.336E+01   -1.328E+01   -1.320E+01   -1.311E+01
    -1.303E+01   -1.294E+01   -1.285E+01   -1.275E+01   -1.266E+01   -1.256E+01   -1.246E+01   -1.236E+01   -1.226E+01   -1.215E+01
    -1.204E+01   -1.193E+01   -1.182E+01   -1.171E+01   -1.159E+01   -1.148E+01   -1.136E+01   -1.124E+01
 Ala      Conc. = 1.13E+02
