 LCModel (Version 6.3-1L) Copyright: S.W. Provencher.          Ref.: Magn. Reson. Med. 30:672-679 (1993).                
 Slice#2 Row#9 Col#7  PD_05_press_1_raw_act
 36 lines in following concentration table = NCONC+1
    Conc.  %SD /Cr+PCr  Metabolite                                         
  251.596  39%   0.175 Ala                                                 
  273.924  80%   0.191 Asp                                                 
  288.765  64%   0.201 Cr                                                  
 1.15E+03  18%   0.799 PCr                                                 
    0.000 999%   0.000 GABA                                                
    0.000 999%   0.000 Glc                                                 
  720.863  27%   0.502 Gln                                                 
 1.64E+03  14%   1.142 Glu                                                 
  503.005   5%   0.351 GPC                                                 
    0.000 999%   0.000 PCh                                                 
  443.905  15%   0.309 GSH                                                 
 1.11E+03  22%   0.773 Ins                                                 
  379.325  29%   0.264 Lac                                                 
 2.28E+03   4%   1.588 NAA                                                 
   78.796 121% 5.5E-02 NAAG                                                
  103.481  26% 7.2E-02 Scyllo                                              
   70.852 281% 4.9E-02 Tau                                                 
   55.047 197% 3.8E-02 -CrCH2                                              
  503.005   5%   0.351 GPC+PCh                                             
 2.36E+03   3%   1.643 NAA+NAAG                                            
 1.44E+03   4%   1.000 Cr+PCr                                              
 2.36E+03  13%   1.645 Glu+Gln                                             
 1.18E+04   6%   8.218 Lip13a                                              
    0.000 999%   0.000 Lip13b                                              
 3.07E+03   7%   2.141 Lip09                                               
    0.000 999%   0.000 MM09                                                
 1.77E+03   8%   1.231 Lip20                                               
 1.28E+03  27%   0.893 MM20                                                
  147.245  97%   0.103 MM12                                                
 1.45E+03  40%   1.012 MM14                                                
  526.561  53%   0.367 MM17                                                
 1.18E+04   6%   8.218 Lip13a+Lip13b                                       
 1.34E+04   4%   9.333 MM14+Lip13a+Lip13b+MM12                             
 3.07E+03   7%   2.141 MM09+Lip09                                          
 3.05E+03  12%   2.124 MM20+Lip20                                          
   6 lines in following misc. output table
  FWHM = 0.046 ppm    S/N =  13                                            
  Data shift = 0.008 ppm                                                   
  Ph: -52 deg     -20.6 deg/ppm                                            
  alphaB,S = 7.7E-01,   8.4E+01                                            
   14 spline knots.   Ns = 6(1)                                            
  ( 8) 4 infls.   ( 7) 1 extrs.                                            
  498 points on ppm-axis = NY
      4.000000     3.992357     3.984714     3.977070     3.969427     3.961784     3.954141     3.946497     3.938854     3.931211
      3.923568     3.915925     3.908281     3.900638     3.892995     3.885352     3.877708     3.870065     3.862422     3.854779
      3.847136     3.839492     3.831849     3.824206     3.816563     3.808919     3.801276     3.793633     3.785990     3.778347
      3.770703     3.763060     3.755417     3.747774     3.740130     3.732487     3.724844     3.717201     3.709558     3.701914
      3.694271     3.686628     3.678985     3.671341     3.663698     3.656055     3.648412     3.640769     3.633125     3.625482
      3.617839     3.610196     3.602552     3.594909     3.587266     3.579623     3.571980     3.564336     3.556693     3.549050
      3.541407     3.533763     3.526120     3.518477     3.510834     3.503191     3.495547     3.487904     3.480261     3.472618
      3.464974     3.457331     3.449688     3.442045     3.434402     3.426758     3.419115     3.411472     3.403829     3.396185
      3.388542     3.380899     3.373256     3.365613     3.357969     3.350326     3.342683     3.335040     3.327396     3.319753
      3.312110     3.304467     3.296824     3.289180     3.281537     3.273894     3.266251     3.258607     3.250964     3.243321
      3.235678     3.228034     3.220391     3.212748     3.205105     3.197462     3.189818     3.182175     3.174532     3.166889
      3.159245     3.151602     3.143959     3.136316     3.128673     3.121029     3.113386     3.105743     3.098100     3.090456
      3.082813     3.075170     3.067527     3.059884     3.052240     3.044597     3.036954     3.029311     3.021667     3.014024
      3.006381     2.998738     2.991095     2.983451     2.975808     2.968165     2.960522     2.952878     2.945235     2.937592
      2.929949     2.922306     2.914662     2.907019     2.899376     2.891733     2.884089     2.876446     2.868803     2.861160
      2.853517     2.845873     2.838230     2.830587     2.822944     2.815300     2.807657     2.800014     2.792371     2.784728
      2.777084     2.769441     2.761798     2.754155     2.746511     2.738868     2.731225     2.723582     2.715939     2.708295
      2.700652     2.693009     2.685366     2.677722     2.670079     2.662436     2.654793     2.647150     2.639506     2.631863
      2.624220     2.616577     2.608933     2.601290     2.593647     2.586004     2.578361     2.570717     2.563074     2.555431
      2.547788     2.540144     2.532501     2.524858     2.517215     2.509572     2.501928     2.494285     2.486642     2.478999
      2.471355     2.463712     2.456069     2.448426     2.440783     2.433139     2.425496     2.417853     2.410210     2.402566
      2.394923     2.387280     2.379637     2.371994     2.364350     2.356707     2.349064     2.341421     2.333777     2.326134
      2.318491     2.310848     2.303205     2.295561     2.287918     2.280275     2.272632     2.264988     2.257345     2.249702
      2.242059     2.234416     2.226772     2.219129     2.211486     2.203843     2.196199     2.188556     2.180913     2.173270
      2.165627     2.157983     2.150340     2.142697     2.135054     2.127410     2.119767     2.112124     2.104481     2.096838
      2.089194     2.081551     2.073908     2.066265     2.058621     2.050978     2.043335     2.035692     2.028049     2.020405
      2.012762     2.005119     1.997476     1.989833     1.982190     1.974546     1.966903     1.959260     1.951617     1.943974
      1.936331     1.928688     1.921045     1.913402     1.905759     1.898115     1.890472     1.882829     1.875186     1.867543
      1.859900     1.852257     1.844614     1.836971     1.829327     1.821684     1.814041     1.806398     1.798755     1.791112
      1.783469     1.775826     1.768183     1.760540     1.752896     1.745253     1.737610     1.729967     1.722324     1.714681
      1.707038     1.699395     1.691752     1.684108     1.676465     1.668822     1.661179     1.653536     1.645893     1.638250
      1.630607     1.622964     1.615321     1.607677     1.600034     1.592391     1.584748     1.577105     1.569462     1.561819
      1.554176     1.546533     1.538890     1.531246     1.523603     1.515960     1.508317     1.500674     1.493031     1.485388
      1.477745     1.470102     1.462458     1.454815     1.447172     1.439529     1.431886     1.424243     1.416600     1.408957
      1.401314     1.393671     1.386027     1.378384     1.370741     1.363098     1.355455     1.347812     1.340169     1.332526
      1.324883     1.317240     1.309596     1.301953     1.294310     1.286667     1.279024     1.271381     1.263738     1.256095
      1.248452     1.240808     1.233165     1.225522     1.217879     1.210236     1.202593     1.194950     1.187307     1.179664
      1.172021     1.164377     1.156734     1.149091     1.141448     1.133805     1.126162     1.118519     1.110876     1.103233
      1.095590     1.087946     1.080303     1.072660     1.065017     1.057374     1.049731     1.042088     1.034445     1.026802
      1.019158     1.011515     1.003872     0.996229     0.988586     0.980943     0.973300     0.965657     0.958014     0.950371
      0.942727     0.935084     0.927441     0.919798     0.912155     0.904512     0.896869     0.889226     0.881583     0.873940
      0.866296     0.858653     0.851010     0.843367     0.835724     0.828081     0.820438     0.812795     0.805152     0.797508
      0.789865     0.782222     0.774579     0.766936     0.759293     0.751650     0.744007     0.736364     0.728721     0.721077
      0.713434     0.705791     0.698148     0.690505     0.682862     0.675219     0.667576     0.659933     0.652290     0.644646
      0.637003     0.629360     0.621717     0.614074     0.606431     0.598788     0.591145     0.583502     0.575858     0.568215
      0.560572     0.552929     0.545286     0.537643     0.530000     0.522357     0.514714     0.507071     0.499427     0.491784
      0.484141     0.476498     0.468855     0.461212     0.453569     0.445925     0.438282     0.430639     0.422996     0.415353
      0.407710     0.400067     0.392424     0.384780     0.377137     0.369494     0.361851     0.354208     0.346565     0.338922
      0.331278     0.323635     0.315992     0.308349     0.300706     0.293063     0.285420     0.277777     0.270133     0.262490
      0.254847     0.247204     0.239561     0.231918     0.224275     0.216631     0.208988     0.201345
 NY phased data points follow
   5.28574E-01 -1.15152E+00 -1.63347E+00 -3.70728E+00  2.57496E+00  4.02774E+00  1.16106E+01  1.34461E+01  2.11453E+01  3.10458E+01
   3.42866E+01  3.36553E+01  3.47871E+01  3.01049E+01  2.37057E+01  1.89250E+01  1.08932E+01  8.76797E+00  2.36535E+00  4.35124E+00
   2.73022E+00  1.04439E+00  8.33798E+00  6.98045E+00  6.92164E+00  4.41501E+00  5.32561E+00  7.11453E+00  8.88318E+00  1.17039E+01
   1.15094E+01  1.08652E+01  1.63564E+01  1.52051E+01  1.48619E+01  6.95279E+00  5.18085E+00  5.44145E+00  8.22117E+00  1.18106E+01
   8.89901E+00  7.72700E+00  8.05674E+00  6.57932E+00  9.29571E+00  7.25489E+00  1.64763E+01  1.52162E+01  1.96775E+01  1.74202E+01
   1.55792E+01  1.01649E+01  5.69448E+00  3.26689E+00  4.02270E+00  4.78517E+00  6.78518E+00  6.43196E+00  8.41475E+00  7.60119E+00
   1.15145E+01  4.26180E+00  2.73714E+00  5.21794E+00  3.00123E+00  1.32963E+00  1.05875E+00  2.40865E+00  2.70503E-01  5.60445E+00
   1.66127E+00  3.55404E-01  1.84700E+00  4.88345E+00  2.76949E+00  3.35656E+00  4.92927E+00  1.82297E+00  4.87173E+00  4.08176E+00
   6.28625E-02  2.45099E+00  1.95154E+00  4.04301E+00  4.01806E+00  6.30995E+00  8.54087E+00  7.04703E+00  8.15425E+00  5.16958E+00
   9.32625E+00  6.31089E+00  8.26208E+00  1.11260E+01  1.21422E+01  1.09039E+01  7.09763E+00  7.56427E+00  8.24755E+00  1.15140E+01
   1.87559E+01  2.92334E+01  4.54870E+01  5.78885E+01  5.73725E+01  4.93459E+01  4.12938E+01  2.99826E+01  2.67413E+01  1.97313E+01
   1.61844E+01  1.24315E+01  1.21093E+01  1.20122E+01  1.26626E+01  7.71891E+00  1.13976E+01  9.04006E+00  8.17394E+00  1.29474E+01
   4.16162E+00  6.54224E+00  5.77520E+00  7.64109E+00  1.37233E+01  2.88366E+01  4.60743E+01  6.05217E+01  6.32425E+01  5.36175E+01
   4.48245E+01  3.62020E+01  3.42526E+01  2.42633E+01  2.09988E+01  1.24223E+01  1.29833E+01  8.46695E+00  7.92607E+00  5.20792E+00
   7.43476E+00  7.23065E+00  7.36962E+00  7.70502E+00  5.70605E+00  1.01880E+01  2.06683E+00  7.70805E+00  9.40443E+00  7.38301E+00
   5.92915E+00  8.75355E+00  5.03136E+00  5.79874E+00  4.08100E+00  7.43156E+00  8.19719E+00  5.22807E+00  6.60427E+00  8.73600E+00
   1.03393E+00  3.65475E+00  2.32796E+00 -1.00210E+00  3.39568E+00  7.33673E+00  4.81813E+00  5.22383E+00  5.79785E+00  7.62756E-01
  -6.92379E-02  3.13653E+00  3.68979E-01 -1.85442E-01  8.28307E-01 -4.32341E+00 -3.62487E+00 -7.82593E+00  2.39507E+00 -2.83377E+00
  -4.54499E+00 -8.03070E+00 -6.43858E+00  2.31787E-02 -6.07643E+00  2.26707E+00  1.50936E+00 -1.28266E+00  6.72377E+00  5.28778E+00
   5.94757E+00  7.47322E+00  1.11045E+01  1.28864E+01  9.47057E+00  1.20440E+01  9.18466E+00  8.83866E+00  8.01677E+00  1.12958E+01
   4.17687E+00  8.02787E+00  1.24743E+01  1.63166E+01  1.75422E+01  1.68025E+01  1.32748E+01  1.18402E+01  1.04811E+01  1.00483E+01
   7.17924E+00  4.31571E+00  9.75523E-01  6.54074E+00  1.18788E+01  1.92507E+01  2.56795E+01  2.66549E+01  2.68862E+01  1.60624E+01
   1.50492E+01  1.23369E+01  5.87328E+00  5.73042E+00  8.44987E+00  9.52177E+00  1.19859E+01  1.50738E+01  1.67885E+01  1.99721E+01
   1.85586E+01  1.71604E+01  1.98053E+01  2.11464E+01  1.93580E+01  1.86145E+01  1.74411E+01  1.83059E+01  1.69304E+01  1.47566E+01
   1.44744E+01  1.68357E+01  1.24444E+01  1.16716E+01  1.64564E+01  1.76024E+01  1.67352E+01  1.49201E+01  2.08638E+01  2.20246E+01
   2.19044E+01  2.41065E+01  2.55351E+01  2.27638E+01  2.85452E+01  2.49310E+01  3.08992E+01  3.61808E+01  4.28456E+01  6.38452E+01
   9.16935E+01  1.13141E+02  1.04691E+02  9.02540E+01  7.03873E+01  6.32813E+01  5.41477E+01  3.88629E+01  3.50307E+01  2.92955E+01
   2.38172E+01  1.58959E+01  1.86969E+01  1.81533E+01  1.72744E+01  2.05283E+01  1.15996E+01  1.66523E+01  1.38451E+01  1.29060E+01
   1.17070E+01  1.33357E+01  1.27258E+01  1.24150E+01  1.41250E+01  1.33997E+01  1.04559E+01  1.53091E+01  9.20212E+00  1.57874E+01
   1.43991E+01  1.36937E+01  1.43460E+01  1.36794E+01  1.24601E+01  1.30062E+01  1.50585E+01  1.39134E+01  1.33795E+01  1.33541E+01
   9.80921E+00  1.08146E+01  1.24994E+01  1.49390E+01  1.27140E+01  1.49539E+01  1.66682E+01  1.65002E+01  1.63035E+01  1.86335E+01
   2.13436E+01  1.78500E+01  2.22766E+01  2.01540E+01  1.87075E+01  2.47175E+01  2.20011E+01  2.30588E+01  2.62397E+01  2.32506E+01
   2.34117E+01  2.96763E+01  2.79967E+01  2.87569E+01  3.10524E+01  3.19244E+01  3.50000E+01  3.71993E+01  3.46924E+01  3.47874E+01
   4.11188E+01  4.53441E+01  5.08553E+01  5.51740E+01  5.59819E+01  6.47153E+01  7.34829E+01  7.48670E+01  8.17906E+01  8.53519E+01
   9.43339E+01  9.97104E+01  9.72743E+01  1.01611E+02  1.05145E+02  1.09378E+02  1.03234E+02  1.00622E+02  9.90997E+01  9.56582E+01
   8.38847E+01  8.01333E+01  7.32934E+01  6.58230E+01  6.15727E+01  5.80139E+01  5.25497E+01  5.27272E+01  4.25018E+01  3.76330E+01
   3.76794E+01  3.44176E+01  2.89077E+01  2.79870E+01  2.87552E+01  2.49703E+01  2.45001E+01  2.60292E+01  2.20214E+01  2.54573E+01
   1.90287E+01  2.38515E+01  1.80861E+01  2.15530E+01  1.66160E+01  1.79412E+01  1.92091E+01  1.92786E+01  1.41371E+01  1.44848E+01
   1.43543E+01  1.42179E+01  1.50007E+01  1.35871E+01  1.30295E+01  9.49862E+00  1.05341E+01  1.53316E+01  1.33102E+01  1.26449E+01
   1.41491E+01  1.10882E+01  1.65362E+01  1.33028E+01  1.72682E+01  1.51363E+01  2.03244E+01  1.60382E+01  2.05785E+01  1.73717E+01
   1.75812E+01  2.17154E+01  1.45429E+01  1.52874E+01  2.21048E+01  1.78694E+01  2.06898E+01  2.28025E+01  1.91609E+01  1.96732E+01
   2.35942E+01  2.50345E+01  2.36618E+01  2.57115E+01  2.11997E+01  2.49597E+01  2.06933E+01  1.82469E+01  1.85058E+01  1.84916E+01
   1.43396E+01  1.39561E+01  2.07633E+01  1.44557E+01  1.29321E+01  1.46095E+01  1.22510E+01  1.17878E+01  1.24858E+01  1.07244E+01
   1.54522E+01  1.46205E+01  1.72132E+01  1.37878E+01  1.67944E+01  1.36544E+01  1.43523E+01  1.26278E+01  1.42641E+01  1.31298E+01
   1.00350E+01  1.23127E+01  1.10338E+01  9.69503E+00  8.38227E+00  9.22972E+00  1.32736E+01  1.43308E+01  1.21092E+01  1.21961E+01
   1.21433E+01  1.40698E+01  1.22280E+01  7.42286E+00  1.49508E+01  1.46698E+01  9.49642E+00  1.32987E+01  1.13206E+01  1.50829E+01
   1.26373E+01  1.23561E+01  8.59275E+00  1.05285E+01  8.87305E+00  1.42041E+01  1.04620E+01  1.20537E+01  1.07941E+01  9.20846E+00
   1.10298E+01  9.70013E+00  1.19460E+01  8.81875E+00  7.94387E+00  1.19371E+01  1.18264E+01  1.28007E+01  1.32630E+01  1.04619E+01
   1.08503E+01  1.21091E+01  1.37550E+01  1.48068E+01  7.85502E+00  9.67483E+00  1.32998E+01  1.06609E+01  9.40558E+00  9.18082E+00
   8.00566E+00  1.06129E+01  9.53382E+00  5.51205E+00  6.68092E+00  8.97295E+00  1.14247E+01  1.20950E+01
 NY points of the fit to the data follow
   1.18992E+00  8.33819E-01  7.02022E-01  9.16033E-01  1.80839E+00  3.54695E+00  7.01589E+00  1.32948E+01  2.21582E+01  3.08961E+01
   3.59114E+01  3.57675E+01  3.20026E+01  2.72242E+01  2.29395E+01  1.88894E+01  1.42444E+01  9.80815E+00  7.15276E+00  5.56928E+00
   5.07898E+00  5.11018E+00  5.17208E+00  5.13189E+00  5.05716E+00  4.95159E+00  5.08108E+00  6.05074E+00  8.10407E+00  1.06571E+01
   1.27344E+01  1.39738E+01  1.47048E+01  1.51488E+01  1.47848E+01  1.31121E+01  1.02286E+01  7.21556E+00  5.32866E+00  4.14175E+00
   3.64039E+00  3.93175E+00  4.70482E+00  5.83489E+00  7.46894E+00  9.98380E+00  1.29217E+01  1.48948E+01  1.49284E+01  1.32840E+01
   1.10313E+01  9.14084E+00  7.67492E+00  6.20128E+00  4.79105E+00  4.02608E+00  4.08119E+00  4.66169E+00  5.57202E+00  6.55429E+00
   7.16875E+00  7.10603E+00  6.40651E+00  5.45336E+00  4.64955E+00  4.13509E+00  3.86587E+00  3.85592E+00  4.06715E+00  4.46436E+00
   5.03358E+00  5.59994E+00  5.97046E+00  6.04657E+00  5.89918E+00  5.69311E+00  5.45705E+00  5.19015E+00  4.85247E+00  4.53739E+00
   4.41820E+00  4.47902E+00  4.64113E+00  5.00058E+00  5.81375E+00  7.09270E+00  8.33920E+00  8.79054E+00  8.16838E+00  7.01635E+00
   6.10523E+00  5.70155E+00  5.52794E+00  5.24145E+00  4.83374E+00  4.79167E+00  5.04805E+00  5.60285E+00  6.87414E+00  1.01787E+01
   1.78937E+01  3.10195E+01  4.61881E+01  5.64447E+01  5.72050E+01  5.03001E+01  4.12574E+01  3.37935E+01  2.75569E+01  2.05031E+01
   1.26124E+01  7.67749E+00  6.14549E+00  5.60036E+00  5.34866E+00  5.21071E+00  5.13569E+00  5.08323E+00  5.04726E+00  5.07284E+00
   5.28056E+00  5.99602E+00  7.50907E+00  1.05812E+01  1.74533E+01  2.98900E+01  4.57157E+01  5.81447E+01  6.11321E+01  5.52446E+01
   4.62432E+01  3.87930E+01  3.29574E+01  2.60456E+01  1.69703E+01  9.62095E+00  6.80266E+00  5.96924E+00  6.10462E+00  6.69418E+00
   7.34951E+00  7.94078E+00  8.37183E+00  8.60629E+00  8.76763E+00  8.83182E+00  8.66302E+00  8.32850E+00  7.90789E+00  7.60058E+00
   7.39410E+00  7.19420E+00  6.99793E+00  6.84242E+00  6.80090E+00  6.86176E+00  6.93475E+00  6.93655E+00  6.73483E+00  6.23739E+00
   5.49421E+00  4.76391E+00  4.43974E+00  4.73902E+00  5.47073E+00  6.11385E+00  6.26348E+00  5.96233E+00  5.55271E+00  5.27812E+00
   4.98880E+00  4.60820E+00  4.07935E+00  3.42473E+00  2.73557E+00  1.99020E+00  1.44418E+00  1.44011E+00  1.88826E+00  2.26596E+00
   2.18555E+00  1.83284E+00  1.73267E+00  2.12693E+00  2.63456E+00  2.71184E+00  2.58466E+00  3.06155E+00  4.57164E+00  6.73217E+00
   8.50021E+00  9.29384E+00  9.20257E+00  8.63374E+00  7.97646E+00  7.34490E+00  6.73974E+00  6.54269E+00  6.94815E+00  7.86940E+00
   9.16835E+00  1.06909E+01  1.23611E+01  1.40511E+01  1.52651E+01  1.53921E+01  1.42495E+01  1.18765E+01  8.72541E+00  5.73956E+00
   3.88989E+00  3.53719E+00  4.51091E+00  6.89713E+00  1.06874E+01  1.52854E+01  1.90698E+01  2.05302E+01  1.90953E+01  1.57707E+01
   1.18600E+01  7.79185E+00  4.16120E+00  2.42307E+00  3.50634E+00  6.92960E+00  1.06066E+01  1.34925E+01  1.55668E+01  1.70463E+01
   1.78498E+01  1.78058E+01  1.73822E+01  1.72379E+01  1.73904E+01  1.76806E+01  1.81919E+01  1.87958E+01  1.92145E+01  1.91375E+01
   1.84342E+01  1.73004E+01  1.61974E+01  1.56955E+01  1.60122E+01  1.70547E+01  1.82621E+01  1.91162E+01  1.96809E+01  2.01441E+01
   2.06296E+01  2.10148E+01  2.16243E+01  2.29457E+01  2.49694E+01  2.75101E+01  3.04590E+01  3.58048E+01  4.78397E+01  6.85385E+01
   9.21283E+01  1.06904E+02  1.05617E+02  9.21996E+01  7.63992E+01  6.38769E+01  5.34576E+01  4.14788E+01  2.81686E+01  2.01953E+01
   1.76648E+01  1.64665E+01  1.58051E+01  1.55938E+01  1.55457E+01  1.54881E+01  1.53699E+01  1.51868E+01  1.49786E+01  1.47618E+01
   1.45061E+01  1.42173E+01  1.39762E+01  1.38287E+01  1.37385E+01  1.36656E+01  1.36039E+01  1.35641E+01  1.35507E+01  1.35473E+01
   1.35555E+01  1.35896E+01  1.36495E+01  1.37299E+01  1.38305E+01  1.39532E+01  1.40983E+01  1.42623E+01  1.44464E+01  1.46550E+01
   1.48923E+01  1.51581E+01  1.54499E+01  1.57641E+01  1.60976E+01  1.64480E+01  1.68123E+01  1.71869E+01  1.75704E+01  1.79620E+01
   1.83611E+01  1.87688E+01  1.91884E+01  1.96233E+01  2.00794E+01  2.05660E+01  2.10958E+01  2.16851E+01  2.23540E+01  2.31290E+01
   2.40473E+01  2.51595E+01  2.65079E+01  2.81836E+01  3.02523E+01  3.25433E+01  3.46193E+01  3.61314E+01  3.72721E+01  3.86993E+01
   4.09069E+01  4.39324E+01  4.77111E+01  5.24152E+01  5.82757E+01  6.50956E+01  7.18603E+01  7.78307E+01  8.30846E+01  8.78965E+01
   9.23171E+01  9.61097E+01  9.89956E+01  1.01147E+02  1.02886E+02  1.04026E+02  1.04016E+02  1.02058E+02  9.77849E+01  9.18188E+01
   8.52911E+01  7.88844E+01  7.27996E+01  6.72550E+01  6.26573E+01  5.91558E+01  5.61884E+01  5.25384E+01  4.81377E+01  4.36504E+01
   3.95367E+01  3.57556E+01  3.20117E+01  2.83979E+01  2.54855E+01  2.31815E+01  2.13177E+01  1.98072E+01  1.85898E+01  1.76170E+01
   1.68479E+01  1.62476E+01  1.57861E+01  1.54385E+01  1.51840E+01  1.50064E+01  1.48926E+01  1.48323E+01  1.48172E+01  1.48409E+01
   1.48984E+01  1.49863E+01  1.51019E+01  1.52430E+01  1.54075E+01  1.55937E+01  1.58001E+01  1.60257E+01  1.62691E+01  1.65286E+01
   1.68024E+01  1.70885E+01  1.73849E+01  1.76894E+01  1.79995E+01  1.83121E+01  1.86239E+01  1.89315E+01  1.92315E+01  1.95204E+01
   1.97944E+01  2.00495E+01  2.02817E+01  2.04878E+01  2.06644E+01  2.08087E+01  2.09179E+01  2.09899E+01  2.10230E+01  2.10163E+01
   2.09696E+01  2.08832E+01  2.07578E+01  2.05949E+01  2.03966E+01  2.01655E+01  1.99048E+01  1.96177E+01  1.93076E+01  1.89783E+01
   1.86335E+01  1.82772E+01  1.79131E+01  1.75446E+01  1.71748E+01  1.68067E+01  1.64430E+01  1.60863E+01  1.57385E+01  1.54011E+01
   1.50753E+01  1.47624E+01  1.44632E+01  1.41782E+01  1.39077E+01  1.36515E+01  1.34095E+01  1.31817E+01  1.29678E+01  1.27673E+01
   1.25796E+01  1.24040E+01  1.22401E+01  1.20874E+01  1.19453E+01  1.18131E+01  1.16902E+01  1.15759E+01  1.14698E+01  1.13715E+01
   1.12804E+01  1.11960E+01  1.11176E+01  1.10451E+01  1.09780E+01  1.09161E+01  1.08589E+01  1.08062E+01  1.07575E+01  1.07125E+01
   1.06713E+01  1.06335E+01  1.05989E+01  1.05671E+01  1.05380E+01  1.05116E+01  1.04876E+01  1.04660E+01  1.04464E+01  1.04288E+01
   1.04130E+01  1.03990E+01  1.03867E+01  1.03761E+01  1.03668E+01  1.03589E+01  1.03522E+01  1.03469E+01  1.03428E+01  1.03398E+01
   1.03377E+01  1.03365E+01  1.03363E+01  1.03371E+01  1.03388E+01  1.03411E+01  1.03442E+01  1.03479E+01  1.03524E+01  1.03576E+01
   1.03635E+01  1.03699E+01  1.03767E+01  1.03842E+01  1.03923E+01  1.04010E+01  1.04102E+01  1.04198E+01
 NY background values follow
    -1.217E+00   -1.167E+00   -1.117E+00   -1.067E+00   -1.016E+00   -9.661E-01   -9.160E-01   -8.659E-01   -8.159E-01   -7.659E-01
    -7.161E-01   -6.662E-01   -6.165E-01   -5.668E-01   -5.172E-01   -4.677E-01   -4.183E-01   -3.690E-01   -3.198E-01   -2.707E-01
    -2.217E-01   -1.728E-01   -1.241E-01   -7.544E-02   -2.692E-02    2.146E-02    6.971E-02    1.178E-01    1.658E-01    2.136E-01
     2.613E-01    3.088E-01    3.561E-01    4.033E-01    4.503E-01    4.971E-01    5.437E-01    5.902E-01    6.365E-01    6.826E-01
     7.285E-01    7.741E-01    8.196E-01    8.649E-01    9.099E-01    9.548E-01    9.994E-01    1.044E+00    1.088E+00    1.132E+00
     1.175E+00    1.219E+00    1.262E+00    1.305E+00    1.347E+00    1.390E+00    1.432E+00    1.473E+00    1.515E+00    1.556E+00
     1.597E+00    1.637E+00    1.677E+00    1.717E+00    1.756E+00    1.795E+00    1.834E+00    1.872E+00    1.910E+00    1.948E+00
     1.985E+00    2.022E+00    2.058E+00    2.094E+00    2.130E+00    2.165E+00    2.200E+00    2.234E+00    2.268E+00    2.301E+00
     2.334E+00    2.366E+00    2.398E+00    2.430E+00    2.461E+00    2.491E+00    2.521E+00    2.551E+00    2.580E+00    2.608E+00
     2.636E+00    2.664E+00    2.691E+00    2.717E+00    2.743E+00    2.768E+00    2.793E+00    2.817E+00    2.841E+00    2.865E+00
     2.888E+00    2.911E+00    2.933E+00    2.955E+00    2.977E+00    2.998E+00    3.019E+00    3.040E+00    3.060E+00    3.080E+00
     3.100E+00    3.119E+00    3.138E+00    3.157E+00    3.176E+00    3.194E+00    3.213E+00    3.231E+00    3.249E+00    3.267E+00
     3.284E+00    3.302E+00    3.319E+00    3.337E+00    3.354E+00    3.371E+00    3.388E+00    3.405E+00    3.422E+00    3.439E+00
     3.456E+00    3.473E+00    3.490E+00    3.507E+00    3.524E+00    3.542E+00    3.559E+00    3.576E+00    3.594E+00    3.611E+00
     3.629E+00    3.647E+00    3.666E+00    3.684E+00    3.703E+00    3.722E+00    3.741E+00    3.761E+00    3.782E+00    3.802E+00
     3.823E+00    3.845E+00    3.867E+00    3.890E+00    3.913E+00    3.937E+00    3.961E+00    3.986E+00    4.012E+00    4.038E+00
     4.065E+00    4.093E+00    4.122E+00    4.152E+00    4.182E+00    4.213E+00    4.245E+00    4.278E+00    4.312E+00    4.347E+00
     4.383E+00    4.420E+00    4.458E+00    4.497E+00    4.537E+00    4.578E+00    4.621E+00    4.665E+00    4.709E+00    4.756E+00
     4.803E+00    4.852E+00    4.902E+00    4.953E+00    5.005E+00    5.059E+00    5.114E+00    5.170E+00    5.226E+00    5.284E+00
     5.343E+00    5.402E+00    5.463E+00    5.524E+00    5.585E+00    5.648E+00    5.711E+00    5.774E+00    5.838E+00    5.903E+00
     5.967E+00    6.033E+00    6.098E+00    6.164E+00    6.230E+00    6.296E+00    6.362E+00    6.428E+00    6.494E+00    6.560E+00
     6.626E+00    6.692E+00    6.758E+00    6.823E+00    6.888E+00    6.953E+00    7.017E+00    7.081E+00    7.144E+00    7.207E+00
     7.269E+00    7.330E+00    7.391E+00    7.451E+00    7.510E+00    7.568E+00    7.625E+00    7.681E+00    7.737E+00    7.791E+00
     7.845E+00    7.897E+00    7.949E+00    7.999E+00    8.049E+00    8.098E+00    8.146E+00    8.193E+00    8.239E+00    8.285E+00
     8.330E+00    8.373E+00    8.416E+00    8.458E+00    8.500E+00    8.540E+00    8.580E+00    8.619E+00    8.658E+00    8.695E+00
     8.732E+00    8.768E+00    8.803E+00    8.838E+00    8.872E+00    8.905E+00    8.938E+00    8.970E+00    9.001E+00    9.032E+00
     9.062E+00    9.092E+00    9.120E+00    9.149E+00    9.176E+00    9.203E+00    9.230E+00    9.256E+00    9.281E+00    9.306E+00
     9.330E+00    9.354E+00    9.377E+00    9.400E+00    9.423E+00    9.444E+00    9.466E+00    9.486E+00    9.507E+00    9.527E+00
     9.546E+00    9.565E+00    9.583E+00    9.601E+00    9.618E+00    9.635E+00    9.652E+00    9.668E+00    9.683E+00    9.698E+00
     9.713E+00    9.727E+00    9.740E+00    9.754E+00    9.766E+00    9.778E+00    9.790E+00    9.801E+00    9.812E+00    9.823E+00
     9.833E+00    9.842E+00    9.851E+00    9.860E+00    9.868E+00    9.875E+00    9.883E+00    9.889E+00    9.896E+00    9.902E+00
     9.907E+00    9.912E+00    9.917E+00    9.921E+00    9.925E+00    9.928E+00    9.931E+00    9.933E+00    9.935E+00    9.937E+00
     9.938E+00    9.939E+00    9.940E+00    9.940E+00    9.939E+00    9.938E+00    9.937E+00    9.936E+00    9.934E+00    9.931E+00
     9.929E+00    9.926E+00    9.922E+00    9.919E+00    9.915E+00    9.910E+00    9.905E+00    9.900E+00    9.895E+00    9.889E+00
     9.883E+00    9.876E+00    9.869E+00    9.862E+00    9.855E+00    9.847E+00    9.839E+00    9.831E+00    9.822E+00    9.813E+00
     9.804E+00    9.794E+00    9.784E+00    9.774E+00    9.764E+00    9.753E+00    9.743E+00    9.731E+00    9.720E+00    9.708E+00
     9.696E+00    9.684E+00    9.672E+00    9.659E+00    9.646E+00    9.633E+00    9.620E+00    9.607E+00    9.593E+00    9.580E+00
     9.566E+00    9.553E+00    9.539E+00    9.525E+00    9.512E+00    9.498E+00    9.485E+00    9.471E+00    9.458E+00    9.445E+00
     9.432E+00    9.419E+00    9.406E+00    9.393E+00    9.381E+00    9.369E+00    9.358E+00    9.346E+00    9.335E+00    9.325E+00
     9.314E+00    9.304E+00    9.295E+00    9.286E+00    9.277E+00    9.269E+00    9.262E+00    9.255E+00    9.248E+00    9.242E+00
     9.237E+00    9.233E+00    9.228E+00    9.225E+00    9.223E+00    9.221E+00    9.219E+00    9.219E+00    9.219E+00    9.220E+00
     9.222E+00    9.225E+00    9.228E+00    9.232E+00    9.236E+00    9.242E+00    9.248E+00    9.254E+00    9.261E+00    9.269E+00
     9.277E+00    9.286E+00    9.296E+00    9.306E+00    9.316E+00    9.327E+00    9.339E+00    9.351E+00    9.363E+00    9.376E+00
     9.389E+00    9.403E+00    9.417E+00    9.431E+00    9.446E+00    9.461E+00    9.477E+00    9.493E+00    9.509E+00    9.525E+00
     9.542E+00    9.559E+00    9.576E+00    9.594E+00    9.611E+00    9.629E+00    9.647E+00    9.665E+00    9.684E+00    9.702E+00
     9.721E+00    9.740E+00    9.758E+00    9.777E+00    9.796E+00    9.815E+00    9.834E+00    9.853E+00    9.872E+00    9.892E+00
     9.911E+00    9.930E+00    9.950E+00    9.969E+00    9.988E+00    1.001E+01    1.003E+01    1.005E+01    1.007E+01    1.009E+01
     1.011E+01    1.012E+01    1.014E+01    1.016E+01    1.018E+01    1.020E+01    1.022E+01    1.024E+01    1.026E+01    1.028E+01
     1.030E+01    1.032E+01    1.034E+01    1.036E+01    1.038E+01    1.039E+01    1.041E+01    1.043E+01    1.045E+01    1.047E+01
     1.049E+01    1.051E+01    1.053E+01    1.054E+01    1.056E+01    1.058E+01    1.060E+01    1.062E+01
 Ala      Conc. = 2.52E+02
