 LCModel (Version 6.3-1L) Copyright: S.W. Provencher.          Ref.: Magn. Reson. Med. 30:672-679 (1993).                
 Slice#3 Row#7 Col#14  PD_05_press_1_raw_act
 36 lines in following concentration table = NCONC+1
    Conc.  %SD /Cr+PCr  Metabolite                                         
    0.000 999%   0.000 Ala                                                 
    4.573 526% 4.7E-02 Asp                                                 
   98.035  35%   1.000 Cr                                                  
    0.000 999%   0.000 PCr                                                 
    6.649 218% 6.8E-02 GABA                                                
    7.959 183% 8.1E-02 Glc                                                 
    0.000 999%   0.000 Gln                                                 
    0.000 999%   0.000 Glu                                                 
    0.000 999%   0.000 GPC                                                 
   41.755  30%   0.426 PCh                                                 
    0.000 999%   0.000 GSH                                                 
    0.000 999%   0.000 Ins                                                 
 4.21E+03  17%  42.984 Lac                                                 
    0.000 999%   0.000 NAA                                                 
    0.000 999%   0.000 NAAG                                                
    3.391 139% 3.5E-02 Scyllo                                              
   17.175 138%   0.175 Tau                                                 
   25.794 115%   0.263 -CrCH2                                              
   41.755  30%   0.426 GPC+PCh                                             
    0.000 999%   0.000 NAA+NAAG                                            
   98.035  35%   1.000 Cr+PCr                                              
    0.000 999%   0.000 Glu+Gln                                             
 1.59E+04   5% 162.638 Lip13a                                              
    0.000 999%   0.000 Lip13b                                              
 6.05E+03   7%  61.753+Lip09                                               
 1.09E+03   9%  11.104 MM09                                                
    0.000 999%   0.000-Lip20                                               
    0.000 999%   0.000-MM20                                                
  363.733  21%   3.710 MM12                                                
 2.40E+03   8%  24.491+MM14                                                
  876.471  21%   8.940 MM17                                                
 1.59E+04   5% 162.638 Lip13a+Lip13b                                       
 1.87E+04   5% 190.840 MM14+Lip13a+Lip13b+MM12                             
 7.14E+03   6%  72.857 MM09+Lip09                                          
    0.000 999%   0.000 MM20+Lip20                                          
   6 lines in following misc. output table
  FWHM = 0.168 ppm    S/N =  22                                            
  Data shift = 0.183 ppm                                                   
  Ph: -30 deg     -28.0 deg/ppm                                            
  alphaB,S = 1.0E+01,   4.1E+02                                            
    6 spline knots.   Ns = 9(2)                                            
  (13) 2 infls.   ( 1) 1 extrs.                                            
  498 points on ppm-axis = NY
      4.000000     3.992357     3.984714     3.977070     3.969427     3.961784     3.954141     3.946497     3.938854     3.931211
      3.923568     3.915925     3.908281     3.900638     3.892995     3.885352     3.877708     3.870065     3.862422     3.854779
      3.847136     3.839492     3.831849     3.824206     3.816563     3.808919     3.801276     3.793633     3.785990     3.778347
      3.770703     3.763060     3.755417     3.747774     3.740130     3.732487     3.724844     3.717201     3.709558     3.701914
      3.694271     3.686628     3.678985     3.671341     3.663698     3.656055     3.648412     3.640769     3.633125     3.625482
      3.617839     3.610196     3.602552     3.594909     3.587266     3.579623     3.571980     3.564336     3.556693     3.549050
      3.541407     3.533763     3.526120     3.518477     3.510834     3.503191     3.495547     3.487904     3.480261     3.472618
      3.464974     3.457331     3.449688     3.442045     3.434402     3.426758     3.419115     3.411472     3.403829     3.396185
      3.388542     3.380899     3.373256     3.365613     3.357969     3.350326     3.342683     3.335040     3.327396     3.319753
      3.312110     3.304467     3.296824     3.289180     3.281537     3.273894     3.266251     3.258607     3.250964     3.243321
      3.235678     3.228034     3.220391     3.212748     3.205105     3.197462     3.189818     3.182175     3.174532     3.166889
      3.159245     3.151602     3.143959     3.136316     3.128673     3.121029     3.113386     3.105743     3.098100     3.090456
      3.082813     3.075170     3.067527     3.059884     3.052240     3.044597     3.036954     3.029311     3.021667     3.014024
      3.006381     2.998738     2.991095     2.983451     2.975808     2.968165     2.960522     2.952878     2.945235     2.937592
      2.929949     2.922306     2.914662     2.907019     2.899376     2.891733     2.884089     2.876446     2.868803     2.861160
      2.853517     2.845873     2.838230     2.830587     2.822944     2.815300     2.807657     2.800014     2.792371     2.784728
      2.777084     2.769441     2.761798     2.754155     2.746511     2.738868     2.731225     2.723582     2.715939     2.708295
      2.700652     2.693009     2.685366     2.677722     2.670079     2.662436     2.654793     2.647150     2.639506     2.631863
      2.624220     2.616577     2.608933     2.601290     2.593647     2.586004     2.578361     2.570717     2.563074     2.555431
      2.547788     2.540144     2.532501     2.524858     2.517215     2.509572     2.501928     2.494285     2.486642     2.478999
      2.471355     2.463712     2.456069     2.448426     2.440783     2.433139     2.425496     2.417853     2.410210     2.402566
      2.394923     2.387280     2.379637     2.371994     2.364350     2.356707     2.349064     2.341421     2.333777     2.326134
      2.318491     2.310848     2.303205     2.295561     2.287918     2.280275     2.272632     2.264988     2.257345     2.249702
      2.242059     2.234416     2.226772     2.219129     2.211486     2.203843     2.196199     2.188556     2.180913     2.173270
      2.165627     2.157983     2.150340     2.142697     2.135054     2.127410     2.119767     2.112124     2.104481     2.096838
      2.089194     2.081551     2.073908     2.066265     2.058621     2.050978     2.043335     2.035692     2.028049     2.020405
      2.012762     2.005119     1.997476     1.989833     1.982190     1.974546     1.966903     1.959260     1.951617     1.943974
      1.936331     1.928688     1.921045     1.913402     1.905759     1.898115     1.890472     1.882829     1.875186     1.867543
      1.859900     1.852257     1.844614     1.836971     1.829327     1.821684     1.814041     1.806398     1.798755     1.791112
      1.783469     1.775826     1.768183     1.760540     1.752896     1.745253     1.737610     1.729967     1.722324     1.714681
      1.707038     1.699395     1.691752     1.684108     1.676465     1.668822     1.661179     1.653536     1.645893     1.638250
      1.630607     1.622964     1.615321     1.607677     1.600034     1.592391     1.584748     1.577105     1.569462     1.561819
      1.554176     1.546533     1.538890     1.531246     1.523603     1.515960     1.508317     1.500674     1.493031     1.485388
      1.477745     1.470102     1.462458     1.454815     1.447172     1.439529     1.431886     1.424243     1.416600     1.408957
      1.401314     1.393671     1.386027     1.378384     1.370741     1.363098     1.355455     1.347812     1.340169     1.332526
      1.324883     1.317240     1.309596     1.301953     1.294310     1.286667     1.279024     1.271381     1.263738     1.256095
      1.248452     1.240808     1.233165     1.225522     1.217879     1.210236     1.202593     1.194950     1.187307     1.179664
      1.172021     1.164377     1.156734     1.149091     1.141448     1.133805     1.126162     1.118519     1.110876     1.103233
      1.095590     1.087946     1.080303     1.072660     1.065017     1.057374     1.049731     1.042088     1.034445     1.026802
      1.019158     1.011515     1.003872     0.996229     0.988586     0.980943     0.973300     0.965657     0.958014     0.950371
      0.942727     0.935084     0.927441     0.919798     0.912155     0.904512     0.896869     0.889226     0.881583     0.873940
      0.866296     0.858653     0.851010     0.843367     0.835724     0.828081     0.820438     0.812795     0.805152     0.797508
      0.789865     0.782222     0.774579     0.766936     0.759293     0.751650     0.744007     0.736364     0.728721     0.721077
      0.713434     0.705791     0.698148     0.690505     0.682862     0.675219     0.667576     0.659933     0.652290     0.644646
      0.637003     0.629360     0.621717     0.614074     0.606431     0.598788     0.591145     0.583502     0.575858     0.568215
      0.560572     0.552929     0.545286     0.537643     0.530000     0.522357     0.514714     0.507071     0.499427     0.491784
      0.484141     0.476498     0.468855     0.461212     0.453569     0.445925     0.438282     0.430639     0.422996     0.415353
      0.407710     0.400067     0.392424     0.384780     0.377137     0.369494     0.361851     0.354208     0.346565     0.338922
      0.331278     0.323635     0.315992     0.308349     0.300706     0.293063     0.285420     0.277777     0.270133     0.262490
      0.254847     0.247204     0.239561     0.231918     0.224275     0.216631     0.208988     0.201345
 NY phased data points follow
   4.16805E+00  2.48941E+00  2.29568E+00  4.76551E+00  3.40270E+00  2.68887E+00  4.99937E+00  2.98321E+00  2.79665E+00  2.85865E+00
   3.11393E+00  4.55533E+00  3.53856E+00  3.93011E+00  3.27829E+00  4.41826E+00  4.77913E+00  4.68204E+00  2.71969E+00  3.34977E+00
   4.83815E+00  3.89080E+00  3.67169E+00  2.83400E+00  3.85750E+00  3.77174E+00  2.62441E+00  2.75870E+00  3.27779E+00  5.24771E+00
   3.28944E+00  3.36272E+00  3.44596E+00  2.93322E+00  3.03353E+00  3.79964E+00  3.60858E+00  5.15869E+00  3.30348E+00  3.08557E+00
   2.45853E+00  2.87373E+00  4.29954E+00  1.73666E+00  2.72615E+00  4.34811E+00  4.58733E+00  3.37541E+00  2.28893E+00  3.71112E+00
   3.12794E+00  4.43770E+00  4.17485E+00  4.44398E+00  3.38973E+00  3.36064E+00  2.59066E+00  3.83964E+00  2.99593E+00  3.17563E+00
   3.92617E+00  2.94945E+00  2.28065E+00  2.31639E+00  2.63387E+00  3.56935E+00  2.92104E+00  4.26877E+00  4.10693E+00  3.75195E+00
   4.13196E+00  2.62634E+00  5.20508E+00  2.62539E+00  4.31284E+00  3.23935E+00  3.33476E+00  4.43655E+00  4.64461E+00  3.20848E+00
   4.29773E+00  3.71323E+00  4.01320E+00  1.34380E+00  4.03338E+00  2.32683E+00  4.76668E+00  3.34050E+00  3.82319E+00  4.37709E+00
   3.55670E+00  4.05605E+00  3.49432E+00  3.20626E+00  3.38923E+00  4.26469E+00  2.58915E+00  3.26431E+00  2.69224E+00  3.35072E+00
   4.32399E+00  4.23196E+00  4.86339E+00  5.94203E+00  3.96353E+00  2.88007E+00  3.18853E+00  3.43662E+00  3.38432E+00  4.75266E+00
   6.08524E+00  4.76621E+00  4.73635E+00  2.67154E+00  3.86971E+00  3.10938E+00  3.26123E+00  3.99279E+00  2.61121E+00  2.57604E+00
   3.31347E+00  3.53256E+00  2.64789E+00  2.58206E+00  4.30510E+00  4.12121E+00  4.42863E+00  2.47853E+00  3.42333E+00  3.19741E+00
   3.84618E+00  4.50363E+00  2.84508E+00  1.65181E+00  2.50562E+00  3.03921E+00  3.32259E+00  2.72059E+00  1.66635E+00  2.04390E+00
   2.77667E+00  2.28916E+00  1.57868E+00  2.85263E+00  2.03585E+00  2.59770E+00  2.69592E+00  2.01565E+00  1.43783E+00  3.63635E+00
   2.04880E+00  2.52797E+00  2.82658E+00  2.47754E+00  2.48313E+00  3.25248E+00  1.71659E+00  1.38566E+00  2.01781E+00  1.00110E+00
   1.97324E+00  8.25724E-01  1.76534E+00  1.71604E+00  2.09045E+00  2.08594E+00  1.61802E+00  2.63488E+00  2.20140E+00  9.35717E-01
   1.39617E+00  9.45659E-01  2.42321E+00  1.88617E+00  1.03309E+00  2.51116E+00  5.41001E-01  1.29398E+00  2.28487E+00  1.57824E+00
   6.24866E-01  4.95477E-01  1.30746E+00  1.17573E+00  2.25588E+00  1.74223E+00  1.50042E+00  4.54352E-01  5.55919E-01  1.06634E+00
   1.34876E+00  1.47785E+00 -6.03983E-01  1.71084E+00  1.20468E+00  5.70031E-01 -3.94419E-01  4.47825E-02  7.98868E-01 -2.32092E-01
   2.01013E-01 -6.19629E-01 -1.33057E+00 -4.43726E-01 -6.88700E-01 -1.31512E-01 -1.77983E+00 -1.69742E+00 -4.67811E-01  1.19780E+00
  -7.49640E-01  1.58736E-01  1.12712E+00 -7.17608E-01 -2.57495E-01 -1.38805E+00 -4.34548E-01 -4.35542E-01 -6.42124E-01 -1.30190E+00
   3.31503E-01 -1.77723E+00 -1.12912E+00 -6.37784E-03  4.39927E-02 -5.08275E-01 -9.06350E-01 -1.15052E+00  1.32376E-01 -1.89913E+00
  -4.76306E-01  1.08468E-01  4.96548E-01 -1.03102E-01 -9.28250E-01 -8.83879E-01  1.37881E+00  1.57546E+00  7.55609E-01 -4.42154E-01
  -1.36679E+00 -1.43455E+00 -5.48873E-01  1.23701E+00 -9.67115E-01  2.03693E+00  3.55032E-01  2.02732E+00 -8.47338E-01  8.60981E-01
   1.20401E+00  3.37027E-01  1.89039E-01  6.33767E-01  9.34566E-01  3.45131E-01  1.11883E+00  1.83006E+00  1.18220E+00  1.73249E+00
   1.43201E+00  7.71181E-01  5.11987E-01  1.67297E+00  8.11730E-01  5.36546E-01  1.85330E+00  2.46027E+00  3.90711E+00  4.63187E-01
   1.69495E+00  3.08098E+00  3.32165E+00  3.40893E+00  2.83011E+00  2.78047E+00  3.67021E+00  2.70602E+00  3.40631E+00  3.58021E+00
   2.87354E+00  3.15529E+00  4.44162E+00  4.34209E+00  3.02465E+00  6.01223E+00  5.35841E+00  5.47281E+00  5.39304E+00  6.14693E+00
   7.19695E+00  7.23184E+00  8.50572E+00  8.78640E+00  8.32597E+00  8.10635E+00  8.91529E+00  1.18767E+01  1.19659E+01  1.14743E+01
   1.17034E+01  1.28567E+01  1.43872E+01  1.61010E+01  1.71980E+01  1.79911E+01  2.05760E+01  2.19432E+01  2.51863E+01  2.46976E+01
   2.80702E+01  2.88766E+01  3.10927E+01  3.29263E+01  3.45186E+01  3.86415E+01  4.02264E+01  4.24594E+01  4.45278E+01  4.98079E+01
   5.21698E+01  5.36760E+01  5.60656E+01  5.85350E+01  5.99573E+01  6.16500E+01  6.25470E+01  6.49465E+01  6.54596E+01  6.80229E+01
   6.76258E+01  6.75930E+01  6.78922E+01  6.72442E+01  6.64450E+01  6.75858E+01  6.47841E+01  6.54146E+01  6.26437E+01  6.27066E+01
   6.18322E+01  5.93893E+01  5.70842E+01  5.50296E+01  5.20289E+01  5.10676E+01  5.00517E+01  4.64352E+01  4.67382E+01  4.42778E+01
   4.37240E+01  4.26476E+01  4.25202E+01  3.93236E+01  3.83119E+01  3.89523E+01  3.70062E+01  3.67915E+01  3.64924E+01  3.63541E+01
   3.52054E+01  3.52811E+01  3.60979E+01  3.34528E+01  3.51795E+01  3.49100E+01  3.39746E+01  3.43212E+01  3.35879E+01  3.36498E+01
   3.33183E+01  3.35507E+01  3.36434E+01  3.57265E+01  3.34789E+01  3.41235E+01  3.34547E+01  3.35077E+01  3.22371E+01  3.25555E+01
   3.24024E+01  3.25046E+01  3.13073E+01  3.24882E+01  3.17509E+01  3.15987E+01  3.16544E+01  3.17581E+01  3.06823E+01  3.06510E+01
   3.02493E+01  2.85816E+01  2.91367E+01  2.77262E+01  2.74035E+01  2.70439E+01  2.66502E+01  2.65513E+01  2.66675E+01  2.61305E+01
   2.61312E+01  2.43563E+01  2.45439E+01  2.42551E+01  2.56344E+01  2.28249E+01  2.24646E+01  2.22243E+01  2.29942E+01  2.21248E+01
   2.37221E+01  2.29818E+01  2.12125E+01  2.12566E+01  2.11161E+01  1.93545E+01  2.03412E+01  2.02033E+01  1.79155E+01  1.83609E+01
   1.83145E+01  1.95025E+01  1.74612E+01  1.86816E+01  1.68184E+01  1.90424E+01  1.80446E+01  1.64322E+01  1.68544E+01  1.76560E+01
   1.65440E+01  1.64162E+01  1.68875E+01  1.51008E+01  1.66605E+01  1.50648E+01  1.55041E+01  1.34981E+01  1.63435E+01  1.59480E+01
   1.54019E+01  1.34785E+01  1.55365E+01  1.45373E+01  1.45114E+01  1.36832E+01  1.42809E+01  1.53883E+01  1.34628E+01  1.33107E+01
   1.37030E+01  1.37580E+01  1.28566E+01  1.25740E+01  1.34849E+01  1.30151E+01  1.17194E+01  1.17878E+01  1.33768E+01  1.37608E+01
   1.25666E+01  1.12731E+01  1.37287E+01  1.19943E+01  1.16890E+01  1.04620E+01  1.19723E+01  1.25978E+01  1.08144E+01  1.15427E+01
   1.06945E+01  1.07896E+01  1.24265E+01  1.00802E+01  1.08152E+01  1.22998E+01  1.09775E+01  1.03764E+01  9.23848E+00  9.88928E+00
   1.03864E+01  1.01583E+01  8.60822E+00  1.07076E+01  9.85801E+00  1.04372E+01  9.66435E+00  9.03433E+00  8.45568E+00  1.11313E+01
   9.10443E+00  8.97425E+00  8.97636E+00  9.28777E+00  9.92942E+00  8.26164E+00  8.53813E+00  7.59110E+00
 NY points of the fit to the data follow
   2.96571E+00  3.68509E+00  3.18783E+00  3.77851E+00  3.51553E+00  4.03606E+00  3.83257E+00  4.11934E+00  3.98973E+00  4.07381E+00
   4.00078E+00  3.91413E+00  3.90488E+00  3.90028E+00  3.99222E+00  3.97153E+00  4.10012E+00  4.04283E+00  4.16994E+00  4.05115E+00
   4.09837E+00  3.97754E+00  4.00078E+00  3.89624E+00  3.90276E+00  3.81768E+00  3.81322E+00  3.74712E+00  3.73485E+00  3.68450E+00
   3.66408E+00  3.62384E+00  3.60614E+00  3.59434E+00  3.58972E+00  3.57787E+00  3.57552E+00  3.56199E+00  3.56104E+00  3.54564E+00
   3.54558E+00  3.52887E+00  3.52956E+00  3.51242E+00  3.51353E+00  3.49633E+00  3.49719E+00  3.48056E+00  3.48091E+00  3.46553E+00
   3.46421E+00  3.45066E+00  3.44667E+00  3.43477E+00  3.42834E+00  3.41835E+00  3.40923E+00  3.40272E+00  3.39140E+00  3.38667E+00
   3.37258E+00  3.36868E+00  3.35165E+00  3.34892E+00  3.33025E+00  3.32726E+00  3.30827E+00  3.30506E+00  3.28917E+00  3.28530E+00
   3.27042E+00  3.26416E+00  3.25050E+00  3.24161E+00  3.23128E+00  3.22025E+00  3.21222E+00  3.19815E+00  3.19148E+00  3.17428E+00
   3.16917E+00  3.15027E+00  3.14516E+00  3.12749E+00  3.13455E+00  3.17362E+00  3.21165E+00  3.26369E+00  3.31942E+00  3.37158E+00
   3.44449E+00  3.50854E+00  3.60403E+00  3.67375E+00  3.78980E+00  3.84562E+00  3.97283E+00  3.99503E+00  4.12179E+00  4.09307E+00
   4.20764E+00  4.12809E+00  4.22520E+00  4.10419E+00  4.18203E+00  4.02440E+00  4.08039E+00  3.89493E+00  3.93855E+00  3.77261E+00
   3.81147E+00  3.64627E+00  3.67487E+00  3.51565E+00  3.53992E+00  3.40955E+00  3.43955E+00  3.34340E+00  3.38313E+00  3.30857E+00
   3.35388E+00  3.28216E+00  3.32456E+00  3.24561E+00  3.28830E+00  3.23139E+00  3.27875E+00  3.19468E+00  3.22810E+00  3.11603E+00
   3.13254E+00  2.99562E+00  2.99268E+00  2.83265E+00  2.80986E+00  2.63908E+00  2.60041E+00  2.43046E+00  2.38086E+00  2.22239E+00
   2.16711E+00  2.02763E+00  1.97063E+00  1.85249E+00  1.79599E+00  1.69670E+00  1.64249E+00  1.56571E+00  1.52254E+00  1.49333E+00
   1.46463E+00  1.43921E+00  1.41206E+00  1.38788E+00  1.36122E+00  1.33774E+00  1.31133E+00  1.28843E+00  1.26245E+00  1.24000E+00
   1.21440E+00  1.19256E+00  1.16736E+00  1.14598E+00  1.12106E+00  1.10007E+00  1.07569E+00  1.05515E+00  1.03129E+00  1.01104E+00
   9.87553E-01  9.67537E-01  9.44478E-01  9.24651E-01  9.01940E-01  8.82217E-01  8.59996E-01  8.40474E-01  8.18771E-01  7.99447E-01
   7.78236E-01  7.59084E-01  7.38401E-01  7.19546E-01  6.99541E-01  6.81038E-01  6.61776E-01  6.43751E-01  6.25370E-01  6.08057E-01
   5.90560E-01  5.73949E-01  5.57353E-01  5.41518E-01  5.25864E-01  5.10873E-01  4.96186E-01  4.82109E-01  4.68309E-01  4.55125E-01
   4.42145E-01  4.29982E-01  4.17857E-01  4.06846E-01  3.95762E-01  3.86334E-01  3.76692E-01  3.68973E-01  3.60438E-01  3.54270E-01
   3.46814E-01  3.42188E-01  3.35638E-01  3.32491E-01  3.27378E-01  3.26114E-01  3.22625E-01  3.23181E-01  3.21097E-01  3.23247E-01
   3.22643E-01  3.26506E-01  3.27694E-01  3.33513E-01  3.36804E-01  3.44776E-01  3.50403E-01  3.60622E-01  3.68623E-01  3.81000E-01
   3.91382E-01  4.05977E-01  4.18963E-01  4.35969E-01  4.51754E-01  4.71365E-01  4.90181E-01  5.12594E-01  5.34484E-01  5.59733E-01
   5.84756E-01  6.13026E-01  6.41339E-01  6.72929E-01  7.04939E-01  7.40408E-01  7.76616E-01  8.16111E-01  8.56429E-01  9.00055E-01
   9.44693E-01  9.92510E-01  1.04148E+00  1.09399E+00  1.14827E+00  1.20641E+00  1.26650E+00  1.33061E+00  1.39701E+00  1.46763E+00
   1.54069E+00  1.61832E+00  1.69862E+00  1.78383E+00  1.87212E+00  1.96574E+00  2.06282E+00  2.16570E+00  2.27248E+00  2.38547E+00
   2.50291E+00  2.62709E+00  2.75629E+00  2.89283E+00  3.03513E+00  3.18557E+00  3.34263E+00  3.50874E+00  3.68240E+00  3.86615E+00
   4.05857E+00  4.26236E+00  4.47620E+00  4.70306E+00  4.94170E+00  5.19549E+00  5.46339E+00  5.74924E+00  6.05229E+00  6.37702E+00
   6.72326E+00  7.09622E+00  7.49672E+00  7.93122E+00  8.40149E+00  8.91542E+00  9.47619E+00  1.00932E+01  1.07714E+01  1.15214E+01
   1.23495E+01  1.32673E+01  1.42820E+01  1.54053E+01  1.66438E+01  1.80081E+01  1.95025E+01  2.11341E+01  2.29034E+01  2.48119E+01
   2.68539E+01  2.90238E+01  3.13082E+01  3.36935E+01  3.61583E+01  3.86813E+01  4.12341E+01  4.37896E+01  4.63151E+01  4.87812E+01
   5.11555E+01  5.34109E+01  5.55202E+01  5.74650E+01  5.92307E+01  6.08168E+01  6.22362E+01  6.35378E+01  6.48580E+01  6.63992E+01
   6.71156E+01  6.78981E+01  6.79427E+01  6.78982E+01  6.73858E+01  6.66007E+01  6.54641E+01  6.48224E+01  6.35144E+01  6.25554E+01
   6.09285E+01  5.93313E+01  5.73552E+01  5.53837E+01  5.33814E+01  5.14720E+01  4.97341E+01  4.81078E+01  4.67096E+01  4.52878E+01
   4.41938E+01  4.27869E+01  4.18784E+01  4.03953E+01  3.97013E+01  3.83725E+01  3.79487E+01  3.68599E+01  3.66974E+01  3.58728E+01
   3.59084E+01  3.51858E+01  3.52613E+01  3.45663E+01  3.46173E+01  3.39296E+01  3.40142E+01  3.35244E+01  3.38083E+01  3.38540E+01
   3.39236E+01  3.36326E+01  3.35802E+01  3.30987E+01  3.29496E+01  3.23389E+01  3.21352E+01  3.21594E+01  3.22712E+01  3.24069E+01
   3.25238E+01  3.25950E+01  3.25984E+01  3.25224E+01  3.23580E+01  3.21057E+01  3.17675E+01  3.13533E+01  3.08735E+01  3.03440E+01
   2.97788E+01  2.91956E+01  2.86079E+01  2.80309E+01  2.74744E+01  2.69491E+01  2.64592E+01  2.60100E+01  2.56005E+01  2.52313E+01
   2.48976E+01  2.45971E+01  2.43229E+01  2.40713E+01  2.38350E+01  2.36106E+01  2.33915E+01  2.31752E+01  2.29563E+01  2.27338E+01
   2.25036E+01  2.22659E+01  2.20180E+01  2.17613E+01  2.14938E+01  2.12177E+01  2.09319E+01  2.06390E+01  2.03382E+01  2.00325E+01
   1.97214E+01  1.94077E+01  1.90912E+01  1.87748E+01  1.84580E+01  1.81436E+01  1.78309E+01  1.75227E+01  1.72183E+01  1.69200E+01
   1.66269E+01  1.63413E+01  1.60620E+01  1.57912E+01  1.55275E+01  1.52729E+01  1.50259E+01  1.47883E+01  1.45585E+01  1.43382E+01
   1.41257E+01  1.39226E+01  1.37271E+01  1.35408E+01  1.33618E+01  1.31916E+01  1.30284E+01  1.28735E+01  1.27251E+01  1.25847E+01
   1.24502E+01  1.23232E+01  1.22018E+01  1.20873E+01  1.19778E+01  1.18748E+01  1.17764E+01  1.16840E+01  1.15957E+01  1.15129E+01
   1.14338E+01  1.13599E+01  1.12892E+01  1.12233E+01  1.11603E+01  1.11016E+01  1.10455E+01  1.09934E+01  1.09435E+01  1.08973E+01
   1.08530E+01  1.08122E+01  1.07729E+01  1.07368E+01  1.07021E+01  1.06703E+01  1.06396E+01  1.06116E+01  1.05844E+01  1.05597E+01
   1.05358E+01  1.05141E+01  1.04929E+01  1.04738E+01  1.04550E+01  1.04381E+01  1.04215E+01  1.04066E+01  1.03918E+01  1.03785E+01
   1.03652E+01  1.03534E+01  1.03414E+01  1.03308E+01  1.03199E+01  1.03102E+01  1.03002E+01  1.02914E+01
 NY background values follow
     2.857E+00    2.869E+00    2.881E+00    2.892E+00    2.902E+00    2.912E+00    2.921E+00    2.930E+00    2.938E+00    2.946E+00
     2.954E+00    2.961E+00    2.967E+00    2.973E+00    2.978E+00    2.983E+00    2.988E+00    2.992E+00    2.995E+00    2.999E+00
     3.001E+00    3.003E+00    3.005E+00    3.007E+00    3.007E+00    3.008E+00    3.008E+00    3.007E+00    3.006E+00    3.005E+00
     3.003E+00    3.001E+00    2.998E+00    2.995E+00    2.992E+00    2.988E+00    2.984E+00    2.979E+00    2.974E+00    2.968E+00
     2.963E+00    2.956E+00    2.950E+00    2.942E+00    2.935E+00    2.927E+00    2.919E+00    2.910E+00    2.901E+00    2.892E+00
     2.882E+00    2.872E+00    2.862E+00    2.851E+00    2.839E+00    2.828E+00    2.816E+00    2.804E+00    2.791E+00    2.778E+00
     2.765E+00    2.751E+00    2.737E+00    2.723E+00    2.709E+00    2.694E+00    2.678E+00    2.663E+00    2.647E+00    2.631E+00
     2.614E+00    2.597E+00    2.580E+00    2.563E+00    2.545E+00    2.527E+00    2.509E+00    2.490E+00    2.471E+00    2.452E+00
     2.433E+00    2.413E+00    2.393E+00    2.373E+00    2.352E+00    2.331E+00    2.310E+00    2.289E+00    2.267E+00    2.245E+00
     2.223E+00    2.201E+00    2.178E+00    2.156E+00    2.132E+00    2.109E+00    2.086E+00    2.062E+00    2.038E+00    2.014E+00
     1.989E+00    1.965E+00    1.940E+00    1.915E+00    1.889E+00    1.864E+00    1.838E+00    1.812E+00    1.786E+00    1.760E+00
     1.733E+00    1.707E+00    1.680E+00    1.653E+00    1.626E+00    1.598E+00    1.571E+00    1.543E+00    1.515E+00    1.487E+00
     1.459E+00    1.430E+00    1.402E+00    1.373E+00    1.344E+00    1.315E+00    1.286E+00    1.257E+00    1.227E+00    1.198E+00
     1.168E+00    1.138E+00    1.108E+00    1.078E+00    1.048E+00    1.018E+00    9.875E-01    9.570E-01    9.264E-01    8.957E-01
     8.648E-01    8.339E-01    8.029E-01    7.718E-01    7.406E-01    7.093E-01    6.779E-01    6.465E-01    6.149E-01    5.833E-01
     5.517E-01    5.199E-01    4.881E-01    4.562E-01    4.243E-01    3.923E-01    3.603E-01    3.282E-01    2.960E-01    2.639E-01
     2.316E-01    1.994E-01    1.671E-01    1.347E-01    1.024E-01    6.997E-02    3.756E-02    5.125E-03   -2.733E-02   -5.978E-02
    -9.225E-02   -1.247E-01   -1.572E-01   -1.896E-01   -2.220E-01   -2.545E-01   -2.868E-01   -3.192E-01   -3.515E-01   -3.838E-01
    -4.160E-01   -4.482E-01   -4.803E-01   -5.123E-01   -5.443E-01   -5.762E-01   -6.080E-01   -6.398E-01   -6.714E-01   -7.030E-01
    -7.345E-01   -7.658E-01   -7.971E-01   -8.282E-01   -8.592E-01   -8.901E-01   -9.209E-01   -9.515E-01   -9.819E-01   -1.012E+00
    -1.042E+00   -1.072E+00   -1.102E+00   -1.132E+00   -1.162E+00   -1.191E+00   -1.220E+00   -1.249E+00   -1.278E+00   -1.306E+00
    -1.335E+00   -1.363E+00   -1.391E+00   -1.419E+00   -1.446E+00   -1.473E+00   -1.500E+00   -1.527E+00   -1.554E+00   -1.580E+00
    -1.606E+00   -1.632E+00   -1.657E+00   -1.683E+00   -1.708E+00   -1.732E+00   -1.757E+00   -1.781E+00   -1.805E+00   -1.828E+00
    -1.851E+00   -1.874E+00   -1.897E+00   -1.919E+00   -1.941E+00   -1.963E+00   -1.984E+00   -2.005E+00   -2.025E+00   -2.046E+00
    -2.065E+00   -2.085E+00   -2.104E+00   -2.123E+00   -2.141E+00   -2.159E+00   -2.177E+00   -2.194E+00   -2.211E+00   -2.227E+00
    -2.243E+00   -2.259E+00   -2.274E+00   -2.288E+00   -2.303E+00   -2.316E+00   -2.330E+00   -2.343E+00   -2.355E+00   -2.367E+00
    -2.379E+00   -2.390E+00   -2.400E+00   -2.411E+00   -2.420E+00   -2.429E+00   -2.438E+00   -2.446E+00   -2.454E+00   -2.461E+00
    -2.468E+00   -2.474E+00   -2.479E+00   -2.484E+00   -2.489E+00   -2.493E+00   -2.496E+00   -2.499E+00   -2.501E+00   -2.503E+00
    -2.504E+00   -2.505E+00   -2.505E+00   -2.504E+00   -2.503E+00   -2.501E+00   -2.499E+00   -2.496E+00   -2.493E+00   -2.488E+00
    -2.484E+00   -2.478E+00   -2.472E+00   -2.465E+00   -2.458E+00   -2.450E+00   -2.442E+00   -2.432E+00   -2.422E+00   -2.412E+00
    -2.400E+00   -2.388E+00   -2.376E+00   -2.362E+00   -2.348E+00   -2.334E+00   -2.318E+00   -2.302E+00   -2.285E+00   -2.268E+00
    -2.249E+00   -2.230E+00   -2.211E+00   -2.190E+00   -2.169E+00   -2.147E+00   -2.124E+00   -2.101E+00   -2.076E+00   -2.051E+00
    -2.026E+00   -1.999E+00   -1.972E+00   -1.943E+00   -1.914E+00   -1.885E+00   -1.854E+00   -1.823E+00   -1.790E+00   -1.757E+00
    -1.723E+00   -1.689E+00   -1.653E+00   -1.617E+00   -1.580E+00   -1.542E+00   -1.503E+00   -1.463E+00   -1.423E+00   -1.382E+00
    -1.340E+00   -1.297E+00   -1.254E+00   -1.209E+00   -1.165E+00   -1.119E+00   -1.073E+00   -1.026E+00   -9.781E-01   -9.298E-01
    -8.808E-01   -8.312E-01   -7.810E-01   -7.301E-01   -6.786E-01   -6.265E-01   -5.738E-01   -5.205E-01   -4.666E-01   -4.122E-01
    -3.572E-01   -3.017E-01   -2.456E-01   -1.891E-01   -1.320E-01   -7.437E-02   -1.628E-02    4.229E-02    1.013E-01    1.608E-01
     2.208E-01    2.812E-01    3.420E-01    4.033E-01    4.649E-01    5.270E-01    5.894E-01    6.522E-01    7.154E-01    7.790E-01
     8.429E-01    9.071E-01    9.717E-01    1.037E+00    1.102E+00    1.167E+00    1.233E+00    1.299E+00    1.365E+00    1.432E+00
     1.499E+00    1.566E+00    1.633E+00    1.700E+00    1.768E+00    1.836E+00    1.904E+00    1.972E+00    2.041E+00    2.109E+00
     2.178E+00    2.247E+00    2.315E+00    2.385E+00    2.454E+00    2.523E+00    2.592E+00    2.662E+00    2.731E+00    2.800E+00
     2.870E+00    2.939E+00    3.009E+00    3.079E+00    3.148E+00    3.218E+00    3.287E+00    3.357E+00    3.426E+00    3.495E+00
     3.565E+00    3.634E+00    3.703E+00    3.772E+00    3.841E+00    3.910E+00    3.979E+00    4.047E+00    4.115E+00    4.184E+00
     4.252E+00    4.320E+00    4.387E+00    4.455E+00    4.522E+00    4.589E+00    4.656E+00    4.723E+00    4.789E+00    4.855E+00
     4.921E+00    4.986E+00    5.052E+00    5.116E+00    5.181E+00    5.245E+00    5.309E+00    5.373E+00    5.436E+00    5.499E+00
     5.561E+00    5.624E+00    5.685E+00    5.747E+00    5.807E+00    5.868E+00    5.928E+00    5.987E+00    6.047E+00    6.105E+00
     6.163E+00    6.221E+00    6.278E+00    6.335E+00    6.391E+00    6.447E+00    6.502E+00    6.556E+00    6.610E+00    6.663E+00
     6.716E+00    6.768E+00    6.820E+00    6.871E+00    6.921E+00    6.971E+00    7.020E+00    7.068E+00    7.116E+00    7.163E+00
     7.210E+00    7.255E+00    7.300E+00    7.344E+00    7.388E+00    7.431E+00    7.473E+00    7.514E+00    7.554E+00    7.594E+00
     7.633E+00    7.671E+00    7.709E+00    7.745E+00    7.781E+00    7.815E+00    7.849E+00    7.883E+00
 Asp      Conc. = 4.57E+00
