 LCModel (Version 6.3-1L) Copyright: S.W. Provencher.          Ref.: Magn. Reson. Med. 30:672-679 (1993).                
 Slice#2 Row#3 Col#2  PD_05_press_1_raw_act
 36 lines in following concentration table = NCONC+1
    Conc.  %SD /Cr+PCr  Metabolite                                         
    0.000 999%   0.000 Ala                                                 
    9.706  89%   0.151 Asp                                                 
    0.000 999%   0.000 Cr                                                  
   64.418  24%   1.000 PCr                                                 
    6.346  81% 9.9E-02 GABA                                                
    5.630  92% 8.7E-02 Glc                                                 
   73.528  92%   1.141 Gln                                                 
    0.000 999%   0.000 Glu                                                 
    8.411  70%   0.131 GPC                                                 
    0.000 999%   0.000 PCh                                                 
    0.000 999%   0.000 GSH                                                 
    0.000 999%   0.000 Ins                                                 
    0.000 999%   0.000 Lac                                                 
   79.679  28%   1.237 NAA                                                 
   26.009  90%   0.404 NAAG                                                
    1.830  93% 2.8E-02 Scyllo                                              
    9.851  87%   0.153 Tau                                                 
    0.000 999%   0.000 -CrCH2                                              
    8.411  70%   0.131 GPC+PCh                                             
  105.687  21%   1.641 NAA+NAAG                                            
   64.418  24%   1.000 Cr+PCr                                              
   73.528  92%   1.141 Glu+Gln                                             
  432.815  33%   6.719 Lip13a                                              
  144.940  44%   2.250 Lip13b                                              
    0.000 999%   0.000 Lip09                                               
   78.900  72%   1.225 MM09                                                
  222.254  28%   3.450 Lip20                                               
  118.376  72%   1.838 MM20                                                
   23.670  72%   0.367 MM12                                                
   59.145  73%   0.918 MM14                                                
   29.595  72%   0.459 MM17                                                
  577.755  17%   8.969 Lip13a+Lip13b                                       
  660.571  19%  10.255 MM14+Lip13a+Lip13b+MM12                             
   78.900  72%   1.225 MM09+Lip09                                          
  340.630  29%   5.288 MM20+Lip20                                          
   6 lines in following misc. output table
  FWHM = 0.054 ppm    S/N =   2                                            
  Data shift =-0.008 ppm                                                   
  Ph:  74 deg      -9.2 deg/ppm                                            
  alphaB,S = 5.5E-01,   2.6E+01                                            
   14 spline knots.   Ns = 5(1)                                            
  ( 9) 2 infls.   ( 9) 1 extrs.                                            
  498 points on ppm-axis = NY
      4.000000     3.992357     3.984714     3.977070     3.969427     3.961784     3.954141     3.946497     3.938854     3.931211
      3.923568     3.915925     3.908281     3.900638     3.892995     3.885352     3.877708     3.870065     3.862422     3.854779
      3.847136     3.839492     3.831849     3.824206     3.816563     3.808919     3.801276     3.793633     3.785990     3.778347
      3.770703     3.763060     3.755417     3.747774     3.740130     3.732487     3.724844     3.717201     3.709558     3.701914
      3.694271     3.686628     3.678985     3.671341     3.663698     3.656055     3.648412     3.640769     3.633125     3.625482
      3.617839     3.610196     3.602552     3.594909     3.587266     3.579623     3.571980     3.564336     3.556693     3.549050
      3.541407     3.533763     3.526120     3.518477     3.510834     3.503191     3.495547     3.487904     3.480261     3.472618
      3.464974     3.457331     3.449688     3.442045     3.434402     3.426758     3.419115     3.411472     3.403829     3.396185
      3.388542     3.380899     3.373256     3.365613     3.357969     3.350326     3.342683     3.335040     3.327396     3.319753
      3.312110     3.304467     3.296824     3.289180     3.281537     3.273894     3.266251     3.258607     3.250964     3.243321
      3.235678     3.228034     3.220391     3.212748     3.205105     3.197462     3.189818     3.182175     3.174532     3.166889
      3.159245     3.151602     3.143959     3.136316     3.128673     3.121029     3.113386     3.105743     3.098100     3.090456
      3.082813     3.075170     3.067527     3.059884     3.052240     3.044597     3.036954     3.029311     3.021667     3.014024
      3.006381     2.998738     2.991095     2.983451     2.975808     2.968165     2.960522     2.952878     2.945235     2.937592
      2.929949     2.922306     2.914662     2.907019     2.899376     2.891733     2.884089     2.876446     2.868803     2.861160
      2.853517     2.845873     2.838230     2.830587     2.822944     2.815300     2.807657     2.800014     2.792371     2.784728
      2.777084     2.769441     2.761798     2.754155     2.746511     2.738868     2.731225     2.723582     2.715939     2.708295
      2.700652     2.693009     2.685366     2.677722     2.670079     2.662436     2.654793     2.647150     2.639506     2.631863
      2.624220     2.616577     2.608933     2.601290     2.593647     2.586004     2.578361     2.570717     2.563074     2.555431
      2.547788     2.540144     2.532501     2.524858     2.517215     2.509572     2.501928     2.494285     2.486642     2.478999
      2.471355     2.463712     2.456069     2.448426     2.440783     2.433139     2.425496     2.417853     2.410210     2.402566
      2.394923     2.387280     2.379637     2.371994     2.364350     2.356707     2.349064     2.341421     2.333777     2.326134
      2.318491     2.310848     2.303205     2.295561     2.287918     2.280275     2.272632     2.264988     2.257345     2.249702
      2.242059     2.234416     2.226772     2.219129     2.211486     2.203843     2.196199     2.188556     2.180913     2.173270
      2.165627     2.157983     2.150340     2.142697     2.135054     2.127410     2.119767     2.112124     2.104481     2.096838
      2.089194     2.081551     2.073908     2.066265     2.058621     2.050978     2.043335     2.035692     2.028049     2.020405
      2.012762     2.005119     1.997476     1.989833     1.982190     1.974546     1.966903     1.959260     1.951617     1.943974
      1.936331     1.928688     1.921045     1.913402     1.905759     1.898115     1.890472     1.882829     1.875186     1.867543
      1.859900     1.852257     1.844614     1.836971     1.829327     1.821684     1.814041     1.806398     1.798755     1.791112
      1.783469     1.775826     1.768183     1.760540     1.752896     1.745253     1.737610     1.729967     1.722324     1.714681
      1.707038     1.699395     1.691752     1.684108     1.676465     1.668822     1.661179     1.653536     1.645893     1.638250
      1.630607     1.622964     1.615321     1.607677     1.600034     1.592391     1.584748     1.577105     1.569462     1.561819
      1.554176     1.546533     1.538890     1.531246     1.523603     1.515960     1.508317     1.500674     1.493031     1.485388
      1.477745     1.470102     1.462458     1.454815     1.447172     1.439529     1.431886     1.424243     1.416600     1.408957
      1.401314     1.393671     1.386027     1.378384     1.370741     1.363098     1.355455     1.347812     1.340169     1.332526
      1.324883     1.317240     1.309596     1.301953     1.294310     1.286667     1.279024     1.271381     1.263738     1.256095
      1.248452     1.240808     1.233165     1.225522     1.217879     1.210236     1.202593     1.194950     1.187307     1.179664
      1.172021     1.164377     1.156734     1.149091     1.141448     1.133805     1.126162     1.118519     1.110876     1.103233
      1.095590     1.087946     1.080303     1.072660     1.065017     1.057374     1.049731     1.042088     1.034445     1.026802
      1.019158     1.011515     1.003872     0.996229     0.988586     0.980943     0.973300     0.965657     0.958014     0.950371
      0.942727     0.935084     0.927441     0.919798     0.912155     0.904512     0.896869     0.889226     0.881583     0.873940
      0.866296     0.858653     0.851010     0.843367     0.835724     0.828081     0.820438     0.812795     0.805152     0.797508
      0.789865     0.782222     0.774579     0.766936     0.759293     0.751650     0.744007     0.736364     0.728721     0.721077
      0.713434     0.705791     0.698148     0.690505     0.682862     0.675219     0.667576     0.659933     0.652290     0.644646
      0.637003     0.629360     0.621717     0.614074     0.606431     0.598788     0.591145     0.583502     0.575858     0.568215
      0.560572     0.552929     0.545286     0.537643     0.530000     0.522357     0.514714     0.507071     0.499427     0.491784
      0.484141     0.476498     0.468855     0.461212     0.453569     0.445925     0.438282     0.430639     0.422996     0.415353
      0.407710     0.400067     0.392424     0.384780     0.377137     0.369494     0.361851     0.354208     0.346565     0.338922
      0.331278     0.323635     0.315992     0.308349     0.300706     0.293063     0.285420     0.277777     0.270133     0.262490
      0.254847     0.247204     0.239561     0.231918     0.224275     0.216631     0.208988     0.201345
 NY phased data points follow
   3.55979E+01  3.34332E+01  3.27478E+01  3.39290E+01  3.18803E+01  3.12394E+01  3.33198E+01  3.19918E+01  3.17238E+01  2.88027E+01
   3.17554E+01  3.00886E+01  2.86457E+01  2.88994E+01  2.81921E+01  2.74721E+01  2.84301E+01  2.83839E+01  2.79743E+01  2.68791E+01
   2.50698E+01  2.53688E+01  2.59980E+01  2.58212E+01  2.48873E+01  2.33232E+01  2.27915E+01  2.46730E+01  2.47380E+01  2.50989E+01
   2.45790E+01  2.48998E+01  2.28964E+01  2.41861E+01  2.35914E+01  2.24925E+01  2.29808E+01  2.25525E+01  2.23042E+01  2.26386E+01
   2.23644E+01  2.27367E+01  2.17436E+01  2.08560E+01  2.18069E+01  2.14491E+01  2.14887E+01  2.22156E+01  1.97524E+01  2.04371E+01
   2.10918E+01  1.94934E+01  2.05180E+01  2.04403E+01  1.93183E+01  1.96906E+01  1.91484E+01  1.87783E+01  1.76005E+01  1.88613E+01
   1.83836E+01  1.87388E+01  1.92899E+01  1.88630E+01  1.75800E+01  1.86048E+01  1.85026E+01  1.80830E+01  1.82632E+01  1.96731E+01
   1.96869E+01  1.85540E+01  1.77301E+01  1.73984E+01  1.81946E+01  1.59071E+01  1.80159E+01  1.65584E+01  1.73718E+01  1.75102E+01
   1.48359E+01  1.54368E+01  1.48324E+01  1.73912E+01  1.52897E+01  1.69306E+01  1.48890E+01  1.55571E+01  1.49326E+01  1.52418E+01
   1.55092E+01  1.41320E+01  1.49128E+01  1.48062E+01  1.56231E+01  1.61924E+01  1.62011E+01  1.38019E+01  1.22590E+01  1.51421E+01
   1.38839E+01  1.46219E+01  1.64222E+01  1.40313E+01  1.47859E+01  1.32457E+01  1.41904E+01  1.35224E+01  1.37056E+01  1.46588E+01
   1.43560E+01  1.32003E+01  1.29891E+01  1.45033E+01  1.41999E+01  1.03330E+01  1.41332E+01  1.18715E+01  1.08414E+01  1.29785E+01
   1.31767E+01  1.28847E+01  1.06121E+01  9.78882E+00  1.28756E+01  1.38199E+01  1.29918E+01  1.35668E+01  1.37630E+01  1.33073E+01
   1.57990E+01  1.10683E+01  1.25493E+01  1.19766E+01  1.10509E+01  1.19712E+01  1.36747E+01  1.14319E+01  1.04071E+01  1.22124E+01
   9.30831E+00  1.24600E+01  1.11188E+01  1.04597E+01  1.16157E+01  1.02927E+01  1.22794E+01  1.21506E+01  1.08511E+01  9.43245E+00
   1.09962E+01  9.83307E+00  1.03218E+01  1.23376E+01  1.11058E+01  1.09028E+01  1.03080E+01  1.22571E+01  1.31656E+01  1.14051E+01
   1.10243E+01  1.19994E+01  8.77823E+00  1.02319E+01  9.85068E+00  1.14575E+01  1.13113E+01  1.06890E+01  1.00654E+01  7.25407E+00
   9.79347E+00  1.07678E+01  9.74612E+00  1.16224E+01  8.10201E+00  9.61901E+00  1.15618E+01  1.02026E+01  1.12613E+01  1.18687E+01
   1.00300E+01  1.02610E+01  9.56806E+00  1.07815E+01  9.93356E+00  1.02631E+01  1.11177E+01  9.55988E+00  9.52012E+00  9.64531E+00
   1.07428E+01  8.66174E+00  9.84976E+00  1.05321E+01  1.09908E+01  1.03011E+01  9.98141E+00  1.19176E+01  1.06770E+01  1.16878E+01
   1.05499E+01  1.09708E+01  1.02038E+01  1.16329E+01  1.24544E+01  9.94275E+00  1.12827E+01  1.27539E+01  1.12280E+01  1.08645E+01
   1.17552E+01  1.33450E+01  1.30232E+01  1.25912E+01  1.23051E+01  1.30741E+01  1.35050E+01  1.17644E+01  1.33682E+01  1.16755E+01
   1.38106E+01  1.25689E+01  1.26882E+01  1.28658E+01  1.60681E+01  1.22638E+01  1.34840E+01  1.34779E+01  1.32992E+01  1.29463E+01
   1.44544E+01  1.61411E+01  1.33792E+01  1.39480E+01  1.29325E+01  1.22629E+01  1.41359E+01  1.56452E+01  1.54768E+01  1.43490E+01
   1.38166E+01  1.73408E+01  1.56517E+01  1.40428E+01  1.39443E+01  1.44692E+01  1.41542E+01  1.44091E+01  1.55028E+01  1.26897E+01
   1.35729E+01  1.49075E+01  1.34929E+01  1.58691E+01  1.51991E+01  1.48724E+01  1.51697E+01  1.61132E+01  1.57009E+01  1.51587E+01
   1.88255E+01  1.78662E+01  1.54150E+01  1.59951E+01  1.45669E+01  1.58246E+01  1.73011E+01  1.30313E+01  1.37512E+01  1.48238E+01
   1.37153E+01  1.28957E+01  1.32420E+01  1.33155E+01  1.36392E+01  1.35423E+01  1.47830E+01  1.27868E+01  1.54095E+01  1.06665E+01
   1.26853E+01  1.34073E+01  1.38446E+01  1.15339E+01  1.01269E+01  1.29741E+01  1.33147E+01  1.40415E+01  1.16873E+01  1.44573E+01
   1.20277E+01  1.38484E+01  1.18735E+01  1.19765E+01  1.27601E+01  1.37718E+01  1.45189E+01  1.11395E+01  1.28119E+01  1.27467E+01
   1.05318E+01  1.44103E+01  1.20336E+01  1.28914E+01  1.23421E+01  1.16552E+01  1.34969E+01  1.17805E+01  1.27735E+01  1.27348E+01
   1.18789E+01  9.75343E+00  1.34359E+01  9.77263E+00  1.07430E+01  1.33948E+01  1.21628E+01  1.05354E+01  1.10968E+01  1.16776E+01
   1.31232E+01  1.14342E+01  1.08222E+01  7.98252E+00  1.23509E+01  9.32532E+00  9.68485E+00  1.01757E+01  1.06379E+01  9.99730E+00
   1.12164E+01  1.12869E+01  1.04927E+01  1.09703E+01  1.09687E+01  1.18475E+01  9.22469E+00  1.14332E+01  8.52350E+00  9.70029E+00
   9.01890E+00  1.01743E+01  8.89524E+00  9.94478E+00  1.11375E+01  1.04004E+01  1.07867E+01  9.37361E+00  1.30286E+01  1.18606E+01
   1.31227E+01  1.24549E+01  1.20504E+01  1.13354E+01  1.41366E+01  1.52755E+01  1.22547E+01  1.34643E+01  1.41260E+01  1.49935E+01
   1.32359E+01  1.24316E+01  1.16907E+01  1.20561E+01  9.05928E+00  1.07001E+01  1.07421E+01  1.38980E+01  1.13846E+01  1.24258E+01
   1.23051E+01  1.06044E+01  1.07714E+01  1.18519E+01  8.98210E+00  9.43610E+00  9.84239E+00  9.72556E+00  9.58234E+00  8.01358E+00
   9.47062E+00  8.00676E+00  1.08836E+01  8.53298E+00  1.00489E+01  8.04933E+00  7.57050E+00  7.04734E+00  8.24220E+00  9.15256E+00
   8.39720E+00  8.11376E+00  9.68505E+00  8.68283E+00  7.19608E+00  5.81402E+00  7.17389E+00  9.15565E+00  5.64969E+00  9.62579E+00
   9.23215E+00  6.28488E+00  8.28514E+00  7.55430E+00  6.60476E+00  6.95907E+00  6.60669E+00  7.53177E+00  6.49569E+00  8.34524E+00
   5.55499E+00  6.85305E+00  8.00721E+00  6.65222E+00  6.53757E+00  5.60714E+00  7.22669E+00  6.99251E+00  6.44815E+00  6.69501E+00
   6.56608E+00  5.31836E+00  7.11799E+00  6.01936E+00  6.08215E+00  5.47866E+00  7.11765E+00  6.57007E+00  5.41632E+00  5.80032E+00
   3.84766E+00  8.16717E+00  6.30772E+00  4.73161E+00  5.51483E+00  6.76761E+00  5.93407E+00  4.40783E+00  4.17361E+00  7.09729E+00
   5.87478E+00  5.96883E+00  6.91973E+00  8.29720E+00  6.04438E+00  4.13573E+00  7.55068E+00  5.81246E+00  7.33333E+00  7.29696E+00
   4.44436E+00  6.95109E+00  6.85387E+00  6.11645E+00  7.51257E+00  4.63289E+00  3.95121E+00  3.29997E+00  6.34025E+00  6.61168E+00
   4.12596E+00  6.98576E+00  6.61872E+00  4.54364E+00  7.00028E+00  4.02167E+00  6.12561E+00  6.68121E+00  5.29977E+00  7.64464E+00
   4.48800E+00  4.37341E+00  5.92918E+00  3.47032E+00  5.03320E+00  6.00056E+00  5.62762E+00  4.59819E+00  4.02286E+00  3.79146E+00
   5.21578E+00  3.91359E+00  5.92562E+00  5.73277E+00  5.35560E+00  4.22778E+00  3.81686E+00  6.17311E+00  5.01660E+00  6.64768E+00
   4.02768E+00  3.96067E+00  5.57493E+00  5.84027E+00  4.10375E+00  3.61369E+00  2.99790E+00  4.87244E+00
 NY points of the fit to the data follow
   3.06610E+01  3.04728E+01  3.02943E+01  3.01415E+01  3.00740E+01  3.01343E+01  3.02816E+01  3.04206E+01  3.04618E+01  3.03462E+01
   3.00619E+01  2.96614E+01  2.92154E+01  2.87558E+01  2.82806E+01  2.78163E+01  2.74672E+01  2.72234E+01  2.70076E+01  2.68074E+01
   2.66193E+01  2.64308E+01  2.62279E+01  2.60057E+01  2.57686E+01  2.55252E+01  2.52919E+01  2.50958E+01  2.49479E+01  2.48310E+01
   2.47150E+01  2.45787E+01  2.44063E+01  2.41820E+01  2.39263E+01  2.36741E+01  2.34388E+01  2.32183E+01  2.30198E+01  2.28588E+01
   2.27127E+01  2.25614E+01  2.24038E+01  2.22363E+01  2.20517E+01  2.18552E+01  2.16660E+01  2.14863E+01  2.13102E+01  2.11372E+01
   2.09679E+01  2.07986E+01  2.06275E+01  2.04572E+01  2.02869E+01  2.01141E+01  1.99406E+01  1.97705E+01  1.96043E+01  1.94415E+01
   1.92814E+01  1.91244E+01  1.89713E+01  1.88213E+01  1.86730E+01  1.85243E+01  1.83740E+01  1.82221E+01  1.80704E+01  1.79203E+01
   1.77747E+01  1.76374E+01  1.75085E+01  1.73840E+01  1.72582E+01  1.71249E+01  1.69837E+01  1.68363E+01  1.66881E+01  1.65450E+01
   1.64087E+01  1.62826E+01  1.61733E+01  1.60787E+01  1.59866E+01  1.58872E+01  1.57753E+01  1.56494E+01  1.55136E+01  1.53743E+01
   1.52326E+01  1.50869E+01  1.49408E+01  1.48077E+01  1.46937E+01  1.45946E+01  1.45082E+01  1.44439E+01  1.44398E+01  1.45115E+01
   1.46258E+01  1.47237E+01  1.47564E+01  1.46933E+01  1.45351E+01  1.43206E+01  1.40894E+01  1.38496E+01  1.35988E+01  1.33659E+01
   1.32126E+01  1.31091E+01  1.30184E+01  1.29331E+01  1.28511E+01  1.27729E+01  1.26974E+01  1.26245E+01  1.25552E+01  1.24913E+01
   1.24389E+01  1.24301E+01  1.25683E+01  1.29133E+01  1.33972E+01  1.38716E+01  1.42004E+01  1.42916E+01  1.41310E+01  1.37995E+01
   1.33949E+01  1.29570E+01  1.24859E+01  1.20422E+01  1.17922E+01  1.16905E+01  1.16271E+01  1.15778E+01  1.15365E+01  1.14999E+01
   1.14665E+01  1.14363E+01  1.14099E+01  1.13879E+01  1.13676E+01  1.13465E+01  1.13248E+01  1.13034E+01  1.12831E+01  1.12621E+01
   1.12389E+01  1.12144E+01  1.11908E+01  1.11715E+01  1.11580E+01  1.11473E+01  1.11324E+01  1.11071E+01  1.10717E+01  1.10333E+01
   1.10018E+01  1.09820E+01  1.09718E+01  1.09651E+01  1.09551E+01  1.09389E+01  1.09192E+01  1.08981E+01  1.08742E+01  1.08494E+01
   1.08259E+01  1.08015E+01  1.07767E+01  1.07523E+01  1.07335E+01  1.07271E+01  1.07304E+01  1.07352E+01  1.07377E+01  1.07410E+01
   1.07520E+01  1.07756E+01  1.08069E+01  1.08348E+01  1.08594E+01  1.08930E+01  1.09403E+01  1.10004E+01  1.10619E+01  1.11107E+01
   1.11422E+01  1.11592E+01  1.11675E+01  1.11684E+01  1.11622E+01  1.11591E+01  1.11763E+01  1.12252E+01  1.13113E+01  1.14328E+01
   1.15762E+01  1.17182E+01  1.18378E+01  1.19105E+01  1.19213E+01  1.18497E+01  1.17038E+01  1.15347E+01  1.14028E+01  1.13450E+01
   1.13716E+01  1.14735E+01  1.16261E+01  1.17988E+01  1.19772E+01  1.21524E+01  1.22974E+01  1.23836E+01  1.24441E+01  1.25101E+01
   1.25758E+01  1.26387E+01  1.27023E+01  1.27631E+01  1.28171E+01  1.28620E+01  1.28974E+01  1.29234E+01  1.29430E+01  1.29612E+01
   1.29800E+01  1.29907E+01  1.29890E+01  1.29839E+01  1.29939E+01  1.30369E+01  1.31289E+01  1.32625E+01  1.33984E+01  1.35020E+01
   1.35608E+01  1.35768E+01  1.35526E+01  1.34937E+01  1.34317E+01  1.33882E+01  1.33766E+01  1.34132E+01  1.35070E+01  1.36347E+01
   1.37760E+01  1.39643E+01  1.42100E+01  1.44803E+01  1.47361E+01  1.50167E+01  1.54193E+01  1.59446E+01  1.64933E+01  1.69214E+01
   1.70996E+01  1.69481E+01  1.65329E+01  1.60424E+01  1.55392E+01  1.49936E+01  1.44106E+01  1.39573E+01  1.37507E+01  1.36344E+01
   1.35447E+01  1.34690E+01  1.34014E+01  1.33380E+01  1.32763E+01  1.32151E+01  1.31536E+01  1.30914E+01  1.30303E+01  1.29724E+01
   1.29181E+01  1.28674E+01  1.28210E+01  1.27784E+01  1.27378E+01  1.26978E+01  1.26582E+01  1.26192E+01  1.25812E+01  1.25446E+01
   1.25100E+01  1.24770E+01  1.24446E+01  1.24126E+01  1.23801E+01  1.23465E+01  1.23119E+01  1.22763E+01  1.22395E+01  1.22027E+01
   1.21661E+01  1.21294E+01  1.20919E+01  1.20534E+01  1.20137E+01  1.19727E+01  1.19297E+01  1.18849E+01  1.18387E+01  1.17913E+01
   1.17429E+01  1.16938E+01  1.16442E+01  1.15945E+01  1.15449E+01  1.14956E+01  1.14470E+01  1.13991E+01  1.13524E+01  1.13068E+01
   1.12625E+01  1.12196E+01  1.11781E+01  1.11381E+01  1.10996E+01  1.10626E+01  1.10271E+01  1.09931E+01  1.09606E+01  1.09299E+01
   1.09009E+01  1.08738E+01  1.08488E+01  1.08263E+01  1.08067E+01  1.07904E+01  1.07779E+01  1.07699E+01  1.07674E+01  1.07713E+01
   1.07832E+01  1.08051E+01  1.08399E+01  1.08915E+01  1.09647E+01  1.10655E+01  1.12002E+01  1.13744E+01  1.15919E+01  1.18524E+01
   1.21505E+01  1.24740E+01  1.28039E+01  1.31163E+01  1.33846E+01  1.35838E+01  1.36942E+01  1.37047E+01  1.36149E+01  1.34343E+01
   1.31805E+01  1.28758E+01  1.25431E+01  1.22031E+01  1.18717E+01  1.15591E+01  1.12704E+01  1.10066E+01  1.07659E+01  1.05453E+01
   1.03416E+01  1.01519E+01  9.97400E+00  9.80655E+00  9.64869E+00  9.49995E+00  9.36010E+00  9.22900E+00  9.10651E+00  8.99247E+00
   8.88664E+00  8.78875E+00  8.69850E+00  8.61556E+00  8.53960E+00  8.47029E+00  8.40730E+00  8.35028E+00  8.29889E+00  8.25277E+00
   8.21152E+00  8.17470E+00  8.14180E+00  8.11227E+00  8.08546E+00  8.06070E+00  8.03723E+00  8.01427E+00  7.99101E+00  7.96665E+00
   7.94043E+00  7.91166E+00  7.87975E+00  7.84421E+00  7.80472E+00  7.76109E+00  7.71331E+00  7.66154E+00  7.60604E+00  7.54722E+00
   7.48558E+00  7.42168E+00  7.35615E+00  7.28962E+00  7.22269E+00  7.15592E+00  7.08985E+00  7.02489E+00  6.96142E+00  6.89971E+00
   6.83997E+00  6.78230E+00  6.72677E+00  6.67339E+00  6.62211E+00  6.57285E+00  6.52551E+00  6.47997E+00  6.43610E+00  6.39378E+00
   6.35288E+00  6.31328E+00  6.27485E+00  6.23750E+00  6.20113E+00  6.16566E+00  6.13100E+00  6.09708E+00  6.06384E+00  6.03123E+00
   5.99920E+00  5.96770E+00  5.93669E+00  5.90614E+00  5.87601E+00  5.84628E+00  5.81692E+00  5.78791E+00  5.75922E+00  5.73082E+00
   5.70271E+00  5.67486E+00  5.64726E+00  5.61989E+00  5.59273E+00  5.56579E+00  5.53904E+00  5.51248E+00  5.48610E+00  5.45989E+00
   5.43384E+00  5.40794E+00  5.38219E+00  5.35658E+00  5.33111E+00  5.30575E+00  5.28052E+00  5.25540E+00  5.23038E+00  5.20546E+00
   5.18064E+00  5.15591E+00  5.13125E+00  5.10667E+00  5.08217E+00  5.05773E+00  5.03335E+00  5.00902E+00  4.98474E+00  4.96051E+00
   4.93632E+00  4.91216E+00  4.88803E+00  4.86392E+00  4.83984E+00  4.81576E+00  4.79170E+00  4.76765E+00  4.74359E+00  4.71953E+00
   4.69545E+00  4.67137E+00  4.64727E+00  4.62314E+00  4.59898E+00  4.57478E+00  4.55055E+00  4.52627E+00
 NY background values follow
     3.056E+01    3.036E+01    3.015E+01    2.995E+01    2.974E+01    2.954E+01    2.933E+01    2.913E+01    2.892E+01    2.872E+01
     2.852E+01    2.831E+01    2.811E+01    2.791E+01    2.770E+01    2.750E+01    2.730E+01    2.710E+01    2.689E+01    2.669E+01
     2.649E+01    2.629E+01    2.609E+01    2.590E+01    2.570E+01    2.550E+01    2.530E+01    2.511E+01    2.491E+01    2.472E+01
     2.453E+01    2.433E+01    2.414E+01    2.395E+01    2.376E+01    2.357E+01    2.338E+01    2.320E+01    2.301E+01    2.283E+01
     2.264E+01    2.246E+01    2.228E+01    2.210E+01    2.192E+01    2.174E+01    2.156E+01    2.139E+01    2.121E+01    2.104E+01
     2.087E+01    2.070E+01    2.053E+01    2.036E+01    2.020E+01    2.003E+01    1.987E+01    1.971E+01    1.955E+01    1.939E+01
     1.923E+01    1.907E+01    1.892E+01    1.876E+01    1.861E+01    1.846E+01    1.831E+01    1.816E+01    1.801E+01    1.787E+01
     1.772E+01    1.758E+01    1.744E+01    1.729E+01    1.716E+01    1.702E+01    1.688E+01    1.675E+01    1.661E+01    1.648E+01
     1.635E+01    1.622E+01    1.609E+01    1.596E+01    1.584E+01    1.571E+01    1.559E+01    1.547E+01    1.535E+01    1.523E+01
     1.511E+01    1.500E+01    1.488E+01    1.477E+01    1.466E+01    1.455E+01    1.444E+01    1.434E+01    1.423E+01    1.413E+01
     1.402E+01    1.392E+01    1.382E+01    1.372E+01    1.363E+01    1.353E+01    1.344E+01    1.335E+01    1.326E+01    1.317E+01
     1.308E+01    1.299E+01    1.291E+01    1.282E+01    1.274E+01    1.266E+01    1.258E+01    1.251E+01    1.243E+01    1.236E+01
     1.228E+01    1.221E+01    1.214E+01    1.208E+01    1.201E+01    1.195E+01    1.188E+01    1.182E+01    1.176E+01    1.170E+01
     1.165E+01    1.159E+01    1.154E+01    1.149E+01    1.144E+01    1.139E+01    1.134E+01    1.130E+01    1.125E+01    1.121E+01
     1.117E+01    1.113E+01    1.109E+01    1.106E+01    1.102E+01    1.099E+01    1.096E+01    1.093E+01    1.090E+01    1.088E+01
     1.085E+01    1.083E+01    1.081E+01    1.079E+01    1.077E+01    1.075E+01    1.074E+01    1.072E+01    1.071E+01    1.070E+01
     1.069E+01    1.068E+01    1.067E+01    1.067E+01    1.066E+01    1.066E+01    1.066E+01    1.066E+01    1.066E+01    1.066E+01
     1.067E+01    1.067E+01    1.068E+01    1.069E+01    1.070E+01    1.071E+01    1.072E+01    1.073E+01    1.075E+01    1.076E+01
     1.078E+01    1.080E+01    1.082E+01    1.084E+01    1.086E+01    1.089E+01    1.091E+01    1.094E+01    1.096E+01    1.099E+01
     1.102E+01    1.105E+01    1.108E+01    1.111E+01    1.114E+01    1.117E+01    1.120E+01    1.124E+01    1.127E+01    1.130E+01
     1.134E+01    1.137E+01    1.141E+01    1.144E+01    1.148E+01    1.152E+01    1.155E+01    1.159E+01    1.163E+01    1.166E+01
     1.170E+01    1.174E+01    1.177E+01    1.181E+01    1.184E+01    1.188E+01    1.192E+01    1.195E+01    1.199E+01    1.202E+01
     1.205E+01    1.209E+01    1.212E+01    1.215E+01    1.218E+01    1.222E+01    1.225E+01    1.227E+01    1.230E+01    1.233E+01
     1.236E+01    1.238E+01    1.241E+01    1.243E+01    1.246E+01    1.248E+01    1.250E+01    1.252E+01    1.255E+01    1.256E+01
     1.258E+01    1.260E+01    1.262E+01    1.263E+01    1.265E+01    1.266E+01    1.268E+01    1.269E+01    1.270E+01    1.271E+01
     1.272E+01    1.273E+01    1.273E+01    1.274E+01    1.275E+01    1.275E+01    1.275E+01    1.276E+01    1.276E+01    1.276E+01
     1.276E+01    1.275E+01    1.275E+01    1.275E+01    1.274E+01    1.274E+01    1.273E+01    1.272E+01    1.271E+01    1.270E+01
     1.269E+01    1.268E+01    1.266E+01    1.265E+01    1.263E+01    1.261E+01    1.260E+01    1.258E+01    1.256E+01    1.253E+01
     1.251E+01    1.249E+01    1.246E+01    1.244E+01    1.241E+01    1.238E+01    1.236E+01    1.233E+01    1.230E+01    1.227E+01
     1.223E+01    1.220E+01    1.217E+01    1.214E+01    1.210E+01    1.207E+01    1.203E+01    1.199E+01    1.196E+01    1.192E+01
     1.188E+01    1.184E+01    1.180E+01    1.176E+01    1.172E+01    1.168E+01    1.163E+01    1.159E+01    1.155E+01    1.150E+01
     1.146E+01    1.142E+01    1.137E+01    1.133E+01    1.128E+01    1.123E+01    1.119E+01    1.114E+01    1.110E+01    1.105E+01
     1.100E+01    1.095E+01    1.090E+01    1.086E+01    1.081E+01    1.076E+01    1.071E+01    1.066E+01    1.061E+01    1.056E+01
     1.051E+01    1.046E+01    1.041E+01    1.036E+01    1.031E+01    1.026E+01    1.021E+01    1.016E+01    1.011E+01    1.006E+01
     1.000E+01    9.954E+00    9.902E+00    9.851E+00    9.799E+00    9.747E+00    9.696E+00    9.644E+00    9.592E+00    9.540E+00
     9.488E+00    9.437E+00    9.385E+00    9.333E+00    9.281E+00    9.230E+00    9.178E+00    9.126E+00    9.075E+00    9.023E+00
     8.972E+00    8.921E+00    8.869E+00    8.818E+00    8.767E+00    8.717E+00    8.666E+00    8.615E+00    8.565E+00    8.515E+00
     8.464E+00    8.414E+00    8.365E+00    8.315E+00    8.266E+00    8.217E+00    8.168E+00    8.119E+00    8.071E+00    8.022E+00
     7.974E+00    7.927E+00    7.879E+00    7.832E+00    7.785E+00    7.738E+00    7.692E+00    7.646E+00    7.600E+00    7.555E+00
     7.510E+00    7.465E+00    7.421E+00    7.377E+00    7.333E+00    7.290E+00    7.247E+00    7.205E+00    7.163E+00    7.121E+00
     7.080E+00    7.039E+00    6.998E+00    6.959E+00    6.919E+00    6.880E+00    6.841E+00    6.803E+00    6.765E+00    6.728E+00
     6.692E+00    6.655E+00    6.619E+00    6.584E+00    6.549E+00    6.514E+00    6.480E+00    6.446E+00    6.413E+00    6.380E+00
     6.347E+00    6.315E+00    6.283E+00    6.252E+00    6.221E+00    6.190E+00    6.159E+00    6.129E+00    6.099E+00    6.069E+00
     6.040E+00    6.011E+00    5.982E+00    5.954E+00    5.926E+00    5.898E+00    5.870E+00    5.843E+00    5.816E+00    5.789E+00
     5.762E+00    5.735E+00    5.709E+00    5.683E+00    5.657E+00    5.631E+00    5.606E+00    5.580E+00    5.555E+00    5.530E+00
     5.505E+00    5.480E+00    5.455E+00    5.431E+00    5.406E+00    5.382E+00    5.358E+00    5.333E+00    5.309E+00    5.285E+00
     5.261E+00    5.238E+00    5.214E+00    5.190E+00    5.167E+00    5.143E+00    5.120E+00    5.096E+00    5.073E+00    5.050E+00
     5.027E+00    5.004E+00    4.980E+00    4.957E+00    4.934E+00    4.911E+00    4.888E+00    4.865E+00    4.842E+00    4.820E+00
     4.797E+00    4.774E+00    4.751E+00    4.728E+00    4.705E+00    4.682E+00    4.659E+00    4.636E+00    4.614E+00    4.591E+00
     4.568E+00    4.545E+00    4.522E+00    4.499E+00    4.475E+00    4.452E+00    4.429E+00    4.406E+00
 Asp      Conc. = 9.71E+00
