 LCModel (Version 6.3-1L) Copyright: S.W. Provencher.          Ref.: Magn. Reson. Med. 30:672-679 (1993).                
 Slice#2 Row#12 Col#14  PD_05_press_1_raw_act
 36 lines in following concentration table = NCONC+1
    Conc.  %SD /Cr+PCr  Metabolite                                         
 1.31E+03  18% 116.233 Ala                                                 
    1.297 189%   0.115 Asp                                                 
    0.000 999%   0.000 Cr                                                  
   11.281 174%   1.000 PCr                                                 
    0.776 190% 6.9E-02 GABA                                                
    0.777 189% 6.9E-02 Glc                                                 
  180.742  96%  16.021 Gln                                                 
  199.638 108%  17.696 Glu                                                 
    0.000 999%   0.000 GPC                                                 
    0.000 999%   0.000 PCh                                                 
    0.000 999%   0.000 GSH                                                 
   44.474 164%   3.942 Ins                                                 
  565.328  40%  50.111 Lac                                                 
    0.000 999%   0.000 NAA                                                 
   14.625 257%   1.296 NAAG                                                
    0.263 186% 2.3E-02 Scyllo                                              
    1.297 189%   0.115 Tau                                                 
    0.976 265% 8.7E-02 -CrCH2                                              
    0.000 999%   0.000 GPC+PCh                                             
   14.625 257%   1.296 NAA+NAAG                                            
   11.281 174%   1.000 Cr+PCr                                              
  380.380  73%  33.717 Glu+Gln                                             
    0.000 999%   0.000 Lip13a                                              
    0.000 999%   0.000 Lip13b                                              
    0.000 999%   0.000 Lip09                                               
  498.570  10%  44.194 MM09                                                
    0.000 999%   0.000 Lip20                                               
  345.106  35%  30.591 MM20                                                
  177.291  26%  15.715 MM12                                                
  927.320  16%  82.199 MM14                                                
  608.343  16%  53.924 MM17                                                
    0.000 999%   0.000 Lip13a+Lip13b                                       
 1.10E+03  15%  97.914 MM14+Lip13a+Lip13b+MM12                             
  498.570  10%  44.194 MM09+Lip09                                          
  345.106  35%  30.591 MM20+Lip20                                          
   6 lines in following misc. output table
  FWHM = 0.153 ppm    S/N =   5                                            
  Data shift = 0.069 ppm                                                   
  Ph:  10 deg      -8.1 deg/ppm                                            
  alphaB,S = 8.5E+01,   2.8E+02                                            
    6 spline knots.   Ns = 9(2)                                            
   2 inflections.     1 extrema                                            
  498 points on ppm-axis = NY
      4.000000     3.992357     3.984714     3.977070     3.969427     3.961784     3.954141     3.946497     3.938854     3.931211
      3.923568     3.915925     3.908281     3.900638     3.892995     3.885352     3.877708     3.870065     3.862422     3.854779
      3.847136     3.839492     3.831849     3.824206     3.816563     3.808919     3.801276     3.793633     3.785990     3.778347
      3.770703     3.763060     3.755417     3.747774     3.740130     3.732487     3.724844     3.717201     3.709558     3.701914
      3.694271     3.686628     3.678985     3.671341     3.663698     3.656055     3.648412     3.640769     3.633125     3.625482
      3.617839     3.610196     3.602552     3.594909     3.587266     3.579623     3.571980     3.564336     3.556693     3.549050
      3.541407     3.533763     3.526120     3.518477     3.510834     3.503191     3.495547     3.487904     3.480261     3.472618
      3.464974     3.457331     3.449688     3.442045     3.434402     3.426758     3.419115     3.411472     3.403829     3.396185
      3.388542     3.380899     3.373256     3.365613     3.357969     3.350326     3.342683     3.335040     3.327396     3.319753
      3.312110     3.304467     3.296824     3.289180     3.281537     3.273894     3.266251     3.258607     3.250964     3.243321
      3.235678     3.228034     3.220391     3.212748     3.205105     3.197462     3.189818     3.182175     3.174532     3.166889
      3.159245     3.151602     3.143959     3.136316     3.128673     3.121029     3.113386     3.105743     3.098100     3.090456
      3.082813     3.075170     3.067527     3.059884     3.052240     3.044597     3.036954     3.029311     3.021667     3.014024
      3.006381     2.998738     2.991095     2.983451     2.975808     2.968165     2.960522     2.952878     2.945235     2.937592
      2.929949     2.922306     2.914662     2.907019     2.899376     2.891733     2.884089     2.876446     2.868803     2.861160
      2.853517     2.845873     2.838230     2.830587     2.822944     2.815300     2.807657     2.800014     2.792371     2.784728
      2.777084     2.769441     2.761798     2.754155     2.746511     2.738868     2.731225     2.723582     2.715939     2.708295
      2.700652     2.693009     2.685366     2.677722     2.670079     2.662436     2.654793     2.647150     2.639506     2.631863
      2.624220     2.616577     2.608933     2.601290     2.593647     2.586004     2.578361     2.570717     2.563074     2.555431
      2.547788     2.540144     2.532501     2.524858     2.517215     2.509572     2.501928     2.494285     2.486642     2.478999
      2.471355     2.463712     2.456069     2.448426     2.440783     2.433139     2.425496     2.417853     2.410210     2.402566
      2.394923     2.387280     2.379637     2.371994     2.364350     2.356707     2.349064     2.341421     2.333777     2.326134
      2.318491     2.310848     2.303205     2.295561     2.287918     2.280275     2.272632     2.264988     2.257345     2.249702
      2.242059     2.234416     2.226772     2.219129     2.211486     2.203843     2.196199     2.188556     2.180913     2.173270
      2.165627     2.157983     2.150340     2.142697     2.135054     2.127410     2.119767     2.112124     2.104481     2.096838
      2.089194     2.081551     2.073908     2.066265     2.058621     2.050978     2.043335     2.035692     2.028049     2.020405
      2.012762     2.005119     1.997476     1.989833     1.982190     1.974546     1.966903     1.959260     1.951617     1.943974
      1.936331     1.928688     1.921045     1.913402     1.905759     1.898115     1.890472     1.882829     1.875186     1.867543
      1.859900     1.852257     1.844614     1.836971     1.829327     1.821684     1.814041     1.806398     1.798755     1.791112
      1.783469     1.775826     1.768183     1.760540     1.752896     1.745253     1.737610     1.729967     1.722324     1.714681
      1.707038     1.699395     1.691752     1.684108     1.676465     1.668822     1.661179     1.653536     1.645893     1.638250
      1.630607     1.622964     1.615321     1.607677     1.600034     1.592391     1.584748     1.577105     1.569462     1.561819
      1.554176     1.546533     1.538890     1.531246     1.523603     1.515960     1.508317     1.500674     1.493031     1.485388
      1.477745     1.470102     1.462458     1.454815     1.447172     1.439529     1.431886     1.424243     1.416600     1.408957
      1.401314     1.393671     1.386027     1.378384     1.370741     1.363098     1.355455     1.347812     1.340169     1.332526
      1.324883     1.317240     1.309596     1.301953     1.294310     1.286667     1.279024     1.271381     1.263738     1.256095
      1.248452     1.240808     1.233165     1.225522     1.217879     1.210236     1.202593     1.194950     1.187307     1.179664
      1.172021     1.164377     1.156734     1.149091     1.141448     1.133805     1.126162     1.118519     1.110876     1.103233
      1.095590     1.087946     1.080303     1.072660     1.065017     1.057374     1.049731     1.042088     1.034445     1.026802
      1.019158     1.011515     1.003872     0.996229     0.988586     0.980943     0.973300     0.965657     0.958014     0.950371
      0.942727     0.935084     0.927441     0.919798     0.912155     0.904512     0.896869     0.889226     0.881583     0.873940
      0.866296     0.858653     0.851010     0.843367     0.835724     0.828081     0.820438     0.812795     0.805152     0.797508
      0.789865     0.782222     0.774579     0.766936     0.759293     0.751650     0.744007     0.736364     0.728721     0.721077
      0.713434     0.705791     0.698148     0.690505     0.682862     0.675219     0.667576     0.659933     0.652290     0.644646
      0.637003     0.629360     0.621717     0.614074     0.606431     0.598788     0.591145     0.583502     0.575858     0.568215
      0.560572     0.552929     0.545286     0.537643     0.530000     0.522357     0.514714     0.507071     0.499427     0.491784
      0.484141     0.476498     0.468855     0.461212     0.453569     0.445925     0.438282     0.430639     0.422996     0.415353
      0.407710     0.400067     0.392424     0.384780     0.377137     0.369494     0.361851     0.354208     0.346565     0.338922
      0.331278     0.323635     0.315992     0.308349     0.300706     0.293063     0.285420     0.277777     0.270133     0.262490
      0.254847     0.247204     0.239561     0.231918     0.224275     0.216631     0.208988     0.201345
 NY phased data points follow
   2.38027E+00  9.56843E-01  8.41155E-01  1.84359E+00  1.45875E+00  2.83256E+00  1.53399E+00  1.51755E+00  8.93751E-01  1.49728E+00
   1.34546E+00  2.16274E+00  1.87355E+00  1.77337E+00  9.31119E-01  1.00055E+00  2.47685E-01  1.08862E+00  1.38221E+00  3.05484E-01
   8.47655E-01  9.43539E-01  1.83299E-01  1.55004E+00  8.39664E-01  2.00042E+00  8.02029E-01  1.18810E+00  4.62689E-01  1.19483E+00
   7.30668E-01  9.77451E-01  1.09486E+00  4.67733E-01  2.30871E-01  6.61606E-01  1.21045E+00  1.04094E+00  1.22050E+00  1.36756E+00
   1.19087E+00  1.12848E-01  1.25962E+00  1.05737E+00  4.35374E-01  3.03005E-01  1.23160E+00  8.79313E-01  9.18300E-01 -3.16306E-01
   1.22318E+00  9.45364E-01  1.73104E+00  7.15753E-01  1.00635E+00 -4.95195E-01  1.50773E+00  4.97712E-01  5.93348E-01  1.57919E+00
   9.22499E-02  7.86309E-01  1.04704E+00  1.91264E+00  6.97483E-01  1.40323E+00  1.06999E+00  1.77844E+00  1.41080E+00  3.32253E-01
   1.43106E+00 -1.00030E+00  3.27630E-01  1.41664E+00  1.56186E+00  5.59364E-01  1.01990E+00  6.43724E-01  1.73137E+00  1.64496E+00
   6.73354E-01  1.40621E+00  8.98960E-01  4.08144E-01  2.31824E+00  6.18012E-01  1.28763E+00  1.31716E-01  3.42346E-01  5.40455E-02
   6.30322E-01  2.36427E+00  4.43896E-02  1.69496E+00  2.24571E+00  1.47684E+00  9.98447E-01  1.76084E+00  1.41991E+00  9.88595E-01
   5.54549E-01 -1.45258E-01  6.32842E-01  2.82015E-01  8.51536E-01  1.13908E-02  8.44926E-01  1.00896E+00  1.17237E+00  7.54443E-01
  -3.32506E-01  1.59616E+00 -1.07909E-01  3.47078E-01  3.67530E-01  3.30946E-01  1.28054E+00  1.55830E+00  6.54143E-01  1.15847E-02
   1.86704E+00  1.90016E+00  3.01119E+00  1.33430E+00 -8.26456E-01  7.09548E-01 -3.03642E-01  1.79663E+00  1.32172E+00  6.54523E-01
   1.00300E+00  1.08717E+00  1.51579E+00  1.83923E+00  1.42290E-01  6.84097E-01  6.90632E-01  3.76090E-01  1.40091E+00  1.12545E+00
  -1.08705E-01  1.15411E-01  1.27751E+00  1.08240E+00  2.53938E-01 -1.71469E-01  1.52310E+00  1.79010E+00 -2.97532E-01  5.61751E-01
   7.53997E-01  3.38444E-01  1.32519E+00  2.72702E-01  1.82926E+00  9.01878E-01  1.76202E-02  1.52172E+00  1.09844E+00  9.00225E-01
  -3.80853E-01  9.25245E-01 -2.30210E-01  1.55073E+00  1.43183E+00  1.63815E+00  6.23777E-01 -4.31000E-01  1.23562E+00  1.64358E-01
   3.36193E-01  1.87535E+00 -1.51257E-01  8.77813E-01  8.42065E-02  9.95388E-01  9.15541E-01  6.66039E-01  1.03716E+00  8.80976E-01
   1.22123E+00  1.04741E-01  4.05268E-02  1.51475E+00  5.44215E-01  7.06582E-01  1.28213E+00  6.04156E-01  3.34610E-01  7.88393E-01
   5.94271E-01  5.79659E-01  1.17769E+00  4.17670E-01  2.42521E-01  7.83546E-01  3.17993E-01  9.03736E-01  5.64230E-01 -1.81856E-01
   3.01541E-01  1.26612E+00  6.61139E-02 -8.12830E-01  2.05076E+00  6.11551E-01 -9.13516E-02  9.48251E-01  9.63145E-01  9.57947E-01
   1.81799E+00  8.64626E-04  6.90845E-01  1.16862E+00  1.55108E+00  6.90232E-01 -3.81576E-01 -2.27608E-01  7.59796E-01 -2.03000E-01
   2.12783E+00  1.50887E+00  1.62830E+00  9.53915E-01 -6.98156E-02  1.11694E+00  2.00829E+00 -1.77132E-01  6.78874E-01  8.95128E-01
   2.07891E+00  5.68667E-01  1.54730E+00  5.15592E-01  9.71495E-01  1.22703E+00  8.92605E-01  1.08080E+00  1.75519E+00  7.37128E-01
   1.55819E+00  1.26993E+00  3.23185E-01  8.76882E-01  7.03022E-01  1.14534E+00  1.30470E+00  1.37937E+00  1.80396E+00  2.30317E+00
   2.63332E+00  2.34863E+00  2.91231E+00  1.75647E+00  2.78113E+00  4.25002E+00  3.89119E+00  2.51740E+00  2.06849E+00  1.27111E+00
   1.28041E+00  3.18060E-01  2.08954E+00 -6.90933E-01  1.90515E+00  1.32137E+00  2.63895E+00  1.64151E+00  1.17160E+00  1.76380E+00
   1.51252E+00  1.63806E+00  2.08048E+00  2.53296E+00  1.36894E+00  1.95515E+00  2.48234E+00  2.51090E+00  2.26006E+00  1.91415E+00
   1.70643E+00  2.15977E+00  3.09270E+00  2.62786E+00  2.93572E+00  1.61013E+00  2.28402E+00  3.15150E+00  4.04734E+00  3.94878E+00
   3.32470E+00  3.09198E+00  3.92288E+00  3.99487E+00  2.90689E+00  3.38666E+00  4.86919E+00  4.98319E+00  3.04834E+00  4.87375E+00
   4.29266E+00  4.32488E+00  4.96408E+00  5.13911E+00  4.41536E+00  5.96990E+00  5.42158E+00  5.81925E+00  5.80729E+00  4.18884E+00
   5.85546E+00  6.59986E+00  7.67321E+00  6.49898E+00  7.28208E+00  7.06701E+00  7.33591E+00  8.26998E+00  7.74583E+00  7.38548E+00
   7.94543E+00  7.73797E+00  8.81054E+00  8.41619E+00  8.54331E+00  7.78740E+00  8.55738E+00  8.64227E+00  8.88830E+00  9.41852E+00
   8.97028E+00  8.49449E+00  8.87850E+00  7.95744E+00  8.56758E+00  9.19765E+00  6.91203E+00  8.41172E+00  7.08495E+00  6.88352E+00
   9.26489E+00  7.26666E+00  7.76070E+00  7.80073E+00  6.84173E+00  7.30318E+00  6.39681E+00  5.51613E+00  6.27583E+00  7.23167E+00
   7.12944E+00  5.46689E+00  4.05719E+00  5.07991E+00  4.38927E+00  3.86815E+00  5.45801E+00  3.75287E+00  4.11657E+00  4.56243E+00
   5.97044E+00  5.13876E+00  3.05583E+00  3.37071E+00  4.23607E+00  4.00404E+00  3.98240E+00  3.64196E+00  4.81837E+00  3.47521E+00
   4.24836E+00  4.38820E+00  3.69949E+00  4.66823E+00  2.91683E+00  4.59529E+00  4.65327E+00  4.61363E+00  3.48665E+00  4.90316E+00
   4.84280E+00  4.04674E+00  3.81939E+00  3.74118E+00  4.59792E+00  4.23545E+00  3.70857E+00  3.97394E+00  3.84903E+00  2.96590E+00
   5.29994E+00  3.67157E+00  5.26123E+00  5.40490E+00  5.58987E+00  5.36408E+00  4.41297E+00  4.02759E+00  2.70745E+00  3.91759E+00
   3.68853E+00  4.60679E+00  3.12797E+00  3.13040E+00  2.03645E+00  3.12432E+00  4.89370E+00  3.48377E+00  3.72912E+00  3.18698E+00
   2.53466E+00  3.47754E+00  2.50895E+00  2.93014E+00  4.01305E+00  3.35594E+00  2.59771E+00  2.93542E+00  3.49231E+00  3.50169E+00
   2.97794E+00  2.79537E+00  3.17758E+00  3.28923E+00  2.85015E+00  2.06685E+00  2.38546E+00  2.16097E+00  1.65714E+00  3.09051E+00
   2.38781E+00  3.22929E+00  1.31735E+00  2.97225E+00  3.64654E+00  2.54225E+00  1.93371E+00  2.10653E+00  2.66645E+00  3.64869E+00
   2.28103E+00  2.77037E+00  1.30502E+00  2.15304E+00  1.41152E+00  2.34120E+00  2.20669E+00  1.21521E+00  1.22998E+00  8.90866E-01
   1.36639E+00  1.81453E+00  2.51799E+00  2.10692E+00  1.28360E+00  1.38451E+00  1.29850E+00  1.07061E+00  1.26784E+00  2.03915E+00
   1.37171E+00  7.76397E-01  9.66579E-01  1.12777E+00  5.88849E-01  1.04412E+00  1.89293E+00  1.10249E+00  1.07930E+00  2.86172E-01
   1.37261E+00  1.21445E+00  5.91172E-01 -1.89866E-01  1.64686E+00  1.32775E+00  1.37690E+00  1.55182E+00  4.45386E-01  1.20530E+00
   1.35514E+00  2.12304E+00  9.73826E-01  9.78511E-01 -1.83462E-01 -8.34149E-01  8.49411E-01  6.94949E-01  1.55860E+00  1.24571E+00
   1.05148E-01  1.86544E+00  3.84604E-01  6.82178E-01  4.90803E-01  6.53298E-01  1.53443E+00 -9.93447E-01
 NY points of the fit to the data follow
   1.01135E+00  1.12005E+00  9.67838E-01  1.08096E+00  9.58709E-01  1.09402E+00  1.01045E+00  1.18701E+00  1.09590E+00  1.27969E+00
   1.14165E+00  1.30710E+00  1.11033E+00  1.26222E+00  1.01225E+00  1.19393E+00  9.35384E-01  1.14952E+00  9.01735E-01  1.12787E+00
   8.88735E-01  1.12721E+00  9.06522E-01  1.13196E+00  9.44339E-01  1.12604E+00  9.69607E-01  1.08816E+00  9.57936E-01  1.00018E+00
   9.15815E-01  9.04747E-01  9.04804E-01  8.74408E-01  9.63252E-01  9.17071E-01  1.07131E+00  9.90396E-01  1.15732E+00  1.00928E+00
   1.15013E+00  9.70063E-01  1.11687E+00  9.44336E-01  1.10331E+00  9.64817E-01  1.13874E+00  1.04256E+00  1.17042E+00  1.05815E+00
   1.13199E+00  1.02497E+00  1.06087E+00  9.66237E-01  9.85172E-01  9.41801E-01  9.78082E-01  9.59554E-01  9.89691E-01  9.81241E-01
   1.00013E+00  9.96879E-01  1.00145E+00  9.89276E-01  9.91445E-01  9.78056E-01  9.80201E-01  9.67564E-01  9.70529E-01  9.59761E-01
   9.63866E-01  9.52501E-01  9.55072E-01  9.41820E-01  9.43032E-01  9.28158E-01  9.28102E-01  9.12418E-01  9.11845E-01  8.96381E-01
   8.95418E-01  8.80897E-01  8.79989E-01  8.66174E-01  8.65001E-01  8.51276E-01  8.49220E-01  8.35920E-01  8.33213E-01  8.21038E-01
   8.18495E-01  8.08191E-01  8.06447E-01  7.98586E-01  7.98374E-01  7.92872E-01  7.93508E-01  7.89845E-01  7.90965E-01  7.88684E-01
   7.90005E-01  7.89056E-01  7.91027E-01  7.91778E-01  7.95174E-01  7.97685E-01  8.02691E-01  8.07050E-01  8.16010E-01  8.27203E-01
   8.38261E-01  8.56861E-01  8.68076E-01  8.93454E-01  9.03620E-01  9.35056E-01  9.43236E-01  9.79783E-01  9.84846E-01  1.02469E+00
   1.02538E+00  1.06646E+00  1.06241E+00  1.10309E+00  1.09440E+00  1.13320E+00  1.11990E+00  1.15524E+00  1.13756E+00  1.16751E+00
   1.14511E+00  1.16664E+00  1.14030E+00  1.15188E+00  1.12404E+00  1.12732E+00  1.09950E+00  1.09597E+00  1.06940E+00  1.06108E+00
   1.03597E+00  1.02347E+00  9.99789E-01  9.83712E-01  9.62407E-01  9.45045E-01  9.26442E-01  9.09454E-01  8.94341E-01  8.80863E-01
   8.66895E-01  8.54427E-01  8.41007E-01  8.29648E-01  8.17060E-01  8.06983E-01  7.95448E-01  7.86546E-01  7.76015E-01  7.68341E-01
   7.58705E-01  7.52227E-01  7.43355E-01  7.37826E-01  7.29582E-01  7.24725E-01  7.17559E-01  7.13473E-01  7.07580E-01  7.04320E-01
   6.99923E-01  6.97352E-01  6.94426E-01  6.92470E-01  6.91316E-01  6.89666E-01  6.87974E-01  6.85207E-01  6.80642E-01  6.73168E-01
   6.66536E-01  6.53598E-01  6.46861E-01  6.32392E-01  6.33675E-01  6.22335E-01  6.33628E-01  6.29490E-01  6.51721E-01  6.49408E-01
   6.78688E-01  6.67040E-01  6.81652E-01  6.55066E-01  6.62314E-01  6.26299E-01  6.39271E-01  6.04988E-01  6.43236E-01  6.06778E-01
   6.72307E-01  6.27420E-01  7.15502E-01  6.53483E-01  7.47629E-01  6.61496E-01  7.61813E-01  6.55920E-01  7.61321E-01  6.43894E-01
   7.55878E-01  6.38037E-01  7.57689E-01  6.50971E-01  7.84090E-01  6.94149E-01  8.34664E-01  7.57339E-01  8.79843E-01  8.06277E-01
   9.03203E-01  8.40194E-01  9.12891E-01  8.79765E-01  9.46542E-01  9.38853E-01  1.00933E+00  1.01927E+00  1.09020E+00  1.09795E+00
   1.16177E+00  1.15370E+00  1.20273E+00  1.18158E+00  1.24012E+00  1.21798E+00  1.29746E+00  1.28517E+00  1.39850E+00  1.38581E+00
   1.51665E+00  1.49665E+00  1.63757E+00  1.60812E+00  1.74593E+00  1.70999E+00  1.84867E+00  1.81424E+00  1.94313E+00  1.91484E+00
   2.02857E+00  2.00466E+00  2.09847E+00  2.07443E+00  2.14196E+00  2.11263E+00  2.15417E+00  2.11817E+00  2.12999E+00  2.08977E+00
   2.08086E+00  2.04054E+00  2.01602E+00  1.98030E+00  1.94800E+00  1.91027E+00  1.87549E+00  1.83969E+00  1.80415E+00  1.77182E+00
   1.74004E+00  1.71545E+00  1.69083E+00  1.68043E+00  1.67234E+00  1.68094E+00  1.69362E+00  1.72353E+00  1.76218E+00  1.81357E+00
   1.87594E+00  1.95244E+00  2.04371E+00  2.14929E+00  2.27070E+00  2.40510E+00  2.55505E+00  2.71320E+00  2.88427E+00  3.05882E+00
   3.24036E+00  3.41956E+00  3.59871E+00  3.76901E+00  3.93212E+00  4.08108E+00  4.21701E+00  4.33469E+00  4.43601E+00  4.51862E+00
   4.58595E+00  4.63885E+00  4.68268E+00  4.72204E+00  4.76521E+00  4.82144E+00  4.90540E+00  5.04088E+00  5.28498E+00  5.69095E+00
   5.95273E+00  6.47798E+00  6.63512E+00  7.14744E+00  7.13588E+00  7.53465E+00  7.26148E+00  7.71041E+00  7.38150E+00  7.88910E+00
   7.60278E+00  8.10134E+00  7.87110E+00  8.30865E+00  8.14230E+00  8.49794E+00  8.40641E+00  8.63871E+00  8.63814E+00  8.77460E+00
   8.78294E+00  8.67478E+00  8.69252E+00  8.33819E+00  8.45682E+00  7.96191E+00  8.18109E+00  7.71821E+00  8.07941E+00  7.63781E+00
   8.00427E+00  7.46623E+00  7.70611E+00  7.12412E+00  7.28257E+00  6.78643E+00  6.87753E+00  6.52161E+00  6.60283E+00  6.38718E+00
   6.29810E+00  5.97279E+00  5.72181E+00  5.38559E+00  5.08205E+00  4.82826E+00  4.52984E+00  4.49661E+00  4.38006E+00  4.42837E+00
   4.37473E+00  4.38300E+00  4.33295E+00  4.29560E+00  4.25560E+00  4.21438E+00  4.18489E+00  4.16597E+00  4.16326E+00  4.17432E+00
   4.14465E+00  4.07213E+00  4.00954E+00  3.90038E+00  3.82582E+00  3.70791E+00  3.63740E+00  3.59913E+00  3.58198E+00  3.58157E+00
   3.59551E+00  3.62236E+00  3.66080E+00  3.70975E+00  3.76784E+00  3.83374E+00  3.90574E+00  3.98210E+00  4.06077E+00  4.13969E+00
   4.21658E+00  4.28926E+00  4.35544E+00  4.41310E+00  4.46025E+00  4.49530E+00  4.51683E+00  4.52392E+00  4.51588E+00  4.49260E+00
   4.45421E+00  4.40137E+00  4.33495E+00  4.25626E+00  4.16669E+00  4.06796E+00  3.96175E+00  3.84991E+00  3.73412E+00  3.61613E+00
   3.49744E+00  3.37948E+00  3.26343E+00  3.15036E+00  3.04103E+00  2.93614E+00  2.83607E+00  2.74120E+00  2.65160E+00  2.56737E+00
   2.48839E+00  2.41456E+00  2.34564E+00  2.28144E+00  2.22162E+00  2.16597E+00  2.11415E+00  2.06591E+00  2.02094E+00  1.97902E+00
   1.93986E+00  1.90327E+00  1.86899E+00  1.83688E+00  1.80669E+00  1.77834E+00  1.75160E+00  1.72640E+00  1.70255E+00  1.68002E+00
   1.65863E+00  1.63836E+00  1.61906E+00  1.60073E+00  1.58322E+00  1.56654E+00  1.55057E+00  1.53533E+00  1.52070E+00  1.50671E+00
   1.49324E+00  1.48034E+00  1.46789E+00  1.45595E+00  1.44440E+00  1.43330E+00  1.42255E+00  1.41220E+00  1.40216E+00  1.39247E+00
   1.38306E+00  1.37397E+00  1.36512E+00  1.35656E+00  1.34822E+00  1.34015E+00  1.33226E+00  1.32462E+00  1.31714E+00  1.30989E+00
   1.30279E+00  1.29589E+00  1.28912E+00  1.28254E+00  1.27608E+00  1.26978E+00  1.26359E+00  1.25756E+00  1.25162E+00  1.24582E+00
   1.24010E+00  1.23452E+00  1.22899E+00  1.22359E+00  1.21824E+00  1.21301E+00  1.20781E+00  1.20271E+00  1.19765E+00  1.19266E+00
   1.18770E+00  1.18281E+00  1.17792E+00  1.17309E+00  1.16824E+00  1.16343E+00  1.15859E+00  1.15376E+00
 NY background values follow
     9.965E-01    9.962E-01    9.959E-01    9.955E-01    9.952E-01    9.949E-01    9.946E-01    9.943E-01    9.940E-01    9.937E-01
     9.933E-01    9.930E-01    9.927E-01    9.924E-01    9.921E-01    9.918E-01    9.915E-01    9.911E-01    9.908E-01    9.905E-01
     9.902E-01    9.899E-01    9.896E-01    9.893E-01    9.889E-01    9.886E-01    9.883E-01    9.880E-01    9.877E-01    9.874E-01
     9.871E-01    9.868E-01    9.864E-01    9.861E-01    9.858E-01    9.855E-01    9.852E-01    9.849E-01    9.846E-01    9.843E-01
     9.840E-01    9.836E-01    9.833E-01    9.830E-01    9.827E-01    9.824E-01    9.821E-01    9.818E-01    9.815E-01    9.812E-01
     9.808E-01    9.805E-01    9.802E-01    9.799E-01    9.796E-01    9.793E-01    9.790E-01    9.787E-01    9.784E-01    9.781E-01
     9.777E-01    9.774E-01    9.771E-01    9.768E-01    9.765E-01    9.762E-01    9.759E-01    9.756E-01    9.753E-01    9.750E-01
     9.747E-01    9.744E-01    9.740E-01    9.737E-01    9.734E-01    9.731E-01    9.728E-01    9.725E-01    9.722E-01    9.719E-01
     9.716E-01    9.713E-01    9.710E-01    9.707E-01    9.704E-01    9.701E-01    9.698E-01    9.695E-01    9.692E-01    9.688E-01
     9.685E-01    9.682E-01    9.679E-01    9.676E-01    9.673E-01    9.670E-01    9.667E-01    9.664E-01    9.661E-01    9.658E-01
     9.655E-01    9.652E-01    9.649E-01    9.646E-01    9.643E-01    9.640E-01    9.637E-01    9.634E-01    9.631E-01    9.628E-01
     9.625E-01    9.622E-01    9.619E-01    9.616E-01    9.613E-01    9.610E-01    9.607E-01    9.604E-01    9.601E-01    9.598E-01
     9.595E-01    9.592E-01    9.589E-01    9.586E-01    9.583E-01    9.580E-01    9.577E-01    9.574E-01    9.571E-01    9.568E-01
     9.565E-01    9.563E-01    9.560E-01    9.557E-01    9.554E-01    9.551E-01    9.548E-01    9.545E-01    9.542E-01    9.539E-01
     9.536E-01    9.533E-01    9.530E-01    9.527E-01    9.524E-01    9.521E-01    9.519E-01    9.516E-01    9.513E-01    9.510E-01
     9.507E-01    9.504E-01    9.501E-01    9.498E-01    9.495E-01    9.492E-01    9.490E-01    9.487E-01    9.484E-01    9.481E-01
     9.478E-01    9.475E-01    9.472E-01    9.469E-01    9.467E-01    9.464E-01    9.461E-01    9.458E-01    9.455E-01    9.452E-01
     9.449E-01    9.447E-01    9.444E-01    9.441E-01    9.438E-01    9.435E-01    9.432E-01    9.430E-01    9.427E-01    9.424E-01
     9.421E-01    9.418E-01    9.416E-01    9.413E-01    9.410E-01    9.407E-01    9.404E-01    9.402E-01    9.399E-01    9.396E-01
     9.393E-01    9.390E-01    9.388E-01    9.385E-01    9.382E-01    9.379E-01    9.376E-01    9.374E-01    9.371E-01    9.368E-01
     9.365E-01    9.363E-01    9.360E-01    9.357E-01    9.354E-01    9.351E-01    9.349E-01    9.346E-01    9.343E-01    9.340E-01
     9.338E-01    9.335E-01    9.332E-01    9.329E-01    9.327E-01    9.324E-01    9.321E-01    9.318E-01    9.316E-01    9.313E-01
     9.310E-01    9.307E-01    9.305E-01    9.302E-01    9.299E-01    9.296E-01    9.294E-01    9.291E-01    9.288E-01    9.286E-01
     9.283E-01    9.280E-01    9.277E-01    9.275E-01    9.272E-01    9.269E-01    9.266E-01    9.264E-01    9.261E-01    9.258E-01
     9.255E-01    9.253E-01    9.250E-01    9.247E-01    9.245E-01    9.242E-01    9.239E-01    9.236E-01    9.234E-01    9.231E-01
     9.228E-01    9.225E-01    9.223E-01    9.220E-01    9.217E-01    9.214E-01    9.212E-01    9.209E-01    9.206E-01    9.204E-01
     9.201E-01    9.198E-01    9.195E-01    9.193E-01    9.190E-01    9.187E-01    9.184E-01    9.182E-01    9.179E-01    9.176E-01
     9.173E-01    9.171E-01    9.168E-01    9.165E-01    9.162E-01    9.160E-01    9.157E-01    9.154E-01    9.151E-01    9.149E-01
     9.146E-01    9.143E-01    9.140E-01    9.138E-01    9.135E-01    9.132E-01    9.129E-01    9.127E-01    9.124E-01    9.121E-01
     9.118E-01    9.116E-01    9.113E-01    9.110E-01    9.107E-01    9.104E-01    9.102E-01    9.099E-01    9.096E-01    9.093E-01
     9.091E-01    9.088E-01    9.085E-01    9.082E-01    9.079E-01    9.077E-01    9.074E-01    9.071E-01    9.068E-01    9.065E-01
     9.063E-01    9.060E-01    9.057E-01    9.054E-01    9.051E-01    9.048E-01    9.046E-01    9.043E-01    9.040E-01    9.037E-01
     9.034E-01    9.031E-01    9.029E-01    9.026E-01    9.023E-01    9.020E-01    9.017E-01    9.014E-01    9.012E-01    9.009E-01
     9.006E-01    9.003E-01    9.000E-01    8.997E-01    8.994E-01    8.991E-01    8.989E-01    8.986E-01    8.983E-01    8.980E-01
     8.977E-01    8.974E-01    8.971E-01    8.968E-01    8.965E-01    8.963E-01    8.960E-01    8.957E-01    8.954E-01    8.951E-01
     8.948E-01    8.945E-01    8.942E-01    8.939E-01    8.936E-01    8.933E-01    8.930E-01    8.927E-01    8.924E-01    8.921E-01
     8.918E-01    8.916E-01    8.913E-01    8.910E-01    8.907E-01    8.904E-01    8.901E-01    8.898E-01    8.895E-01    8.892E-01
     8.889E-01    8.886E-01    8.883E-01    8.880E-01    8.877E-01    8.874E-01    8.871E-01    8.868E-01    8.865E-01    8.862E-01
     8.859E-01    8.856E-01    8.853E-01    8.850E-01    8.847E-01    8.844E-01    8.841E-01    8.838E-01    8.835E-01    8.832E-01
     8.829E-01    8.825E-01    8.822E-01    8.819E-01    8.816E-01    8.813E-01    8.810E-01    8.807E-01    8.804E-01    8.801E-01
     8.798E-01    8.795E-01    8.792E-01    8.789E-01    8.786E-01    8.783E-01    8.780E-01    8.776E-01    8.773E-01    8.770E-01
     8.767E-01    8.764E-01    8.761E-01    8.758E-01    8.755E-01    8.752E-01    8.749E-01    8.745E-01    8.742E-01    8.739E-01
     8.736E-01    8.733E-01    8.730E-01    8.727E-01    8.724E-01    8.721E-01    8.717E-01    8.714E-01    8.711E-01    8.708E-01
     8.705E-01    8.702E-01    8.699E-01    8.695E-01    8.692E-01    8.689E-01    8.686E-01    8.683E-01    8.680E-01    8.677E-01
     8.673E-01    8.670E-01    8.667E-01    8.664E-01    8.661E-01    8.658E-01    8.654E-01    8.651E-01    8.648E-01    8.645E-01
     8.642E-01    8.638E-01    8.635E-01    8.632E-01    8.629E-01    8.626E-01    8.623E-01    8.619E-01    8.616E-01    8.613E-01
     8.610E-01    8.607E-01    8.603E-01    8.600E-01    8.597E-01    8.594E-01    8.590E-01    8.587E-01    8.584E-01    8.581E-01
     8.578E-01    8.574E-01    8.571E-01    8.568E-01    8.565E-01    8.561E-01    8.558E-01    8.555E-01    8.552E-01    8.549E-01
     8.545E-01    8.542E-01    8.539E-01    8.536E-01    8.532E-01    8.529E-01    8.526E-01    8.523E-01    8.519E-01    8.516E-01
     8.513E-01    8.510E-01    8.506E-01    8.503E-01    8.500E-01    8.497E-01    8.493E-01    8.490E-01
 Ala      Conc. = 1.31E+03
