 LCModel (Version 6.3-1L) Copyright: S.W. Provencher.          Ref.: Magn. Reson. Med. 30:672-679 (1993).                
 Slice#3 Row#7 Col#4  PD_05_press_1_raw_act
 36 lines in following concentration table = NCONC+1
    Conc.  %SD /Cr+PCr  Metabolite                                         
    4.124 999% 3.3E-03 Ala                                                 
    0.000 999%   0.000 Asp                                                 
  451.231  32%   0.357 Cr                                                  
  812.784  18%   0.643 PCr                                                 
    0.000 999%   0.000 GABA                                                
    0.000 999%   0.000 Glc                                                 
  596.916  24%   0.472 Gln                                                 
 1.31E+03  13%   1.033 Glu                                                 
  316.387   4%   0.250 GPC                                                 
    0.000 999%   0.000 PCh                                                 
  306.910  15%   0.243 GSH                                                 
   28.364 521% 2.2E-02 Ins                                                 
    0.000 999%   0.000 Lac                                                 
 1.73E+03   4%   1.369 NAA                                                 
  170.773  46%   0.135 NAAG                                                
    0.000 999%   0.000 Scyllo                                              
    0.000 999%   0.000 Tau                                                 
    0.000 999%   0.000 -CrCH2                                              
  316.387   4%   0.250 GPC+PCh                                             
 1.90E+03   3%   1.504 NAA+NAAG                                            
 1.26E+03   3%   1.000 Cr+PCr                                              
 1.90E+03  12%   1.505 Glu+Gln                                             
    0.000 999%   0.000 Lip13a                                              
    0.000 999%   0.000 Lip13b                                              
    0.000 999%   0.000 Lip09                                               
  746.379  18%   0.590 MM09                                                
    0.758 999% 6.0E-04 Lip20                                               
 1.86E+03  12%   1.471 MM20                                                
  196.306  37%   0.155 MM12                                                
    4.881 999% 3.9E-03 MM14                                                
  687.740  19%   0.544 MM17                                                
    0.000 999%   0.000 Lip13a+Lip13b                                       
  201.187  99%   0.159 MM14+Lip13a+Lip13b+MM12                             
  746.379  18%   0.590 MM09+Lip09                                          
 1.86E+03  12%   1.472 MM20+Lip20                                          
   6 lines in following misc. output table
  FWHM = 0.054 ppm    S/N =  15                                            
  Data shift = 0.038 ppm                                                   
  Ph: -10 deg      -4.6 deg/ppm                                            
  alphaB,S = 5.1E-01,   1.8E+02                                            
   14 spline knots.   Ns = 7(1)                                            
  ( 8) 2 infls.   ( 1) 1 extrs.                                            
  498 points on ppm-axis = NY
      4.000000     3.992357     3.984714     3.977070     3.969427     3.961784     3.954141     3.946497     3.938854     3.931211
      3.923568     3.915925     3.908281     3.900638     3.892995     3.885352     3.877708     3.870065     3.862422     3.854779
      3.847136     3.839492     3.831849     3.824206     3.816563     3.808919     3.801276     3.793633     3.785990     3.778347
      3.770703     3.763060     3.755417     3.747774     3.740130     3.732487     3.724844     3.717201     3.709558     3.701914
      3.694271     3.686628     3.678985     3.671341     3.663698     3.656055     3.648412     3.640769     3.633125     3.625482
      3.617839     3.610196     3.602552     3.594909     3.587266     3.579623     3.571980     3.564336     3.556693     3.549050
      3.541407     3.533763     3.526120     3.518477     3.510834     3.503191     3.495547     3.487904     3.480261     3.472618
      3.464974     3.457331     3.449688     3.442045     3.434402     3.426758     3.419115     3.411472     3.403829     3.396185
      3.388542     3.380899     3.373256     3.365613     3.357969     3.350326     3.342683     3.335040     3.327396     3.319753
      3.312110     3.304467     3.296824     3.289180     3.281537     3.273894     3.266251     3.258607     3.250964     3.243321
      3.235678     3.228034     3.220391     3.212748     3.205105     3.197462     3.189818     3.182175     3.174532     3.166889
      3.159245     3.151602     3.143959     3.136316     3.128673     3.121029     3.113386     3.105743     3.098100     3.090456
      3.082813     3.075170     3.067527     3.059884     3.052240     3.044597     3.036954     3.029311     3.021667     3.014024
      3.006381     2.998738     2.991095     2.983451     2.975808     2.968165     2.960522     2.952878     2.945235     2.937592
      2.929949     2.922306     2.914662     2.907019     2.899376     2.891733     2.884089     2.876446     2.868803     2.861160
      2.853517     2.845873     2.838230     2.830587     2.822944     2.815300     2.807657     2.800014     2.792371     2.784728
      2.777084     2.769441     2.761798     2.754155     2.746511     2.738868     2.731225     2.723582     2.715939     2.708295
      2.700652     2.693009     2.685366     2.677722     2.670079     2.662436     2.654793     2.647150     2.639506     2.631863
      2.624220     2.616577     2.608933     2.601290     2.593647     2.586004     2.578361     2.570717     2.563074     2.555431
      2.547788     2.540144     2.532501     2.524858     2.517215     2.509572     2.501928     2.494285     2.486642     2.478999
      2.471355     2.463712     2.456069     2.448426     2.440783     2.433139     2.425496     2.417853     2.410210     2.402566
      2.394923     2.387280     2.379637     2.371994     2.364350     2.356707     2.349064     2.341421     2.333777     2.326134
      2.318491     2.310848     2.303205     2.295561     2.287918     2.280275     2.272632     2.264988     2.257345     2.249702
      2.242059     2.234416     2.226772     2.219129     2.211486     2.203843     2.196199     2.188556     2.180913     2.173270
      2.165627     2.157983     2.150340     2.142697     2.135054     2.127410     2.119767     2.112124     2.104481     2.096838
      2.089194     2.081551     2.073908     2.066265     2.058621     2.050978     2.043335     2.035692     2.028049     2.020405
      2.012762     2.005119     1.997476     1.989833     1.982190     1.974546     1.966903     1.959260     1.951617     1.943974
      1.936331     1.928688     1.921045     1.913402     1.905759     1.898115     1.890472     1.882829     1.875186     1.867543
      1.859900     1.852257     1.844614     1.836971     1.829327     1.821684     1.814041     1.806398     1.798755     1.791112
      1.783469     1.775826     1.768183     1.760540     1.752896     1.745253     1.737610     1.729967     1.722324     1.714681
      1.707038     1.699395     1.691752     1.684108     1.676465     1.668822     1.661179     1.653536     1.645893     1.638250
      1.630607     1.622964     1.615321     1.607677     1.600034     1.592391     1.584748     1.577105     1.569462     1.561819
      1.554176     1.546533     1.538890     1.531246     1.523603     1.515960     1.508317     1.500674     1.493031     1.485388
      1.477745     1.470102     1.462458     1.454815     1.447172     1.439529     1.431886     1.424243     1.416600     1.408957
      1.401314     1.393671     1.386027     1.378384     1.370741     1.363098     1.355455     1.347812     1.340169     1.332526
      1.324883     1.317240     1.309596     1.301953     1.294310     1.286667     1.279024     1.271381     1.263738     1.256095
      1.248452     1.240808     1.233165     1.225522     1.217879     1.210236     1.202593     1.194950     1.187307     1.179664
      1.172021     1.164377     1.156734     1.149091     1.141448     1.133805     1.126162     1.118519     1.110876     1.103233
      1.095590     1.087946     1.080303     1.072660     1.065017     1.057374     1.049731     1.042088     1.034445     1.026802
      1.019158     1.011515     1.003872     0.996229     0.988586     0.980943     0.973300     0.965657     0.958014     0.950371
      0.942727     0.935084     0.927441     0.919798     0.912155     0.904512     0.896869     0.889226     0.881583     0.873940
      0.866296     0.858653     0.851010     0.843367     0.835724     0.828081     0.820438     0.812795     0.805152     0.797508
      0.789865     0.782222     0.774579     0.766936     0.759293     0.751650     0.744007     0.736364     0.728721     0.721077
      0.713434     0.705791     0.698148     0.690505     0.682862     0.675219     0.667576     0.659933     0.652290     0.644646
      0.637003     0.629360     0.621717     0.614074     0.606431     0.598788     0.591145     0.583502     0.575858     0.568215
      0.560572     0.552929     0.545286     0.537643     0.530000     0.522357     0.514714     0.507071     0.499427     0.491784
      0.484141     0.476498     0.468855     0.461212     0.453569     0.445925     0.438282     0.430639     0.422996     0.415353
      0.407710     0.400067     0.392424     0.384780     0.377137     0.369494     0.361851     0.354208     0.346565     0.338922
      0.331278     0.323635     0.315992     0.308349     0.300706     0.293063     0.285420     0.277777     0.270133     0.262490
      0.254847     0.247204     0.239561     0.231918     0.224275     0.216631     0.208988     0.201345
 NY phased data points follow
   3.06523E+01  2.96735E+01  2.85161E+01  3.28221E+01  3.04351E+01  3.34802E+01  3.76368E+01  4.52650E+01  4.97951E+01  5.47848E+01
   5.32510E+01  5.29092E+01  5.01164E+01  4.66584E+01  4.33410E+01  3.94146E+01  3.17580E+01  3.05917E+01  2.90493E+01  3.02352E+01
   2.40302E+01  2.76112E+01  2.86946E+01  2.56607E+01  2.78363E+01  2.39879E+01  2.36205E+01  2.53200E+01  2.57604E+01  3.18852E+01
   2.87750E+01  2.97247E+01  2.74635E+01  2.66138E+01  2.64569E+01  2.39883E+01  2.45966E+01  2.26099E+01  1.90789E+01  2.14439E+01
   2.05189E+01  1.92102E+01  2.14252E+01  1.93822E+01  1.86488E+01  2.29163E+01  2.33585E+01  2.53825E+01  2.32028E+01  2.06866E+01
   2.17754E+01  2.03245E+01  1.90997E+01  1.71485E+01  1.90267E+01  1.90074E+01  1.85512E+01  1.85331E+01  1.70727E+01  1.77848E+01
   1.29242E+01  1.66641E+01  1.21582E+01  1.10665E+01  1.10465E+01  8.38935E+00  8.88478E+00  9.03544E+00  6.93989E+00  9.17571E+00
   8.37242E+00  9.50214E+00  9.67546E+00  8.88657E+00  8.07189E+00  7.48788E+00  1.14066E+01  8.77601E+00  1.08618E+01  9.82402E+00
   7.47110E+00  7.40680E+00  1.09783E+01  6.98569E+00  9.75104E+00  8.63061E+00  1.11841E+01  1.03983E+01  9.76404E+00  1.01456E+01
   8.82038E+00  9.97077E+00  7.78687E+00  1.04561E+01  1.25787E+01  1.09199E+01  1.12875E+01  1.28416E+01  1.55295E+01  1.88787E+01
   2.70089E+01  3.35822E+01  3.69333E+01  3.66940E+01  3.44236E+01  3.04601E+01  2.79100E+01  2.37376E+01  1.84055E+01  1.69066E+01
   1.58495E+01  1.34235E+01  1.39768E+01  1.09669E+01  8.65595E+00  1.01960E+01  7.70777E+00  1.22073E+01  8.00137E+00  9.63663E+00
   1.02051E+01  1.14648E+01  1.22429E+01  1.94625E+01  3.22900E+01  3.91090E+01  4.43613E+01  4.60663E+01  4.63585E+01  4.11147E+01
   3.33397E+01  3.10783E+01  2.45161E+01  1.69389E+01  1.50743E+01  1.28398E+01  8.05262E+00  8.69946E+00  1.06411E+01  8.15142E+00
   8.10316E+00  6.42055E+00  6.48912E+00  6.02453E+00  7.27943E+00  7.49088E+00  8.35701E+00  4.52157E+00  6.28582E+00  5.28342E+00
   5.03847E+00  5.40796E+00  3.38729E+00  3.28055E+00  2.71217E+00  1.79577E+00  3.37270E+00  2.40373E+00  4.36827E+00  4.18128E+00
   1.69104E+00  3.25551E-01  5.29931E-01  8.99998E-02  3.50412E+00  2.06948E+00  8.93808E-01  2.11847E+00  1.32655E+00  2.70938E+00
   1.05738E+00 -9.28122E-01 -3.18274E+00 -5.12062E+00 -6.08264E+00 -5.14092E+00 -4.18471E+00 -5.71605E+00 -3.60583E+00 -3.75996E+00
  -4.88564E+00 -2.93380E+00 -2.50343E+00 -4.68196E+00 -2.11088E+00 -2.65255E+00 -2.91388E-01 -1.66023E+00 -1.00165E+00  3.12510E+00
   4.89623E+00  5.26455E+00  5.88150E+00  6.82743E+00  7.92375E+00  5.81264E+00  4.59844E+00  4.24714E+00  6.17830E-01  8.18546E-01
   4.77823E+00  5.42588E+00  6.39241E+00  8.03152E+00  6.63560E+00  5.78911E+00  7.40560E-01  2.41932E+00  1.16397E+00 -2.21082E+00
  -4.82626E-01  1.09511E+00  5.25363E+00  7.90140E+00  1.11184E+01  1.00950E+01  1.20400E+01  9.40207E+00  7.58389E+00  4.12574E+00
   1.13888E+00  1.83470E+00 -1.30319E+00  2.78871E+00  3.12281E+00  6.69661E+00  8.61384E+00  1.06785E+01  7.44691E+00  1.18441E+01
   9.05906E+00  7.13794E+00  5.83121E+00  6.68226E+00  8.31674E+00  1.07786E+01  8.21493E+00  7.94810E+00  7.42229E+00  5.67601E+00
   8.05404E+00  4.17401E+00  3.29676E+00  9.60356E+00  8.31574E+00  1.01457E+01  7.85387E+00  9.44721E+00  1.21665E+01  1.33422E+01
   1.68470E+01  1.97623E+01  1.98919E+01  1.58283E+01  2.11651E+01  2.42568E+01  3.38938E+01  4.96020E+01  6.23999E+01  6.92483E+01
   7.03452E+01  6.56717E+01  5.50384E+01  4.37314E+01  3.53756E+01  2.48009E+01  2.21366E+01  1.56696E+01  1.09802E+01  1.19367E+01
   8.64541E+00  1.10654E+01  9.77546E+00  9.75311E+00  7.07884E+00  6.48316E+00  7.58429E+00  4.75698E+00  8.49901E+00  7.33133E+00
   7.50481E+00  7.18479E+00  5.35227E+00  3.67562E+00  3.05397E+00  3.35216E+00  1.05588E+00  3.92297E+00  3.37685E+00  4.27494E+00
   3.68905E+00  3.04404E+00  4.76446E+00  5.92928E+00  4.49375E+00  4.56253E+00  3.43749E+00  3.34424E+00  3.39333E+00  5.33821E+00
   5.57608E+00  7.64751E+00  3.44641E+00  6.72626E+00  5.67055E+00  6.51621E+00  6.58825E+00  8.34243E+00  6.33901E+00  7.63912E+00
   7.53176E+00  4.03966E+00  9.22271E+00  9.03676E+00  8.51991E+00  6.60207E+00  6.19988E+00  7.02449E+00  6.95761E+00  7.28159E+00
   5.15659E+00  3.26247E+00  7.06820E+00  7.93528E+00  6.49249E+00  2.74917E+00  1.32847E+00  3.81542E+00  3.64263E+00  1.77041E+00
   1.77661E+00  3.36304E+00  2.85929E+00  2.05214E+00  1.29726E+00  2.80407E+00  1.74430E+00  2.26479E+00 -2.61813E-01  1.46848E+00
  -1.78933E-01 -1.32540E+00 -1.24237E+00  1.16670E-01 -1.64779E+00  2.21589E+00  1.17917E+00  2.92208E-01  7.26663E-01  2.37136E+00
  -1.86663E+00  9.38110E-02 -1.40684E+00  2.22623E+00  1.57661E+00 -1.30621E+00  2.60983E+00  1.53376E+00  7.16467E-01  3.04147E-01
   1.98581E+00  2.62577E+00  1.28359E-01 -1.99320E+00  1.96359E+00  1.25518E+00  1.93263E+00  1.59779E+00 -9.37024E-01  3.31629E+00
   4.00648E+00  4.04629E+00  2.35201E+00  1.35437E+00 -8.62791E-01  1.25839E+00  2.69170E+00  2.70077E+00  7.71702E-01  1.79623E+00
   1.57236E-01  1.77502E+00  2.07656E+00  1.64130E+00  5.25008E-01  1.02561E+00  1.26042E+00 -3.31140E-01  1.04327E+00  3.80621E+00
   2.59090E+00  1.04985E+00  9.16709E-01  3.87274E+00  3.47851E+00  5.18732E+00  1.61856E+00  4.69025E+00  3.10813E+00  1.50254E+00
   4.59117E+00  4.92860E+00  2.27881E+00  5.98872E+00  4.47212E+00  2.31436E+00  4.62561E+00  4.22225E+00  5.10980E+00  2.42130E+00
   3.90598E+00  5.22250E+00  2.64403E+00  5.55124E+00  2.48973E+00  4.82253E+00  2.50668E+00  3.13923E+00  2.05007E+00  2.26487E-01
   3.42010E+00  2.45342E+00  2.20040E+00  2.37408E+00  7.98875E-01  2.43322E+00  4.08590E+00  2.79640E+00  4.05758E+00  2.06156E+00
   3.67829E+00  8.30288E-01  7.01330E-01  1.06446E+00  3.70167E+00  3.31694E+00  1.03873E+00  7.31744E-02  2.09947E+00  6.62684E-01
   3.33030E-01  1.40237E+00  2.04358E+00 -4.02685E-01  1.87339E+00  2.81500E+00  7.89119E-01  2.28687E+00  2.42214E+00  1.16792E+00
   2.63794E+00  2.81077E+00  3.30634E+00  4.16374E+00 -2.12665E+00 -1.75631E+00  1.44295E+00  2.35375E+00 -3.51909E-01  5.56057E-01
   1.30461E+00  2.69162E+00  8.00319E-01  2.53040E-01  2.30366E+00  1.48252E+00  2.79517E+00  8.12655E-01  2.11415E+00  1.70788E+00
   1.39560E-01 -4.35819E-01  8.50880E-01  2.37526E+00  6.54639E-02 -5.00699E-01  2.45319E+00  2.94839E+00 -2.12928E-01  1.24879E+00
   2.63777E-01  2.00209E+00  4.16843E+00  1.22725E+00  2.29277E-01  1.67435E+00  1.36604E+00  2.33786E+00  2.55405E+00  1.54248E+00
   1.31291E+00  1.77030E+00  3.50292E+00 -9.88047E-02  7.06286E-01  1.99572E-01  1.54571E+00  1.44002E+00
 NY points of the fit to the data follow
   2.77222E+01  2.77612E+01  2.80261E+01  2.88214E+01  3.05594E+01  3.37273E+01  3.84189E+01  4.39736E+01  4.91150E+01  5.25472E+01
   5.35411E+01  5.21449E+01  4.90229E+01  4.50696E+01  4.10356E+01  3.73725E+01  3.42064E+01  3.14789E+01  2.92423E+01  2.77267E+01
   2.67933E+01  2.61701E+01  2.55296E+01  2.47850E+01  2.40705E+01  2.37369E+01  2.41902E+01  2.55323E+01  2.74463E+01  2.93608E+01
   3.06850E+01  3.09800E+01  3.01183E+01  2.83337E+01  2.61060E+01  2.39861E+01  2.23805E+01  2.13350E+01  2.07667E+01  2.06392E+01
   2.07893E+01  2.09630E+01  2.10555E+01  2.10593E+01  2.09600E+01  2.07224E+01  2.03840E+01  1.99905E+01  1.95862E+01  1.92304E+01
   1.88891E+01  1.85182E+01  1.81325E+01  1.77409E+01  1.73217E+01  1.69000E+01  1.65125E+01  1.61419E+01  1.57698E+01  1.54135E+01
   1.50882E+01  1.47851E+01  1.44982E+01  1.42249E+01  1.39698E+01  1.37354E+01  1.35168E+01  1.33102E+01  1.31130E+01  1.29232E+01
   1.27372E+01  1.25525E+01  1.23675E+01  1.21824E+01  1.19985E+01  1.18170E+01  1.16391E+01  1.14649E+01  1.12940E+01  1.11260E+01
   1.09602E+01  1.07968E+01  1.06336E+01  1.04692E+01  1.03040E+01  1.01413E+01  9.98565E+00  9.84134E+00  9.71152E+00  9.59772E+00
   9.50040E+00  9.42009E+00  9.35940E+00  9.32636E+00  9.34411E+00  9.49472E+00  1.01023E+01  1.17361E+01  1.49933E+01  2.02384E+01
   2.67708E+01  3.28768E+01  3.68712E+01  3.79064E+01  3.61063E+01  3.23171E+01  2.76658E+01  2.30642E+01  1.90077E+01  1.56300E+01
   1.27767E+01  1.03710E+01  8.81214E+00  8.23216E+00  8.01393E+00  7.90403E+00  7.84617E+00  7.83234E+00  7.88891E+00  8.10877E+00
   8.85855E+00  1.08862E+01  1.49870E+01  2.17807E+01  3.06116E+01  3.93097E+01  4.54907E+01  4.78042E+01  4.62317E+01  4.17816E+01
   3.59008E+01  2.97758E+01  2.40455E+01  1.89521E+01  1.44239E+01  1.04640E+01  7.68795E+00  6.59150E+00  6.37974E+00  6.48882E+00
   6.66863E+00  6.77129E+00  6.75651E+00  6.65334E+00  6.47080E+00  6.22365E+00  5.94189E+00  5.63342E+00  5.30428E+00  4.97532E+00
   4.65527E+00  4.38259E+00  4.17244E+00  4.03037E+00  3.93109E+00  3.81856E+00  3.61261E+00  3.26836E+00  2.85583E+00  2.50969E+00
   2.34931E+00  2.39674E+00  2.53977E+00  2.61286E+00  2.51069E+00  2.22909E+00  1.83709E+00  1.43480E+00  1.09866E+00  8.12790E-01
   4.79947E-01  5.98460E-02 -4.20597E-01 -8.38683E-01 -1.04420E+00 -1.04141E+00 -9.39066E-01 -8.41232E-01 -7.96406E-01 -7.87425E-01
  -7.83328E-01 -7.77543E-01 -7.76249E-01 -7.42335E-01 -5.73560E-01 -1.67948E-01  5.39632E-01  1.54672E+00  2.68324E+00  3.69217E+00
   4.34283E+00  4.55376E+00  4.39989E+00  4.00207E+00  3.49353E+00  3.03169E+00  2.77829E+00  2.90237E+00  3.47232E+00  4.41591E+00
   5.57318E+00  6.68680E+00  7.43401E+00  7.50431E+00  6.77881E+00  5.31547E+00  3.40178E+00  1.46829E+00 -8.34142E-03 -6.25623E-01
  -1.66564E-01  1.37036E+00  3.69739E+00  6.23036E+00  8.26010E+00  9.22696E+00  8.87514E+00  7.28798E+00  4.81459E+00  2.04386E+00
  -1.58382E-01 -1.22061E+00 -1.07557E+00  6.22441E-02  1.82248E+00  3.82706E+00  5.60463E+00  6.82005E+00  7.44819E+00  7.65135E+00
   7.63095E+00  7.48346E+00  7.35165E+00  7.48365E+00  7.97239E+00  8.62861E+00  9.19306E+00  9.44368E+00  9.25820E+00  8.70325E+00
   7.99627E+00  7.42050E+00  7.21982E+00  7.46012E+00  8.00551E+00  8.64375E+00  9.26224E+00  9.81657E+00  1.03507E+01  1.10292E+01
   1.20396E+01  1.34650E+01  1.52519E+01  1.77189E+01  2.16532E+01  2.81124E+01  3.79748E+01  5.00346E+01  6.10294E+01  6.77858E+01
   6.87854E+01  6.43524E+01  5.61895E+01  4.65203E+01  3.71624E+01  2.91070E+01  2.24672E+01  1.67778E+01  1.18630E+01  8.70327E+00
   7.58706E+00  7.12299E+00  6.85445E+00  6.67460E+00  6.50675E+00  6.29857E+00  6.05901E+00  5.79695E+00  5.53099E+00  5.28169E+00
   5.05829E+00  4.85518E+00  4.67338E+00  4.51709E+00  4.38071E+00  4.25513E+00  4.13809E+00  4.03658E+00  3.95890E+00  3.90664E+00
   3.87695E+00  3.87112E+00  3.88934E+00  3.92934E+00  3.98932E+00  4.07096E+00  4.17803E+00  4.31417E+00  4.48157E+00  4.68018E+00
   4.90799E+00  5.16140E+00  5.43359E+00  5.71627E+00  6.00054E+00  6.27740E+00  6.53775E+00  6.77185E+00  6.96988E+00  7.12402E+00
   7.22727E+00  7.27414E+00  7.26151E+00  7.18842E+00  7.05597E+00  6.86762E+00  6.62885E+00  6.34700E+00  6.03079E+00  5.68984E+00
   5.33431E+00  4.97371E+00  4.61620E+00  4.26739E+00  3.92996E+00  3.60584E+00  3.29823E+00  3.01129E+00  2.74951E+00  2.51689E+00
   2.31632E+00  2.14932E+00  2.01442E+00  1.90652E+00  1.81885E+00  1.74561E+00  1.68277E+00  1.62641E+00  1.57460E+00  1.52770E+00
   1.48621E+00  1.45025E+00  1.41916E+00  1.39221E+00  1.37029E+00  1.35426E+00  1.34325E+00  1.33665E+00  1.33408E+00  1.33524E+00
   1.33986E+00  1.34769E+00  1.35840E+00  1.37159E+00  1.38677E+00  1.40338E+00  1.42087E+00  1.43868E+00  1.45615E+00  1.47262E+00
   1.48745E+00  1.50008E+00  1.51003E+00  1.51694E+00  1.52052E+00  1.52059E+00  1.51718E+00  1.51047E+00  1.50086E+00  1.48887E+00
   1.47515E+00  1.46047E+00  1.44575E+00  1.43203E+00  1.42042E+00  1.41205E+00  1.40807E+00  1.40963E+00  1.41793E+00  1.43417E+00
   1.45949E+00  1.49500E+00  1.54171E+00  1.60062E+00  1.67263E+00  1.75858E+00  1.85910E+00  1.97462E+00  2.10535E+00  2.25123E+00
   2.41188E+00  2.58650E+00  2.77381E+00  2.97204E+00  3.17891E+00  3.39166E+00  3.60702E+00  3.82128E+00  4.03034E+00  4.22985E+00
   4.41539E+00  4.58263E+00  4.72743E+00  4.84609E+00  4.93542E+00  4.99299E+00  5.01725E+00  5.00755E+00  4.96418E+00  4.88835E+00
   4.78210E+00  4.64829E+00  4.49043E+00  4.31248E+00  4.11866E+00  3.91331E+00  3.70071E+00  3.48496E+00  3.26981E+00  3.05859E+00
   2.85413E+00  2.65870E+00  2.47406E+00  2.30150E+00  2.14182E+00  1.99538E+00  1.86218E+00  1.74194E+00  1.63417E+00  1.53823E+00
   1.45336E+00  1.37872E+00  1.31343E+00  1.25664E+00  1.20753E+00  1.16534E+00  1.12936E+00  1.09888E+00  1.07329E+00  1.05206E+00
   1.03471E+00  1.02082E+00  1.00999E+00  1.00187E+00  9.96140E-01  9.92550E-01  9.90879E-01  9.90920E-01  9.92473E-01  9.95355E-01
   9.99423E-01  1.00456E+00  1.01067E+00  1.01764E+00  1.02537E+00  1.03378E+00  1.04283E+00  1.05246E+00  1.06263E+00  1.07329E+00
   1.08438E+00  1.09586E+00  1.10772E+00  1.11993E+00  1.13248E+00  1.14532E+00  1.15842E+00  1.17175E+00  1.18533E+00  1.19915E+00
   1.21317E+00  1.22738E+00  1.24176E+00  1.25631E+00  1.27103E+00  1.28592E+00  1.30096E+00  1.31611E+00  1.33139E+00  1.34680E+00
   1.36235E+00  1.37802E+00  1.39379E+00  1.40966E+00  1.42563E+00  1.44173E+00  1.45794E+00  1.47425E+00  1.49065E+00  1.50715E+00
   1.52375E+00  1.54047E+00  1.55731E+00  1.57425E+00  1.59130E+00  1.60845E+00  1.62574E+00  1.64319E+00
 NY background values follow
     2.705E+01    2.683E+01    2.660E+01    2.638E+01    2.616E+01    2.593E+01    2.571E+01    2.549E+01    2.527E+01    2.504E+01
     2.482E+01    2.460E+01    2.437E+01    2.415E+01    2.393E+01    2.370E+01    2.348E+01    2.326E+01    2.304E+01    2.282E+01
     2.260E+01    2.238E+01    2.216E+01    2.194E+01    2.172E+01    2.150E+01    2.128E+01    2.106E+01    2.084E+01    2.063E+01
     2.041E+01    2.019E+01    1.998E+01    1.976E+01    1.955E+01    1.934E+01    1.912E+01    1.891E+01    1.870E+01    1.849E+01
     1.828E+01    1.808E+01    1.787E+01    1.766E+01    1.746E+01    1.725E+01    1.705E+01    1.685E+01    1.665E+01    1.645E+01
     1.625E+01    1.605E+01    1.586E+01    1.566E+01    1.547E+01    1.528E+01    1.508E+01    1.489E+01    1.470E+01    1.452E+01
     1.433E+01    1.414E+01    1.396E+01    1.378E+01    1.360E+01    1.342E+01    1.324E+01    1.306E+01    1.288E+01    1.271E+01
     1.254E+01    1.237E+01    1.220E+01    1.203E+01    1.186E+01    1.169E+01    1.153E+01    1.137E+01    1.120E+01    1.105E+01
     1.089E+01    1.073E+01    1.058E+01    1.042E+01    1.027E+01    1.012E+01    9.972E+00    9.825E+00    9.680E+00    9.536E+00
     9.394E+00    9.254E+00    9.116E+00    8.979E+00    8.844E+00    8.711E+00    8.580E+00    8.450E+00    8.321E+00    8.195E+00
     8.070E+00    7.946E+00    7.824E+00    7.704E+00    7.585E+00    7.468E+00    7.352E+00    7.238E+00    7.125E+00    7.014E+00
     6.904E+00    6.796E+00    6.689E+00    6.584E+00    6.480E+00    6.377E+00    6.276E+00    6.176E+00    6.078E+00    5.981E+00
     5.885E+00    5.790E+00    5.697E+00    5.605E+00    5.514E+00    5.425E+00    5.337E+00    5.250E+00    5.164E+00    5.080E+00
     4.997E+00    4.915E+00    4.834E+00    4.754E+00    4.675E+00    4.598E+00    4.521E+00    4.446E+00    4.372E+00    4.298E+00
     4.227E+00    4.156E+00    4.086E+00    4.018E+00    3.950E+00    3.884E+00    3.819E+00    3.756E+00    3.693E+00    3.632E+00
     3.572E+00    3.513E+00    3.455E+00    3.399E+00    3.344E+00    3.291E+00    3.238E+00    3.187E+00    3.138E+00    3.089E+00
     3.042E+00    2.996E+00    2.952E+00    2.909E+00    2.868E+00    2.828E+00    2.789E+00    2.752E+00    2.716E+00    2.681E+00
     2.648E+00    2.617E+00    2.587E+00    2.558E+00    2.531E+00    2.506E+00    2.481E+00    2.459E+00    2.438E+00    2.419E+00
     2.401E+00    2.384E+00    2.370E+00    2.356E+00    2.345E+00    2.334E+00    2.325E+00    2.318E+00    2.311E+00    2.306E+00
     2.303E+00    2.300E+00    2.298E+00    2.298E+00    2.299E+00    2.300E+00    2.303E+00    2.306E+00    2.310E+00    2.315E+00
     2.321E+00    2.328E+00    2.335E+00    2.343E+00    2.351E+00    2.360E+00    2.370E+00    2.380E+00    2.390E+00    2.401E+00
     2.412E+00    2.424E+00    2.435E+00    2.447E+00    2.459E+00    2.471E+00    2.483E+00    2.496E+00    2.508E+00    2.520E+00
     2.532E+00    2.544E+00    2.555E+00    2.567E+00    2.578E+00    2.588E+00    2.599E+00    2.609E+00    2.618E+00    2.627E+00
     2.636E+00    2.644E+00    2.652E+00    2.659E+00    2.666E+00    2.672E+00    2.678E+00    2.684E+00    2.689E+00    2.693E+00
     2.697E+00    2.701E+00    2.704E+00    2.706E+00    2.708E+00    2.710E+00    2.711E+00    2.711E+00    2.711E+00    2.711E+00
     2.710E+00    2.708E+00    2.706E+00    2.703E+00    2.700E+00    2.696E+00    2.692E+00    2.687E+00    2.681E+00    2.675E+00
     2.668E+00    2.661E+00    2.653E+00    2.644E+00    2.635E+00    2.626E+00    2.615E+00    2.604E+00    2.593E+00    2.580E+00
     2.568E+00    2.554E+00    2.540E+00    2.525E+00    2.510E+00    2.494E+00    2.477E+00    2.460E+00    2.442E+00    2.424E+00
     2.405E+00    2.385E+00    2.365E+00    2.345E+00    2.324E+00    2.302E+00    2.280E+00    2.257E+00    2.234E+00    2.211E+00
     2.187E+00    2.162E+00    2.138E+00    2.112E+00    2.087E+00    2.061E+00    2.034E+00    2.007E+00    1.980E+00    1.953E+00
     1.925E+00    1.896E+00    1.868E+00    1.839E+00    1.810E+00    1.780E+00    1.750E+00    1.720E+00    1.690E+00    1.659E+00
     1.629E+00    1.598E+00    1.566E+00    1.535E+00    1.503E+00    1.471E+00    1.439E+00    1.407E+00    1.375E+00    1.342E+00
     1.310E+00    1.277E+00    1.244E+00    1.211E+00    1.179E+00    1.146E+00    1.113E+00    1.080E+00    1.047E+00    1.015E+00
     9.819E-01    9.494E-01    9.170E-01    8.847E-01    8.525E-01    8.206E-01    7.888E-01    7.573E-01    7.259E-01    6.949E-01
     6.641E-01    6.336E-01    6.034E-01    5.735E-01    5.440E-01    5.148E-01    4.860E-01    4.577E-01    4.297E-01    4.022E-01
     3.752E-01    3.486E-01    3.226E-01    2.970E-01    2.720E-01    2.476E-01    2.237E-01    2.004E-01    1.778E-01    1.557E-01
     1.344E-01    1.137E-01    9.364E-02    7.432E-02    5.570E-02    3.777E-02    2.053E-02    3.978E-03   -1.189E-02   -2.707E-02
    -4.157E-02   -5.539E-02   -6.854E-02   -8.101E-02   -9.281E-02   -1.039E-01   -1.144E-01   -1.242E-01   -1.334E-01   -1.418E-01
    -1.497E-01   -1.568E-01   -1.633E-01   -1.692E-01   -1.744E-01   -1.790E-01   -1.829E-01   -1.862E-01   -1.889E-01   -1.909E-01
    -1.923E-01   -1.930E-01   -1.932E-01   -1.927E-01   -1.915E-01   -1.898E-01   -1.874E-01   -1.845E-01   -1.809E-01   -1.767E-01
    -1.718E-01   -1.664E-01   -1.604E-01   -1.538E-01   -1.466E-01   -1.387E-01   -1.303E-01   -1.213E-01   -1.117E-01   -1.015E-01
    -9.083E-02   -7.957E-02   -6.778E-02   -5.549E-02   -4.269E-02   -2.942E-02   -1.568E-02   -1.487E-03    1.314E-02    2.819E-02
     4.365E-02    5.950E-02    7.572E-02    9.231E-02    1.092E-01    1.265E-01    1.441E-01    1.620E-01    1.802E-01    1.986E-01
     2.173E-01    2.363E-01    2.554E-01    2.748E-01    2.944E-01    3.142E-01    3.341E-01    3.542E-01    3.745E-01    3.948E-01
     4.153E-01    4.359E-01    4.565E-01    4.772E-01    4.980E-01    5.187E-01    5.396E-01    5.604E-01    5.812E-01    6.020E-01
     6.227E-01    6.434E-01    6.640E-01    6.846E-01    7.050E-01    7.254E-01    7.457E-01    7.659E-01    7.861E-01    8.062E-01
     8.262E-01    8.462E-01    8.661E-01    8.860E-01    9.057E-01    9.255E-01    9.451E-01    9.648E-01    9.844E-01    1.004E+00
     1.023E+00    1.043E+00    1.062E+00    1.082E+00    1.101E+00    1.120E+00    1.139E+00    1.159E+00    1.178E+00    1.197E+00
     1.216E+00    1.235E+00    1.254E+00    1.273E+00    1.293E+00    1.312E+00    1.331E+00    1.350E+00    1.369E+00    1.388E+00
     1.407E+00    1.426E+00    1.445E+00    1.464E+00    1.483E+00    1.502E+00    1.521E+00    1.540E+00
 Ala      Conc. = 4.12E+00
