 LCModel (Version 6.3-1L) Copyright: S.W. Provencher.          Ref.: Magn. Reson. Med. 30:672-679 (1993).                
 Slice#3 Row#5 Col#7  PD_05_press_1_raw_act
 36 lines in following concentration table = NCONC+1
    Conc.  %SD /Cr+PCr  Metabolite                                         
   42.378 335% 2.5E-02 Ala                                                 
    0.000 999%   0.000 Asp                                                 
  313.399  81%   0.185 Cr                                                  
 1.38E+03  19%   0.815 PCr                                                 
   79.489 212% 4.7E-02 GABA                                                
    0.000 999%   0.000 Glc                                                 
 1.40E+03  21%   0.825 Gln                                                 
 1.81E+03  19%   1.063 Glu                                                 
  544.205   4%   0.320 GPC                                                 
    0.000 999%   0.000 PCh                                                 
  639.060  12%   0.376 GSH                                                 
 1.29E+03  20%   0.761 Ins                                                 
  392.453  38%   0.231 Lac                                                 
 2.08E+03   3%   1.227 NAA                                                 
    0.000 999%   0.000 NAAG                                                
   68.623  38% 4.0E-02 Scyllo                                              
    0.000 999%   0.000 Tau                                                 
    0.000 999%   0.000 -CrCH2                                              
  544.205   4%   0.320 GPC+PCh                                             
 2.08E+03   3%   1.227 NAA+NAAG                                            
 1.70E+03   3%   1.000 Cr+PCr                                              
 3.21E+03  16%   1.888 Glu+Gln                                             
 2.16E+03  19%   1.273 Lip13a                                              
    0.000 999%   0.000 Lip13b                                              
    0.000 999%   0.000 Lip09                                               
 1.06E+03  17%   0.626 MM09                                                
  353.889  38%   0.208 Lip20                                               
 1.82E+03  17%   1.071 MM20                                                
  328.157  28%   0.193 MM12                                                
 2.96E+03   7%   1.742+MM14                                                
  832.783  23%   0.490 MM17                                                
 2.16E+03  19%   1.273 Lip13a+Lip13b                                       
 5.45E+03   7%   3.208 MM14+Lip13a+Lip13b+MM12                             
 1.06E+03  17%   0.626 MM09+Lip09                                          
 2.17E+03  14%   1.279 MM20+Lip20                                          
   6 lines in following misc. output table
  FWHM = 0.076 ppm    S/N =  10                                            
  Data shift =-0.023 ppm                                                   
  Ph:  -9 deg      -9.3 deg/ppm                                            
  alphaB,S = 7.1E-01,   2.7E+02                                            
   14 spline knots.   Ns = 8(1)                                            
  (11) 2 infls.   ( 5) 1 extrs.                                            
  498 points on ppm-axis = NY
      4.000000     3.992357     3.984714     3.977070     3.969427     3.961784     3.954141     3.946497     3.938854     3.931211
      3.923568     3.915925     3.908281     3.900638     3.892995     3.885352     3.877708     3.870065     3.862422     3.854779
      3.847136     3.839492     3.831849     3.824206     3.816563     3.808919     3.801276     3.793633     3.785990     3.778347
      3.770703     3.763060     3.755417     3.747774     3.740130     3.732487     3.724844     3.717201     3.709558     3.701914
      3.694271     3.686628     3.678985     3.671341     3.663698     3.656055     3.648412     3.640769     3.633125     3.625482
      3.617839     3.610196     3.602552     3.594909     3.587266     3.579623     3.571980     3.564336     3.556693     3.549050
      3.541407     3.533763     3.526120     3.518477     3.510834     3.503191     3.495547     3.487904     3.480261     3.472618
      3.464974     3.457331     3.449688     3.442045     3.434402     3.426758     3.419115     3.411472     3.403829     3.396185
      3.388542     3.380899     3.373256     3.365613     3.357969     3.350326     3.342683     3.335040     3.327396     3.319753
      3.312110     3.304467     3.296824     3.289180     3.281537     3.273894     3.266251     3.258607     3.250964     3.243321
      3.235678     3.228034     3.220391     3.212748     3.205105     3.197462     3.189818     3.182175     3.174532     3.166889
      3.159245     3.151602     3.143959     3.136316     3.128673     3.121029     3.113386     3.105743     3.098100     3.090456
      3.082813     3.075170     3.067527     3.059884     3.052240     3.044597     3.036954     3.029311     3.021667     3.014024
      3.006381     2.998738     2.991095     2.983451     2.975808     2.968165     2.960522     2.952878     2.945235     2.937592
      2.929949     2.922306     2.914662     2.907019     2.899376     2.891733     2.884089     2.876446     2.868803     2.861160
      2.853517     2.845873     2.838230     2.830587     2.822944     2.815300     2.807657     2.800014     2.792371     2.784728
      2.777084     2.769441     2.761798     2.754155     2.746511     2.738868     2.731225     2.723582     2.715939     2.708295
      2.700652     2.693009     2.685366     2.677722     2.670079     2.662436     2.654793     2.647150     2.639506     2.631863
      2.624220     2.616577     2.608933     2.601290     2.593647     2.586004     2.578361     2.570717     2.563074     2.555431
      2.547788     2.540144     2.532501     2.524858     2.517215     2.509572     2.501928     2.494285     2.486642     2.478999
      2.471355     2.463712     2.456069     2.448426     2.440783     2.433139     2.425496     2.417853     2.410210     2.402566
      2.394923     2.387280     2.379637     2.371994     2.364350     2.356707     2.349064     2.341421     2.333777     2.326134
      2.318491     2.310848     2.303205     2.295561     2.287918     2.280275     2.272632     2.264988     2.257345     2.249702
      2.242059     2.234416     2.226772     2.219129     2.211486     2.203843     2.196199     2.188556     2.180913     2.173270
      2.165627     2.157983     2.150340     2.142697     2.135054     2.127410     2.119767     2.112124     2.104481     2.096838
      2.089194     2.081551     2.073908     2.066265     2.058621     2.050978     2.043335     2.035692     2.028049     2.020405
      2.012762     2.005119     1.997476     1.989833     1.982190     1.974546     1.966903     1.959260     1.951617     1.943974
      1.936331     1.928688     1.921045     1.913402     1.905759     1.898115     1.890472     1.882829     1.875186     1.867543
      1.859900     1.852257     1.844614     1.836971     1.829327     1.821684     1.814041     1.806398     1.798755     1.791112
      1.783469     1.775826     1.768183     1.760540     1.752896     1.745253     1.737610     1.729967     1.722324     1.714681
      1.707038     1.699395     1.691752     1.684108     1.676465     1.668822     1.661179     1.653536     1.645893     1.638250
      1.630607     1.622964     1.615321     1.607677     1.600034     1.592391     1.584748     1.577105     1.569462     1.561819
      1.554176     1.546533     1.538890     1.531246     1.523603     1.515960     1.508317     1.500674     1.493031     1.485388
      1.477745     1.470102     1.462458     1.454815     1.447172     1.439529     1.431886     1.424243     1.416600     1.408957
      1.401314     1.393671     1.386027     1.378384     1.370741     1.363098     1.355455     1.347812     1.340169     1.332526
      1.324883     1.317240     1.309596     1.301953     1.294310     1.286667     1.279024     1.271381     1.263738     1.256095
      1.248452     1.240808     1.233165     1.225522     1.217879     1.210236     1.202593     1.194950     1.187307     1.179664
      1.172021     1.164377     1.156734     1.149091     1.141448     1.133805     1.126162     1.118519     1.110876     1.103233
      1.095590     1.087946     1.080303     1.072660     1.065017     1.057374     1.049731     1.042088     1.034445     1.026802
      1.019158     1.011515     1.003872     0.996229     0.988586     0.980943     0.973300     0.965657     0.958014     0.950371
      0.942727     0.935084     0.927441     0.919798     0.912155     0.904512     0.896869     0.889226     0.881583     0.873940
      0.866296     0.858653     0.851010     0.843367     0.835724     0.828081     0.820438     0.812795     0.805152     0.797508
      0.789865     0.782222     0.774579     0.766936     0.759293     0.751650     0.744007     0.736364     0.728721     0.721077
      0.713434     0.705791     0.698148     0.690505     0.682862     0.675219     0.667576     0.659933     0.652290     0.644646
      0.637003     0.629360     0.621717     0.614074     0.606431     0.598788     0.591145     0.583502     0.575858     0.568215
      0.560572     0.552929     0.545286     0.537643     0.530000     0.522357     0.514714     0.507071     0.499427     0.491784
      0.484141     0.476498     0.468855     0.461212     0.453569     0.445925     0.438282     0.430639     0.422996     0.415353
      0.407710     0.400067     0.392424     0.384780     0.377137     0.369494     0.361851     0.354208     0.346565     0.338922
      0.331278     0.323635     0.315992     0.308349     0.300706     0.293063     0.285420     0.277777     0.270133     0.262490
      0.254847     0.247204     0.239561     0.231918     0.224275     0.216631     0.208988     0.201345
 NY phased data points follow
   1.64729E+01  1.71248E+01  1.77904E+01  2.05138E+01  2.74519E+01  3.05349E+01  3.66260E+01  4.56790E+01  4.53143E+01  4.76615E+01
   5.01059E+01  5.14596E+01  4.86435E+01  4.72306E+01  3.73384E+01  3.12255E+01  3.08531E+01  2.65211E+01  2.61258E+01  2.22378E+01
   2.10790E+01  2.08585E+01  2.07138E+01  2.10535E+01  2.58115E+01  2.55703E+01  2.25389E+01  2.31224E+01  3.25408E+01  2.45786E+01
   2.85276E+01  2.60814E+01  2.71044E+01  2.36790E+01  2.25598E+01  2.07592E+01  2.57715E+01  2.12319E+01  1.99569E+01  1.94577E+01
   1.80502E+01  2.15959E+01  1.96895E+01  2.08753E+01  2.13850E+01  2.38388E+01  2.34720E+01  2.57719E+01  2.15200E+01  2.08872E+01
   1.89189E+01  1.69884E+01  1.94064E+01  1.30855E+01  1.88853E+01  1.54476E+01  1.53757E+01  1.47452E+01  1.71747E+01  1.43989E+01
   1.39422E+01  9.52780E+00  1.08200E+01  9.88105E+00  5.63371E+00  7.61570E+00  3.54785E+00  3.29584E+00  4.23747E+00  6.70964E+00
   7.84569E+00  7.83809E+00  7.96452E+00  7.11919E+00  9.61637E+00  8.90534E+00  9.13365E+00  1.20269E+00  5.85962E+00  8.26597E+00
   8.49782E+00  8.67890E+00  5.28948E+00  6.76816E+00  9.05222E+00  5.90198E+00  7.00954E+00  7.25448E+00  6.78236E+00  7.29731E+00
   5.67201E+00  5.00843E+00  5.68023E+00  4.05066E+00  4.59752E+00  4.92172E+00  9.34764E+00  7.46432E+00  1.53889E+01  2.35904E+01
   3.31039E+01  4.08164E+01  4.54543E+01  4.38785E+01  4.42960E+01  3.97929E+01  3.21809E+01  3.13158E+01  2.72046E+01  1.98172E+01
   1.39258E+01  1.46020E+01  1.08941E+01  7.68531E+00  6.77056E+00 -3.43526E-01  6.61353E+00  5.08177E+00  4.70343E+00  6.06359E+00
   6.77498E+00  1.04580E+01  1.75926E+01  2.80538E+01  3.56001E+01  4.30479E+01  4.76079E+01  4.87044E+01  4.50095E+01  4.61742E+01
   4.03465E+01  3.10682E+01  2.93170E+01  1.89504E+01  1.55220E+01  9.74498E+00  8.41115E+00  7.87770E+00  4.50878E+00  3.40041E+00
   8.86948E-02  1.60102E+00  6.83402E+00  5.40724E+00  2.51559E+00  6.14693E+00  2.69962E+00  7.54428E-01  1.65161E+00  1.25372E+00
   1.21234E-01 -4.32773E-02  1.88951E+00  4.42412E+00 -1.60026E+00  7.02603E-01  2.16307E+00  1.49372E+00 -2.41568E+00 -4.06417E+00
  -2.73714E+00 -1.21569E+00  1.44352E-01 -1.91931E+00  3.83802E-01  4.74291E+00 -1.63104E+00  7.61361E-01  5.55349E-01  1.78115E+00
  -4.05969E+00 -3.65143E-01 -7.55088E+00 -6.15370E+00 -5.82726E+00 -4.31568E+00 -7.20881E+00 -6.46529E+00 -5.88715E+00 -7.56401E+00
  -8.68107E+00 -6.42868E+00 -8.96548E+00 -9.71285E+00 -8.83206E+00 -9.13617E+00 -8.59866E+00 -2.27488E+00 -1.88985E+00 -9.19937E-01
   3.36224E+00  2.51049E+00  4.89890E+00  3.72110E+00  1.31785E+00  5.49745E+00  1.74560E+00  5.83977E+00  8.79599E-01  1.13797E+00
   2.51659E+00  2.72654E+00  3.68131E+00  2.39091E+00  1.11234E+00  1.85596E+00 -2.08339E-01  4.29587E-01 -3.06461E+00 -2.22388E+00
  -1.10411E+00  1.22423E+00  4.45167E+00  5.31817E+00  7.63542E+00  7.63034E+00  9.32121E+00  6.26988E+00  8.33438E+00  2.37794E+00
   6.17106E+00  2.48663E+00  3.72442E+00  4.42495E+00  3.47793E+00  3.16490E+00  4.00273E+00  7.83922E+00  6.88725E+00  7.37443E+00
   8.77138E+00  1.27274E+01  1.09222E+01  9.69348E+00  7.84473E+00  7.59687E+00  8.14506E+00  9.05378E+00  8.18490E+00  8.64874E+00
   8.90481E+00  7.19175E+00  6.16634E+00  6.78121E+00  6.70998E+00  6.78810E+00  7.57630E+00  6.07256E+00  6.93266E+00  7.89046E+00
   8.39843E+00  1.19737E+01  1.13327E+01  1.39408E+01  1.64086E+01  2.54552E+01  3.40351E+01  5.27816E+01  6.30972E+01  6.47745E+01
   6.14622E+01  6.25689E+01  5.51396E+01  5.35049E+01  4.30264E+01  3.70894E+01  3.47686E+01  2.12619E+01  1.51075E+01  1.90036E+01
   1.12295E+01  6.14900E+00  1.29064E+01  9.90460E+00  1.05077E+01  9.79341E+00  7.27741E+00  6.87380E+00  7.90714E+00  4.16576E+00
   8.85930E+00  3.45469E+00  2.34775E+00  9.79056E-01  4.18757E+00  4.56127E+00  3.31343E+00  4.47065E+00  5.23513E+00  3.39858E+00
   8.10875E+00  4.17103E+00  2.15313E+00  4.26395E+00  3.53525E+00  3.66245E+00  4.25916E+00  2.32879E+00  2.40558E+00  5.68979E+00
   1.08012E+01  5.13323E+00  7.77918E+00  3.32334E+00  4.15925E+00  6.56112E+00  9.09556E+00  8.54514E+00  1.02374E+01  1.15968E+01
   9.14408E+00  1.45461E+01  9.98717E+00  1.40930E+01  1.44060E+01  1.22659E+01  1.44826E+01  1.42778E+01  1.49528E+01  1.44762E+01
   1.61473E+01  1.29415E+01  1.60459E+01  1.94375E+01  1.82354E+01  2.17845E+01  2.07105E+01  2.48891E+01  2.23301E+01  2.46379E+01
   2.99825E+01  2.75269E+01  2.83589E+01  2.95479E+01  3.48397E+01  3.31483E+01  3.40799E+01  3.38144E+01  3.12766E+01  2.93013E+01
   2.92048E+01  2.84386E+01  2.73927E+01  2.41441E+01  2.72543E+01  1.94335E+01  2.18918E+01  1.70661E+01  2.05078E+01  1.47837E+01
   1.51679E+01  1.44417E+01  1.52214E+01  1.41059E+01  1.58143E+01  1.27040E+01  1.58404E+01  1.29380E+01  1.38130E+01  1.28057E+01
   1.17351E+01  1.31606E+01  9.59362E+00  1.34260E+01  9.78764E+00  8.52968E+00  7.74893E+00  9.46272E+00  9.60776E+00  5.35478E+00
   9.23145E+00  1.31459E+01  7.17201E+00  7.58464E+00  4.57809E+00  5.55913E+00  6.23615E+00  3.89489E+00  8.38392E-01 -1.88809E-01
   2.46198E+00  6.61719E-01  2.30173E+00  2.93048E-01  1.16072E+00  4.88279E+00  6.19722E-01 -1.06264E+00  9.24627E-01  7.28492E-01
   2.31508E+00  1.56581E+00  2.92201E+00  2.54422E+00 -1.75997E-01  1.30110E+00  3.57276E+00  3.88877E+00  4.58775E+00  4.22148E+00
   5.94930E+00  3.20508E+00  6.37750E+00  4.61883E+00  3.38376E+00  3.15935E+00  8.93498E+00  2.82463E+00  7.35494E+00  2.15513E+00
   8.14299E+00  5.76432E+00  6.07559E+00  3.70083E+00  6.34079E+00  8.30058E+00  7.44176E+00  5.38122E+00  1.24742E+00  5.48521E+00
   2.54174E+00  5.09347E+00  1.01859E+00  3.02194E+00  2.48656E+00  2.54971E+00  1.24344E+00  5.39631E-01  3.46070E+00  3.38303E+00
   1.25801E+00  2.56860E+00  3.70690E+00  3.45669E+00  2.50475E+00  2.81710E+00  3.87887E+00  4.37963E+00  4.08912E+00  2.84058E+00
   2.01225E+00  3.41013E+00  1.68128E+00  4.29912E+00  1.11052E+00  1.83791E+00 -1.02335E+00 -1.09777E+00  3.62804E+00  2.61596E+00
   2.79220E+00 -8.65865E-01  2.45203E+00 -1.66416E-01  1.91759E+00 -1.87700E+00  1.81471E+00  4.45810E+00  2.45946E+00  1.14208E+00
   1.34389E+00  3.79888E+00 -5.84872E-01  2.25634E+00 -1.89649E+00  5.05130E+00 -9.19499E-01  2.95840E+00  1.02699E+00  4.18282E+00
   2.55699E+00  1.48259E+00  1.74608E+00  3.17367E+00  4.99103E-01  1.33518E+00 -5.28704E-01  3.23599E+00 -2.08354E+00 -2.32453E+00
   3.69918E+00  1.17264E+00 -9.28902E-01 -1.44994E+00  1.76504E+00  1.25945E+00  1.26627E+00 -1.25791E+00 -4.47611E-01  9.80499E-01
   1.58257E+00  3.02742E+00  9.87089E-01  5.62286E+00  2.13857E+00  3.42300E+00  1.45726E+00  8.82602E-01
 NY points of the fit to the data follow
   1.87467E+01  1.84882E+01  1.92542E+01  2.15250E+01  2.54625E+01  3.08448E+01  3.68594E+01  4.22709E+01  4.60789E+01  4.79408E+01
   4.80681E+01  4.68475E+01  4.46238E+01  4.16947E+01  3.83409E+01  3.47990E+01  3.12796E+01  2.79393E+01  2.48356E+01  2.22684E+01
   2.06874E+01  1.97420E+01  1.92487E+01  1.92196E+01  1.98423E+01  2.12072E+01  2.31513E+01  2.53091E+01  2.72595E+01  2.86675E+01
   2.92935E+01  2.90119E+01  2.78970E+01  2.61680E+01  2.41205E+01  2.20789E+01  2.02334E+01  1.86165E+01  1.72177E+01  1.63855E+01
   1.63833E+01  1.69873E+01  1.81473E+01  1.96436E+01  2.10266E+01  2.19074E+01  2.20865E+01  2.16533E+01  2.07465E+01  1.95160E+01
   1.81784E+01  1.68709E+01  1.56633E+01  1.46799E+01  1.39978E+01  1.35349E+01  1.32464E+01  1.31684E+01  1.31503E+01  1.29612E+01
   1.25484E+01  1.20241E+01  1.14720E+01  1.09621E+01  1.05409E+01  1.02393E+01  1.00719E+01  9.99520E+00  9.96198E+00  9.95949E+00
   9.95209E+00  9.91231E+00  9.82294E+00  9.66335E+00  9.43495E+00  9.14640E+00  8.81896E+00  8.49455E+00  8.22838E+00  8.07341E+00
   8.01740E+00  8.03610E+00  8.05915E+00  7.95940E+00  7.66785E+00  7.21779E+00  6.71595E+00  6.25974E+00  5.90212E+00  5.64814E+00
   5.47238E+00  5.33105E+00  5.17759E+00  4.99314E+00  4.84520E+00  5.19872E+00  7.05279E+00  1.10277E+01  1.72596E+01  2.51508E+01
   3.32343E+01  3.97378E+01  4.35226E+01  4.45172E+01  4.33112E+01  4.05022E+01  3.65438E+01  3.18215E+01  2.67186E+01  2.15728E+01
   1.66838E+01  1.21994E+01  8.19261E+00  5.33504E+00  4.24180E+00  3.84358E+00  3.63195E+00  3.55649E+00  3.72584E+00  4.67406E+00
   7.31737E+00  1.22171E+01  1.94651E+01  2.82751E+01  3.70078E+01  4.38872E+01  4.78894E+01  4.90261E+01  4.78514E+01  4.48274E+01
   4.02735E+01  3.46120E+01  2.83799E+01  2.21455E+01  1.64110E+01  1.14217E+01  7.31817E+00  4.79960E+00  4.13119E+00  4.08124E+00
   4.12003E+00  4.14627E+00  4.15694E+00  4.18135E+00  4.15469E+00  3.99343E+00  3.70289E+00  3.30055E+00  2.83028E+00  2.38128E+00
   1.99242E+00  1.71970E+00  1.54983E+00  1.42746E+00  1.29102E+00  1.09606E+00  8.21634E-01  5.00504E-01  2.15617E-01  3.54633E-02
  -2.15183E-02 -4.02895E-03 -3.80813E-04 -7.91917E-02 -2.55332E-01 -4.95536E-01 -7.57673E-01 -1.03311E+00 -1.33992E+00 -1.70724E+00
  -2.13483E+00 -2.62491E+00 -3.14026E+00 -3.57349E+00 -3.87087E+00 -4.01206E+00 -4.05789E+00 -4.11816E+00 -4.20117E+00 -4.28708E+00
  -4.37455E+00 -4.43831E+00 -4.41142E+00 -4.17904E+00 -3.63133E+00 -2.74606E+00 -1.65125E+00 -5.72596E-01  3.15975E-01  8.69167E-01
   1.02012E+00  7.87572E-01  2.84337E-01 -2.37910E-01 -5.59580E-01 -5.36590E-01 -8.48526E-02  7.78867E-01  1.97715E+00  3.43229E+00
   4.92596E+00  6.15295E+00  6.73077E+00  6.39175E+00  5.11835E+00  3.15637E+00  9.15179E-01 -1.08158E+00 -2.29700E+00 -2.45846E+00
  -1.59344E+00  1.23406E-01  2.32244E+00  4.44561E+00  5.97273E+00  6.62010E+00  6.32673E+00  5.24256E+00  3.70804E+00  2.15714E+00
   8.69974E-01  2.16217E-01  3.17103E-01  9.04680E-01  1.70774E+00  2.62949E+00  3.67949E+00  4.72849E+00  5.59538E+00  6.31362E+00
   6.92789E+00  7.43728E+00  7.79247E+00  8.02324E+00  8.27981E+00  8.55981E+00  8.69477E+00  8.59431E+00  8.25504E+00  7.75590E+00
   7.24471E+00  6.82339E+00  6.55389E+00  6.46541E+00  6.54306E+00  6.73857E+00  7.01073E+00  7.48286E+00  8.18515E+00  9.04980E+00
   1.00226E+01  1.11058E+01  1.25992E+01  1.54584E+01  2.06171E+01  2.85626E+01  3.87338E+01  4.93241E+01  5.80023E+01  6.31023E+01
   6.43394E+01  6.24534E+01  5.83065E+01  5.25588E+01  4.57799E+01  3.85140E+01  3.12174E+01  2.43014E+01  1.80087E+01  1.24211E+01
   8.26201E+00  6.59109E+00  6.12789E+00  5.91458E+00  5.78486E+00  5.67437E+00  5.52807E+00  5.36215E+00  5.18585E+00  5.00339E+00
   4.82159E+00  4.64824E+00  4.48196E+00  4.33411E+00  4.22165E+00  4.14630E+00  4.10261E+00  4.08556E+00  4.08920E+00  4.11071E+00
   4.14785E+00  4.19669E+00  4.26234E+00  4.34957E+00  4.46101E+00  4.60038E+00  4.77141E+00  4.97560E+00  5.21278E+00  5.48264E+00
   5.78490E+00  6.11689E+00  6.47516E+00  6.85645E+00  7.25604E+00  7.66916E+00  8.09118E+00  8.51788E+00  8.94586E+00  9.37295E+00
   9.79867E+00  1.02246E+01  1.06549E+01  1.10965E+01  1.15586E+01  1.20524E+01  1.25907E+01  1.31876E+01  1.38586E+01  1.46201E+01
   1.54787E+01  1.64296E+01  1.74565E+01  1.85336E+01  1.96345E+01  2.07404E+01  2.18402E+01  2.29297E+01  2.40030E+01  2.50478E+01
   2.60489E+01  2.69824E+01  2.78122E+01  2.84965E+01  2.90017E+01  2.93126E+01  2.94367E+01  2.93997E+01  2.92362E+01  2.90134E+01
   2.87427E+01  2.83681E+01  2.77708E+01  2.67935E+01  2.53326E+01  2.34277E+01  2.12530E+01  1.90754E+01  1.71328E+01  1.56129E+01
   1.46332E+01  1.41827E+01  1.41097E+01  1.42107E+01  1.43312E+01  1.44036E+01  1.44434E+01  1.44625E+01  1.43028E+01  1.39125E+01
   1.33449E+01  1.26497E+01  1.18615E+01  1.09863E+01  1.00859E+01  9.31963E+00  8.66901E+00  8.08054E+00  7.53579E+00  7.02815E+00
   6.55513E+00  6.11584E+00  5.71001E+00  5.33760E+00  4.99852E+00  4.69258E+00  4.41931E+00  4.17804E+00  3.96795E+00  3.78813E+00
   3.63768E+00  3.51566E+00  3.42113E+00  3.35315E+00  3.31088E+00  3.29358E+00  3.30066E+00  3.33155E+00  3.38568E+00  3.46249E+00
   3.56139E+00  3.68176E+00  3.82281E+00  3.98349E+00  4.16242E+00  4.35787E+00  4.56770E+00  4.78936E+00  5.01977E+00  5.25531E+00
   5.49189E+00  5.72502E+00  5.94992E+00  6.16163E+00  6.35509E+00  6.52536E+00  6.66777E+00  6.77819E+00  6.85316E+00  6.89003E+00
   6.88704E+00  6.84347E+00  6.75963E+00  6.63698E+00  6.47793E+00  6.28576E+00  6.06448E+00  5.81863E+00  5.55315E+00  5.27320E+00
   4.98391E+00  4.69018E+00  4.39655E+00  4.10712E+00  3.82546E+00  3.55460E+00  3.29688E+00  3.05405E+00  2.82728E+00  2.61722E+00
   2.42413E+00  2.24787E+00  2.08797E+00  1.94370E+00  1.81418E+00  1.69844E+00  1.59546E+00  1.50422E+00  1.42364E+00  1.35270E+00
   1.29044E+00  1.23598E+00  1.18854E+00  1.14738E+00  1.11178E+00  1.08114E+00  1.05490E+00  1.03262E+00  1.01388E+00  9.98302E-01
   9.85512E-01  9.75208E-01  9.67144E-01  9.61116E-01  9.56932E-01  9.54395E-01  9.53328E-01  9.53600E-01  9.55111E-01  9.57776E-01
   9.61492E-01  9.66149E-01  9.71656E-01  9.77956E-01  9.85014E-01  9.92781E-01  1.00119E+00  1.01017E+00  1.01968E+00  1.02971E+00
   1.04025E+00  1.05126E+00  1.06270E+00  1.07452E+00  1.08671E+00  1.09928E+00  1.11222E+00  1.12551E+00  1.13910E+00  1.15298E+00
   1.16715E+00  1.18164E+00  1.19643E+00  1.21149E+00  1.22682E+00  1.24240E+00  1.25827E+00  1.27444E+00  1.29090E+00  1.30763E+00
   1.32464E+00  1.34195E+00  1.35960E+00  1.37761E+00  1.39597E+00  1.41470E+00  1.43384E+00  1.45343E+00
 NY background values follow
     1.607E+01    1.593E+01    1.579E+01    1.565E+01    1.551E+01    1.537E+01    1.523E+01    1.509E+01    1.495E+01    1.481E+01
     1.467E+01    1.453E+01    1.439E+01    1.425E+01    1.410E+01    1.396E+01    1.382E+01    1.368E+01    1.354E+01    1.340E+01
     1.326E+01    1.312E+01    1.298E+01    1.284E+01    1.270E+01    1.256E+01    1.242E+01    1.228E+01    1.214E+01    1.200E+01
     1.186E+01    1.172E+01    1.158E+01    1.144E+01    1.130E+01    1.116E+01    1.102E+01    1.088E+01    1.075E+01    1.061E+01
     1.047E+01    1.033E+01    1.019E+01    1.006E+01    9.921E+00    9.784E+00    9.648E+00    9.512E+00    9.376E+00    9.241E+00
     9.106E+00    8.971E+00    8.837E+00    8.703E+00    8.569E+00    8.437E+00    8.304E+00    8.172E+00    8.041E+00    7.910E+00
     7.779E+00    7.649E+00    7.520E+00    7.391E+00    7.263E+00    7.136E+00    7.009E+00    6.883E+00    6.758E+00    6.633E+00
     6.509E+00    6.386E+00    6.263E+00    6.142E+00    6.021E+00    5.901E+00    5.781E+00    5.663E+00    5.545E+00    5.429E+00
     5.313E+00    5.198E+00    5.085E+00    4.972E+00    4.860E+00    4.749E+00    4.639E+00    4.531E+00    4.423E+00    4.316E+00
     4.211E+00    4.106E+00    4.003E+00    3.901E+00    3.800E+00    3.700E+00    3.601E+00    3.503E+00    3.407E+00    3.312E+00
     3.218E+00    3.125E+00    3.033E+00    2.942E+00    2.852E+00    2.764E+00    2.677E+00    2.591E+00    2.506E+00    2.422E+00
     2.340E+00    2.259E+00    2.179E+00    2.100E+00    2.022E+00    1.946E+00    1.871E+00    1.796E+00    1.724E+00    1.652E+00
     1.582E+00    1.513E+00    1.445E+00    1.378E+00    1.312E+00    1.248E+00    1.185E+00    1.123E+00    1.063E+00    1.004E+00
     9.458E-01    8.891E-01    8.336E-01    7.794E-01    7.265E-01    6.748E-01    6.244E-01    5.753E-01    5.275E-01    4.809E-01
     4.356E-01    3.916E-01    3.488E-01    3.072E-01    2.669E-01    2.279E-01    1.901E-01    1.535E-01    1.181E-01    8.398E-02
     5.106E-02    1.935E-02   -1.114E-02   -4.043E-02   -6.852E-02   -9.541E-02   -1.211E-01   -1.456E-01   -1.690E-01   -1.911E-01
    -2.121E-01   -2.319E-01   -2.505E-01   -2.680E-01   -2.843E-01   -2.995E-01   -3.135E-01   -3.263E-01   -3.381E-01   -3.487E-01
    -3.581E-01   -3.665E-01   -3.737E-01   -3.798E-01   -3.848E-01   -3.886E-01   -3.914E-01   -3.931E-01   -3.936E-01   -3.931E-01
    -3.915E-01   -3.888E-01   -3.851E-01   -3.803E-01   -3.744E-01   -3.676E-01   -3.598E-01   -3.511E-01   -3.414E-01   -3.309E-01
    -3.195E-01   -3.072E-01   -2.941E-01   -2.803E-01   -2.656E-01   -2.502E-01   -2.342E-01   -2.174E-01   -1.999E-01   -1.819E-01
    -1.632E-01   -1.439E-01   -1.241E-01   -1.037E-01   -8.283E-02   -6.147E-02   -3.964E-02   -1.739E-02    5.271E-03    2.831E-02
     5.171E-02    7.544E-02    9.947E-02    1.238E-01    1.484E-01    1.731E-01    1.981E-01    2.233E-01    2.486E-01    2.741E-01
     2.996E-01    3.253E-01    3.509E-01    3.766E-01    4.023E-01    4.280E-01    4.536E-01    4.791E-01    5.046E-01    5.300E-01
     5.552E-01    5.804E-01    6.054E-01    6.303E-01    6.551E-01    6.798E-01    7.043E-01    7.287E-01    7.529E-01    7.770E-01
     8.009E-01    8.246E-01    8.481E-01    8.715E-01    8.946E-01    9.176E-01    9.403E-01    9.628E-01    9.851E-01    1.007E+00
     1.029E+00    1.051E+00    1.072E+00    1.093E+00    1.114E+00    1.134E+00    1.155E+00    1.174E+00    1.194E+00    1.214E+00
     1.233E+00    1.251E+00    1.270E+00    1.288E+00    1.306E+00    1.323E+00    1.340E+00    1.357E+00    1.373E+00    1.389E+00
     1.405E+00    1.420E+00    1.435E+00    1.449E+00    1.463E+00    1.477E+00    1.490E+00    1.503E+00    1.515E+00    1.527E+00
     1.539E+00    1.550E+00    1.561E+00    1.571E+00    1.581E+00    1.591E+00    1.600E+00    1.608E+00    1.617E+00    1.624E+00
     1.632E+00    1.639E+00    1.645E+00    1.652E+00    1.657E+00    1.663E+00    1.667E+00    1.672E+00    1.676E+00    1.679E+00
     1.682E+00    1.685E+00    1.687E+00    1.689E+00    1.690E+00    1.691E+00    1.692E+00    1.691E+00    1.691E+00    1.690E+00
     1.689E+00    1.687E+00    1.684E+00    1.681E+00    1.678E+00    1.674E+00    1.670E+00    1.665E+00    1.660E+00    1.655E+00
     1.648E+00    1.642E+00    1.635E+00    1.628E+00    1.620E+00    1.612E+00    1.603E+00    1.595E+00    1.585E+00    1.576E+00
     1.566E+00    1.556E+00    1.546E+00    1.535E+00    1.524E+00    1.513E+00    1.501E+00    1.489E+00    1.477E+00    1.465E+00
     1.453E+00    1.440E+00    1.428E+00    1.415E+00    1.402E+00    1.389E+00    1.375E+00    1.362E+00    1.348E+00    1.335E+00
     1.321E+00    1.307E+00    1.293E+00    1.280E+00    1.266E+00    1.252E+00    1.238E+00    1.224E+00    1.210E+00    1.196E+00
     1.182E+00    1.169E+00    1.155E+00    1.141E+00    1.128E+00    1.114E+00    1.101E+00    1.088E+00    1.075E+00    1.062E+00
     1.049E+00    1.036E+00    1.024E+00    1.012E+00    9.996E-01    9.878E-01    9.762E-01    9.649E-01    9.538E-01    9.430E-01
     9.324E-01    9.222E-01    9.122E-01    9.026E-01    8.932E-01    8.843E-01    8.756E-01    8.673E-01    8.594E-01    8.519E-01
     8.447E-01    8.380E-01    8.317E-01    8.258E-01    8.203E-01    8.153E-01    8.108E-01    8.067E-01    8.031E-01    8.001E-01
     7.975E-01    7.954E-01    7.939E-01    7.930E-01    7.925E-01    7.927E-01    7.934E-01    7.947E-01    7.967E-01    7.991E-01
     8.022E-01    8.058E-01    8.100E-01    8.147E-01    8.199E-01    8.256E-01    8.318E-01    8.385E-01    8.456E-01    8.532E-01
     8.613E-01    8.697E-01    8.786E-01    8.879E-01    8.975E-01    9.076E-01    9.180E-01    9.288E-01    9.399E-01    9.513E-01
     9.630E-01    9.750E-01    9.874E-01    9.999E-01    1.013E+00    1.026E+00    1.039E+00    1.053E+00    1.067E+00    1.081E+00
     1.095E+00    1.109E+00    1.123E+00    1.138E+00    1.153E+00    1.168E+00    1.183E+00    1.198E+00    1.213E+00    1.228E+00
     1.244E+00    1.259E+00    1.274E+00    1.290E+00    1.305E+00    1.320E+00    1.336E+00    1.351E+00    1.367E+00    1.382E+00
     1.398E+00    1.414E+00    1.429E+00    1.445E+00    1.460E+00    1.476E+00    1.492E+00    1.507E+00    1.523E+00    1.539E+00
     1.554E+00    1.570E+00    1.586E+00    1.602E+00    1.617E+00    1.633E+00    1.649E+00    1.665E+00    1.681E+00    1.697E+00
     1.712E+00    1.728E+00    1.744E+00    1.760E+00    1.776E+00    1.792E+00    1.808E+00    1.824E+00    1.840E+00    1.856E+00
     1.872E+00    1.888E+00    1.904E+00    1.920E+00    1.936E+00    1.952E+00    1.968E+00    1.984E+00
 Ala      Conc. = 4.24E+01
