 LCModel (Version 6.3-1L) Copyright: S.W. Provencher.          Ref.: Magn. Reson. Med. 30:672-679 (1993).                
 Slice#3 Row#1 Col#11  PD_05_press_1_raw_act
 36 lines in following concentration table = NCONC+1
    Conc.  %SD /Cr+PCr  Metabolite                                         
  236.883  41%   5.328 Ala                                                 
   10.410  84%   0.234 Asp                                                 
   44.459  62%   1.000 Cr                                                  
    0.000 999%   0.000 PCr                                                 
    6.374  83%   0.143 GABA                                                
    6.223  85%   0.140 Glc                                                 
   80.692 199%   1.815 Gln                                                 
  231.033  81%   5.197 Glu                                                 
    0.000 999%   0.000 GPC                                                 
   17.896 283%   0.403 PCh                                                 
    0.000 999%   0.000 GSH                                                 
  180.390  75%   4.057 Ins                                                 
  216.488  60%   4.869 Lac                                                 
  107.741  32%   2.423 NAA                                                 
    0.000 999%   0.000 NAAG                                                
    2.310  76% 5.2E-02 Scyllo                                              
   10.877  80%   0.245 Tau                                                 
    4.351  91% 9.8E-02 -CrCH2                                              
   17.896  60%   0.403 GPC+PCh                                             
  107.741  32%   2.423 NAA+NAAG                                            
   44.459  62%   1.000 Cr+PCr                                              
  311.724  90%   7.012 Glu+Gln                                             
 7.77E+03  11% 174.732 Lip13a                                              
 3.24E+03  35%  72.820 Lip13b                                              
    0.000 999%   0.000 Lip09                                               
  423.677  33%   9.530 MM09                                                
    0.000 999%   0.000 Lip20                                               
  639.338  28%  14.380 MM20                                                
  119.549  71%   2.689 MM12                                                
 1.30E+03  20%  29.276 MM14                                                
  761.535  22%  17.129 MM17                                                
 1.10E+04   5% 247.551 Lip13a+Lip13b                                       
 1.24E+04   4% 279.517 MM14+Lip13a+Lip13b+MM12                             
  423.677  33%   9.530 MM09+Lip09                                          
  639.338  28%  14.380 MM20+Lip20                                          
   6 lines in following misc. output table
  FWHM = 0.099 ppm    S/N =  14                                            
  Data shift =-0.054 ppm                                                   
  Ph: -45 deg     -30.0 deg/ppm                                            
  alphaB,S = 1.4E+00,   7.3E+00                                            
   14 spline knots.   Ns = 6(1)                                            
  (12) 8 infls.   (11) 5 extrs.                                            
  498 points on ppm-axis = NY
      4.000000     3.992357     3.984714     3.977070     3.969427     3.961784     3.954141     3.946497     3.938854     3.931211
      3.923568     3.915925     3.908281     3.900638     3.892995     3.885352     3.877708     3.870065     3.862422     3.854779
      3.847136     3.839492     3.831849     3.824206     3.816563     3.808919     3.801276     3.793633     3.785990     3.778347
      3.770703     3.763060     3.755417     3.747774     3.740130     3.732487     3.724844     3.717201     3.709558     3.701914
      3.694271     3.686628     3.678985     3.671341     3.663698     3.656055     3.648412     3.640769     3.633125     3.625482
      3.617839     3.610196     3.602552     3.594909     3.587266     3.579623     3.571980     3.564336     3.556693     3.549050
      3.541407     3.533763     3.526120     3.518477     3.510834     3.503191     3.495547     3.487904     3.480261     3.472618
      3.464974     3.457331     3.449688     3.442045     3.434402     3.426758     3.419115     3.411472     3.403829     3.396185
      3.388542     3.380899     3.373256     3.365613     3.357969     3.350326     3.342683     3.335040     3.327396     3.319753
      3.312110     3.304467     3.296824     3.289180     3.281537     3.273894     3.266251     3.258607     3.250964     3.243321
      3.235678     3.228034     3.220391     3.212748     3.205105     3.197462     3.189818     3.182175     3.174532     3.166889
      3.159245     3.151602     3.143959     3.136316     3.128673     3.121029     3.113386     3.105743     3.098100     3.090456
      3.082813     3.075170     3.067527     3.059884     3.052240     3.044597     3.036954     3.029311     3.021667     3.014024
      3.006381     2.998738     2.991095     2.983451     2.975808     2.968165     2.960522     2.952878     2.945235     2.937592
      2.929949     2.922306     2.914662     2.907019     2.899376     2.891733     2.884089     2.876446     2.868803     2.861160
      2.853517     2.845873     2.838230     2.830587     2.822944     2.815300     2.807657     2.800014     2.792371     2.784728
      2.777084     2.769441     2.761798     2.754155     2.746511     2.738868     2.731225     2.723582     2.715939     2.708295
      2.700652     2.693009     2.685366     2.677722     2.670079     2.662436     2.654793     2.647150     2.639506     2.631863
      2.624220     2.616577     2.608933     2.601290     2.593647     2.586004     2.578361     2.570717     2.563074     2.555431
      2.547788     2.540144     2.532501     2.524858     2.517215     2.509572     2.501928     2.494285     2.486642     2.478999
      2.471355     2.463712     2.456069     2.448426     2.440783     2.433139     2.425496     2.417853     2.410210     2.402566
      2.394923     2.387280     2.379637     2.371994     2.364350     2.356707     2.349064     2.341421     2.333777     2.326134
      2.318491     2.310848     2.303205     2.295561     2.287918     2.280275     2.272632     2.264988     2.257345     2.249702
      2.242059     2.234416     2.226772     2.219129     2.211486     2.203843     2.196199     2.188556     2.180913     2.173270
      2.165627     2.157983     2.150340     2.142697     2.135054     2.127410     2.119767     2.112124     2.104481     2.096838
      2.089194     2.081551     2.073908     2.066265     2.058621     2.050978     2.043335     2.035692     2.028049     2.020405
      2.012762     2.005119     1.997476     1.989833     1.982190     1.974546     1.966903     1.959260     1.951617     1.943974
      1.936331     1.928688     1.921045     1.913402     1.905759     1.898115     1.890472     1.882829     1.875186     1.867543
      1.859900     1.852257     1.844614     1.836971     1.829327     1.821684     1.814041     1.806398     1.798755     1.791112
      1.783469     1.775826     1.768183     1.760540     1.752896     1.745253     1.737610     1.729967     1.722324     1.714681
      1.707038     1.699395     1.691752     1.684108     1.676465     1.668822     1.661179     1.653536     1.645893     1.638250
      1.630607     1.622964     1.615321     1.607677     1.600034     1.592391     1.584748     1.577105     1.569462     1.561819
      1.554176     1.546533     1.538890     1.531246     1.523603     1.515960     1.508317     1.500674     1.493031     1.485388
      1.477745     1.470102     1.462458     1.454815     1.447172     1.439529     1.431886     1.424243     1.416600     1.408957
      1.401314     1.393671     1.386027     1.378384     1.370741     1.363098     1.355455     1.347812     1.340169     1.332526
      1.324883     1.317240     1.309596     1.301953     1.294310     1.286667     1.279024     1.271381     1.263738     1.256095
      1.248452     1.240808     1.233165     1.225522     1.217879     1.210236     1.202593     1.194950     1.187307     1.179664
      1.172021     1.164377     1.156734     1.149091     1.141448     1.133805     1.126162     1.118519     1.110876     1.103233
      1.095590     1.087946     1.080303     1.072660     1.065017     1.057374     1.049731     1.042088     1.034445     1.026802
      1.019158     1.011515     1.003872     0.996229     0.988586     0.980943     0.973300     0.965657     0.958014     0.950371
      0.942727     0.935084     0.927441     0.919798     0.912155     0.904512     0.896869     0.889226     0.881583     0.873940
      0.866296     0.858653     0.851010     0.843367     0.835724     0.828081     0.820438     0.812795     0.805152     0.797508
      0.789865     0.782222     0.774579     0.766936     0.759293     0.751650     0.744007     0.736364     0.728721     0.721077
      0.713434     0.705791     0.698148     0.690505     0.682862     0.675219     0.667576     0.659933     0.652290     0.644646
      0.637003     0.629360     0.621717     0.614074     0.606431     0.598788     0.591145     0.583502     0.575858     0.568215
      0.560572     0.552929     0.545286     0.537643     0.530000     0.522357     0.514714     0.507071     0.499427     0.491784
      0.484141     0.476498     0.468855     0.461212     0.453569     0.445925     0.438282     0.430639     0.422996     0.415353
      0.407710     0.400067     0.392424     0.384780     0.377137     0.369494     0.361851     0.354208     0.346565     0.338922
      0.331278     0.323635     0.315992     0.308349     0.300706     0.293063     0.285420     0.277777     0.270133     0.262490
      0.254847     0.247204     0.239561     0.231918     0.224275     0.216631     0.208988     0.201345
 NY phased data points follow
   5.46224E+00  4.47375E+00  4.60195E+00  6.75396E+00  4.67821E+00  3.47140E+00  4.60427E+00  5.57523E+00  1.67516E+00  4.86756E+00
   4.73076E+00  4.59805E+00  4.27184E+00  1.43235E+00  3.90355E+00  5.63337E+00  5.22913E+00  6.20272E+00  3.60732E+00  3.01019E+00
   4.54540E+00  2.37345E+00  2.49280E+00  1.92926E+00  3.99578E+00  4.04859E+00  6.46293E+00  3.25652E+00  5.05662E+00  3.45422E+00
   4.07647E+00  3.91007E+00  4.37283E+00  2.14462E+00  4.29978E+00  3.43764E+00  3.83163E+00  3.52133E+00  3.16765E+00  4.26217E+00
   3.47166E+00  5.44335E+00  4.00262E+00  5.26507E+00  5.88595E+00  4.26317E+00  4.02553E+00  5.20840E+00  3.97114E+00  3.07213E+00
   1.34765E+00  6.04011E+00  4.04346E+00  5.24574E+00  3.40218E+00  4.09044E+00  4.24325E+00  2.85268E+00  3.56534E+00  5.39916E+00
   1.37405E+00  5.60471E+00  3.19752E+00  6.11343E+00  3.59196E+00  2.69932E+00  4.17960E+00  2.93605E+00  4.78471E+00  3.49723E+00
   4.14845E+00  3.91773E+00  4.58810E+00  6.31028E+00  5.29907E+00  5.27943E+00  5.85416E+00  4.44587E+00  5.11449E+00  3.47765E+00
   4.53009E+00  4.12000E+00  4.10150E+00  4.31627E+00  3.67435E+00  3.28207E+00  3.53514E+00  5.29364E+00  3.26305E+00  7.25561E+00
   6.67177E+00  5.28012E+00  5.85793E+00  4.26116E+00  2.87530E+00  5.63504E+00  5.35459E+00  5.61367E+00  3.56252E+00  5.58850E+00
   4.59842E+00  5.81560E+00  5.00716E+00  4.85168E+00  4.72901E+00  5.20591E+00  4.33125E+00  3.96492E+00  5.55766E+00  7.12685E+00
   5.82415E+00  5.94881E+00  5.74463E+00  5.46591E+00  4.01641E+00  5.74222E+00  5.03525E+00  5.51316E+00  4.15633E+00  4.80959E+00
   4.50291E+00  4.33644E+00  4.69183E+00  4.23753E+00  3.23909E+00  4.16460E+00  5.73326E+00  5.57836E+00  6.36353E+00  5.31046E+00
   5.35657E+00  4.57943E+00  6.87579E+00  6.43102E+00  9.32919E+00  5.04122E+00  3.17367E+00  4.45814E+00  4.32910E+00  4.34268E+00
   4.76400E+00  4.71231E+00  3.32095E+00  1.98650E+00  5.54159E+00  4.33442E+00  4.29515E+00  6.17335E+00  5.26257E+00  4.95452E+00
   3.64351E+00  5.39841E+00  3.65556E+00  3.80315E+00  3.18323E+00  3.83227E+00  4.47029E+00  6.31257E+00  4.13327E+00  5.87088E+00
   5.82071E+00  6.43611E+00  4.32859E+00  5.95694E+00  5.71293E+00  6.97096E+00  5.76266E+00  3.80003E+00  5.00839E+00  5.29349E+00
   7.09635E+00  7.74490E+00  4.46547E+00  4.97248E+00  4.86216E+00  4.94583E+00  4.81195E+00  4.76994E+00  7.15592E+00  4.57889E+00
   7.08494E+00  7.46825E+00  6.19459E+00  5.78761E+00  5.29553E+00  4.78255E+00  6.98578E+00  7.13604E+00  5.09359E+00  5.26236E+00
   5.17600E+00  6.03717E+00  5.29634E+00  9.95535E+00  6.19372E+00  6.56686E+00  6.82079E+00  5.22636E+00  6.09000E+00  6.70370E+00
   5.64821E+00  6.22028E+00  5.14866E+00  5.98941E+00  6.28426E+00  5.52401E+00  7.27141E+00  8.48542E+00  6.66801E+00  8.67503E+00
   8.30877E+00  6.36087E+00  6.27163E+00  5.80741E+00  9.12913E+00  6.42677E+00  7.00339E+00  7.18625E+00  7.36010E+00  7.26685E+00
   7.35590E+00  6.64902E+00  9.66977E+00  7.27542E+00  1.07174E+01  8.12286E+00  5.90067E+00  7.49562E+00  7.39925E+00  7.11668E+00
   8.56104E+00  9.03256E+00  7.06451E+00  8.03089E+00  9.61172E+00  1.11088E+01  9.35691E+00  8.82132E+00  9.47898E+00  1.00686E+01
   9.49010E+00  1.35566E+01  9.64378E+00  1.01556E+01  1.03980E+01  1.07927E+01  1.12399E+01  1.09652E+01  1.14562E+01  8.70065E+00
   7.39291E+00  1.31713E+01  1.00303E+01  1.30624E+01  1.37125E+01  1.19185E+01  1.16602E+01  1.08880E+01  1.26311E+01  1.29700E+01
   1.42403E+01  1.16543E+01  1.27397E+01  1.29411E+01  1.32263E+01  1.31499E+01  1.53239E+01  1.53963E+01  1.34380E+01  1.31897E+01
   1.51209E+01  1.25421E+01  1.36418E+01  1.00155E+01  1.14805E+01  1.22893E+01  1.25519E+01  1.34684E+01  1.41182E+01  1.36504E+01
   1.63586E+01  1.34307E+01  1.41064E+01  1.33910E+01  1.23459E+01  1.33713E+01  1.25484E+01  1.36360E+01  1.03370E+01  1.20724E+01
   1.44177E+01  1.37495E+01  1.38958E+01  1.20119E+01  1.43577E+01  1.19453E+01  1.50395E+01  1.57406E+01  1.52744E+01  1.62808E+01
   1.48027E+01  1.35410E+01  1.40114E+01  1.44588E+01  1.56646E+01  1.60094E+01  1.52896E+01  1.77951E+01  1.53519E+01  1.38372E+01
   1.62847E+01  1.42576E+01  1.23782E+01  1.32572E+01  1.56861E+01  1.45113E+01  1.56069E+01  1.65216E+01  1.63101E+01  1.77657E+01
   1.94462E+01  2.00815E+01  1.91483E+01  2.02481E+01  1.96954E+01  2.15944E+01  2.06999E+01  2.12882E+01  2.10798E+01  1.87606E+01
   2.00935E+01  2.21047E+01  2.04423E+01  2.16833E+01  2.15951E+01  2.12008E+01  2.05425E+01  2.11827E+01  2.34948E+01  2.28227E+01
   2.54836E+01  2.55994E+01  2.48238E+01  2.82284E+01  2.75848E+01  2.77856E+01  2.79730E+01  2.91565E+01  2.98402E+01  3.23800E+01
   3.16296E+01  3.11666E+01  3.14552E+01  3.31160E+01  3.53309E+01  3.59123E+01  3.69416E+01  3.74547E+01  3.95938E+01  4.24529E+01
   4.15518E+01  4.35933E+01  4.72840E+01  4.62078E+01  4.59559E+01  4.73571E+01  5.02689E+01  5.03218E+01  5.39786E+01  5.31535E+01
   5.44615E+01  5.77958E+01  5.82689E+01  6.15517E+01  6.25890E+01  6.04831E+01  6.21231E+01  6.15426E+01  6.06543E+01  6.01035E+01
   6.00134E+01  5.56598E+01  5.49795E+01  5.30554E+01  5.07257E+01  4.62547E+01  3.83294E+01  3.85588E+01  3.76749E+01  3.26091E+01
   3.00426E+01  2.89449E+01  2.71706E+01  2.35008E+01  2.21776E+01  2.11988E+01  2.10687E+01  1.94686E+01  1.76974E+01  1.58999E+01
   1.70280E+01  1.68517E+01  1.49214E+01  1.31940E+01  1.55895E+01  1.28861E+01  1.43483E+01  1.13134E+01  1.36101E+01  1.15492E+01
   1.25525E+01  1.08966E+01  1.28445E+01  8.90419E+00  1.30591E+01  1.13540E+01  1.23613E+01  9.80627E+00  9.63636E+00  1.14808E+01
   1.22586E+01  1.01874E+01  1.10680E+01  1.01624E+01  9.88463E+00  1.23385E+01  1.00199E+01  8.64019E+00  1.19385E+01  9.34081E+00
   9.38308E+00  1.01443E+01  9.99649E+00  1.12328E+01  8.91993E+00  1.08182E+01  9.19862E+00  7.43637E+00  8.65426E+00  1.00547E+01
   9.65491E+00  9.06672E+00  1.12001E+01  8.56676E+00  9.01386E+00  9.91727E+00  8.42200E+00  9.02467E+00  6.84350E+00  8.40772E+00
   6.80792E+00  7.14754E+00  6.58926E+00  9.00960E+00  7.13168E+00  7.05359E+00  7.15302E+00  8.77508E+00  6.79260E+00  7.05330E+00
   6.12819E+00  4.22481E+00  6.32618E+00  6.95911E+00  4.90334E+00  4.63468E+00  3.77718E+00  5.79009E+00  4.59246E+00  4.68210E+00
   5.11234E+00  3.83659E+00  5.46204E+00  4.89421E+00  6.02418E+00  6.28699E+00  6.42110E+00  3.36233E+00  4.96803E+00  3.22284E+00
   4.18910E+00  4.72876E+00  1.70753E+00  2.54117E+00  3.89856E+00  4.64628E+00  3.22891E+00  3.32146E+00  2.34477E+00  1.89110E+00
   4.34737E+00  4.11186E+00  6.52184E+00  3.95826E+00  4.19766E+00  4.86162E+00  3.36583E+00  4.72398E+00
 NY points of the fit to the data follow
   4.13030E+00  3.93044E+00  3.82696E+00  3.58852E+00  3.54037E+00  3.79878E+00  3.97306E+00  3.81239E+00  3.74834E+00  3.96371E+00
   4.21828E+00  4.28375E+00  4.12916E+00  3.99167E+00  4.08995E+00  4.22178E+00  4.31783E+00  4.43294E+00  4.33615E+00  4.08636E+00
   4.07685E+00  3.84588E+00  3.67660E+00  3.84928E+00  4.00056E+00  3.94365E+00  3.86855E+00  3.78518E+00  3.95007E+00  4.05438E+00
   3.94960E+00  3.96919E+00  3.88767E+00  3.53736E+00  3.52179E+00  3.68375E+00  3.85079E+00  4.17298E+00  4.49505E+00  4.62197E+00
   4.64916E+00  4.43975E+00  4.23382E+00  4.05664E+00  3.89912E+00  4.09340E+00  4.50375E+00  4.61978E+00  4.52234E+00  4.41941E+00
   4.43677E+00  4.54730E+00  4.67671E+00  4.85329E+00  4.76070E+00  4.25795E+00  3.86918E+00  3.80873E+00  3.94867E+00  4.10759E+00
   4.18532E+00  4.22714E+00  4.25622E+00  4.26019E+00  4.28207E+00  4.38144E+00  4.46398E+00  4.38904E+00  4.25678E+00  4.15669E+00
   4.18260E+00  4.24624E+00  4.30427E+00  4.36511E+00  4.41305E+00  4.44687E+00  4.44100E+00  4.44226E+00  4.46534E+00  4.40043E+00
   4.35856E+00  4.29930E+00  4.21969E+00  4.18016E+00  4.19682E+00  4.18276E+00  4.10444E+00  4.03471E+00  4.03525E+00  4.06019E+00
   4.08523E+00  4.09607E+00  4.04251E+00  3.95261E+00  3.96520E+00  4.07758E+00  4.25433E+00  4.58805E+00  4.85850E+00  4.64294E+00
   4.60229E+00  4.95328E+00  5.34452E+00  5.41551E+00  5.19715E+00  5.09164E+00  5.21061E+00  5.38159E+00  5.57398E+00  5.80866E+00
   5.53026E+00  4.83650E+00  4.63920E+00  4.61218E+00  4.62809E+00  4.64928E+00  4.68257E+00  4.71460E+00  4.75031E+00  4.79820E+00
   4.89235E+00  5.18595E+00  5.40224E+00  5.22065E+00  5.23471E+00  5.60322E+00  5.96863E+00  6.06969E+00  5.93454E+00  5.86203E+00
   5.97704E+00  6.10140E+00  6.24283E+00  6.41271E+00  6.09036E+00  5.46681E+00  5.28301E+00  5.24332E+00  5.23174E+00  5.22720E+00
   5.22335E+00  5.22072E+00  5.22293E+00  5.22714E+00  5.23653E+00  5.24449E+00  5.24239E+00  5.23744E+00  5.23651E+00  5.24720E+00
   5.26081E+00  5.27081E+00  5.27840E+00  5.27833E+00  5.27651E+00  5.26851E+00  5.27886E+00  5.31232E+00  5.33129E+00  5.34004E+00
   5.32853E+00  5.32778E+00  5.36975E+00  5.41546E+00  5.43515E+00  5.43237E+00  5.42081E+00  5.42919E+00  5.48747E+00  5.54631E+00
   5.56870E+00  5.58120E+00  5.59176E+00  5.59374E+00  5.58916E+00  5.58312E+00  5.62145E+00  5.70021E+00  5.74555E+00  5.74710E+00
   5.74630E+00  5.76533E+00  5.83192E+00  5.94857E+00  6.02876E+00  6.02662E+00  6.03502E+00  6.08123E+00  6.17184E+00  6.26311E+00
   6.30348E+00  6.33583E+00  6.35725E+00  6.38994E+00  6.48866E+00  6.60316E+00  6.66930E+00  6.70795E+00  6.75035E+00  6.83816E+00
   6.94909E+00  7.00876E+00  7.05908E+00  7.13433E+00  7.05465E+00  7.08954E+00  7.24705E+00  7.25233E+00  7.20018E+00  7.22581E+00
   7.47607E+00  7.51302E+00  7.31733E+00  7.33597E+00  7.60856E+00  7.68457E+00  7.44423E+00  7.58302E+00  8.03934E+00  8.29515E+00
   8.20676E+00  8.11518E+00  8.14005E+00  7.86917E+00  7.69503E+00  7.65361E+00  7.66289E+00  7.77210E+00  7.96163E+00  8.44071E+00
   9.03675E+00  9.38834E+00  9.49053E+00  9.56377E+00  9.53076E+00  9.51878E+00  9.58549E+00  9.57813E+00  9.73520E+00  9.96302E+00
   1.00428E+01  1.00299E+01  1.01244E+01  1.03887E+01  1.05673E+01  1.06259E+01  1.06797E+01  1.08013E+01  1.08229E+01  1.07725E+01
   1.09918E+01  1.11798E+01  1.12489E+01  1.14168E+01  1.20938E+01  1.26431E+01  1.20983E+01  1.19505E+01  1.28107E+01  1.37539E+01
   1.39729E+01  1.35620E+01  1.32146E+01  1.32949E+01  1.34561E+01  1.37687E+01  1.42510E+01  1.36638E+01  1.20623E+01  1.14744E+01
   1.13172E+01  1.12070E+01  1.11862E+01  1.12530E+01  1.12698E+01  1.12889E+01  1.13470E+01  1.14307E+01  1.15289E+01  1.16649E+01
   1.18017E+01  1.19163E+01  1.20362E+01  1.21726E+01  1.23245E+01  1.24898E+01  1.26630E+01  1.28521E+01  1.30594E+01  1.32633E+01
   1.34616E+01  1.36542E+01  1.38366E+01  1.40033E+01  1.41529E+01  1.42864E+01  1.44003E+01  1.44906E+01  1.45593E+01  1.46073E+01
   1.46343E+01  1.46447E+01  1.46407E+01  1.46261E+01  1.46055E+01  1.45845E+01  1.45685E+01  1.45634E+01  1.45752E+01  1.46096E+01
   1.46712E+01  1.47649E+01  1.48955E+01  1.50665E+01  1.52810E+01  1.55417E+01  1.58507E+01  1.62104E+01  1.66256E+01  1.71078E+01
   1.76931E+01  1.84943E+01  1.92832E+01  1.90438E+01  1.91635E+01  2.02169E+01  2.10293E+01  2.09430E+01  2.02297E+01  1.98799E+01
   2.09654E+01  2.16254E+01  2.10983E+01  2.08697E+01  2.07903E+01  2.02928E+01  2.08548E+01  2.14789E+01  2.20616E+01  2.29735E+01
   2.41528E+01  2.59547E+01  2.72727E+01  2.71271E+01  2.74098E+01  2.82569E+01  2.86301E+01  2.85306E+01  2.89276E+01  3.07211E+01
   3.20075E+01  3.24612E+01  3.34009E+01  3.44581E+01  3.46700E+01  3.54770E+01  3.66337E+01  3.78008E+01  3.90986E+01  4.04479E+01
   4.23262E+01  4.43289E+01  4.48657E+01  4.54034E+01  4.65114E+01  4.79436E+01  4.95909E+01  5.13849E+01  5.32598E+01  5.51444E+01
   5.69619E+01  5.86338E+01  6.00827E+01  6.12374E+01  6.20356E+01  6.24279E+01  6.23799E+01  6.18745E+01  6.09130E+01  5.95143E+01
   5.77129E+01  5.55576E+01  5.31072E+01  5.04286E+01  4.75923E+01  4.46691E+01  4.17265E+01  3.88258E+01  3.60206E+01  3.33549E+01
   3.08628E+01  2.85681E+01  2.64844E+01  2.46166E+01  2.29621E+01  2.15121E+01  2.02530E+01  1.91682E+01  1.82386E+01  1.74443E+01
   1.67657E+01  1.61839E+01  1.56817E+01  1.52433E+01  1.48545E+01  1.45036E+01  1.41809E+01  1.38785E+01  1.35904E+01  1.33119E+01
   1.30400E+01  1.27725E+01  1.25086E+01  1.22480E+01  1.19911E+01  1.17385E+01  1.14909E+01  1.12493E+01  1.10148E+01  1.07883E+01
   1.05705E+01  1.03618E+01  1.01626E+01  9.97298E+00  9.79313E+00  9.62285E+00  9.46176E+00  9.30938E+00  9.16522E+00  9.02885E+00
   8.89974E+00  8.77729E+00  8.66084E+00  8.54983E+00  8.44376E+00  8.34225E+00  8.24483E+00  8.15107E+00  8.06050E+00  7.97280E+00
   7.88772E+00  7.80506E+00  7.72455E+00  7.64591E+00  7.56890E+00  7.49340E+00  7.41930E+00  7.34651E+00  7.27486E+00  7.20417E+00
   7.13434E+00  7.06534E+00  6.99712E+00  6.92965E+00  6.86277E+00  6.79642E+00  6.73053E+00  6.66517E+00  6.60029E+00  6.53585E+00
   6.47174E+00  6.40794E+00  6.34444E+00  6.28130E+00  6.21847E+00  6.15593E+00  6.09356E+00  6.03141E+00  5.96947E+00  5.90782E+00
   5.84638E+00  5.78512E+00  5.72398E+00  5.66301E+00  5.60223E+00  5.54168E+00  5.48128E+00  5.42102E+00  5.36086E+00  5.30086E+00
   5.24106E+00  5.18145E+00  5.12197E+00  5.06260E+00  5.00334E+00  4.94427E+00  4.88539E+00  4.82670E+00  4.76811E+00  4.70965E+00
   4.65134E+00  4.59325E+00  4.53535E+00  4.47762E+00  4.42002E+00  4.36258E+00  4.30533E+00  4.24832E+00
 NY background values follow
     3.371E+00    3.375E+00    3.378E+00    3.382E+00    3.386E+00    3.389E+00    3.393E+00    3.397E+00    3.401E+00    3.405E+00
     3.408E+00    3.412E+00    3.416E+00    3.420E+00    3.424E+00    3.428E+00    3.432E+00    3.436E+00    3.440E+00    3.444E+00
     3.448E+00    3.452E+00    3.456E+00    3.460E+00    3.465E+00    3.469E+00    3.473E+00    3.478E+00    3.482E+00    3.487E+00
     3.491E+00    3.496E+00    3.501E+00    3.506E+00    3.511E+00    3.516E+00    3.521E+00    3.526E+00    3.531E+00    3.536E+00
     3.542E+00    3.547E+00    3.553E+00    3.559E+00    3.564E+00    3.570E+00    3.576E+00    3.582E+00    3.588E+00    3.595E+00
     3.601E+00    3.607E+00    3.614E+00    3.621E+00    3.628E+00    3.634E+00    3.641E+00    3.649E+00    3.656E+00    3.663E+00
     3.670E+00    3.678E+00    3.686E+00    3.693E+00    3.701E+00    3.709E+00    3.717E+00    3.725E+00    3.734E+00    3.742E+00
     3.751E+00    3.759E+00    3.768E+00    3.777E+00    3.786E+00    3.795E+00    3.804E+00    3.813E+00    3.822E+00    3.832E+00
     3.841E+00    3.851E+00    3.861E+00    3.871E+00    3.881E+00    3.891E+00    3.901E+00    3.912E+00    3.922E+00    3.933E+00
     3.943E+00    3.954E+00    3.965E+00    3.976E+00    3.987E+00    3.998E+00    4.010E+00    4.021E+00    4.033E+00    4.045E+00
     4.057E+00    4.069E+00    4.081E+00    4.094E+00    4.106E+00    4.119E+00    4.132E+00    4.145E+00    4.159E+00    4.172E+00
     4.186E+00    4.200E+00    4.214E+00    4.228E+00    4.243E+00    4.257E+00    4.272E+00    4.287E+00    4.303E+00    4.318E+00
     4.334E+00    4.350E+00    4.366E+00    4.383E+00    4.400E+00    4.417E+00    4.434E+00    4.451E+00    4.469E+00    4.487E+00
     4.505E+00    4.524E+00    4.543E+00    4.562E+00    4.581E+00    4.601E+00    4.621E+00    4.641E+00    4.662E+00    4.683E+00
     4.704E+00    4.725E+00    4.747E+00    4.769E+00    4.791E+00    4.814E+00    4.837E+00    4.860E+00    4.883E+00    4.907E+00
     4.931E+00    4.955E+00    4.980E+00    5.004E+00    5.029E+00    5.055E+00    5.080E+00    5.106E+00    5.132E+00    5.158E+00
     5.185E+00    5.212E+00    5.239E+00    5.266E+00    5.294E+00    5.321E+00    5.349E+00    5.378E+00    5.406E+00    5.435E+00
     5.464E+00    5.493E+00    5.523E+00    5.552E+00    5.582E+00    5.612E+00    5.643E+00    5.673E+00    5.704E+00    5.735E+00
     5.766E+00    5.798E+00    5.829E+00    5.861E+00    5.893E+00    5.926E+00    5.958E+00    5.991E+00    6.023E+00    6.056E+00
     6.090E+00    6.123E+00    6.157E+00    6.190E+00    6.224E+00    6.258E+00    6.292E+00    6.326E+00    6.361E+00    6.395E+00
     6.430E+00    6.465E+00    6.500E+00    6.535E+00    6.570E+00    6.605E+00    6.640E+00    6.676E+00    6.711E+00    6.747E+00
     6.783E+00    6.818E+00    6.854E+00    6.890E+00    6.926E+00    6.962E+00    6.998E+00    7.034E+00    7.070E+00    7.106E+00
     7.143E+00    7.179E+00    7.215E+00    7.251E+00    7.288E+00    7.324E+00    7.360E+00    7.396E+00    7.433E+00    7.469E+00
     7.505E+00    7.541E+00    7.577E+00    7.613E+00    7.649E+00    7.685E+00    7.721E+00    7.757E+00    7.793E+00    7.828E+00
     7.863E+00    7.899E+00    7.934E+00    7.969E+00    8.004E+00    8.038E+00    8.073E+00    8.107E+00    8.141E+00    8.175E+00
     8.208E+00    8.242E+00    8.275E+00    8.308E+00    8.340E+00    8.373E+00    8.405E+00    8.437E+00    8.468E+00    8.499E+00
     8.530E+00    8.561E+00    8.591E+00    8.621E+00    8.650E+00    8.679E+00    8.708E+00    8.737E+00    8.765E+00    8.792E+00
     8.819E+00    8.846E+00    8.873E+00    8.899E+00    8.924E+00    8.949E+00    8.974E+00    8.998E+00    9.022E+00    9.045E+00
     9.068E+00    9.090E+00    9.112E+00    9.134E+00    9.155E+00    9.175E+00    9.196E+00    9.215E+00    9.234E+00    9.253E+00
     9.272E+00    9.289E+00    9.307E+00    9.324E+00    9.340E+00    9.356E+00    9.372E+00    9.387E+00    9.401E+00    9.415E+00
     9.429E+00    9.442E+00    9.455E+00    9.467E+00    9.478E+00    9.490E+00    9.500E+00    9.510E+00    9.520E+00    9.529E+00
     9.538E+00    9.546E+00    9.554E+00    9.561E+00    9.568E+00    9.574E+00    9.579E+00    9.585E+00    9.589E+00    9.593E+00
     9.597E+00    9.600E+00    9.603E+00    9.605E+00    9.606E+00    9.607E+00    9.608E+00    9.608E+00    9.608E+00    9.607E+00
     9.606E+00    9.604E+00    9.602E+00    9.599E+00    9.595E+00    9.592E+00    9.588E+00    9.583E+00    9.578E+00    9.572E+00
     9.566E+00    9.559E+00    9.552E+00    9.545E+00    9.537E+00    9.529E+00    9.520E+00    9.511E+00    9.501E+00    9.491E+00
     9.480E+00    9.469E+00    9.457E+00    9.446E+00    9.433E+00    9.420E+00    9.407E+00    9.393E+00    9.379E+00    9.365E+00
     9.350E+00    9.334E+00    9.319E+00    9.302E+00    9.286E+00    9.269E+00    9.251E+00    9.233E+00    9.215E+00    9.196E+00
     9.177E+00    9.158E+00    9.138E+00    9.118E+00    9.097E+00    9.076E+00    9.054E+00    9.032E+00    9.010E+00    8.987E+00
     8.964E+00    8.940E+00    8.916E+00    8.892E+00    8.867E+00    8.842E+00    8.816E+00    8.790E+00    8.764E+00    8.737E+00
     8.710E+00    8.683E+00    8.655E+00    8.627E+00    8.598E+00    8.569E+00    8.539E+00    8.510E+00    8.479E+00    8.449E+00
     8.418E+00    8.386E+00    8.355E+00    8.322E+00    8.290E+00    8.257E+00    8.224E+00    8.190E+00    8.156E+00    8.122E+00
     8.087E+00    8.052E+00    8.017E+00    7.981E+00    7.945E+00    7.908E+00    7.871E+00    7.834E+00    7.796E+00    7.758E+00
     7.720E+00    7.681E+00    7.642E+00    7.603E+00    7.563E+00    7.523E+00    7.483E+00    7.442E+00    7.401E+00    7.360E+00
     7.318E+00    7.276E+00    7.234E+00    7.191E+00    7.148E+00    7.105E+00    7.062E+00    7.018E+00    6.973E+00    6.929E+00
     6.884E+00    6.839E+00    6.794E+00    6.748E+00    6.702E+00    6.656E+00    6.609E+00    6.562E+00    6.515E+00    6.467E+00
     6.420E+00    6.372E+00    6.323E+00    6.275E+00    6.226E+00    6.177E+00    6.128E+00    6.078E+00    6.028E+00    5.978E+00
     5.928E+00    5.877E+00    5.827E+00    5.776E+00    5.725E+00    5.673E+00    5.622E+00    5.570E+00    5.518E+00    5.467E+00
     5.414E+00    5.362E+00    5.310E+00    5.258E+00    5.205E+00    5.152E+00    5.100E+00    5.047E+00    4.994E+00    4.941E+00
     4.888E+00    4.835E+00    4.782E+00    4.729E+00    4.675E+00    4.622E+00    4.569E+00    4.516E+00    4.462E+00    4.409E+00
     4.356E+00    4.303E+00    4.250E+00    4.197E+00    4.144E+00    4.091E+00    4.038E+00    3.985E+00
 Ala      Conc. = 2.37E+02
