 LCModel (Version 6.3-1L) Copyright: S.W. Provencher.          Ref.: Magn. Reson. Med. 30:672-679 (1993).                
 Slice#1 Row#11 Col#3  PD_05_press_1_raw_act
 36 lines in following concentration table = NCONC+1
    Conc.  %SD /Cr+PCr  Metabolite                                         
   24.166 138%   0.185 Ala                                                 
   37.456  74%   0.287 Asp                                                 
    0.000 999%   0.000 Cr                                                  
  130.504  14%   1.000 PCr                                                 
   18.974  88%   0.145 GABA                                                
   22.585  74%   0.173 Glc                                                 
  193.543  37%   1.483 Gln                                                 
  255.547  30%   1.958 Glu                                                 
    0.000 999%   0.000 GPC                                                 
   40.859  17%   0.313 PCh                                                 
  113.255  22%   0.868 GSH                                                 
  393.183  22%   3.013 Ins                                                 
    0.000 999%   0.000 Lac                                                 
  350.677   9%   2.687 NAA                                                 
   33.031  92%   0.253 NAAG                                                
   11.014  46% 8.4E-02 Scyllo                                              
   42.956  64%   0.329 Tau                                                 
   66.710  38%   0.511 -CrCH2                                              
   40.859  17%   0.313 GPC+PCh                                             
  383.708   8%   2.940 NAA+NAAG                                            
  130.504  14%   1.000 Cr+PCr                                              
  449.090  24%   3.441 Glu+Gln                                             
  237.555  42%   1.820 Lip13a                                              
    0.000 999%   0.000 Lip13b                                              
    0.000 999%   0.000 Lip09                                               
  274.991  25%   2.107 MM09                                                
   36.514  93%   0.280 Lip20                                               
  452.176  26%   3.465 MM20                                                
   86.711  38%   0.664 MM12                                                
  514.543  17%   3.943 MM14                                                
  243.098  26%   1.863 MM17                                                
  237.555  42%   1.820 Lip13a+Lip13b                                       
  838.809  17%   6.427 MM14+Lip13a+Lip13b+MM12                             
  274.991  25%   2.107 MM09+Lip09                                          
  488.690  25%   3.745 MM20+Lip20                                          
   6 lines in following misc. output table
  FWHM = 0.054 ppm    S/N =   5                                            
  Data shift =-0.008 ppm                                                   
  Ph: -22 deg      -4.4 deg/ppm                                            
  alphaB,S = 8.6E-01,   4.4E+01                                            
   14 spline knots.   Ns = 6(1)                                            
  (10) 3 infls.   (10) 2 extrs.                                            
  498 points on ppm-axis = NY
      4.000000     3.992357     3.984714     3.977070     3.969427     3.961784     3.954141     3.946497     3.938854     3.931211
      3.923568     3.915925     3.908281     3.900638     3.892995     3.885352     3.877708     3.870065     3.862422     3.854779
      3.847136     3.839492     3.831849     3.824206     3.816563     3.808919     3.801276     3.793633     3.785990     3.778347
      3.770703     3.763060     3.755417     3.747774     3.740130     3.732487     3.724844     3.717201     3.709558     3.701914
      3.694271     3.686628     3.678985     3.671341     3.663698     3.656055     3.648412     3.640769     3.633125     3.625482
      3.617839     3.610196     3.602552     3.594909     3.587266     3.579623     3.571980     3.564336     3.556693     3.549050
      3.541407     3.533763     3.526120     3.518477     3.510834     3.503191     3.495547     3.487904     3.480261     3.472618
      3.464974     3.457331     3.449688     3.442045     3.434402     3.426758     3.419115     3.411472     3.403829     3.396185
      3.388542     3.380899     3.373256     3.365613     3.357969     3.350326     3.342683     3.335040     3.327396     3.319753
      3.312110     3.304467     3.296824     3.289180     3.281537     3.273894     3.266251     3.258607     3.250964     3.243321
      3.235678     3.228034     3.220391     3.212748     3.205105     3.197462     3.189818     3.182175     3.174532     3.166889
      3.159245     3.151602     3.143959     3.136316     3.128673     3.121029     3.113386     3.105743     3.098100     3.090456
      3.082813     3.075170     3.067527     3.059884     3.052240     3.044597     3.036954     3.029311     3.021667     3.014024
      3.006381     2.998738     2.991095     2.983451     2.975808     2.968165     2.960522     2.952878     2.945235     2.937592
      2.929949     2.922306     2.914662     2.907019     2.899376     2.891733     2.884089     2.876446     2.868803     2.861160
      2.853517     2.845873     2.838230     2.830587     2.822944     2.815300     2.807657     2.800014     2.792371     2.784728
      2.777084     2.769441     2.761798     2.754155     2.746511     2.738868     2.731225     2.723582     2.715939     2.708295
      2.700652     2.693009     2.685366     2.677722     2.670079     2.662436     2.654793     2.647150     2.639506     2.631863
      2.624220     2.616577     2.608933     2.601290     2.593647     2.586004     2.578361     2.570717     2.563074     2.555431
      2.547788     2.540144     2.532501     2.524858     2.517215     2.509572     2.501928     2.494285     2.486642     2.478999
      2.471355     2.463712     2.456069     2.448426     2.440783     2.433139     2.425496     2.417853     2.410210     2.402566
      2.394923     2.387280     2.379637     2.371994     2.364350     2.356707     2.349064     2.341421     2.333777     2.326134
      2.318491     2.310848     2.303205     2.295561     2.287918     2.280275     2.272632     2.264988     2.257345     2.249702
      2.242059     2.234416     2.226772     2.219129     2.211486     2.203843     2.196199     2.188556     2.180913     2.173270
      2.165627     2.157983     2.150340     2.142697     2.135054     2.127410     2.119767     2.112124     2.104481     2.096838
      2.089194     2.081551     2.073908     2.066265     2.058621     2.050978     2.043335     2.035692     2.028049     2.020405
      2.012762     2.005119     1.997476     1.989833     1.982190     1.974546     1.966903     1.959260     1.951617     1.943974
      1.936331     1.928688     1.921045     1.913402     1.905759     1.898115     1.890472     1.882829     1.875186     1.867543
      1.859900     1.852257     1.844614     1.836971     1.829327     1.821684     1.814041     1.806398     1.798755     1.791112
      1.783469     1.775826     1.768183     1.760540     1.752896     1.745253     1.737610     1.729967     1.722324     1.714681
      1.707038     1.699395     1.691752     1.684108     1.676465     1.668822     1.661179     1.653536     1.645893     1.638250
      1.630607     1.622964     1.615321     1.607677     1.600034     1.592391     1.584748     1.577105     1.569462     1.561819
      1.554176     1.546533     1.538890     1.531246     1.523603     1.515960     1.508317     1.500674     1.493031     1.485388
      1.477745     1.470102     1.462458     1.454815     1.447172     1.439529     1.431886     1.424243     1.416600     1.408957
      1.401314     1.393671     1.386027     1.378384     1.370741     1.363098     1.355455     1.347812     1.340169     1.332526
      1.324883     1.317240     1.309596     1.301953     1.294310     1.286667     1.279024     1.271381     1.263738     1.256095
      1.248452     1.240808     1.233165     1.225522     1.217879     1.210236     1.202593     1.194950     1.187307     1.179664
      1.172021     1.164377     1.156734     1.149091     1.141448     1.133805     1.126162     1.118519     1.110876     1.103233
      1.095590     1.087946     1.080303     1.072660     1.065017     1.057374     1.049731     1.042088     1.034445     1.026802
      1.019158     1.011515     1.003872     0.996229     0.988586     0.980943     0.973300     0.965657     0.958014     0.950371
      0.942727     0.935084     0.927441     0.919798     0.912155     0.904512     0.896869     0.889226     0.881583     0.873940
      0.866296     0.858653     0.851010     0.843367     0.835724     0.828081     0.820438     0.812795     0.805152     0.797508
      0.789865     0.782222     0.774579     0.766936     0.759293     0.751650     0.744007     0.736364     0.728721     0.721077
      0.713434     0.705791     0.698148     0.690505     0.682862     0.675219     0.667576     0.659933     0.652290     0.644646
      0.637003     0.629360     0.621717     0.614074     0.606431     0.598788     0.591145     0.583502     0.575858     0.568215
      0.560572     0.552929     0.545286     0.537643     0.530000     0.522357     0.514714     0.507071     0.499427     0.491784
      0.484141     0.476498     0.468855     0.461212     0.453569     0.445925     0.438282     0.430639     0.422996     0.415353
      0.407710     0.400067     0.392424     0.384780     0.377137     0.369494     0.361851     0.354208     0.346565     0.338922
      0.331278     0.323635     0.315992     0.308349     0.300706     0.293063     0.285420     0.277777     0.270133     0.262490
      0.254847     0.247204     0.239561     0.231918     0.224275     0.216631     0.208988     0.201345
 NY phased data points follow
  -3.85436E+01 -3.94505E+01 -3.76158E+01 -3.75585E+01 -3.69962E+01 -3.59265E+01 -3.55243E+01 -3.47519E+01 -3.38793E+01 -3.18254E+01
  -3.18397E+01 -3.18094E+01 -3.52256E+01 -3.37103E+01 -3.49945E+01 -3.48948E+01 -3.32958E+01 -3.29683E+01 -3.39413E+01 -3.29300E+01
  -3.28847E+01 -3.05625E+01 -3.25827E+01 -2.94259E+01 -2.97236E+01 -2.94578E+01 -2.78645E+01 -2.76735E+01 -2.65067E+01 -2.58522E+01
  -2.55836E+01 -2.61320E+01 -2.59396E+01 -2.73374E+01 -2.65045E+01 -2.59582E+01 -2.61825E+01 -2.47513E+01 -2.89873E+01 -2.74121E+01
  -2.70158E+01 -2.40409E+01 -2.54354E+01 -2.44260E+01 -2.39298E+01 -2.22335E+01 -2.21215E+01 -2.40254E+01 -2.54451E+01 -2.34076E+01
  -2.60022E+01 -2.71493E+01 -2.30243E+01 -2.29892E+01 -2.47744E+01 -2.31933E+01 -2.33894E+01 -2.15344E+01 -2.29319E+01 -2.27313E+01
  -2.33451E+01 -2.39852E+01 -2.09925E+01 -2.16427E+01 -2.28959E+01 -2.09648E+01 -2.44259E+01 -2.36516E+01 -2.04210E+01 -2.23978E+01
  -2.22658E+01 -1.97993E+01 -1.95763E+01 -1.99847E+01 -1.84943E+01 -2.22307E+01 -2.07087E+01 -2.19531E+01 -2.04446E+01 -1.95064E+01
  -2.00690E+01 -1.98271E+01 -2.00137E+01 -2.09383E+01 -1.81402E+01 -1.77960E+01 -2.04129E+01 -1.95460E+01 -1.78608E+01 -1.88496E+01
  -1.87425E+01 -1.96197E+01 -1.76687E+01 -1.80180E+01 -1.75374E+01 -1.59648E+01 -1.61350E+01 -1.94763E+01 -1.71295E+01 -1.58898E+01
  -1.29287E+01 -1.67968E+01 -1.21615E+01 -1.59832E+01 -1.42682E+01 -1.31522E+01 -1.50787E+01 -1.68072E+01 -1.83342E+01 -1.91853E+01
  -1.86860E+01 -1.44309E+01 -1.72869E+01 -1.73764E+01 -1.63543E+01 -1.41063E+01 -1.41416E+01 -1.42323E+01 -1.50053E+01 -1.53215E+01
  -1.44443E+01 -1.41357E+01 -1.53375E+01 -1.33991E+01 -1.15311E+01 -1.07421E+01 -7.73370E+00 -9.77702E+00 -1.05809E+01 -1.16172E+01
  -1.17648E+01 -1.12198E+01 -1.39884E+01 -1.31696E+01 -1.49421E+01 -1.74619E+01 -1.26774E+01 -1.45512E+01 -1.42767E+01 -1.27727E+01
  -1.34589E+01 -1.37964E+01 -1.54631E+01 -1.55149E+01 -1.47830E+01 -1.37841E+01 -1.32703E+01 -1.22826E+01 -1.37249E+01 -1.39803E+01
  -1.18114E+01 -1.36008E+01 -1.28924E+01 -1.23149E+01 -1.62494E+01 -1.26456E+01 -1.62712E+01 -1.21507E+01 -1.36208E+01 -1.50118E+01
  -1.50331E+01 -1.37497E+01 -1.31456E+01 -1.14840E+01 -1.33898E+01 -1.33454E+01 -1.29425E+01 -1.22763E+01 -1.32797E+01 -1.33168E+01
  -1.29116E+01 -1.49127E+01 -1.23200E+01 -1.50231E+01 -1.49506E+01 -1.45675E+01 -1.38409E+01 -1.29645E+01 -1.61335E+01 -1.17266E+01
  -1.41442E+01 -1.34727E+01 -1.20455E+01 -1.28793E+01 -1.41279E+01 -1.11108E+01 -1.15265E+01 -1.09391E+01 -1.25677E+01 -1.44411E+01
  -1.35670E+01 -1.20837E+01 -1.35922E+01 -1.25759E+01 -1.26806E+01 -1.52568E+01 -1.35755E+01 -1.43754E+01 -1.07909E+01 -1.22843E+01
  -1.22585E+01 -1.24807E+01 -1.16769E+01 -1.04269E+01 -1.04334E+01 -1.31534E+01 -1.16122E+01 -1.27705E+01 -1.29979E+01 -1.32306E+01
  -1.07171E+01 -9.42209E+00 -1.14358E+01 -6.46757E+00 -9.26370E+00 -7.46243E+00 -8.24697E+00 -7.29140E+00 -1.07078E+01 -1.02576E+01
  -1.09383E+01 -9.66689E+00 -1.30027E+01 -1.12019E+01 -8.37790E+00 -9.70659E+00 -9.53391E+00 -1.04335E+01 -8.59590E+00 -7.50393E+00
  -9.87893E+00 -9.20944E+00 -1.06348E+01 -7.75328E+00 -9.99931E+00 -8.58385E+00 -8.86063E+00 -7.43106E+00 -8.53128E+00 -9.24020E+00
  -7.70872E+00 -9.01955E+00 -8.28929E+00 -8.13089E+00 -7.82305E+00 -8.51905E+00 -8.25706E+00 -5.70694E+00 -5.58206E+00 -7.77237E+00
  -8.95212E+00 -7.51870E+00 -2.35871E+00 -5.45109E+00 -3.13933E+00 -1.63882E+00 -1.24439E+00  6.85190E-01  4.66633E+00  7.04034E+00
   6.97066E+00  3.79250E+00  2.76414E+00  1.23515E+00 -9.97090E-01 -8.36098E+00 -1.09868E+01 -1.12140E+01 -6.83268E+00 -5.66222E+00
  -7.72133E+00 -6.00470E+00 -7.90196E+00 -7.12549E+00 -6.75627E+00 -6.92097E+00 -7.69589E+00 -7.90479E+00 -6.56914E+00 -6.69553E+00
  -6.35347E+00 -7.95271E+00 -1.03582E+01 -8.92731E+00 -9.55999E+00 -9.72934E+00 -6.85185E+00 -5.44744E+00 -7.94974E+00 -7.16343E+00
  -5.25634E+00 -6.66231E+00 -8.55373E+00 -7.29700E+00 -8.58450E+00 -8.87358E+00 -7.05413E+00 -7.07934E+00 -7.62763E+00 -7.21788E+00
  -4.43128E+00 -7.14284E+00 -5.40634E+00 -5.29745E+00 -3.88398E+00 -3.56309E+00 -4.18299E+00 -2.98176E+00 -4.25810E+00 -3.84777E+00
  -2.64312E+00 -6.12318E+00 -3.19924E+00 -4.54793E+00 -5.78279E+00 -3.39143E+00 -2.57271E+00 -4.18060E+00 -2.85215E+00 -4.19903E+00
  -4.07287E+00 -1.81450E+00 -4.83463E+00 -3.62167E+00 -2.06811E+00 -1.55044E+00 -2.89386E+00 -2.84223E+00 -2.01483E+00 -3.40302E+00
  -4.19281E+00 -2.84962E+00 -1.22391E+00 -2.00846E+00 -3.94572E+00 -4.57901E+00 -2.81720E+00 -2.14652E+00 -8.98215E-01 -3.54899E+00
  -3.61803E+00 -3.75764E+00 -2.09128E+00 -3.20198E+00 -2.00306E+00 -4.79006E+00 -4.15781E+00 -2.13644E+00 -5.32682E+00 -1.98854E+00
  -2.42625E+00 -3.67495E+00 -5.18681E+00 -4.12773E+00 -4.28001E+00 -3.80621E+00 -4.22726E+00 -6.56002E+00 -3.59130E+00 -4.20526E+00
  -3.96217E+00 -5.28768E+00 -6.91832E+00 -3.49598E+00 -3.36046E+00 -2.29636E+00 -5.41382E+00 -4.75346E+00 -5.56930E+00 -4.98997E+00
  -4.08630E+00 -2.38499E+00 -3.32602E+00 -4.63520E+00 -5.13633E+00 -3.68707E+00 -3.98674E+00 -5.53409E+00 -5.52376E+00 -5.21189E+00
  -6.29149E+00 -4.68048E+00 -6.32760E+00 -5.76973E+00 -6.20649E+00 -6.60754E+00 -2.35824E+00 -4.00251E+00 -5.78484E+00 -6.51328E+00
  -3.43329E+00 -3.02726E+00 -3.77958E+00 -6.52148E+00 -4.86393E+00 -4.14582E+00 -5.43396E+00 -6.27323E+00 -2.93235E+00 -4.78684E+00
  -4.73052E+00 -3.20793E+00 -4.52227E+00 -5.05482E+00 -1.71589E+00 -5.62063E+00 -3.30401E+00 -3.41412E+00 -4.49152E+00 -4.69905E+00
  -2.90949E+00 -2.74158E+00 -4.05272E+00 -3.50349E+00 -3.72269E+00 -5.43853E+00 -4.63714E+00 -4.09531E+00 -6.12836E+00 -3.99614E+00
  -5.08458E+00 -5.60418E+00 -7.00516E+00 -4.34222E+00 -5.63231E+00 -5.78497E+00 -4.35566E+00 -4.47016E+00 -3.60071E+00 -4.19274E+00
  -3.42958E+00 -5.16725E+00 -3.89293E+00 -6.39010E+00 -2.73253E+00 -2.82080E+00 -2.44311E+00 -5.30425E+00 -4.95650E+00 -5.26240E+00
  -5.88195E+00 -4.14663E+00 -3.68306E+00 -3.08283E+00 -4.95767E+00 -2.76875E+00 -3.58616E+00 -3.74619E+00 -3.58753E+00 -7.11361E+00
  -4.87840E+00 -1.98356E+00 -5.01672E+00 -4.66227E+00 -4.90259E+00 -3.98693E+00 -3.85059E+00 -3.28882E+00 -5.31933E+00 -2.07511E+00
  -4.89422E+00 -4.87500E+00 -3.28710E+00 -5.09134E+00 -4.21175E+00 -4.48368E+00 -2.97467E+00 -3.32225E+00 -5.35062E+00 -5.95418E+00
  -4.07804E+00 -2.75129E+00 -4.44380E+00 -3.39502E+00 -5.39215E+00 -2.64468E+00 -4.55775E+00 -3.39951E+00 -2.71077E+00 -4.42354E+00
  -4.83689E+00 -5.89211E+00 -3.19757E+00 -2.97138E+00 -3.61016E+00 -4.32168E+00 -4.27592E+00 -1.96368E+00 -2.41599E+00 -4.38709E+00
  -5.27299E+00 -4.42165E+00 -2.10413E-01 -1.26542E+00 -1.21980E+00 -4.58336E+00 -1.53976E+00 -2.72771E+00
 NY points of the fit to the data follow
  -3.61321E+01 -3.60362E+01 -3.58549E+01 -3.56138E+01 -3.52265E+01 -3.47566E+01 -3.42058E+01 -3.35918E+01 -3.30219E+01 -3.26553E+01
  -3.25108E+01 -3.24607E+01 -3.24583E+01 -3.25794E+01 -3.28222E+01 -3.29729E+01 -3.28065E+01 -3.24232E+01 -3.20842E+01 -3.17521E+01
  -3.14466E+01 -3.11798E+01 -3.09521E+01 -3.06493E+01 -3.01652E+01 -2.95702E+01 -2.87956E+01 -2.78606E+01 -2.69521E+01 -2.62965E+01
  -2.59530E+01 -2.58347E+01 -2.60145E+01 -2.66031E+01 -2.74103E+01 -2.80672E+01 -2.83596E+01 -2.84196E+01 -2.83698E+01 -2.81049E+01
  -2.76434E+01 -2.69516E+01 -2.60444E+01 -2.50292E+01 -2.40684E+01 -2.33937E+01 -2.31520E+01 -2.33163E+01 -2.37459E+01 -2.43030E+01
  -2.49360E+01 -2.55720E+01 -2.59403E+01 -2.57495E+01 -2.50917E+01 -2.43256E+01 -2.36693E+01 -2.31446E+01 -2.27673E+01 -2.25784E+01
  -2.25575E+01 -2.26303E+01 -2.27403E+01 -2.28411E+01 -2.28830E+01 -2.27564E+01 -2.24376E+01 -2.20176E+01 -2.15787E+01 -2.11912E+01
  -2.08913E+01 -2.07001E+01 -2.05847E+01 -2.04944E+01 -2.04318E+01 -2.04253E+01 -2.04462E+01 -2.04402E+01 -2.03652E+01 -2.02583E+01
  -2.01369E+01 -1.99948E+01 -1.98628E+01 -1.97753E+01 -1.97639E+01 -1.98215E+01 -1.98996E+01 -1.99177E+01 -1.98305E+01 -1.96591E+01
  -1.94247E+01 -1.91415E+01 -1.88201E+01 -1.85306E+01 -1.83712E+01 -1.83274E+01 -1.82491E+01 -1.78707E+01 -1.71587E+01 -1.62395E+01
  -1.51985E+01 -1.42411E+01 -1.36652E+01 -1.36262E+01 -1.39749E+01 -1.45128E+01 -1.52647E+01 -1.62173E+01 -1.70279E+01 -1.72933E+01
  -1.70452E+01 -1.67570E+01 -1.66090E+01 -1.64994E+01 -1.64007E+01 -1.63068E+01 -1.62208E+01 -1.61354E+01 -1.60321E+01 -1.58887E+01
  -1.56544E+01 -1.51191E+01 -1.42058E+01 -1.30846E+01 -1.18557E+01 -1.07377E+01 -1.00526E+01 -9.95735E+00 -1.03072E+01 -1.09189E+01
  -1.18108E+01 -1.30204E+01 -1.42558E+01 -1.49939E+01 -1.50944E+01 -1.49730E+01 -1.49141E+01 -1.47884E+01 -1.45395E+01 -1.41871E+01
  -1.38309E+01 -1.35980E+01 -1.35123E+01 -1.35340E+01 -1.36378E+01 -1.37651E+01 -1.38507E+01 -1.38828E+01 -1.38778E+01 -1.38817E+01
  -1.38916E+01 -1.38883E+01 -1.38638E+01 -1.38163E+01 -1.37580E+01 -1.37158E+01 -1.37089E+01 -1.37307E+01 -1.37674E+01 -1.37882E+01
  -1.37740E+01 -1.37194E+01 -1.36289E+01 -1.35294E+01 -1.34445E+01 -1.33746E+01 -1.33263E+01 -1.33263E+01 -1.33826E+01 -1.34565E+01
  -1.35127E+01 -1.35487E+01 -1.35563E+01 -1.35652E+01 -1.35671E+01 -1.35412E+01 -1.34933E+01 -1.34318E+01 -1.33735E+01 -1.33101E+01
  -1.32225E+01 -1.31427E+01 -1.31148E+01 -1.30987E+01 -1.29951E+01 -1.27302E+01 -1.23516E+01 -1.19621E+01 -1.16518E+01 -1.14447E+01
  -1.13568E+01 -1.14155E+01 -1.16198E+01 -1.19230E+01 -1.22334E+01 -1.23922E+01 -1.22927E+01 -1.19578E+01 -1.14557E+01 -1.08881E+01
  -1.03556E+01 -9.93618E+00 -9.72079E+00 -9.80065E+00 -1.02222E+01 -1.08469E+01 -1.15149E+01 -1.21207E+01 -1.25194E+01 -1.25740E+01
  -1.22131E+01 -1.15197E+01 -1.06520E+01 -9.73094E+00 -8.96723E+00 -8.64003E+00 -8.86850E+00 -9.46494E+00 -1.01258E+01 -1.07962E+01
  -1.14042E+01 -1.16716E+01 -1.14215E+01 -1.07952E+01 -1.01110E+01 -9.53792E+00 -9.06502E+00 -8.75257E+00 -8.70624E+00 -8.90528E+00
  -9.13941E+00 -9.17941E+00 -9.05636E+00 -8.87162E+00 -8.60447E+00 -8.26762E+00 -8.00641E+00 -7.98191E+00 -8.13965E+00 -8.32670E+00
  -8.50259E+00 -8.67824E+00 -8.75847E+00 -8.64672E+00 -8.38083E+00 -8.09146E+00 -7.78082E+00 -7.42503E+00 -7.11390E+00 -6.90556E+00
  -6.67446E+00 -6.31016E+00 -5.84469E+00 -5.29695E+00 -4.29441E+00 -2.38645E+00 -4.28028E-02  2.54071E+00  4.98079E+00  6.43352E+00
   6.22735E+00  4.68100E+00  2.60901E+00  1.10406E-01 -3.09998E+00 -6.42632E+00 -8.46818E+00 -8.61825E+00 -7.96512E+00 -7.75884E+00
  -7.71850E+00 -7.66382E+00 -7.60359E+00 -7.54691E+00 -7.49085E+00 -7.45522E+00 -7.44556E+00 -7.46008E+00 -7.49432E+00 -7.53501E+00
  -7.55791E+00 -7.55295E+00 -7.52830E+00 -7.49198E+00 -7.44736E+00 -7.39733E+00 -7.34531E+00 -7.29418E+00 -7.24268E+00 -7.18540E+00
  -7.12136E+00 -7.05036E+00 -6.97090E+00 -6.88260E+00 -6.78621E+00 -6.68181E+00 -6.56912E+00 -6.44723E+00 -6.31444E+00 -6.17012E+00
  -6.01683E+00 -5.85737E+00 -5.69349E+00 -5.52765E+00 -5.36312E+00 -5.20316E+00 -5.05009E+00 -4.90545E+00 -4.77113E+00 -4.64842E+00
  -4.53790E+00 -4.43977E+00 -4.35366E+00 -4.27832E+00 -4.21175E+00 -4.15131E+00 -4.09396E+00 -4.03632E+00 -3.97467E+00 -3.90446E+00
  -3.81840E+00 -3.70678E+00 -3.58687E+00 -3.48101E+00 -3.39986E+00 -3.36090E+00 -3.37462E+00 -3.42694E+00 -3.48772E+00 -3.52532E+00
  -3.52370E+00 -3.47449E+00 -3.34785E+00 -3.14572E+00 -2.93824E+00 -2.80919E+00 -2.76148E+00 -2.76095E+00 -2.80783E+00 -2.91630E+00
  -3.07488E+00 -3.23344E+00 -3.34896E+00 -3.43599E+00 -3.52426E+00 -3.61151E+00 -3.69451E+00 -3.77187E+00 -3.84283E+00 -3.90711E+00
  -3.96480E+00 -4.01638E+00 -4.06259E+00 -4.10434E+00 -4.14260E+00 -4.17839E+00 -4.21273E+00 -4.24662E+00 -4.28090E+00 -4.31622E+00
  -4.35301E+00 -4.39152E+00 -4.43186E+00 -4.47399E+00 -4.51765E+00 -4.56242E+00 -4.60778E+00 -4.65314E+00 -4.69792E+00 -4.74148E+00
  -4.78316E+00 -4.82230E+00 -4.85825E+00 -4.89044E+00 -4.91839E+00 -4.94163E+00 -4.95968E+00 -4.97211E+00 -4.97857E+00 -4.97874E+00
  -4.97237E+00 -4.95919E+00 -4.93892E+00 -4.91134E+00 -4.87630E+00 -4.83374E+00 -4.78363E+00 -4.72605E+00 -4.66114E+00 -4.58925E+00
  -4.51091E+00 -4.42687E+00 -4.33809E+00 -4.24569E+00 -4.15106E+00 -4.05581E+00 -3.96175E+00 -3.87083E+00 -3.78504E+00 -3.70638E+00
  -3.63674E+00 -3.57791E+00 -3.53146E+00 -3.49857E+00 -3.48006E+00 -3.47627E+00 -3.48715E+00 -3.51221E+00 -3.55053E+00 -3.60080E+00
  -3.66139E+00 -3.73042E+00 -3.80593E+00 -3.88587E+00 -3.96824E+00 -4.05111E+00 -4.13270E+00 -4.21148E+00 -4.28620E+00 -4.35588E+00
  -4.41975E+00 -4.47731E+00 -4.52828E+00 -4.57260E+00 -4.61040E+00 -4.64194E+00 -4.66753E+00 -4.68756E+00 -4.70247E+00 -4.71271E+00
  -4.71877E+00 -4.72110E+00 -4.72008E+00 -4.71608E+00 -4.70945E+00 -4.70052E+00 -4.68960E+00 -4.67691E+00 -4.66265E+00 -4.64700E+00
  -4.63012E+00 -4.61218E+00 -4.59332E+00 -4.57361E+00 -4.55313E+00 -4.53196E+00 -4.51019E+00 -4.48791E+00 -4.46515E+00 -4.44195E+00
  -4.41833E+00 -4.39435E+00 -4.37005E+00 -4.34548E+00 -4.32064E+00 -4.29553E+00 -4.27017E+00 -4.24458E+00 -4.21881E+00 -4.19286E+00
  -4.16672E+00 -4.14038E+00 -4.11387E+00 -4.08720E+00 -4.06041E+00 -4.03347E+00 -4.00638E+00 -3.97915E+00 -3.95178E+00 -3.92430E+00
  -3.89671E+00 -3.86901E+00 -3.84118E+00 -3.81321E+00 -3.78515E+00 -3.75699E+00 -3.72874E+00 -3.70038E+00 -3.67190E+00 -3.64331E+00
  -3.61464E+00 -3.58589E+00 -3.55704E+00 -3.52808E+00 -3.49900E+00 -3.46984E+00 -3.44059E+00 -3.41125E+00 -3.38182E+00 -3.35226E+00
  -3.32260E+00 -3.29284E+00 -3.26299E+00 -3.23304E+00 -3.20297E+00 -3.17276E+00 -3.14243E+00 -3.11199E+00
 NY background values follow
    -3.664E+01   -3.642E+01   -3.619E+01   -3.597E+01   -3.575E+01   -3.553E+01   -3.531E+01   -3.509E+01   -3.486E+01   -3.464E+01
    -3.442E+01   -3.420E+01   -3.398E+01   -3.376E+01   -3.354E+01   -3.332E+01   -3.310E+01   -3.288E+01   -3.266E+01   -3.244E+01
    -3.222E+01   -3.200E+01   -3.178E+01   -3.157E+01   -3.135E+01   -3.114E+01   -3.092E+01   -3.071E+01   -3.049E+01   -3.028E+01
    -3.007E+01   -2.986E+01   -2.964E+01   -2.943E+01   -2.923E+01   -2.902E+01   -2.881E+01   -2.860E+01   -2.840E+01   -2.819E+01
    -2.799E+01   -2.779E+01   -2.759E+01   -2.739E+01   -2.719E+01   -2.699E+01   -2.680E+01   -2.660E+01   -2.641E+01   -2.621E+01
    -2.602E+01   -2.583E+01   -2.565E+01   -2.546E+01   -2.527E+01   -2.509E+01   -2.490E+01   -2.472E+01   -2.454E+01   -2.436E+01
    -2.418E+01   -2.401E+01   -2.383E+01   -2.366E+01   -2.348E+01   -2.331E+01   -2.314E+01   -2.297E+01   -2.281E+01   -2.264E+01
    -2.248E+01   -2.231E+01   -2.215E+01   -2.199E+01   -2.183E+01   -2.168E+01   -2.152E+01   -2.137E+01   -2.122E+01   -2.106E+01
    -2.092E+01   -2.077E+01   -2.062E+01   -2.048E+01   -2.033E+01   -2.019E+01   -2.005E+01   -1.991E+01   -1.977E+01   -1.964E+01
    -1.950E+01   -1.937E+01   -1.924E+01   -1.911E+01   -1.898E+01   -1.886E+01   -1.873E+01   -1.861E+01   -1.849E+01   -1.837E+01
    -1.825E+01   -1.813E+01   -1.802E+01   -1.790E+01   -1.779E+01   -1.768E+01   -1.757E+01   -1.746E+01   -1.735E+01   -1.725E+01
    -1.715E+01   -1.704E+01   -1.694E+01   -1.684E+01   -1.674E+01   -1.665E+01   -1.655E+01   -1.646E+01   -1.637E+01   -1.627E+01
    -1.618E+01   -1.609E+01   -1.601E+01   -1.592E+01   -1.584E+01   -1.575E+01   -1.567E+01   -1.559E+01   -1.551E+01   -1.543E+01
    -1.535E+01   -1.528E+01   -1.520E+01   -1.513E+01   -1.506E+01   -1.499E+01   -1.492E+01   -1.485E+01   -1.478E+01   -1.471E+01
    -1.465E+01   -1.458E+01   -1.452E+01   -1.446E+01   -1.440E+01   -1.434E+01   -1.428E+01   -1.422E+01   -1.416E+01   -1.411E+01
    -1.405E+01   -1.400E+01   -1.394E+01   -1.389E+01   -1.383E+01   -1.378E+01   -1.373E+01   -1.368E+01   -1.363E+01   -1.358E+01
    -1.353E+01   -1.348E+01   -1.343E+01   -1.339E+01   -1.334E+01   -1.329E+01   -1.325E+01   -1.320E+01   -1.315E+01   -1.311E+01
    -1.306E+01   -1.302E+01   -1.297E+01   -1.293E+01   -1.289E+01   -1.284E+01   -1.280E+01   -1.275E+01   -1.271E+01   -1.267E+01
    -1.262E+01   -1.258E+01   -1.253E+01   -1.249E+01   -1.245E+01   -1.240E+01   -1.236E+01   -1.231E+01   -1.227E+01   -1.223E+01
    -1.218E+01   -1.214E+01   -1.209E+01   -1.205E+01   -1.200E+01   -1.196E+01   -1.191E+01   -1.187E+01   -1.183E+01   -1.178E+01
    -1.174E+01   -1.169E+01   -1.165E+01   -1.160E+01   -1.156E+01   -1.151E+01   -1.147E+01   -1.142E+01   -1.138E+01   -1.133E+01
    -1.129E+01   -1.124E+01   -1.120E+01   -1.115E+01   -1.111E+01   -1.106E+01   -1.102E+01   -1.097E+01   -1.093E+01   -1.088E+01
    -1.083E+01   -1.079E+01   -1.074E+01   -1.070E+01   -1.065E+01   -1.061E+01   -1.056E+01   -1.052E+01   -1.047E+01   -1.042E+01
    -1.038E+01   -1.033E+01   -1.029E+01   -1.024E+01   -1.019E+01   -1.015E+01   -1.010E+01   -1.006E+01   -1.001E+01   -9.965E+00
    -9.919E+00   -9.874E+00   -9.828E+00   -9.782E+00   -9.736E+00   -9.690E+00   -9.645E+00   -9.599E+00   -9.553E+00   -9.508E+00
    -9.462E+00   -9.417E+00   -9.371E+00   -9.326E+00   -9.281E+00   -9.235E+00   -9.190E+00   -9.145E+00   -9.100E+00   -9.055E+00
    -9.010E+00   -8.965E+00   -8.921E+00   -8.876E+00   -8.832E+00   -8.787E+00   -8.743E+00   -8.699E+00   -8.655E+00   -8.611E+00
    -8.567E+00   -8.524E+00   -8.480E+00   -8.437E+00   -8.393E+00   -8.350E+00   -8.307E+00   -8.265E+00   -8.222E+00   -8.180E+00
    -8.138E+00   -8.096E+00   -8.054E+00   -8.012E+00   -7.971E+00   -7.930E+00   -7.889E+00   -7.849E+00   -7.808E+00   -7.768E+00
    -7.729E+00   -7.689E+00   -7.650E+00   -7.611E+00   -7.573E+00   -7.535E+00   -7.497E+00   -7.460E+00   -7.422E+00   -7.386E+00
    -7.349E+00   -7.313E+00   -7.278E+00   -7.243E+00   -7.208E+00   -7.173E+00   -7.139E+00   -7.106E+00   -7.073E+00   -7.040E+00
    -7.008E+00   -6.976E+00   -6.945E+00   -6.914E+00   -6.884E+00   -6.854E+00   -6.825E+00   -6.796E+00   -6.768E+00   -6.740E+00
    -6.713E+00   -6.686E+00   -6.660E+00   -6.635E+00   -6.609E+00   -6.584E+00   -6.560E+00   -6.536E+00   -6.513E+00   -6.490E+00
    -6.467E+00   -6.445E+00   -6.423E+00   -6.402E+00   -6.381E+00   -6.360E+00   -6.340E+00   -6.320E+00   -6.301E+00   -6.282E+00
    -6.263E+00   -6.245E+00   -6.227E+00   -6.209E+00   -6.191E+00   -6.174E+00   -6.158E+00   -6.141E+00   -6.125E+00   -6.109E+00
    -6.094E+00   -6.078E+00   -6.063E+00   -6.049E+00   -6.034E+00   -6.020E+00   -6.006E+00   -5.992E+00   -5.978E+00   -5.965E+00
    -5.952E+00   -5.939E+00   -5.926E+00   -5.914E+00   -5.901E+00   -5.889E+00   -5.877E+00   -5.865E+00   -5.853E+00   -5.842E+00
    -5.830E+00   -5.819E+00   -5.807E+00   -5.796E+00   -5.784E+00   -5.773E+00   -5.762E+00   -5.750E+00   -5.739E+00   -5.728E+00
    -5.717E+00   -5.705E+00   -5.694E+00   -5.682E+00   -5.671E+00   -5.659E+00   -5.647E+00   -5.635E+00   -5.623E+00   -5.611E+00
    -5.599E+00   -5.586E+00   -5.574E+00   -5.561E+00   -5.548E+00   -5.535E+00   -5.521E+00   -5.507E+00   -5.493E+00   -5.479E+00
    -5.465E+00   -5.450E+00   -5.435E+00   -5.419E+00   -5.403E+00   -5.387E+00   -5.371E+00   -5.354E+00   -5.337E+00   -5.319E+00
    -5.301E+00   -5.283E+00   -5.264E+00   -5.245E+00   -5.226E+00   -5.206E+00   -5.186E+00   -5.166E+00   -5.145E+00   -5.124E+00
    -5.103E+00   -5.081E+00   -5.060E+00   -5.038E+00   -5.015E+00   -4.993E+00   -4.970E+00   -4.947E+00   -4.924E+00   -4.900E+00
    -4.876E+00   -4.852E+00   -4.828E+00   -4.804E+00   -4.779E+00   -4.755E+00   -4.730E+00   -4.705E+00   -4.679E+00   -4.654E+00
    -4.628E+00   -4.602E+00   -4.577E+00   -4.551E+00   -4.524E+00   -4.498E+00   -4.472E+00   -4.445E+00   -4.419E+00   -4.392E+00
    -4.365E+00   -4.338E+00   -4.312E+00   -4.285E+00   -4.258E+00   -4.230E+00   -4.203E+00   -4.176E+00   -4.149E+00   -4.121E+00
    -4.094E+00   -4.066E+00   -4.039E+00   -4.011E+00   -3.984E+00   -3.956E+00   -3.928E+00   -3.900E+00   -3.872E+00   -3.844E+00
    -3.816E+00   -3.788E+00   -3.760E+00   -3.731E+00   -3.703E+00   -3.675E+00   -3.646E+00   -3.618E+00   -3.589E+00   -3.561E+00
    -3.532E+00   -3.503E+00   -3.474E+00   -3.445E+00   -3.416E+00   -3.387E+00   -3.358E+00   -3.329E+00   -3.300E+00   -3.271E+00
    -3.242E+00   -3.212E+00   -3.183E+00   -3.153E+00   -3.124E+00   -3.094E+00   -3.065E+00   -3.035E+00
 Ala      Conc. = 2.42E+01
