 LCModel (Version 6.3-1L) Copyright: S.W. Provencher.          Ref.: Magn. Reson. Med. 30:672-679 (1993).                
 Slice#2 Row#13 Col#11  PD_05_press_1_raw_act
 36 lines in following concentration table = NCONC+1
    Conc.  %SD /Cr+PCr  Metabolite                                         
    0.000 999%   0.000 Ala                                                 
    7.069  85%   0.138 Asp                                                 
    0.000 999%   0.000 Cr                                                  
   51.240 243%   1.000 PCr                                                 
    4.191  86% 8.2E-02 GABA                                                
    4.249  85% 8.3E-02 Glc                                                 
  116.588 155%   2.275 Gln                                                 
  238.925  89%   4.663 Glu                                                 
    6.253 109%   0.122 GPC                                                 
    0.000 999%   0.000 PCh                                                 
   31.595 106%   0.617 GSH                                                 
  127.507  61%   2.488 Ins                                                 
   65.166 162%   1.272 Lac                                                 
   73.758  30%   1.439 NAA                                                 
    0.000 999%   0.000 NAAG                                                
    1.403  85% 2.7E-02 Scyllo                                              
    6.389  93%   0.125 Tau                                                 
    2.080 293% 4.1E-02 -CrCH2                                              
    6.253 109%   0.122 GPC+PCh                                             
   73.758  30%   1.439 NAA+NAAG                                            
   51.240  36%   1.000 Cr+PCr                                              
  355.513  95%   6.938 Glu+Gln                                             
  110.201  81%   2.151 Lip13a                                              
    0.000 999%   0.000 Lip13b                                              
   17.542 223%   0.342 Lip09                                               
   65.193  65%   1.272 MM09                                                
   21.212 122%   0.414 Lip20                                               
   80.999  85%   1.581 MM20                                                
   21.145  83%   0.413 MM12                                                
   93.601  55%   1.827 MM14                                                
   56.655  56%   1.106 MM17                                                
  110.201  81%   2.151 Lip13a+Lip13b                                       
  224.947  38%   4.390 MM14+Lip13a+Lip13b+MM12                             
   82.735  39%   1.615 MM09+Lip09                                          
  102.211  64%   1.995 MM20+Lip20                                          
   6 lines in following misc. output table
  FWHM = 0.122 ppm    S/N =   1                                            
  Data shift = 0.000 ppm                                                   
  Ph: -28 deg     -50.9 deg/ppm                                            
  alphaB,S = 8.5E+01,   1.0E+02                                            
   14 spline knots.   Ns = 6(2)                                            
   2 inflections.     1 extrema                                            
  498 points on ppm-axis = NY
      4.000000     3.992357     3.984714     3.977070     3.969427     3.961784     3.954141     3.946497     3.938854     3.931211
      3.923568     3.915925     3.908281     3.900638     3.892995     3.885352     3.877708     3.870065     3.862422     3.854779
      3.847136     3.839492     3.831849     3.824206     3.816563     3.808919     3.801276     3.793633     3.785990     3.778347
      3.770703     3.763060     3.755417     3.747774     3.740130     3.732487     3.724844     3.717201     3.709558     3.701914
      3.694271     3.686628     3.678985     3.671341     3.663698     3.656055     3.648412     3.640769     3.633125     3.625482
      3.617839     3.610196     3.602552     3.594909     3.587266     3.579623     3.571980     3.564336     3.556693     3.549050
      3.541407     3.533763     3.526120     3.518477     3.510834     3.503191     3.495547     3.487904     3.480261     3.472618
      3.464974     3.457331     3.449688     3.442045     3.434402     3.426758     3.419115     3.411472     3.403829     3.396185
      3.388542     3.380899     3.373256     3.365613     3.357969     3.350326     3.342683     3.335040     3.327396     3.319753
      3.312110     3.304467     3.296824     3.289180     3.281537     3.273894     3.266251     3.258607     3.250964     3.243321
      3.235678     3.228034     3.220391     3.212748     3.205105     3.197462     3.189818     3.182175     3.174532     3.166889
      3.159245     3.151602     3.143959     3.136316     3.128673     3.121029     3.113386     3.105743     3.098100     3.090456
      3.082813     3.075170     3.067527     3.059884     3.052240     3.044597     3.036954     3.029311     3.021667     3.014024
      3.006381     2.998738     2.991095     2.983451     2.975808     2.968165     2.960522     2.952878     2.945235     2.937592
      2.929949     2.922306     2.914662     2.907019     2.899376     2.891733     2.884089     2.876446     2.868803     2.861160
      2.853517     2.845873     2.838230     2.830587     2.822944     2.815300     2.807657     2.800014     2.792371     2.784728
      2.777084     2.769441     2.761798     2.754155     2.746511     2.738868     2.731225     2.723582     2.715939     2.708295
      2.700652     2.693009     2.685366     2.677722     2.670079     2.662436     2.654793     2.647150     2.639506     2.631863
      2.624220     2.616577     2.608933     2.601290     2.593647     2.586004     2.578361     2.570717     2.563074     2.555431
      2.547788     2.540144     2.532501     2.524858     2.517215     2.509572     2.501928     2.494285     2.486642     2.478999
      2.471355     2.463712     2.456069     2.448426     2.440783     2.433139     2.425496     2.417853     2.410210     2.402566
      2.394923     2.387280     2.379637     2.371994     2.364350     2.356707     2.349064     2.341421     2.333777     2.326134
      2.318491     2.310848     2.303205     2.295561     2.287918     2.280275     2.272632     2.264988     2.257345     2.249702
      2.242059     2.234416     2.226772     2.219129     2.211486     2.203843     2.196199     2.188556     2.180913     2.173270
      2.165627     2.157983     2.150340     2.142697     2.135054     2.127410     2.119767     2.112124     2.104481     2.096838
      2.089194     2.081551     2.073908     2.066265     2.058621     2.050978     2.043335     2.035692     2.028049     2.020405
      2.012762     2.005119     1.997476     1.989833     1.982190     1.974546     1.966903     1.959260     1.951617     1.943974
      1.936331     1.928688     1.921045     1.913402     1.905759     1.898115     1.890472     1.882829     1.875186     1.867543
      1.859900     1.852257     1.844614     1.836971     1.829327     1.821684     1.814041     1.806398     1.798755     1.791112
      1.783469     1.775826     1.768183     1.760540     1.752896     1.745253     1.737610     1.729967     1.722324     1.714681
      1.707038     1.699395     1.691752     1.684108     1.676465     1.668822     1.661179     1.653536     1.645893     1.638250
      1.630607     1.622964     1.615321     1.607677     1.600034     1.592391     1.584748     1.577105     1.569462     1.561819
      1.554176     1.546533     1.538890     1.531246     1.523603     1.515960     1.508317     1.500674     1.493031     1.485388
      1.477745     1.470102     1.462458     1.454815     1.447172     1.439529     1.431886     1.424243     1.416600     1.408957
      1.401314     1.393671     1.386027     1.378384     1.370741     1.363098     1.355455     1.347812     1.340169     1.332526
      1.324883     1.317240     1.309596     1.301953     1.294310     1.286667     1.279024     1.271381     1.263738     1.256095
      1.248452     1.240808     1.233165     1.225522     1.217879     1.210236     1.202593     1.194950     1.187307     1.179664
      1.172021     1.164377     1.156734     1.149091     1.141448     1.133805     1.126162     1.118519     1.110876     1.103233
      1.095590     1.087946     1.080303     1.072660     1.065017     1.057374     1.049731     1.042088     1.034445     1.026802
      1.019158     1.011515     1.003872     0.996229     0.988586     0.980943     0.973300     0.965657     0.958014     0.950371
      0.942727     0.935084     0.927441     0.919798     0.912155     0.904512     0.896869     0.889226     0.881583     0.873940
      0.866296     0.858653     0.851010     0.843367     0.835724     0.828081     0.820438     0.812795     0.805152     0.797508
      0.789865     0.782222     0.774579     0.766936     0.759293     0.751650     0.744007     0.736364     0.728721     0.721077
      0.713434     0.705791     0.698148     0.690505     0.682862     0.675219     0.667576     0.659933     0.652290     0.644646
      0.637003     0.629360     0.621717     0.614074     0.606431     0.598788     0.591145     0.583502     0.575858     0.568215
      0.560572     0.552929     0.545286     0.537643     0.530000     0.522357     0.514714     0.507071     0.499427     0.491784
      0.484141     0.476498     0.468855     0.461212     0.453569     0.445925     0.438282     0.430639     0.422996     0.415353
      0.407710     0.400067     0.392424     0.384780     0.377137     0.369494     0.361851     0.354208     0.346565     0.338922
      0.331278     0.323635     0.315992     0.308349     0.300706     0.293063     0.285420     0.277777     0.270133     0.262490
      0.254847     0.247204     0.239561     0.231918     0.224275     0.216631     0.208988     0.201345
 NY phased data points follow
   3.97470E+00  2.14345E+00  1.95275E+00  2.02147E+00  2.45324E+00  1.37340E+00  2.50183E+00  2.01268E+00  3.09633E+00  2.43257E+00
   2.11324E+00  1.28093E+00  2.21965E+00  1.27961E+00  3.23339E+00  3.71370E+00  1.14930E+00  5.96763E-01  2.33145E+00  1.85056E+00
   2.64719E+00  1.65687E+00  2.49144E+00  1.18398E+00  1.27570E+00  1.42584E+00  1.09279E+00  2.34436E+00  1.78713E-01  2.21572E+00
   1.48552E+00  1.10294E+00  2.30335E+00  1.84853E+00  1.98641E+00  7.08172E-01  2.24011E+00  1.40831E+00  1.77243E+00  1.73791E+00
   2.22651E+00  1.84940E+00  1.72235E+00  1.05269E+00  1.83407E+00  5.34708E-01  1.68703E-01 -8.88601E-01  6.74974E-01  1.33931E+00
   2.18542E+00  1.35944E+00  2.78987E+00  5.84987E-01  1.82770E+00  3.50557E+00  1.71226E+00  1.86958E+00  7.31986E-01  1.84437E+00
   4.37154E-01  2.12908E+00  3.32264E-01  1.68172E+00  2.77346E-01  8.61437E-01  1.32362E+00 -1.04161E-01  2.59090E-01  6.00885E-01
   7.22990E-01  1.92046E+00 -3.32250E-01  1.33188E+00  5.09412E-01  1.24849E+00  2.93003E-01 -3.86927E-02  1.75995E+00  2.47009E+00
   1.69444E+00  1.43964E+00  1.72889E+00  1.23733E+00  2.24400E+00 -6.05198E-01  1.17848E+00 -2.08439E-01  1.54760E+00  3.99158E-02
   5.13369E-01  4.88745E-01  4.52088E-01  1.14406E+00  1.84162E+00  1.20769E+00  5.11032E-01 -9.85996E-02  1.22532E+00  8.99296E-01
   1.47885E+00  1.09640E+00 -1.52251E-02  1.65260E-01  1.66578E+00  2.44790E+00  6.01647E-01  1.92440E+00  2.74619E-01  2.20662E+00
   2.54290E-01  9.43577E-01  1.59572E+00  1.49342E-02 -9.57506E-01  2.36270E+00 -4.65962E-01  1.69217E+00  1.10923E+00  1.63616E+00
   1.25593E+00  2.38007E+00  1.14692E+00  6.19069E-01 -1.74846E-02  1.07539E+00  1.39768E+00  1.64573E+00  2.05353E+00  8.74864E-01
   2.18267E+00  1.64723E+00  4.96324E-01  2.90879E+00  6.41599E-01  8.72828E-01  8.81412E-01 -8.51148E-01  1.80652E+00  1.06237E+00
  -1.19673E-02  1.62579E+00 -5.87563E-01  1.65450E+00  1.14297E+00 -1.36287E+00  4.64188E-01  2.40899E+00  4.22246E-01  1.26044E+00
   1.22774E+00  4.90612E-01  2.06467E+00 -1.46671E-01  1.38586E+00  8.55588E-01  1.92440E+00  1.38895E+00  1.27933E-03  1.10420E+00
  -8.97549E-02  3.65295E-01  2.58069E+00  2.81052E-01  2.08006E+00  5.04980E-01 -1.24166E-02  1.45347E+00  1.25425E+00 -3.88194E-01
   8.83823E-01  2.03310E+00  5.12116E-01  8.07595E-01  1.92993E-01  9.61686E-01  1.44889E+00  9.06493E-01  5.98035E-01 -2.77725E-01
  -4.77577E-01  1.03455E-01 -5.76771E-01  1.12255E+00  2.78407E+00 -1.40788E-01  1.44492E+00  1.65609E+00  1.60770E+00  2.06168E+00
   1.64227E+00  1.86643E+00  7.06531E-01  1.72475E+00  7.81245E-01  1.53026E-01  5.53989E-01  2.90132E+00  1.32388E+00  9.52627E-01
   1.64235E+00  1.92458E-01  2.01448E+00  8.78694E-01  1.95102E+00  7.69769E-01  1.38429E+00  8.63558E-01  1.41754E+00  1.20724E+00
   4.33423E-01  1.67963E+00  1.05624E+00  1.27810E+00  1.39427E+00  2.00695E+00  2.10635E+00  1.12817E+00  1.33072E+00  4.06430E-01
   1.62495E+00  1.48059E+00  6.81883E-01  2.09958E+00 -2.26093E-01  1.19765E+00  2.06042E+00  2.11898E+00  8.83129E-01  7.70178E-01
   1.35474E+00  1.67190E+00  1.63934E+00  1.47552E-02  6.53829E-01  1.14775E+00 -2.77362E-01  9.80771E-01  1.33181E+00  5.01897E-01
   1.23795E+00  1.88349E+00  2.09757E+00  9.42279E-01  2.16218E-01  5.61466E-01  9.70735E-01  2.06681E+00 -6.70095E-01 -1.66885E-01
   1.81308E+00 -4.09308E-01  9.38735E-01  2.87838E+00  1.10670E+00 -1.14795E-01  3.00912E+00  1.31615E+00  2.22310E+00  2.07588E+00
   1.15990E+00  2.80869E+00  8.94059E-01  3.24991E+00  3.75351E+00  2.78796E+00  2.75545E+00  1.73887E+00  1.82748E+00  1.97041E+00
   3.11746E+00  1.13878E+00  9.56680E-01  2.13635E+00  1.71166E+00  1.85763E+00  1.02578E+00  1.14924E+00  6.23616E-01  9.54864E-01
   8.31374E-01  1.80477E+00  1.15031E+00  1.19645E+00  6.01582E-01  1.96976E+00  1.32216E+00  1.84253E+00  1.77376E+00  2.28689E+00
   8.08233E-02  5.96446E-01  9.63981E-01 -1.37600E-01  9.59819E-01  1.66260E+00 -4.41356E-01  1.18695E+00  8.61713E-01  2.59229E+00
   1.31112E+00  3.30461E+00  5.43148E-01  2.42752E-01  1.15887E+00  2.24982E+00 -1.12289E-01  9.24243E-01  1.01206E+00  1.90613E+00
   1.93963E+00  3.31721E-01  2.53181E+00  8.66254E-01  1.60017E+00  5.71440E-01  1.61786E+00  2.10174E+00  1.07339E+00  2.06739E+00
   4.59369E-01  1.07670E+00  7.40759E-01  7.79424E-01  1.04821E+00  2.26260E+00  5.07478E+00  8.70845E-01  1.96482E+00  9.42741E-01
   1.12873E+00  1.33859E+00  8.77149E-01  1.60927E+00  1.55945E+00  2.42740E+00  2.23057E+00  1.79122E+00  2.77975E+00  1.56768E+00
   4.08765E-01  1.49287E+00  1.53223E+00  2.43744E-01  9.97187E-03  1.44326E+00 -7.60204E-02  2.80632E+00  1.62238E+00  5.35245E-01
   1.37834E+00  1.11615E+00  1.78556E+00  3.40637E-01  1.00494E+00  9.39492E-01  2.77044E+00  6.91041E-01  2.38532E+00  1.57626E+00
   2.13158E+00  9.67100E-01  8.21844E-01  1.83996E-01  1.08935E+00  1.31303E+00  4.31311E-01  2.32448E+00  1.63134E+00  2.54959E+00
   1.35006E+00  7.24599E-01 -3.78789E-01  5.59015E-01  2.67528E+00  1.32992E+00  1.89863E+00  1.49609E+00  2.07867E+00  1.32891E+00
   7.08485E-01 -2.88181E-01  2.27254E+00  1.00617E+00  1.43626E+00  1.59024E+00  1.59931E+00  1.61173E+00  6.07370E-01  2.79431E+00
   1.75026E+00  1.15996E+00  1.59173E+00  1.13965E+00  1.73271E+00  6.75675E-01  9.42218E-01  3.19723E-01  2.98036E-01  2.31694E-01
   5.85426E-01  1.34392E+00  1.46908E+00  5.12541E-01  1.22669E+00  1.52639E+00  1.96577E+00  1.65913E+00 -7.51356E-02 -5.37215E-01
   8.80309E-01  7.99268E-01  3.38015E+00  1.97307E+00  5.45473E-01 -5.50945E-02 -1.14030E-01  2.39684E+00  4.67022E-01 -4.88954E-01
   1.98209E-01  1.92059E+00 -9.36386E-02  1.27893E+00 -1.03420E+00  1.91891E+00  1.50894E+00  1.97253E-01  1.59334E+00  3.34358E-01
   1.97885E+00  9.62125E-01  4.80492E-01  7.69801E-01  7.56200E-01  1.54017E+00  2.62162E-01 -2.11292E-01  1.32285E+00 -7.29749E-01
   9.58391E-01 -4.24779E-01  1.00707E-01  1.03292E+00  6.07799E-01  1.13470E+00 -7.44223E-01  1.47630E+00  4.45558E-01  9.65417E-01
  -4.66675E-01 -9.02888E-02  1.07961E-01  6.19026E-01 -1.74851E+00  1.13255E+00 -2.46655E-01  3.07586E-01  5.18582E-01 -2.44777E-01
   8.36003E-01  1.21680E+00  1.46038E+00  9.75262E-01  1.35317E+00  2.54570E+00  1.74055E+00  9.77579E-02  5.68472E-01  8.17608E-01
  -3.47430E-02  4.17791E-01  1.66789E+00  2.00824E+00  1.92029E+00  2.63462E+00  5.36832E-01  1.27566E+00 -4.76083E-02  5.91654E-01
  -1.40205E+00  3.85401E-01 -6.50555E-01  4.34153E-01  1.57418E-01  6.58155E-01  1.52337E-01  2.72725E-01  7.07820E-01 -1.20775E+00
   1.47378E-01 -8.19471E-01  4.18002E-02  5.19195E-01  1.44320E+00 -3.24670E-01 -9.35867E-01 -5.19924E-01
 NY points of the fit to the data follow
   1.59924E+00  1.63912E+00  1.60777E+00  1.63708E+00  1.60065E+00  1.63052E+00  1.59979E+00  1.64001E+00  1.62039E+00  1.67383E+00
   1.65257E+00  1.69777E+00  1.67677E+00  1.70344E+00  1.66916E+00  1.66498E+00  1.60691E+00  1.58231E+00  1.52652E+00  1.49480E+00
   1.47269E+00  1.45367E+00  1.47367E+00  1.47191E+00  1.51992E+00  1.54792E+00  1.59604E+00  1.60790E+00  1.65476E+00  1.65055E+00
   1.69932E+00  1.67851E+00  1.72425E+00  1.68507E+00  1.72174E+00  1.68019E+00  1.71674E+00  1.67659E+00  1.70242E+00  1.66066E+00
   1.66693E+00  1.62422E+00  1.60593E+00  1.55867E+00  1.52260E+00  1.49578E+00  1.49312E+00  1.48931E+00  1.52245E+00  1.53169E+00
   1.56239E+00  1.54795E+00  1.54568E+00  1.50218E+00  1.47256E+00  1.41676E+00  1.38759E+00  1.33107E+00  1.30513E+00  1.25498E+00
   1.24282E+00  1.20675E+00  1.21914E+00  1.20960E+00  1.24862E+00  1.23793E+00  1.26908E+00  1.24626E+00  1.26939E+00  1.23894E+00
   1.25629E+00  1.22380E+00  1.23837E+00  1.20982E+00  1.22257E+00  1.19856E+00  1.21069E+00  1.18066E+00  1.18610E+00  1.14275E+00
   1.13881E+00  1.08698E+00  1.07895E+00  1.02681E+00  1.02140E+00  9.72844E-01  9.70767E-01  9.25907E-01  9.30766E-01  8.91785E-01
   9.06254E-01  8.91462E-01  9.08171E-01  9.18628E-01  9.29188E-01  9.62569E-01  9.61987E-01  1.01432E+00  1.00135E+00  1.06901E+00
   1.04192E+00  1.11725E+00  1.07561E+00  1.14415E+00  1.08514E+00  1.14161E+00  1.07607E+00  1.11944E+00  1.05536E+00  1.08308E+00
   1.02743E+00  1.03813E+00  9.95739E-01  9.94271E-01  9.81124E-01  1.01893E+00  1.02811E+00  1.11079E+00  1.13139E+00  1.26390E+00
   1.26728E+00  1.42456E+00  1.40853E+00  1.57897E+00  1.53817E+00  1.70755E+00  1.63765E+00  1.79380E+00  1.69580E+00  1.82265E+00
   1.70307E+00  1.78344E+00  1.65071E+00  1.67451E+00  1.54007E+00  1.50652E+00  1.38307E+00  1.30303E+00  1.20617E+00  1.10144E+00
   1.04653E+00  9.54515E-01  9.53341E-01  9.23834E-01  9.35897E-01  9.12664E-01  9.25332E-01  9.07460E-01  9.17951E-01  9.03226E-01
   9.08215E-01  8.87378E-01  8.82659E-01  8.61341E-01  8.49637E-01  8.34272E-01  8.22748E-01  8.13680E-01  8.04564E-01  7.97262E-01
   7.88836E-01  7.82972E-01  7.74743E-01  7.69506E-01  7.59003E-01  7.54495E-01  7.43442E-01  7.38795E-01  7.28021E-01  7.20690E-01
   7.11253E-01  7.01393E-01  6.95269E-01  6.82279E-01  6.78798E-01  6.60678E-01  6.61291E-01  6.40132E-01  6.49507E-01  6.33563E-01
   6.53349E-01  6.43672E-01  6.65528E-01  6.58920E-01  6.75956E-01  6.70130E-01  6.78059E-01  6.78039E-01  6.79127E-01  6.93992E-01
   6.94650E-01  7.27534E-01  7.28193E-01  7.81364E-01  7.83313E-01  8.42098E-01  8.36493E-01  8.79893E-01  8.40340E-01  8.76471E-01
   8.15600E-01  8.52589E-01  7.92230E-01  8.48433E-01  8.31425E-01  8.89787E-01  9.07831E-01  9.42677E-01  9.75683E-01  9.57119E-01
   9.68288E-01  8.94119E-01  9.09789E-01  8.06632E-01  8.47622E-01  7.47461E-01  8.25069E-01  7.40483E-01  8.42144E-01  7.64807E-01
   8.62903E-01  7.95722E-01  8.69999E-01  8.02811E-01  8.27739E-01  7.84412E-01  7.52249E-01  7.73705E-01  7.40916E-01  8.35356E-01
   8.23838E-01  9.60490E-01  9.91339E-01  1.10213E+00  1.12482E+00  1.18058E+00  1.18483E+00  1.16966E+00  1.14654E+00  1.08199E+00
   1.09300E+00  1.02420E+00  1.06808E+00  1.00094E+00  1.07249E+00  1.00263E+00  1.08318E+00  1.01819E+00  1.15149E+00  1.14626E+00
   1.29726E+00  1.35884E+00  1.48578E+00  1.61726E+00  1.70468E+00  1.88762E+00  1.91745E+00  2.13259E+00  2.09586E+00  2.30256E+00
   2.20909E+00  2.40526E+00  2.25157E+00  2.41347E+00  2.20669E+00  2.31648E+00  2.06267E+00  2.11590E+00  1.84375E+00  1.84824E+00
   1.58546E+00  1.54658E+00  1.31855E+00  1.25291E+00  1.09394E+00  1.04149E+00  1.00750E+00  1.00147E+00  9.85779E-01  9.84489E-01
   9.80469E-01  9.75774E-01  9.74862E-01  9.70868E-01  9.70856E-01  9.66224E-01  9.66334E-01  9.62691E-01  9.64130E-01  9.66232E-01
   9.73579E-01  9.81488E-01  9.92930E-01  1.00529E+00  1.01910E+00  1.03395E+00  1.04818E+00  1.06336E+00  1.07773E+00  1.09238E+00
   1.10564E+00  1.11851E+00  1.12950E+00  1.13935E+00  1.14687E+00  1.15283E+00  1.15657E+00  1.15849E+00  1.15855E+00  1.15714E+00
   1.15446E+00  1.15096E+00  1.14702E+00  1.14310E+00  1.13964E+00  1.13704E+00  1.13572E+00  1.13599E+00  1.13812E+00  1.14237E+00
   1.14874E+00  1.15736E+00  1.16808E+00  1.18089E+00  1.19550E+00  1.21181E+00  1.22948E+00  1.24836E+00  1.26811E+00  1.28869E+00
   1.30991E+00  1.33199E+00  1.35526E+00  1.38099E+00  1.41234E+00  1.45627E+00  1.48936E+00  1.52279E+00  1.55062E+00  1.55706E+00
   1.57616E+00  1.54615E+00  1.55375E+00  1.51265E+00  1.52906E+00  1.47818E+00  1.50785E+00  1.44275E+00  1.48327E+00  1.39964E+00
   1.44740E+00  1.35200E+00  1.40749E+00  1.31077E+00  1.37413E+00  1.28717E+00  1.35733E+00  1.28668E+00  1.35914E+00  1.30950E+00
   1.37888E+00  1.35330E+00  1.41294E+00  1.40610E+00  1.43343E+00  1.38977E+00  1.38131E+00  1.31534E+00  1.27772E+00  1.20693E+00
   1.15486E+00  1.11590E+00  1.08339E+00  1.05524E+00  1.03040E+00  1.00855E+00  9.89359E-01  9.72849E-01  9.58874E-01  9.47558E-01
   9.38814E-01  9.32805E-01  9.29468E-01  9.28971E-01  9.31242E-01  9.36423E-01  9.44403E-01  9.55266E-01  9.68824E-01  9.85060E-01
   1.00366E+00  1.02447E+00  1.04702E+00  1.07099E+00  1.09574E+00  1.12081E+00  1.14542E+00  1.16901E+00  1.19076E+00  1.21007E+00
   1.22620E+00  1.23866E+00  1.24686E+00  1.25054E+00  1.24937E+00  1.24340E+00  1.23258E+00  1.21725E+00  1.19766E+00  1.17441E+00
   1.14793E+00  1.11896E+00  1.08804E+00  1.05594E+00  1.02316E+00  9.90409E-01  9.58074E-01  9.26712E-01  8.96563E-01  8.68013E-01
   8.41136E-01  8.16164E-01  7.93033E-01  7.71852E-01  7.52456E-01  7.34875E-01  7.18889E-01  7.04489E-01  6.91432E-01  6.79698E-01
   6.69046E-01  6.59464E-01  6.50727E-01  6.42842E-01  6.35602E-01  6.29034E-01  6.22950E-01  6.17398E-01  6.12208E-01  6.07443E-01
   6.02945E-01  5.98791E-01  5.94833E-01  5.91160E-01  5.87630E-01  5.84339E-01  5.81151E-01  5.78167E-01  5.75256E-01  5.72523E-01
   5.69839E-01  5.67313E-01  5.64817E-01  5.62463E-01  5.60125E-01  5.57915E-01  5.55712E-01  5.53625E-01  5.51536E-01  5.49554E-01
   5.47563E-01  5.45673E-01  5.43766E-01  5.41955E-01  5.40123E-01  5.38381E-01  5.36614E-01  5.34934E-01  5.33225E-01  5.31598E-01
   5.29940E-01  5.28361E-01  5.26749E-01  5.25214E-01  5.23642E-01  5.22146E-01  5.20612E-01  5.19151E-01  5.17650E-01  5.16222E-01
   5.14752E-01  5.13353E-01  5.11911E-01  5.10540E-01  5.09125E-01  5.07779E-01  5.06388E-01  5.05066E-01  5.03699E-01  5.02400E-01
   5.01055E-01  4.99778E-01  4.98456E-01  4.97202E-01  4.95903E-01  4.94673E-01  4.93398E-01  4.92194E-01
 NY background values follow
     9.630E-01    9.620E-01    9.611E-01    9.601E-01    9.591E-01    9.581E-01    9.571E-01    9.561E-01    9.551E-01    9.541E-01
     9.531E-01    9.522E-01    9.512E-01    9.502E-01    9.492E-01    9.482E-01    9.472E-01    9.462E-01    9.452E-01    9.442E-01
     9.433E-01    9.423E-01    9.413E-01    9.403E-01    9.393E-01    9.383E-01    9.373E-01    9.363E-01    9.353E-01    9.344E-01
     9.334E-01    9.324E-01    9.314E-01    9.304E-01    9.294E-01    9.284E-01    9.274E-01    9.264E-01    9.255E-01    9.245E-01
     9.235E-01    9.225E-01    9.215E-01    9.205E-01    9.195E-01    9.185E-01    9.175E-01    9.166E-01    9.156E-01    9.146E-01
     9.136E-01    9.126E-01    9.116E-01    9.106E-01    9.096E-01    9.086E-01    9.077E-01    9.067E-01    9.057E-01    9.047E-01
     9.037E-01    9.027E-01    9.017E-01    9.007E-01    8.998E-01    8.988E-01    8.978E-01    8.968E-01    8.958E-01    8.948E-01
     8.938E-01    8.928E-01    8.918E-01    8.909E-01    8.899E-01    8.889E-01    8.879E-01    8.869E-01    8.859E-01    8.849E-01
     8.839E-01    8.829E-01    8.820E-01    8.810E-01    8.800E-01    8.790E-01    8.780E-01    8.770E-01    8.760E-01    8.750E-01
     8.740E-01    8.731E-01    8.721E-01    8.711E-01    8.701E-01    8.691E-01    8.681E-01    8.671E-01    8.661E-01    8.651E-01
     8.642E-01    8.632E-01    8.622E-01    8.612E-01    8.602E-01    8.592E-01    8.582E-01    8.572E-01    8.562E-01    8.553E-01
     8.543E-01    8.533E-01    8.523E-01    8.513E-01    8.503E-01    8.493E-01    8.483E-01    8.473E-01    8.464E-01    8.454E-01
     8.444E-01    8.434E-01    8.424E-01    8.414E-01    8.404E-01    8.394E-01    8.384E-01    8.375E-01    8.365E-01    8.355E-01
     8.345E-01    8.335E-01    8.325E-01    8.315E-01    8.305E-01    8.295E-01    8.286E-01    8.276E-01    8.266E-01    8.256E-01
     8.246E-01    8.236E-01    8.226E-01    8.216E-01    8.206E-01    8.197E-01    8.187E-01    8.177E-01    8.167E-01    8.157E-01
     8.147E-01    8.137E-01    8.127E-01    8.117E-01    8.108E-01    8.098E-01    8.088E-01    8.078E-01    8.068E-01    8.058E-01
     8.048E-01    8.038E-01    8.028E-01    8.019E-01    8.009E-01    7.999E-01    7.989E-01    7.979E-01    7.969E-01    7.959E-01
     7.949E-01    7.939E-01    7.930E-01    7.920E-01    7.910E-01    7.900E-01    7.890E-01    7.880E-01    7.870E-01    7.860E-01
     7.851E-01    7.841E-01    7.831E-01    7.821E-01    7.811E-01    7.801E-01    7.791E-01    7.781E-01    7.771E-01    7.762E-01
     7.752E-01    7.742E-01    7.732E-01    7.722E-01    7.712E-01    7.702E-01    7.692E-01    7.682E-01    7.673E-01    7.663E-01
     7.653E-01    7.643E-01    7.633E-01    7.623E-01    7.613E-01    7.603E-01    7.593E-01    7.584E-01    7.574E-01    7.564E-01
     7.554E-01    7.544E-01    7.534E-01    7.524E-01    7.514E-01    7.504E-01    7.495E-01    7.485E-01    7.475E-01    7.465E-01
     7.455E-01    7.445E-01    7.435E-01    7.425E-01    7.415E-01    7.406E-01    7.396E-01    7.386E-01    7.376E-01    7.366E-01
     7.356E-01    7.346E-01    7.336E-01    7.326E-01    7.317E-01    7.307E-01    7.297E-01    7.287E-01    7.277E-01    7.267E-01
     7.257E-01    7.247E-01    7.237E-01    7.228E-01    7.218E-01    7.208E-01    7.198E-01    7.188E-01    7.178E-01    7.168E-01
     7.158E-01    7.148E-01    7.139E-01    7.129E-01    7.119E-01    7.109E-01    7.099E-01    7.089E-01    7.079E-01    7.069E-01
     7.059E-01    7.050E-01    7.040E-01    7.030E-01    7.020E-01    7.010E-01    7.000E-01    6.990E-01    6.980E-01    6.970E-01
     6.961E-01    6.951E-01    6.941E-01    6.931E-01    6.921E-01    6.911E-01    6.901E-01    6.891E-01    6.881E-01    6.872E-01
     6.862E-01    6.852E-01    6.842E-01    6.832E-01    6.822E-01    6.812E-01    6.802E-01    6.792E-01    6.782E-01    6.773E-01
     6.763E-01    6.753E-01    6.743E-01    6.733E-01    6.723E-01    6.713E-01    6.703E-01    6.693E-01    6.684E-01    6.674E-01
     6.664E-01    6.654E-01    6.644E-01    6.634E-01    6.624E-01    6.614E-01    6.604E-01    6.595E-01    6.585E-01    6.575E-01
     6.565E-01    6.555E-01    6.545E-01    6.535E-01    6.525E-01    6.515E-01    6.506E-01    6.496E-01    6.486E-01    6.476E-01
     6.466E-01    6.456E-01    6.446E-01    6.436E-01    6.426E-01    6.417E-01    6.407E-01    6.397E-01    6.387E-01    6.377E-01
     6.367E-01    6.357E-01    6.347E-01    6.337E-01    6.328E-01    6.318E-01    6.308E-01    6.298E-01    6.288E-01    6.278E-01
     6.268E-01    6.258E-01    6.248E-01    6.239E-01    6.229E-01    6.219E-01    6.209E-01    6.199E-01    6.189E-01    6.179E-01
     6.169E-01    6.159E-01    6.150E-01    6.140E-01    6.130E-01    6.120E-01    6.110E-01    6.100E-01    6.090E-01    6.080E-01
     6.070E-01    6.060E-01    6.051E-01    6.041E-01    6.031E-01    6.021E-01    6.011E-01    6.001E-01    5.991E-01    5.981E-01
     5.971E-01    5.962E-01    5.952E-01    5.942E-01    5.932E-01    5.922E-01    5.912E-01    5.902E-01    5.892E-01    5.882E-01
     5.873E-01    5.863E-01    5.853E-01    5.843E-01    5.833E-01    5.823E-01    5.813E-01    5.803E-01    5.793E-01    5.784E-01
     5.774E-01    5.764E-01    5.754E-01    5.744E-01    5.734E-01    5.724E-01    5.714E-01    5.704E-01    5.694E-01    5.685E-01
     5.675E-01    5.665E-01    5.655E-01    5.645E-01    5.635E-01    5.625E-01    5.615E-01    5.605E-01    5.596E-01    5.586E-01
     5.576E-01    5.566E-01    5.556E-01    5.546E-01    5.536E-01    5.526E-01    5.516E-01    5.507E-01    5.497E-01    5.487E-01
     5.477E-01    5.467E-01    5.457E-01    5.447E-01    5.437E-01    5.427E-01    5.418E-01    5.408E-01    5.398E-01    5.388E-01
     5.378E-01    5.368E-01    5.358E-01    5.348E-01    5.338E-01    5.328E-01    5.319E-01    5.309E-01    5.299E-01    5.289E-01
     5.279E-01    5.269E-01    5.259E-01    5.249E-01    5.239E-01    5.230E-01    5.220E-01    5.210E-01    5.200E-01    5.190E-01
     5.180E-01    5.170E-01    5.160E-01    5.150E-01    5.141E-01    5.131E-01    5.121E-01    5.111E-01    5.101E-01    5.091E-01
     5.081E-01    5.071E-01    5.061E-01    5.052E-01    5.042E-01    5.032E-01    5.022E-01    5.012E-01    5.002E-01    4.992E-01
     4.982E-01    4.972E-01    4.962E-01    4.953E-01    4.943E-01    4.933E-01    4.923E-01    4.913E-01    4.903E-01    4.893E-01
     4.883E-01    4.873E-01    4.864E-01    4.854E-01    4.844E-01    4.834E-01    4.824E-01    4.814E-01    4.804E-01    4.794E-01
     4.784E-01    4.775E-01    4.765E-01    4.755E-01    4.745E-01    4.735E-01    4.725E-01    4.715E-01
 Asp      Conc. = 7.07E+00
