 LCModel (Version 6.3-1L) Copyright: S.W. Provencher.          Ref.: Magn. Reson. Med. 30:672-679 (1993).                
 Slice#3 Row#4 Col#3  PD_05_press_1_raw_act
 36 lines in following concentration table = NCONC+1
    Conc.  %SD /Cr+PCr  Metabolite                                         
   11.349 126%   0.372 Ala                                                 
    7.452  29%   0.244 Asp                                                 
    0.000 999%   0.000 Cr                                                  
   30.542  27%   1.000 PCr                                                 
    4.465  29%   0.146 GABA                                                
    4.503  28%   0.147 Glc                                                 
    0.000 999%   0.000 Gln                                                 
   30.733 105%   1.006 Glu                                                 
    8.230  35%   0.269 GPC                                                 
    0.000 999%   0.000 PCh                                                 
   16.314  65%   0.534 GSH                                                 
   92.755  41%   3.037 Ins                                                 
 8.33E-02 999% 2.7E-03 Lac                                                 
   68.498  22%   2.243 NAA                                                 
   25.960  42%   0.850 NAAG                                                
    1.500  29% 4.9E-02 Scyllo                                              
    7.391  29%   0.242 Tau                                                 
    3.282  58%   0.107 -CrCH2                                              
    8.230  35%   0.269 GPC+PCh                                             
   94.457  17%   3.093 NAA+NAAG                                            
   30.542  27%   1.000 Cr+PCr                                              
   30.733 105%   1.006 Glu+Gln                                             
    0.000 999%   0.000 Lip13a                                              
    0.000 999%   0.000 Lip13b                                              
    0.000 999%   0.000 Lip09                                               
 1.10E+03   8%  36.177 MM09                                                
    3.019 358% 9.9E-02 Lip20                                               
 1.66E+03   8%  54.468 MM20                                                
  328.543   8%  10.757 MM12                                                
  918.350   7%  30.069 MM14                                                
  444.636  10%  14.558 MM17                                                
    0.000 999%   0.000 Lip13a+Lip13b                                       
 1.25E+03   6%  40.826 MM14+Lip13a+Lip13b+MM12                             
 1.10E+03   8%  36.177 MM09+Lip09                                          
 1.67E+03   8%  54.566 MM20+Lip20                                          
   6 lines in following misc. output table
  FWHM = 0.076 ppm    S/N =   3                                            
  Data shift = 0.061 ppm                                                   
  Ph: 135 deg       2.7 deg/ppm                                            
  alphaB,S = 4.6E-01,   4.8E+00                                            
   14 spline knots.   Ns = 6(2)                                            
  ( 6) 6 infls.   ( 6) 4 extrs.                                            
  498 points on ppm-axis = NY
      4.000000     3.992357     3.984714     3.977070     3.969427     3.961784     3.954141     3.946497     3.938854     3.931211
      3.923568     3.915925     3.908281     3.900638     3.892995     3.885352     3.877708     3.870065     3.862422     3.854779
      3.847136     3.839492     3.831849     3.824206     3.816563     3.808919     3.801276     3.793633     3.785990     3.778347
      3.770703     3.763060     3.755417     3.747774     3.740130     3.732487     3.724844     3.717201     3.709558     3.701914
      3.694271     3.686628     3.678985     3.671341     3.663698     3.656055     3.648412     3.640769     3.633125     3.625482
      3.617839     3.610196     3.602552     3.594909     3.587266     3.579623     3.571980     3.564336     3.556693     3.549050
      3.541407     3.533763     3.526120     3.518477     3.510834     3.503191     3.495547     3.487904     3.480261     3.472618
      3.464974     3.457331     3.449688     3.442045     3.434402     3.426758     3.419115     3.411472     3.403829     3.396185
      3.388542     3.380899     3.373256     3.365613     3.357969     3.350326     3.342683     3.335040     3.327396     3.319753
      3.312110     3.304467     3.296824     3.289180     3.281537     3.273894     3.266251     3.258607     3.250964     3.243321
      3.235678     3.228034     3.220391     3.212748     3.205105     3.197462     3.189818     3.182175     3.174532     3.166889
      3.159245     3.151602     3.143959     3.136316     3.128673     3.121029     3.113386     3.105743     3.098100     3.090456
      3.082813     3.075170     3.067527     3.059884     3.052240     3.044597     3.036954     3.029311     3.021667     3.014024
      3.006381     2.998738     2.991095     2.983451     2.975808     2.968165     2.960522     2.952878     2.945235     2.937592
      2.929949     2.922306     2.914662     2.907019     2.899376     2.891733     2.884089     2.876446     2.868803     2.861160
      2.853517     2.845873     2.838230     2.830587     2.822944     2.815300     2.807657     2.800014     2.792371     2.784728
      2.777084     2.769441     2.761798     2.754155     2.746511     2.738868     2.731225     2.723582     2.715939     2.708295
      2.700652     2.693009     2.685366     2.677722     2.670079     2.662436     2.654793     2.647150     2.639506     2.631863
      2.624220     2.616577     2.608933     2.601290     2.593647     2.586004     2.578361     2.570717     2.563074     2.555431
      2.547788     2.540144     2.532501     2.524858     2.517215     2.509572     2.501928     2.494285     2.486642     2.478999
      2.471355     2.463712     2.456069     2.448426     2.440783     2.433139     2.425496     2.417853     2.410210     2.402566
      2.394923     2.387280     2.379637     2.371994     2.364350     2.356707     2.349064     2.341421     2.333777     2.326134
      2.318491     2.310848     2.303205     2.295561     2.287918     2.280275     2.272632     2.264988     2.257345     2.249702
      2.242059     2.234416     2.226772     2.219129     2.211486     2.203843     2.196199     2.188556     2.180913     2.173270
      2.165627     2.157983     2.150340     2.142697     2.135054     2.127410     2.119767     2.112124     2.104481     2.096838
      2.089194     2.081551     2.073908     2.066265     2.058621     2.050978     2.043335     2.035692     2.028049     2.020405
      2.012762     2.005119     1.997476     1.989833     1.982190     1.974546     1.966903     1.959260     1.951617     1.943974
      1.936331     1.928688     1.921045     1.913402     1.905759     1.898115     1.890472     1.882829     1.875186     1.867543
      1.859900     1.852257     1.844614     1.836971     1.829327     1.821684     1.814041     1.806398     1.798755     1.791112
      1.783469     1.775826     1.768183     1.760540     1.752896     1.745253     1.737610     1.729967     1.722324     1.714681
      1.707038     1.699395     1.691752     1.684108     1.676465     1.668822     1.661179     1.653536     1.645893     1.638250
      1.630607     1.622964     1.615321     1.607677     1.600034     1.592391     1.584748     1.577105     1.569462     1.561819
      1.554176     1.546533     1.538890     1.531246     1.523603     1.515960     1.508317     1.500674     1.493031     1.485388
      1.477745     1.470102     1.462458     1.454815     1.447172     1.439529     1.431886     1.424243     1.416600     1.408957
      1.401314     1.393671     1.386027     1.378384     1.370741     1.363098     1.355455     1.347812     1.340169     1.332526
      1.324883     1.317240     1.309596     1.301953     1.294310     1.286667     1.279024     1.271381     1.263738     1.256095
      1.248452     1.240808     1.233165     1.225522     1.217879     1.210236     1.202593     1.194950     1.187307     1.179664
      1.172021     1.164377     1.156734     1.149091     1.141448     1.133805     1.126162     1.118519     1.110876     1.103233
      1.095590     1.087946     1.080303     1.072660     1.065017     1.057374     1.049731     1.042088     1.034445     1.026802
      1.019158     1.011515     1.003872     0.996229     0.988586     0.980943     0.973300     0.965657     0.958014     0.950371
      0.942727     0.935084     0.927441     0.919798     0.912155     0.904512     0.896869     0.889226     0.881583     0.873940
      0.866296     0.858653     0.851010     0.843367     0.835724     0.828081     0.820438     0.812795     0.805152     0.797508
      0.789865     0.782222     0.774579     0.766936     0.759293     0.751650     0.744007     0.736364     0.728721     0.721077
      0.713434     0.705791     0.698148     0.690505     0.682862     0.675219     0.667576     0.659933     0.652290     0.644646
      0.637003     0.629360     0.621717     0.614074     0.606431     0.598788     0.591145     0.583502     0.575858     0.568215
      0.560572     0.552929     0.545286     0.537643     0.530000     0.522357     0.514714     0.507071     0.499427     0.491784
      0.484141     0.476498     0.468855     0.461212     0.453569     0.445925     0.438282     0.430639     0.422996     0.415353
      0.407710     0.400067     0.392424     0.384780     0.377137     0.369494     0.361851     0.354208     0.346565     0.338922
      0.331278     0.323635     0.315992     0.308349     0.300706     0.293063     0.285420     0.277777     0.270133     0.262490
      0.254847     0.247204     0.239561     0.231918     0.224275     0.216631     0.208988     0.201345
 NY phased data points follow
   7.13850E+01  6.93837E+01  6.75624E+01  6.71882E+01  6.72797E+01  6.76856E+01  6.53103E+01  6.71255E+01  6.45589E+01  6.62243E+01
   6.46662E+01  6.58997E+01  6.26225E+01  6.15551E+01  6.03856E+01  6.18210E+01  6.10485E+01  5.84492E+01  5.95238E+01  5.79728E+01
   5.82247E+01  5.83467E+01  5.82677E+01  5.49044E+01  5.56504E+01  5.33608E+01  5.34626E+01  5.39444E+01  5.35214E+01  5.40722E+01
   5.33237E+01  5.11414E+01  5.08322E+01  5.13432E+01  5.07499E+01  5.18922E+01  4.97076E+01  4.94623E+01  4.98716E+01  4.84275E+01
   4.76582E+01  4.86012E+01  4.85207E+01  4.82668E+01  4.69141E+01  4.74869E+01  4.52338E+01  4.45910E+01  4.65896E+01  4.51189E+01
   4.51430E+01  4.43519E+01  4.43957E+01  4.32948E+01  4.29199E+01  4.31994E+01  4.25195E+01  4.33731E+01  4.26876E+01  4.08822E+01
   3.98897E+01  4.28148E+01  3.86681E+01  4.09554E+01  3.86251E+01  3.85490E+01  3.87870E+01  3.68072E+01  3.62140E+01  3.49830E+01
   3.77541E+01  3.72964E+01  3.55709E+01  3.60918E+01  3.58724E+01  3.48890E+01  3.26464E+01  3.36676E+01  3.56668E+01  3.51870E+01
   3.41709E+01  3.06504E+01  3.17918E+01  3.11427E+01  3.23412E+01  3.27533E+01  3.06178E+01  3.22880E+01  3.01705E+01  2.86388E+01
   2.89023E+01  2.85408E+01  2.75698E+01  2.71578E+01  2.56285E+01  2.61741E+01  2.84996E+01  2.79381E+01  2.85997E+01  2.71696E+01
   2.73990E+01  2.94647E+01  2.87841E+01  2.69514E+01  2.79754E+01  2.53196E+01  2.71485E+01  2.78637E+01  2.54701E+01  2.44555E+01
   2.57927E+01  2.35945E+01  2.14222E+01  2.29862E+01  2.30967E+01  2.12569E+01  2.31453E+01  2.08975E+01  2.01130E+01  2.03223E+01
   2.14187E+01  1.97776E+01  2.06482E+01  2.36173E+01  2.32793E+01  2.56088E+01  2.41350E+01  2.36108E+01  2.22151E+01  2.29876E+01
   2.26243E+01  2.21582E+01  2.14065E+01  2.04638E+01  1.99381E+01  2.13593E+01  1.81220E+01  1.96455E+01  2.15798E+01  1.82023E+01
   1.95056E+01  2.22080E+01  1.82067E+01  1.93794E+01  2.04458E+01  1.92029E+01  1.95531E+01  1.94170E+01  2.17253E+01  1.85596E+01
   1.82904E+01  1.98966E+01  1.81993E+01  2.04250E+01  1.92698E+01  1.78880E+01  1.83408E+01  1.71383E+01  1.72962E+01  1.67434E+01
   1.69846E+01  1.57649E+01  1.67278E+01  1.50080E+01  1.76632E+01  1.42697E+01  1.40509E+01  1.70949E+01  1.38477E+01  1.40861E+01
   1.37196E+01  1.62852E+01  1.44246E+01  1.26332E+01  1.29489E+01  1.27868E+01  1.44780E+01  1.31872E+01  1.12617E+01  1.34234E+01
   1.28019E+01  1.12068E+01  1.13986E+01  1.18391E+01  1.01752E+01  1.05697E+01  1.18790E+01  1.02441E+01  1.14688E+01  1.09382E+01
   1.14053E+01  1.20305E+01  1.17705E+01  1.16431E+01  1.16605E+01  1.09580E+01  1.00071E+01  1.22155E+01  1.15023E+01  1.00831E+01
   1.15915E+01  1.09735E+01  1.04112E+01  1.02663E+01  9.56732E+00  1.13159E+01  1.21856E+01  1.14996E+01  1.31198E+01  1.39092E+01
   1.37679E+01  1.64065E+01  1.59617E+01  1.31722E+01  1.71093E+01  1.58294E+01  1.48797E+01  1.70784E+01  1.63799E+01  1.61234E+01
   1.65823E+01  1.99904E+01  1.77930E+01  1.79403E+01  1.77197E+01  2.03741E+01  2.00535E+01  2.18496E+01  2.16439E+01  2.10061E+01
   2.03420E+01  2.31611E+01  2.49462E+01  2.28027E+01  2.30668E+01  2.48805E+01  2.49882E+01  2.45657E+01  2.25216E+01  2.45251E+01
   2.50283E+01  2.57957E+01  2.61170E+01  2.83640E+01  2.60684E+01  2.60478E+01  2.50241E+01  2.65374E+01  2.27171E+01  2.51528E+01
   2.37690E+01  2.47461E+01  2.44134E+01  2.83882E+01  3.11698E+01  2.98012E+01  3.47894E+01  3.38247E+01  3.56881E+01  3.57049E+01
   3.70405E+01  3.63571E+01  3.48400E+01  3.42514E+01  3.60597E+01  3.53584E+01  3.56153E+01  3.50766E+01  3.45929E+01  3.49497E+01
   3.46882E+01  3.60579E+01  3.43072E+01  3.39513E+01  3.45671E+01  3.26394E+01  3.64297E+01  3.58979E+01  3.35739E+01  3.30823E+01
   3.45592E+01  3.55233E+01  3.44816E+01  3.51396E+01  3.63377E+01  3.37535E+01  3.41497E+01  3.33239E+01  3.57868E+01  3.40252E+01
   3.65010E+01  3.44167E+01  3.48311E+01  3.29018E+01  3.38239E+01  3.53213E+01  3.76303E+01  3.58524E+01  3.47348E+01  3.55327E+01
   3.56653E+01  3.26994E+01  3.63312E+01  3.67023E+01  3.64058E+01  3.53166E+01  3.56244E+01  3.62344E+01  3.71850E+01  3.81580E+01
   3.64051E+01  3.66886E+01  3.73106E+01  3.55261E+01  3.75112E+01  3.77928E+01  3.74450E+01  3.84463E+01  3.81750E+01  3.90612E+01
   4.03578E+01  3.88020E+01  3.84055E+01  3.85527E+01  3.95089E+01  4.00770E+01  3.84956E+01  4.18019E+01  3.91692E+01  4.08176E+01
   3.97126E+01  4.13608E+01  3.95996E+01  3.91585E+01  3.79654E+01  3.78569E+01  3.76851E+01  3.65921E+01  3.92843E+01  3.90635E+01
   3.62791E+01  3.58224E+01  3.75119E+01  3.47402E+01  3.49150E+01  3.50624E+01  3.35806E+01  3.21256E+01  3.54703E+01  3.16911E+01
   3.03269E+01  3.13785E+01  2.90691E+01  3.00472E+01  2.65735E+01  2.71591E+01  2.82326E+01  2.79532E+01  2.69652E+01  2.51554E+01
   2.51770E+01  2.52030E+01  2.70226E+01  2.53404E+01  2.40724E+01  2.29425E+01  2.39241E+01  2.42338E+01  2.28202E+01  2.13809E+01
   2.21684E+01  2.48817E+01  2.32647E+01  2.09838E+01  2.29578E+01  2.17991E+01  2.35443E+01  2.35745E+01  2.17970E+01  2.19102E+01
   2.23493E+01  2.16802E+01  2.21416E+01  2.16485E+01  2.07354E+01  2.09603E+01  2.16331E+01  2.05254E+01  2.11940E+01  2.10941E+01
   2.03827E+01  2.15800E+01  2.21948E+01  2.08739E+01  2.11808E+01  2.04860E+01  2.12226E+01  1.98883E+01  1.84335E+01  2.17555E+01
   2.04770E+01  1.94066E+01  2.08611E+01  2.09241E+01  2.10337E+01  1.90025E+01  1.88257E+01  1.94015E+01  1.90703E+01  1.89178E+01
   2.08894E+01  1.91842E+01  1.77858E+01  1.92877E+01  1.94537E+01  1.80005E+01  2.00335E+01  2.04213E+01  1.87676E+01  1.85440E+01
   1.66935E+01  1.75925E+01  1.88902E+01  1.84807E+01  1.86433E+01  1.91732E+01  1.77681E+01  1.95892E+01  1.81525E+01  1.77781E+01
   1.86451E+01  1.74864E+01  1.65750E+01  1.67887E+01  1.74693E+01  1.71312E+01  1.74328E+01  1.75448E+01  1.75913E+01  1.69710E+01
   1.69280E+01  1.70682E+01  1.78414E+01  1.68891E+01  1.77771E+01  1.61493E+01  1.50427E+01  1.41385E+01  1.66392E+01  1.68745E+01
   1.53085E+01  1.48307E+01  1.57338E+01  1.51929E+01  1.74996E+01  1.64077E+01  1.68434E+01  1.59399E+01  1.65177E+01  1.48563E+01
   1.62753E+01  1.54085E+01  1.71606E+01  1.70594E+01  1.57494E+01  1.58412E+01  1.67819E+01  1.72965E+01  1.56949E+01  1.47189E+01
   1.66985E+01  1.61070E+01  1.47081E+01  1.39122E+01  1.43123E+01  1.41755E+01  1.31369E+01  1.56080E+01  1.58455E+01  1.53158E+01
   1.41333E+01  1.48922E+01  1.26758E+01  1.30799E+01  1.48716E+01  1.43021E+01  1.42959E+01  1.46421E+01  1.47534E+01  1.48267E+01
   1.35964E+01  1.62108E+01  1.26501E+01  1.24015E+01  1.39040E+01  1.37580E+01  1.32860E+01  1.34413E+01
 NY points of the fit to the data follow
   6.79717E+01  6.72550E+01  6.71255E+01  6.68278E+01  6.65592E+01  6.64773E+01  6.60312E+01  6.58540E+01  6.52208E+01  6.48955E+01
   6.41034E+01  6.36252E+01  6.29329E+01  6.25088E+01  6.17890E+01  6.13358E+01  6.07302E+01  6.02530E+01  5.94141E+01  5.88286E+01
   5.80656E+01  5.73721E+01  5.67002E+01  5.59935E+01  5.56907E+01  5.52679E+01  5.49880E+01  5.47581E+01  5.44904E+01  5.43183E+01
   5.39127E+01  5.36460E+01  5.31626E+01  5.27532E+01  5.21916E+01  5.13874E+01  5.03593E+01  4.95101E+01  4.87510E+01  4.82932E+01
   4.79654E+01  4.79305E+01  4.78911E+01  4.79046E+01  4.76982E+01  4.74787E+01  4.72093E+01  4.66433E+01  4.60126E+01  4.52601E+01
   4.45361E+01  4.39935E+01  4.34751E+01  4.31648E+01  4.27856E+01  4.25200E+01  4.22160E+01  4.18894E+01  4.16091E+01  4.11281E+01
   4.05879E+01  3.99425E+01  3.92731E+01  3.87690E+01  3.83475E+01  3.80054E+01  3.77086E+01  3.73912E+01  3.71530E+01  3.68351E+01
   3.66039E+01  3.62496E+01  3.59804E+01  3.55406E+01  3.51204E+01  3.47737E+01  3.44869E+01  3.42931E+01  3.40475E+01  3.38267E+01
   3.35329E+01  3.31574E+01  3.27654E+01  3.22696E+01  3.18134E+01  3.12950E+01  3.09049E+01  3.04506E+01  3.02208E+01  2.97503E+01
   2.90134E+01  2.83562E+01  2.78856E+01  2.73563E+01  2.73066E+01  2.70586E+01  2.73400E+01  2.73308E+01  2.75933E+01  2.76647E+01
   2.77010E+01  2.77477E+01  2.75004E+01  2.74070E+01  2.69858E+01  2.67973E+01  2.65186E+01  2.63429E+01  2.59671E+01  2.57559E+01
   2.54393E+01  2.52551E+01  2.50496E+01  2.48097E+01  2.40140E+01  2.29811E+01  2.24338E+01  2.14327E+01  2.17063E+01  2.12619E+01
   2.18952E+01  2.20559E+01  2.25186E+01  2.30714E+01  2.31834E+01  2.37920E+01  2.35050E+01  2.38364E+01  2.32859E+01  2.33292E+01
   2.27866E+01  2.28231E+01  2.21406E+01  2.19921E+01  2.14140E+01  2.12722E+01  2.08983E+01  2.08363E+01  2.04830E+01  2.02820E+01
   1.98019E+01  1.93534E+01  1.91561E+01  1.88934E+01  1.87064E+01  1.84278E+01  1.81882E+01  1.78772E+01  1.76567E+01  1.74452E+01
   1.72674E+01  1.70773E+01  1.68554E+01  1.66131E+01  1.64010E+01  1.61322E+01  1.59511E+01  1.57090E+01  1.55755E+01  1.53500E+01
   1.51999E+01  1.50161E+01  1.48464E+01  1.47354E+01  1.45908E+01  1.44416E+01  1.42710E+01  1.41178E+01  1.39649E+01  1.38862E+01
   1.36849E+01  1.36154E+01  1.33751E+01  1.33133E+01  1.31509E+01  1.31390E+01  1.29572E+01  1.28605E+01  1.26631E+01  1.24659E+01
   1.22920E+01  1.21508E+01  1.21301E+01  1.20741E+01  1.21542E+01  1.21625E+01  1.24086E+01  1.24455E+01  1.26810E+01  1.27130E+01
   1.28494E+01  1.27783E+01  1.27618E+01  1.27493E+01  1.27265E+01  1.28526E+01  1.28768E+01  1.30934E+01  1.32163E+01  1.34593E+01
   1.36961E+01  1.39345E+01  1.40318E+01  1.41149E+01  1.40327E+01  1.41227E+01  1.40530E+01  1.42516E+01  1.43686E+01  1.46845E+01
   1.50790E+01  1.53798E+01  1.57975E+01  1.59232E+01  1.62050E+01  1.61864E+01  1.63752E+01  1.63208E+01  1.65443E+01  1.67081E+01
   1.70728E+01  1.73542E+01  1.77298E+01  1.80227E+01  1.83619E+01  1.86056E+01  1.88837E+01  1.91851E+01  1.95642E+01  1.99790E+01
   2.04568E+01  2.10063E+01  2.15096E+01  2.20278E+01  2.24303E+01  2.28721E+01  2.32025E+01  2.36277E+01  2.39704E+01  2.44411E+01
   2.49068E+01  2.54022E+01  2.59275E+01  2.61565E+01  2.59474E+01  2.63295E+01  2.61810E+01  2.63316E+01  2.46865E+01  2.50307E+01
   2.44816E+01  2.53955E+01  2.64301E+01  2.77331E+01  3.01104E+01  3.12704E+01  3.37272E+01  3.43826E+01  3.61032E+01  3.61840E+01
   3.69563E+01  3.65336E+01  3.64874E+01  3.60652E+01  3.62951E+01  3.59236E+01  3.58397E+01  3.54527E+01  3.53614E+01  3.50493E+01
   3.50040E+01  3.48276E+01  3.47395E+01  3.44243E+01  3.37422E+01  3.35811E+01  3.35528E+01  3.35622E+01  3.35861E+01  3.36289E+01
   3.36656E+01  3.37079E+01  3.37555E+01  3.38051E+01  3.38629E+01  3.39116E+01  3.39746E+01  3.40308E+01  3.40970E+01  3.41580E+01
   3.42330E+01  3.43025E+01  3.43808E+01  3.44519E+01  3.45342E+01  3.46108E+01  3.47041E+01  3.47904E+01  3.48946E+01  3.50001E+01
   3.51195E+01  3.52448E+01  3.53845E+01  3.55281E+01  3.56850E+01  3.58455E+01  3.60108E+01  3.61791E+01  3.63498E+01  3.65179E+01
   3.66834E+01  3.68410E+01  3.69887E+01  3.71190E+01  3.72104E+01  3.72501E+01  3.74292E+01  3.75764E+01  3.78216E+01  3.80673E+01
   3.83295E+01  3.86378E+01  3.88736E+01  3.90286E+01  3.90560E+01  3.91126E+01  3.90297E+01  3.90531E+01  3.89735E+01  3.90290E+01
   3.90213E+01  3.90864E+01  3.90654E+01  3.90080E+01  3.89236E+01  3.87122E+01  3.84813E+01  3.81015E+01  3.76807E+01  3.71657E+01
   3.66389E+01  3.59968E+01  3.54129E+01  3.47678E+01  3.41347E+01  3.34875E+01  3.28748E+01  3.22479E+01  3.16688E+01  3.10520E+01
   3.04784E+01  2.99516E+01  2.94639E+01  2.90132E+01  2.85960E+01  2.82100E+01  2.78514E+01  2.75173E+01  2.72038E+01  2.69081E+01
   2.66265E+01  2.63561E+01  2.60949E+01  2.58403E+01  2.55902E+01  2.53436E+01  2.50988E+01  2.48555E+01  2.46131E+01  2.43713E+01
   2.41308E+01  2.38921E+01  2.36556E+01  2.34223E+01  2.31930E+01  2.29687E+01  2.27504E+01  2.25393E+01  2.23361E+01  2.21422E+01
   2.19582E+01  2.17853E+01  2.16240E+01  2.14754E+01  2.13397E+01  2.12179E+01  2.11100E+01  2.10165E+01  2.09374E+01  2.08727E+01
   2.08220E+01  2.07851E+01  2.07611E+01  2.07493E+01  2.07484E+01  2.07573E+01  2.07740E+01  2.07970E+01  2.08241E+01  2.08533E+01
   2.08821E+01  2.09084E+01  2.09295E+01  2.09435E+01  2.09479E+01  2.09411E+01  2.09210E+01  2.08866E+01  2.08366E+01  2.07702E+01
   2.06870E+01  2.05871E+01  2.04707E+01  2.03389E+01  2.01926E+01  2.00336E+01  1.98633E+01  1.96840E+01  1.94974E+01  1.93058E+01
   1.91111E+01  1.89154E+01  1.87205E+01  1.85281E+01  1.83397E+01  1.81567E+01  1.79800E+01  1.78107E+01  1.76492E+01  1.74962E+01
   1.73518E+01  1.72163E+01  1.70894E+01  1.69713E+01  1.68614E+01  1.67597E+01  1.66655E+01  1.65786E+01  1.64983E+01  1.64244E+01
   1.63561E+01  1.62931E+01  1.62348E+01  1.61808E+01  1.61305E+01  1.60835E+01  1.60393E+01  1.59976E+01  1.59578E+01  1.59197E+01
   1.58827E+01  1.58466E+01  1.58110E+01  1.57756E+01  1.57402E+01  1.57049E+01  1.56694E+01  1.56338E+01  1.55979E+01  1.55618E+01
   1.55252E+01  1.54884E+01  1.54510E+01  1.54134E+01  1.53751E+01  1.53365E+01  1.52972E+01  1.52576E+01  1.52174E+01  1.51767E+01
   1.51355E+01  1.50938E+01  1.50516E+01  1.50090E+01  1.49658E+01  1.49223E+01  1.48782E+01  1.48338E+01  1.47889E+01  1.47438E+01
   1.46982E+01  1.46523E+01  1.46061E+01  1.45597E+01  1.45129E+01  1.44661E+01  1.44189E+01  1.43717E+01  1.43243E+01  1.42769E+01
   1.42293E+01  1.41818E+01  1.41342E+01  1.40868E+01  1.40394E+01  1.39921E+01  1.39449E+01  1.38980E+01
 NY background values follow
     6.845E+01    6.793E+01    6.741E+01    6.689E+01    6.637E+01    6.585E+01    6.534E+01    6.482E+01    6.431E+01    6.380E+01
     6.329E+01    6.278E+01    6.227E+01    6.177E+01    6.126E+01    6.076E+01    6.026E+01    5.976E+01    5.926E+01    5.876E+01
     5.827E+01    5.777E+01    5.728E+01    5.679E+01    5.630E+01    5.582E+01    5.533E+01    5.485E+01    5.437E+01    5.389E+01
     5.341E+01    5.294E+01    5.247E+01    5.199E+01    5.153E+01    5.106E+01    5.059E+01    5.013E+01    4.967E+01    4.921E+01
     4.876E+01    4.831E+01    4.785E+01    4.741E+01    4.696E+01    4.652E+01    4.608E+01    4.564E+01    4.520E+01    4.477E+01
     4.434E+01    4.391E+01    4.348E+01    4.306E+01    4.264E+01    4.222E+01    4.181E+01    4.139E+01    4.099E+01    4.058E+01
     4.018E+01    3.978E+01    3.938E+01    3.899E+01    3.860E+01    3.821E+01    3.782E+01    3.744E+01    3.707E+01    3.669E+01
     3.632E+01    3.595E+01    3.559E+01    3.523E+01    3.487E+01    3.452E+01    3.417E+01    3.382E+01    3.348E+01    3.314E+01
     3.281E+01    3.247E+01    3.215E+01    3.182E+01    3.150E+01    3.119E+01    3.088E+01    3.057E+01    3.027E+01    2.997E+01
     2.967E+01    2.938E+01    2.909E+01    2.881E+01    2.853E+01    2.825E+01    2.798E+01    2.772E+01    2.745E+01    2.719E+01
     2.693E+01    2.668E+01    2.643E+01    2.618E+01    2.594E+01    2.570E+01    2.546E+01    2.522E+01    2.499E+01    2.476E+01
     2.453E+01    2.430E+01    2.408E+01    2.386E+01    2.364E+01    2.342E+01    2.321E+01    2.299E+01    2.278E+01    2.257E+01
     2.236E+01    2.216E+01    2.195E+01    2.175E+01    2.155E+01    2.134E+01    2.114E+01    2.094E+01    2.075E+01    2.055E+01
     2.035E+01    2.015E+01    1.996E+01    1.976E+01    1.957E+01    1.937E+01    1.918E+01    1.898E+01    1.879E+01    1.859E+01
     1.840E+01    1.821E+01    1.802E+01    1.782E+01    1.763E+01    1.745E+01    1.726E+01    1.707E+01    1.689E+01    1.671E+01
     1.653E+01    1.635E+01    1.618E+01    1.601E+01    1.584E+01    1.567E+01    1.551E+01    1.534E+01    1.519E+01    1.503E+01
     1.488E+01    1.474E+01    1.459E+01    1.445E+01    1.432E+01    1.419E+01    1.406E+01    1.394E+01    1.382E+01    1.371E+01
     1.360E+01    1.350E+01    1.341E+01    1.331E+01    1.323E+01    1.315E+01    1.308E+01    1.301E+01    1.295E+01    1.289E+01
     1.284E+01    1.280E+01    1.276E+01    1.274E+01    1.271E+01    1.270E+01    1.269E+01    1.269E+01    1.269E+01    1.270E+01
     1.272E+01    1.275E+01    1.278E+01    1.281E+01    1.286E+01    1.291E+01    1.296E+01    1.302E+01    1.309E+01    1.317E+01
     1.325E+01    1.334E+01    1.343E+01    1.353E+01    1.363E+01    1.375E+01    1.386E+01    1.399E+01    1.412E+01    1.425E+01
     1.439E+01    1.454E+01    1.469E+01    1.485E+01    1.502E+01    1.519E+01    1.537E+01    1.555E+01    1.574E+01    1.593E+01
     1.613E+01    1.633E+01    1.654E+01    1.676E+01    1.698E+01    1.721E+01    1.744E+01    1.768E+01    1.792E+01    1.817E+01
     1.842E+01    1.868E+01    1.894E+01    1.921E+01    1.947E+01    1.975E+01    2.002E+01    2.030E+01    2.058E+01    2.087E+01
     2.115E+01    2.144E+01    2.173E+01    2.202E+01    2.231E+01    2.261E+01    2.290E+01    2.320E+01    2.349E+01    2.379E+01
     2.408E+01    2.438E+01    2.467E+01    2.496E+01    2.525E+01    2.555E+01    2.583E+01    2.612E+01    2.641E+01    2.669E+01
     2.697E+01    2.725E+01    2.752E+01    2.779E+01    2.806E+01    2.832E+01    2.858E+01    2.883E+01    2.908E+01    2.933E+01
     2.957E+01    2.981E+01    3.004E+01    3.026E+01    3.048E+01    3.069E+01    3.090E+01    3.110E+01    3.129E+01    3.148E+01
     3.166E+01    3.184E+01    3.201E+01    3.218E+01    3.233E+01    3.248E+01    3.263E+01    3.277E+01    3.290E+01    3.302E+01
     3.314E+01    3.325E+01    3.336E+01    3.345E+01    3.354E+01    3.363E+01    3.370E+01    3.377E+01    3.383E+01    3.388E+01
     3.393E+01    3.397E+01    3.400E+01    3.402E+01    3.404E+01    3.404E+01    3.404E+01    3.404E+01    3.402E+01    3.399E+01
     3.396E+01    3.392E+01    3.387E+01    3.381E+01    3.375E+01    3.367E+01    3.359E+01    3.350E+01    3.340E+01    3.329E+01
     3.317E+01    3.304E+01    3.291E+01    3.277E+01    3.262E+01    3.247E+01    3.231E+01    3.214E+01    3.197E+01    3.179E+01
     3.160E+01    3.141E+01    3.121E+01    3.101E+01    3.080E+01    3.059E+01    3.037E+01    3.015E+01    2.993E+01    2.970E+01
     2.947E+01    2.923E+01    2.899E+01    2.875E+01    2.850E+01    2.826E+01    2.801E+01    2.775E+01    2.750E+01    2.725E+01
     2.699E+01    2.673E+01    2.647E+01    2.621E+01    2.595E+01    2.569E+01    2.543E+01    2.517E+01    2.491E+01    2.465E+01
     2.439E+01    2.413E+01    2.388E+01    2.362E+01    2.337E+01    2.312E+01    2.287E+01    2.262E+01    2.237E+01    2.213E+01
     2.188E+01    2.164E+01    2.141E+01    2.117E+01    2.094E+01    2.071E+01    2.048E+01    2.026E+01    2.004E+01    1.982E+01
     1.960E+01    1.939E+01    1.918E+01    1.898E+01    1.877E+01    1.858E+01    1.838E+01    1.819E+01    1.801E+01    1.782E+01
     1.764E+01    1.747E+01    1.730E+01    1.714E+01    1.698E+01    1.682E+01    1.667E+01    1.652E+01    1.638E+01    1.625E+01
     1.612E+01    1.599E+01    1.587E+01    1.576E+01    1.565E+01    1.555E+01    1.545E+01    1.536E+01    1.527E+01    1.519E+01
     1.512E+01    1.505E+01    1.499E+01    1.493E+01    1.488E+01    1.483E+01    1.479E+01    1.475E+01    1.471E+01    1.468E+01
     1.465E+01    1.463E+01    1.461E+01    1.459E+01    1.458E+01    1.457E+01    1.456E+01    1.455E+01    1.455E+01    1.455E+01
     1.455E+01    1.455E+01    1.456E+01    1.456E+01    1.457E+01    1.458E+01    1.459E+01    1.460E+01    1.461E+01    1.463E+01
     1.464E+01    1.465E+01    1.466E+01    1.467E+01    1.469E+01    1.470E+01    1.471E+01    1.472E+01    1.473E+01    1.473E+01
     1.474E+01    1.474E+01    1.475E+01    1.475E+01    1.475E+01    1.474E+01    1.474E+01    1.473E+01    1.472E+01    1.471E+01
     1.470E+01    1.469E+01    1.467E+01    1.466E+01    1.464E+01    1.462E+01    1.460E+01    1.458E+01    1.455E+01    1.453E+01
     1.450E+01    1.448E+01    1.445E+01    1.442E+01    1.439E+01    1.436E+01    1.433E+01    1.429E+01    1.426E+01    1.423E+01
     1.419E+01    1.416E+01    1.412E+01    1.408E+01    1.405E+01    1.401E+01    1.397E+01    1.393E+01    1.389E+01    1.385E+01
     1.381E+01    1.377E+01    1.373E+01    1.369E+01    1.365E+01    1.361E+01    1.357E+01    1.353E+01
 Ala      Conc. = 1.13E+01
