 LCModel (Version 6.3-1L) Copyright: S.W. Provencher.          Ref.: Magn. Reson. Med. 30:672-679 (1993).                
 Slice#2 Row#7 Col#11  PD_05_press_1_raw_act
 36 lines in following concentration table = NCONC+1
    Conc.  %SD /Cr+PCr  Metabolite                                         
   74.048 105% 7.1E-02 Ala                                                 
    0.000 999%   0.000 Asp                                                 
  176.679 118%   0.170 Cr                                                  
  863.518  25%   0.830 PCr                                                 
    0.000 999%   0.000 GABA                                                
   95.604 127% 9.2E-02 Glc                                                 
  553.988  28%   0.533 Gln                                                 
 1.40E+03  13%   1.347 Glu                                                 
  325.262   6%   0.313 GPC                                                 
    0.000 999%   0.000 PCh                                                 
  189.890  29%   0.183 GSH                                                 
  741.606  25%   0.713 Ins                                                 
  127.580  65%   0.123 Lac                                                 
 2.08E+03   5%   1.997 NAA                                                 
  388.287  27%   0.373 NAAG                                                
   72.664  29% 7.0E-02 Scyllo                                              
  149.579 106%   0.144 Tau                                                 
  701.785  13%   0.675 -CrCH2                                              
  325.262   6%   0.313 GPC+PCh                                             
 2.47E+03   3%   2.371 NAA+NAAG                                            
 1.04E+03   5%   1.000 Cr+PCr                                              
 1.96E+03  12%   1.879 Glu+Gln                                             
  707.055  53%   0.680 Lip13a                                              
    0.000 999%   0.000 Lip13b                                              
    0.000 999%   0.000 Lip09                                               
 1.64E+03  12%   1.575 MM09                                                
  177.893  73%   0.171 Lip20                                               
 3.49E+03  10%   3.351 MM20                                                
  609.896  26%   0.586 MM12                                                
 1.82E+03  19%   1.746 MM14                                                
 1.01E+03  23%   0.967 MM17                                                
  707.055  53%   0.680 Lip13a+Lip13b                                       
 3.13E+03  11%   3.012 MM14+Lip13a+Lip13b+MM12                             
 1.64E+03  12%   1.575 MM09+Lip09                                          
 3.66E+03  10%   3.522 MM20+Lip20                                          
   6 lines in following misc. output table
  FWHM = 0.038 ppm    S/N =  15                                            
  Data shift = 0.008 ppm                                                   
  Ph: -20 deg      -7.9 deg/ppm                                            
  alphaB,S = 1.1E+00,   1.1E+02                                            
   14 spline knots.   Ns = 6(1)                                            
  ( 7) 4 infls.   ( 3) 1 extrs.                                            
  498 points on ppm-axis = NY
      4.000000     3.992357     3.984714     3.977070     3.969427     3.961784     3.954141     3.946497     3.938854     3.931211
      3.923568     3.915925     3.908281     3.900638     3.892995     3.885352     3.877708     3.870065     3.862422     3.854779
      3.847136     3.839492     3.831849     3.824206     3.816563     3.808919     3.801276     3.793633     3.785990     3.778347
      3.770703     3.763060     3.755417     3.747774     3.740130     3.732487     3.724844     3.717201     3.709558     3.701914
      3.694271     3.686628     3.678985     3.671341     3.663698     3.656055     3.648412     3.640769     3.633125     3.625482
      3.617839     3.610196     3.602552     3.594909     3.587266     3.579623     3.571980     3.564336     3.556693     3.549050
      3.541407     3.533763     3.526120     3.518477     3.510834     3.503191     3.495547     3.487904     3.480261     3.472618
      3.464974     3.457331     3.449688     3.442045     3.434402     3.426758     3.419115     3.411472     3.403829     3.396185
      3.388542     3.380899     3.373256     3.365613     3.357969     3.350326     3.342683     3.335040     3.327396     3.319753
      3.312110     3.304467     3.296824     3.289180     3.281537     3.273894     3.266251     3.258607     3.250964     3.243321
      3.235678     3.228034     3.220391     3.212748     3.205105     3.197462     3.189818     3.182175     3.174532     3.166889
      3.159245     3.151602     3.143959     3.136316     3.128673     3.121029     3.113386     3.105743     3.098100     3.090456
      3.082813     3.075170     3.067527     3.059884     3.052240     3.044597     3.036954     3.029311     3.021667     3.014024
      3.006381     2.998738     2.991095     2.983451     2.975808     2.968165     2.960522     2.952878     2.945235     2.937592
      2.929949     2.922306     2.914662     2.907019     2.899376     2.891733     2.884089     2.876446     2.868803     2.861160
      2.853517     2.845873     2.838230     2.830587     2.822944     2.815300     2.807657     2.800014     2.792371     2.784728
      2.777084     2.769441     2.761798     2.754155     2.746511     2.738868     2.731225     2.723582     2.715939     2.708295
      2.700652     2.693009     2.685366     2.677722     2.670079     2.662436     2.654793     2.647150     2.639506     2.631863
      2.624220     2.616577     2.608933     2.601290     2.593647     2.586004     2.578361     2.570717     2.563074     2.555431
      2.547788     2.540144     2.532501     2.524858     2.517215     2.509572     2.501928     2.494285     2.486642     2.478999
      2.471355     2.463712     2.456069     2.448426     2.440783     2.433139     2.425496     2.417853     2.410210     2.402566
      2.394923     2.387280     2.379637     2.371994     2.364350     2.356707     2.349064     2.341421     2.333777     2.326134
      2.318491     2.310848     2.303205     2.295561     2.287918     2.280275     2.272632     2.264988     2.257345     2.249702
      2.242059     2.234416     2.226772     2.219129     2.211486     2.203843     2.196199     2.188556     2.180913     2.173270
      2.165627     2.157983     2.150340     2.142697     2.135054     2.127410     2.119767     2.112124     2.104481     2.096838
      2.089194     2.081551     2.073908     2.066265     2.058621     2.050978     2.043335     2.035692     2.028049     2.020405
      2.012762     2.005119     1.997476     1.989833     1.982190     1.974546     1.966903     1.959260     1.951617     1.943974
      1.936331     1.928688     1.921045     1.913402     1.905759     1.898115     1.890472     1.882829     1.875186     1.867543
      1.859900     1.852257     1.844614     1.836971     1.829327     1.821684     1.814041     1.806398     1.798755     1.791112
      1.783469     1.775826     1.768183     1.760540     1.752896     1.745253     1.737610     1.729967     1.722324     1.714681
      1.707038     1.699395     1.691752     1.684108     1.676465     1.668822     1.661179     1.653536     1.645893     1.638250
      1.630607     1.622964     1.615321     1.607677     1.600034     1.592391     1.584748     1.577105     1.569462     1.561819
      1.554176     1.546533     1.538890     1.531246     1.523603     1.515960     1.508317     1.500674     1.493031     1.485388
      1.477745     1.470102     1.462458     1.454815     1.447172     1.439529     1.431886     1.424243     1.416600     1.408957
      1.401314     1.393671     1.386027     1.378384     1.370741     1.363098     1.355455     1.347812     1.340169     1.332526
      1.324883     1.317240     1.309596     1.301953     1.294310     1.286667     1.279024     1.271381     1.263738     1.256095
      1.248452     1.240808     1.233165     1.225522     1.217879     1.210236     1.202593     1.194950     1.187307     1.179664
      1.172021     1.164377     1.156734     1.149091     1.141448     1.133805     1.126162     1.118519     1.110876     1.103233
      1.095590     1.087946     1.080303     1.072660     1.065017     1.057374     1.049731     1.042088     1.034445     1.026802
      1.019158     1.011515     1.003872     0.996229     0.988586     0.980943     0.973300     0.965657     0.958014     0.950371
      0.942727     0.935084     0.927441     0.919798     0.912155     0.904512     0.896869     0.889226     0.881583     0.873940
      0.866296     0.858653     0.851010     0.843367     0.835724     0.828081     0.820438     0.812795     0.805152     0.797508
      0.789865     0.782222     0.774579     0.766936     0.759293     0.751650     0.744007     0.736364     0.728721     0.721077
      0.713434     0.705791     0.698148     0.690505     0.682862     0.675219     0.667576     0.659933     0.652290     0.644646
      0.637003     0.629360     0.621717     0.614074     0.606431     0.598788     0.591145     0.583502     0.575858     0.568215
      0.560572     0.552929     0.545286     0.537643     0.530000     0.522357     0.514714     0.507071     0.499427     0.491784
      0.484141     0.476498     0.468855     0.461212     0.453569     0.445925     0.438282     0.430639     0.422996     0.415353
      0.407710     0.400067     0.392424     0.384780     0.377137     0.369494     0.361851     0.354208     0.346565     0.338922
      0.331278     0.323635     0.315992     0.308349     0.300706     0.293063     0.285420     0.277777     0.270133     0.262490
      0.254847     0.247204     0.239561     0.231918     0.224275     0.216631     0.208988     0.201345
 NY phased data points follow
   5.31166E+00  4.52204E+00  6.04649E+00  5.93026E+00  6.72808E+00  9.75215E+00  1.14862E+01  9.68260E+00  1.07282E+01  1.22936E+01
   1.35208E+01  1.47958E+01  1.61452E+01  1.35913E+01  1.03942E+01  8.39813E+00  5.93283E+00  7.03837E+00  6.80474E+00  5.80482E+00
   3.48158E+00  4.39052E+00  5.43552E+00  6.50667E+00  8.63082E+00  7.15380E+00  8.22612E+00  8.34576E+00  7.87398E+00  7.96366E+00
   9.11960E+00  8.02591E+00  1.07406E+01  1.12879E+01  6.73484E+00  7.56958E+00  9.47960E+00  6.97032E+00  5.81528E+00  9.31106E+00
   8.93469E+00  5.57189E+00  1.09352E+01  1.08583E+01  1.13001E+01  1.22096E+01  1.05961E+01  1.51917E+01  1.37608E+01  1.07209E+01
   1.23978E+01  9.78962E+00  6.24939E+00  1.06973E+01  7.15325E+00  7.15045E+00  8.74671E+00  8.82353E+00  8.63510E+00  6.95695E+00
   4.59757E+00  8.56538E+00  3.05291E+00 -2.79872E-01  4.08444E-01  3.37605E+00  1.54479E+00  2.76550E+00  1.68229E+00  1.35142E+00
   1.54186E+00  8.10635E+00  4.20439E+00  4.39791E+00  4.46984E+00  5.16489E+00  6.07693E+00  4.20355E+00  5.13775E+00  3.21178E+00
   5.07609E+00  3.65531E+00  6.36007E+00  5.43956E+00  3.35009E+00  5.63680E+00  3.15057E+00  8.50201E+00  3.28318E+00  1.01168E+01
   6.74488E+00  6.55751E+00  9.64988E-01  3.72445E+00  9.49414E+00  9.39597E+00  1.11769E+01  1.19272E+01  1.55745E+01  1.25268E+01
   2.22644E+01  2.90122E+01  3.09194E+01  3.87760E+01  3.77383E+01  2.62156E+01  2.30333E+01  1.50702E+01  9.92992E+00  5.43601E+00
   5.13181E+00  1.55044E+00  5.95114E+00  6.66420E+00  7.33939E+00  6.31941E+00  6.18887E+00  7.26600E+00  3.97875E+00  9.01056E+00
   8.06217E+00  1.04570E+01  1.50991E+01  1.31285E+01  2.05265E+01  3.15994E+01  3.84513E+01  4.34635E+01  4.71129E+01  3.84508E+01
   2.67725E+01  1.80117E+01  1.00395E+01  5.88948E+00  3.74918E+00  2.93691E+00  5.71575E+00  4.26116E+00  8.17829E+00  6.26651E+00
   6.47100E+00  4.35969E+00  5.91630E+00  5.74396E+00  4.03383E+00  4.02052E+00  3.75769E+00  4.68757E+00  5.14637E+00  6.39260E+00
   4.47981E+00  3.71958E+00  4.95686E+00  5.42185E+00  5.32532E+00  3.49090E+00  4.55734E+00  3.15498E+00  5.19087E+00  3.36003E+00
   3.81972E+00  1.07127E+00  5.38458E-01 -1.02962E-01 -1.82485E+00 -2.04273E-01  7.17143E-01 -2.29399E-01 -5.18148E+00 -6.33302E+00
  -7.45353E+00 -5.34647E+00 -7.91730E+00 -1.06161E+01 -1.34347E+01 -1.18589E+01 -1.47347E+01 -1.06451E+01 -1.26514E+01 -7.83503E+00
  -6.47437E+00 -8.35075E+00 -7.52113E+00 -7.64530E+00 -6.70172E+00 -7.05017E+00 -6.57921E+00 -7.27492E+00 -8.61802E+00 -4.39157E+00
  -2.45768E-01 -9.71762E-01 -1.36652E+00  2.72765E+00 -9.50203E-01 -4.52767E+00 -2.62392E+00 -8.35930E+00 -8.58494E+00 -8.03053E+00
  -8.01440E+00 -4.45183E+00 -2.40041E+00  5.93877E-02  6.29063E+00  3.28829E+00  1.09084E+00  8.70672E-01 -2.49436E+00 -4.75522E+00
  -4.91636E+00  1.52613E+00  3.11976E+00  8.19339E+00  1.17675E+01  1.58709E+01  1.54530E+01  1.57515E+01  1.19273E+01  6.29217E+00
   7.82177E-01 -5.06388E+00 -4.69902E+00 -4.22598E+00 -1.17286E+00  4.49433E+00  9.26842E+00  1.10161E+01  9.53504E+00  9.24326E+00
   6.44200E+00  7.66178E+00  6.21705E+00  7.40139E+00  8.34406E+00  5.68777E+00  7.94033E+00  5.80601E+00  9.04538E+00  7.85715E+00
   5.40198E+00  5.58840E+00  4.73597E+00  4.67170E+00  3.72204E+00  7.08554E+00  1.11465E+01  1.69864E+01  1.52798E+01  1.50712E+01
   1.57896E+01  1.88874E+01  2.35446E+01  2.86625E+01  3.72221E+01  4.45337E+01  5.65516E+01  5.97572E+01  7.13231E+01  8.77067E+01
   9.79845E+01  9.81014E+01  8.16371E+01  5.66365E+01  3.40656E+01  1.85992E+01  7.08011E+00  4.59853E+00  5.13545E+00  5.83067E+00
   5.22648E+00  6.93877E+00  8.01243E+00  1.06204E+01  7.17527E+00  5.08430E+00  5.49767E+00  2.99326E+00  3.26243E+00  4.65787E+00
   3.88874E+00  2.03659E+00  2.26013E+00  4.14390E+00  1.01162E+00  1.75084E+00 -2.75175E-01  1.11201E+00  3.27119E+00 -5.99656E-01
   3.14661E+00  4.16275E+00  2.15771E+00  2.93897E+00  2.42026E+00  1.37465E+00  2.74508E+00  3.37165E+00  4.33231E+00  3.78523E+00
   3.91330E+00  5.61639E+00  2.92834E+00  7.06050E+00  4.48932E+00  6.65830E+00  4.05366E+00  1.03599E+01  6.52305E+00  4.44052E+00
   5.31677E+00  8.36202E+00  7.98128E+00  9.05817E+00  9.40748E+00  4.27770E+00  6.90529E+00  5.94327E+00  7.21457E+00  4.09661E+00
   7.82770E+00  5.87610E+00  3.99319E+00  4.42699E+00  4.68507E+00  5.91566E+00  3.19877E+00  2.15846E+00  4.59630E+00  6.05911E+00
   8.51884E+00  6.96828E+00  8.47712E+00  1.12862E+01  1.00308E+01  1.16836E+01  1.10570E+01  1.54079E+01  1.53570E+01  1.38993E+01
   1.21164E+01  1.40748E+01  1.29863E+01  1.20106E+01  1.34288E+01  1.28378E+01  1.11985E+01  8.31421E+00  8.96937E+00  5.89719E+00
   6.56346E+00  6.05527E+00  7.62506E+00  5.34004E+00  1.16446E+01  6.42125E+00  7.49547E+00  7.49401E+00  6.34881E+00  5.72089E+00
   3.96459E+00  4.60263E+00  5.28690E+00  5.00548E+00  5.30612E+00  7.17936E+00  7.82739E+00  1.09909E+01  9.27071E+00  1.03124E+01
   8.58385E+00  7.89038E+00  7.45964E+00  5.11287E+00  4.85067E+00  6.66761E+00  2.97821E+00  1.12226E+00  2.30925E-01  5.25282E+00
   3.45260E+00  2.71137E+00  1.52699E+00  2.66891E+00  2.38294E+00 -4.14928E-01  4.40120E+00  3.15287E+00  4.38893E+00  3.55227E+00
   7.09058E+00  6.38030E+00  6.61485E+00  7.00857E+00  7.55965E+00  9.07911E+00  8.57026E+00  9.18226E+00  1.01716E+01  9.65068E+00
   1.13291E+01  7.95237E+00  7.33446E+00  1.03761E+01  9.05940E+00  6.51008E+00  1.18129E+01  8.08600E+00  7.65152E+00  1.07907E+01
   6.16450E+00  5.02341E+00  6.56406E+00  6.47637E+00  4.41845E+00  5.82486E+00  7.20664E+00  4.96704E-01  2.22741E+00  5.16482E+00
   6.71395E+00  3.80032E+00  1.33419E-01  2.97398E+00  1.87665E+00  3.28110E+00  2.42684E-01  3.86187E+00  2.80194E+00  2.25186E+00
   3.12534E+00  6.79541E-01  2.51229E+00  4.38692E-01 -1.81256E-01  2.31974E+00 -1.26086E+00  8.80335E-01  1.36942E-01  1.00536E+00
   1.37422E+00  4.08427E+00  7.35872E-01 -4.58379E-02  8.70006E-01  1.47885E+00  1.25946E+00  2.01350E+00  8.47800E-01 -3.09526E+00
  -4.30512E+00 -5.54955E-01  1.11464E+00 -2.07362E+00 -4.74958E-01  4.91964E-01 -1.94302E+00  5.54483E-01 -2.16302E+00 -2.41227E+00
   1.29189E+00 -3.12774E+00  2.88458E-01  1.77733E-01  8.43841E-02  2.11995E-01 -1.89910E+00 -4.95650E-01  1.90523E+00  6.96365E-01
   1.37578E+00  3.80553E-01  8.60031E-01 -1.80999E+00  3.71776E-01 -1.65885E-01  3.33082E+00  2.06450E+00 -7.61250E-01  8.87197E-01
   1.92937E+00  1.48627E+00  1.57297E+00 -1.70419E+00  1.63006E-01  4.04272E-01 -8.28210E-02  1.70980E+00  3.29614E+00  4.90729E-02
   9.78990E-01  5.76136E-01  1.49991E-01 -2.11941E+00 -1.91149E+00 -2.98220E-01 -1.85781E+00  1.49943E-01
 NY points of the fit to the data follow
   5.99890E+00  5.82365E+00  5.87451E+00  6.19419E+00  6.92474E+00  7.92950E+00  9.11447E+00  1.04108E+01  1.18884E+01  1.34897E+01
   1.48218E+01  1.53385E+01  1.47065E+01  1.31269E+01  1.11757E+01  9.45274E+00  8.30948E+00  7.74252E+00  7.49250E+00  7.41355E+00
   7.36841E+00  7.37687E+00  7.25766E+00  7.08967E+00  7.09284E+00  7.03016E+00  6.91756E+00  7.03946E+00  7.71927E+00  9.07532E+00
   1.08153E+01  1.24758E+01  1.35259E+01  1.35128E+01  1.23608E+01  1.02938E+01  7.94134E+00  5.97506E+00  4.73422E+00  4.42908E+00
   5.03375E+00  6.27943E+00  7.66958E+00  8.79243E+00  9.68718E+00  1.05689E+01  1.14943E+01  1.21833E+01  1.21607E+01  1.11971E+01
   9.49561E+00  7.54039E+00  5.88707E+00  4.94734E+00  4.72852E+00  4.93600E+00  5.29651E+00  5.68699E+00  6.09134E+00  6.46445E+00
   6.67554E+00  6.59068E+00  6.14186E+00  5.46077E+00  4.75046E+00  4.26048E+00  4.17045E+00  4.38136E+00  4.70487E+00  5.05752E+00
   5.39941E+00  5.66114E+00  5.81928E+00  5.89136E+00  5.87260E+00  5.74732E+00  5.51220E+00  5.14047E+00  4.68561E+00  4.27642E+00
   4.08997E+00  4.32013E+00  4.73134E+00  5.15822E+00  5.66945E+00  6.27564E+00  6.76000E+00  6.79522E+00  6.21104E+00  5.16845E+00
   4.09562E+00  3.32424E+00  2.96687E+00  2.98688E+00  3.19590E+00  3.53927E+00  4.83627E+00  8.02754E+00  1.17934E+01  1.58814E+01
   2.13259E+01  2.82567E+01  3.48920E+01  3.83809E+01  3.66411E+01  3.00227E+01  2.11437E+01  1.29717E+01  7.36494E+00  4.73315E+00
   4.06990E+00  3.83190E+00  3.65581E+00  3.54733E+00  3.48256E+00  3.45561E+00  3.45642E+00  3.49219E+00  3.59382E+00  3.86630E+00
   4.89035E+00  8.13816E+00  1.25404E+01  1.70993E+01  2.28907E+01  3.06052E+01  3.87344E+01  4.41387E+01  4.39403E+01  3.76372E+01
   2.77768E+01  1.79811E+01  1.07351E+01  6.83908E+00  5.46195E+00  4.71595E+00  3.96947E+00  3.45560E+00  3.30084E+00  3.48899E+00
   3.85906E+00  4.17112E+00  4.25418E+00  4.08562E+00  3.73179E+00  3.31135E+00  2.93290E+00  2.63110E+00  2.37944E+00  2.14996E+00
   1.93147E+00  1.71483E+00  1.50603E+00  1.33004E+00  1.16469E+00  9.31584E-01  7.53229E-01  6.35651E-01  4.38346E-01  8.40230E-02
  -5.21423E-01 -1.11451E+00 -1.28330E+00 -9.52198E-01 -4.72306E-01 -2.72952E-01 -6.21810E-01 -1.46890E+00 -2.46953E+00 -3.26820E+00
  -3.80432E+00 -4.04153E+00 -4.06814E+00 -4.24892E+00 -4.68012E+00 -5.22129E+00 -5.45013E+00 -5.13024E+00 -4.47904E+00 -3.98683E+00
  -3.93542E+00 -4.24719E+00 -4.42200E+00 -4.19590E+00 -3.68665E+00 -3.08751E+00 -2.41946E+00 -1.56035E+00 -4.13384E-01  9.63298E-01
   2.18052E+00  2.85380E+00  2.71285E+00  1.99003E+00  1.12057E+00  4.89943E-01  1.75409E-01  2.17454E-01  7.03032E-01  1.54272E+00
   2.63310E+00  3.81612E+00  4.83548E+00  5.36375E+00  4.98126E+00  3.71400E+00  1.65952E+00 -1.07104E+00 -3.73233E+00 -5.47232E+00
  -5.56271E+00 -4.08876E+00 -1.60074E+00  1.62921E+00  5.18709E+00  8.19905E+00  9.45259E+00  8.28576E+00  5.21762E+00  1.19603E+00
  -2.89925E+00 -6.02759E+00 -7.30448E+00 -6.27233E+00 -3.28918E+00  6.61577E-01  4.44777E+00  7.19912E+00  8.52806E+00  8.50235E+00
   7.68383E+00  6.87773E+00  6.44959E+00  6.43981E+00  6.86280E+00  7.61024E+00  8.45269E+00  9.13120E+00  9.56416E+00  9.66524E+00
   9.34942E+00  8.68504E+00  8.09236E+00  8.06446E+00  8.81500E+00  1.01256E+01  1.15974E+01  1.29055E+01  1.38902E+01  1.48915E+01
   1.64361E+01  1.82626E+01  2.05797E+01  2.46425E+01  3.38395E+01  4.55845E+01  5.51682E+01  6.41312E+01  7.53830E+01  8.79194E+01
   9.63679E+01  9.46825E+01  8.08689E+01  5.91823E+01  3.69130E+01  1.99374E+01  1.06239E+01  7.82009E+00  7.22394E+00  6.50520E+00
   5.89377E+00  5.42792E+00  5.10086E+00  4.89041E+00  4.73477E+00  4.50743E+00  4.15958E+00  3.72474E+00  3.26332E+00  2.83503E+00
   2.49403E+00  2.25851E+00  2.10665E+00  2.00364E+00  1.91908E+00  1.83833E+00  1.76062E+00  1.69034E+00  1.64730E+00  1.66348E+00
   1.75701E+00  1.92618E+00  2.15474E+00  2.41781E+00  2.69852E+00  2.98644E+00  3.27770E+00  3.57703E+00  3.89470E+00  4.23674E+00
   4.59996E+00  4.97402E+00  5.34032E+00  5.67858E+00  5.97170E+00  6.20866E+00  6.38547E+00  6.50309E+00  6.56145E+00  6.56366E+00
   6.51528E+00  6.42359E+00  6.29692E+00  6.14562E+00  5.98156E+00  5.81874E+00  5.67176E+00  5.55529E+00  5.48328E+00  5.47117E+00
   5.54132E+00  5.71641E+00  5.93572E+00  6.17462E+00  6.46883E+00  6.79790E+00  7.07267E+00  7.20627E+00  7.19008E+00  7.17260E+00
   7.31293E+00  7.64908E+00  8.18822E+00  8.92783E+00  9.80962E+00  1.07030E+01  1.14741E+01  1.20110E+01  1.22738E+01  1.23279E+01
   1.23004E+01  1.23066E+01  1.22763E+01  1.21707E+01  1.20249E+01  1.17964E+01  1.13342E+01  1.05080E+01  9.37377E+00  8.24684E+00
   7.34878E+00  6.80145E+00  6.68573E+00  6.99971E+00  7.58815E+00  8.17804E+00  8.54581E+00  8.56248E+00  8.24798E+00  7.74538E+00
   7.21789E+00  6.78878E+00  6.48927E+00  6.24534E+00  6.01867E+00  5.80150E+00  5.58946E+00  5.38048E+00  5.17367E+00  4.96955E+00
   4.76948E+00  4.57605E+00  4.39215E+00  4.22108E+00  4.06590E+00  3.92999E+00  3.81668E+00  3.72965E+00  3.67197E+00  3.64652E+00
   3.65541E+00  3.70080E+00  3.78442E+00  3.90784E+00  4.07169E+00  4.27604E+00  4.51996E+00  4.80224E+00  5.12074E+00  5.47259E+00
   5.85341E+00  6.25784E+00  6.67927E+00  7.11056E+00  7.54344E+00  7.96902E+00  8.37733E+00  8.75837E+00  9.10208E+00  9.39935E+00
   9.64157E+00  9.82141E+00  9.93264E+00  9.97111E+00  9.93464E+00  9.82355E+00  9.63989E+00  9.38775E+00  9.07266E+00  8.70209E+00
   8.28457E+00  7.82973E+00  7.34715E+00  6.84645E+00  6.33665E+00  5.82657E+00  5.32398E+00  4.83580E+00  4.36729E+00  3.92267E+00
   3.50483E+00  3.11602E+00  2.75732E+00  2.42909E+00  2.13052E+00  1.86052E+00  1.61748E+00  1.39995E+00  1.20602E+00  1.03377E+00
   8.80923E-01  7.45573E-01  6.25852E-01  5.20374E-01  4.27502E-01  3.45829E-01  2.73779E-01  2.10335E-01  1.54509E-01  1.05701E-01
   6.29821E-02  2.56462E-02 -7.15393E-03 -3.57419E-02 -6.05378E-02 -8.17240E-02 -9.98829E-02 -1.15354E-01 -1.28587E-01 -1.39558E-01
  -1.48456E-01 -1.55327E-01 -1.60615E-01 -1.64465E-01 -1.67103E-01 -1.68351E-01 -1.68346E-01 -1.67121E-01 -1.65059E-01 -1.62172E-01
  -1.58558E-01 -1.53988E-01 -1.48620E-01 -1.42499E-01 -1.35944E-01 -1.28855E-01 -1.21257E-01 -1.12941E-01 -1.04121E-01 -9.48476E-02
  -8.53635E-02 -7.54763E-02 -6.51846E-02 -5.43252E-02 -4.31593E-02 -3.17164E-02 -2.01592E-02 -8.23912E-03  4.02405E-03  1.67255E-02
   2.95765E-02  4.26007E-02  5.57190E-02  6.92084E-02  8.30016E-02  9.71340E-02  1.11323E-01  1.25662E-01  1.40136E-01  1.55013E-01
   1.70160E-01  1.85576E-01  2.01018E-01  2.16664E-01  2.32541E-01  2.48882E-01  2.65499E-01  2.82390E-01
 NY background values follow
     4.755E+00    4.728E+00    4.700E+00    4.673E+00    4.646E+00    4.619E+00    4.592E+00    4.564E+00    4.537E+00    4.510E+00
     4.483E+00    4.456E+00    4.429E+00    4.401E+00    4.374E+00    4.347E+00    4.320E+00    4.292E+00    4.265E+00    4.238E+00
     4.211E+00    4.183E+00    4.156E+00    4.129E+00    4.101E+00    4.074E+00    4.046E+00    4.019E+00    3.992E+00    3.964E+00
     3.937E+00    3.909E+00    3.881E+00    3.854E+00    3.826E+00    3.798E+00    3.771E+00    3.743E+00    3.715E+00    3.687E+00
     3.659E+00    3.631E+00    3.603E+00    3.575E+00    3.547E+00    3.519E+00    3.491E+00    3.462E+00    3.434E+00    3.406E+00
     3.377E+00    3.349E+00    3.320E+00    3.291E+00    3.263E+00    3.234E+00    3.205E+00    3.176E+00    3.147E+00    3.118E+00
     3.089E+00    3.060E+00    3.030E+00    3.001E+00    2.972E+00    2.942E+00    2.913E+00    2.883E+00    2.853E+00    2.823E+00
     2.794E+00    2.764E+00    2.733E+00    2.703E+00    2.673E+00    2.643E+00    2.612E+00    2.582E+00    2.551E+00    2.521E+00
     2.490E+00    2.459E+00    2.428E+00    2.397E+00    2.366E+00    2.334E+00    2.303E+00    2.271E+00    2.240E+00    2.208E+00
     2.176E+00    2.144E+00    2.112E+00    2.080E+00    2.048E+00    2.016E+00    1.983E+00    1.951E+00    1.918E+00    1.885E+00
     1.853E+00    1.820E+00    1.787E+00    1.753E+00    1.720E+00    1.687E+00    1.654E+00    1.620E+00    1.587E+00    1.553E+00
     1.519E+00    1.486E+00    1.452E+00    1.418E+00    1.384E+00    1.350E+00    1.315E+00    1.281E+00    1.247E+00    1.213E+00
     1.178E+00    1.144E+00    1.109E+00    1.074E+00    1.040E+00    1.005E+00    9.702E-01    9.353E-01    9.004E-01    8.655E-01
     8.304E-01    7.954E-01    7.603E-01    7.251E-01    6.899E-01    6.546E-01    6.193E-01    5.840E-01    5.486E-01    5.133E-01
     4.779E-01    4.425E-01    4.071E-01    3.718E-01    3.364E-01    3.012E-01    2.660E-01    2.308E-01    1.957E-01    1.607E-01
     1.258E-01    9.099E-02    5.629E-02    2.172E-02   -1.271E-02   -4.701E-02   -8.115E-02   -1.151E-01   -1.489E-01   -1.826E-01
    -2.160E-01   -2.492E-01   -2.822E-01   -3.150E-01   -3.476E-01   -3.799E-01   -4.119E-01   -4.437E-01   -4.752E-01   -5.065E-01
    -5.374E-01   -5.680E-01   -5.984E-01   -6.284E-01   -6.580E-01   -6.874E-01   -7.163E-01   -7.449E-01   -7.731E-01   -8.010E-01
    -8.284E-01   -8.555E-01   -8.821E-01   -9.083E-01   -9.342E-01   -9.596E-01   -9.846E-01   -1.009E+00   -1.033E+00   -1.057E+00
    -1.081E+00   -1.104E+00   -1.127E+00   -1.149E+00   -1.171E+00   -1.193E+00   -1.214E+00   -1.235E+00   -1.255E+00   -1.276E+00
    -1.295E+00   -1.315E+00   -1.334E+00   -1.353E+00   -1.371E+00   -1.390E+00   -1.408E+00   -1.425E+00   -1.442E+00   -1.459E+00
    -1.476E+00   -1.492E+00   -1.508E+00   -1.524E+00   -1.539E+00   -1.554E+00   -1.569E+00   -1.584E+00   -1.598E+00   -1.612E+00
    -1.626E+00   -1.639E+00   -1.652E+00   -1.665E+00   -1.678E+00   -1.690E+00   -1.702E+00   -1.714E+00   -1.726E+00   -1.737E+00
    -1.749E+00   -1.759E+00   -1.770E+00   -1.781E+00   -1.791E+00   -1.801E+00   -1.811E+00   -1.820E+00   -1.829E+00   -1.838E+00
    -1.847E+00   -1.856E+00   -1.864E+00   -1.872E+00   -1.880E+00   -1.888E+00   -1.895E+00   -1.902E+00   -1.909E+00   -1.916E+00
    -1.922E+00   -1.929E+00   -1.935E+00   -1.941E+00   -1.946E+00   -1.952E+00   -1.957E+00   -1.962E+00   -1.967E+00   -1.971E+00
    -1.976E+00   -1.980E+00   -1.984E+00   -1.988E+00   -1.991E+00   -1.994E+00   -1.998E+00   -2.000E+00   -2.003E+00   -2.006E+00
    -2.008E+00   -2.010E+00   -2.012E+00   -2.014E+00   -2.015E+00   -2.017E+00   -2.018E+00   -2.019E+00   -2.020E+00   -2.020E+00
    -2.021E+00   -2.021E+00   -2.021E+00   -2.021E+00   -2.020E+00   -2.020E+00   -2.019E+00   -2.018E+00   -2.017E+00   -2.016E+00
    -2.014E+00   -2.013E+00   -2.011E+00   -2.009E+00   -2.007E+00   -2.005E+00   -2.002E+00   -2.000E+00   -1.997E+00   -1.994E+00
    -1.991E+00   -1.987E+00   -1.984E+00   -1.980E+00   -1.977E+00   -1.973E+00   -1.969E+00   -1.965E+00   -1.960E+00   -1.956E+00
    -1.951E+00   -1.946E+00   -1.941E+00   -1.936E+00   -1.931E+00   -1.925E+00   -1.920E+00   -1.914E+00   -1.908E+00   -1.902E+00
    -1.896E+00   -1.890E+00   -1.883E+00   -1.877E+00   -1.870E+00   -1.863E+00   -1.856E+00   -1.849E+00   -1.842E+00   -1.835E+00
    -1.827E+00   -1.820E+00   -1.812E+00   -1.804E+00   -1.796E+00   -1.788E+00   -1.780E+00   -1.771E+00   -1.763E+00   -1.754E+00
    -1.745E+00   -1.737E+00   -1.728E+00   -1.719E+00   -1.709E+00   -1.700E+00   -1.691E+00   -1.681E+00   -1.671E+00   -1.662E+00
    -1.652E+00   -1.642E+00   -1.632E+00   -1.622E+00   -1.611E+00   -1.601E+00   -1.590E+00   -1.580E+00   -1.569E+00   -1.558E+00
    -1.547E+00   -1.536E+00   -1.525E+00   -1.514E+00   -1.503E+00   -1.491E+00   -1.480E+00   -1.468E+00   -1.456E+00   -1.445E+00
    -1.433E+00   -1.421E+00   -1.409E+00   -1.397E+00   -1.384E+00   -1.372E+00   -1.360E+00   -1.347E+00   -1.334E+00   -1.322E+00
    -1.309E+00   -1.296E+00   -1.283E+00   -1.270E+00   -1.257E+00   -1.244E+00   -1.230E+00   -1.217E+00   -1.203E+00   -1.190E+00
    -1.176E+00   -1.163E+00   -1.149E+00   -1.135E+00   -1.121E+00   -1.107E+00   -1.093E+00   -1.078E+00   -1.064E+00   -1.050E+00
    -1.035E+00   -1.021E+00   -1.006E+00   -9.916E-01   -9.768E-01   -9.620E-01   -9.471E-01   -9.321E-01   -9.171E-01   -9.020E-01
    -8.868E-01   -8.715E-01   -8.562E-01   -8.408E-01   -8.254E-01   -8.099E-01   -7.943E-01   -7.787E-01   -7.630E-01   -7.473E-01
    -7.315E-01   -7.156E-01   -6.997E-01   -6.838E-01   -6.677E-01   -6.517E-01   -6.356E-01   -6.195E-01   -6.033E-01   -5.871E-01
    -5.708E-01   -5.545E-01   -5.382E-01   -5.218E-01   -5.054E-01   -4.890E-01   -4.725E-01   -4.560E-01   -4.395E-01   -4.230E-01
    -4.064E-01   -3.898E-01   -3.732E-01   -3.566E-01   -3.399E-01   -3.233E-01   -3.066E-01   -2.899E-01   -2.732E-01   -2.565E-01
    -2.398E-01   -2.231E-01   -2.063E-01   -1.896E-01   -1.728E-01   -1.561E-01   -1.394E-01   -1.226E-01   -1.058E-01   -8.909E-02
    -7.233E-02   -5.557E-02   -3.881E-02   -2.204E-02   -5.278E-03    1.149E-02    2.825E-02    4.502E-02    6.179E-02    7.856E-02
     9.532E-02    1.121E-01    1.289E-01    1.456E-01    1.624E-01    1.791E-01    1.959E-01    2.126E-01    2.294E-01    2.461E-01
     2.629E-01    2.796E-01    2.964E-01    3.131E-01    3.298E-01    3.466E-01    3.633E-01    3.800E-01    3.967E-01    4.134E-01
     4.301E-01    4.468E-01    4.635E-01    4.802E-01    4.968E-01    5.135E-01    5.301E-01    5.468E-01
 Ala      Conc. = 7.40E+01
