 LCModel (Version 6.3-1L) Copyright: S.W. Provencher.          Ref.: Magn. Reson. Med. 30:672-679 (1993).                
 Slice#3 Row#1 Col#13  PD_05_press_1_raw_act
 36 lines in following concentration table = NCONC+1
    Conc.  %SD /Cr+PCr  Metabolite                                         
 1.61E+03  32%  13.320 Ala                                                 
    8.761 203% 7.2E-02 Asp                                                 
  121.092  24%   1.000 Cr                                                  
    0.000 999%   0.000 PCr                                                 
    8.441 127% 7.0E-02 GABA                                                
   10.037 107% 8.3E-02 Glc                                                 
    0.000 999%   0.000 Gln                                                 
    0.000 999%   0.000 Glu                                                 
    0.000 999%   0.000 GPC                                                 
   53.089  89%   0.438 PCh                                                 
  116.702  57%   0.964 GSH                                                 
  593.401  25%   4.900 Ins                                                 
 1.20E+03  73%   9.912 Lac                                                 
    0.000 999%   0.000 NAA                                                 
    0.000 999%   0.000 NAAG                                                
    4.741  74% 3.9E-02 Scyllo                                              
   19.252  91%   0.159 Tau                                                 
    0.000 999%   0.000 -CrCH2                                              
   53.089  23%   0.438 GPC+PCh                                             
    0.000 999%   0.000 NAA+NAAG                                            
  121.092  24%   1.000 Cr+PCr                                              
    0.000 999%   0.000 Glu+Gln                                             
 1.98E+03  32%  16.334 Lip13a                                              
   76.164 360%   0.629 Lip13b                                              
    0.000 999%   0.000 Lip09                                               
    0.000 999%   0.000 MM09                                                
    0.000 999%   0.000 Lip20                                               
    0.000 999%   0.000 MM20                                                
    0.000 999%   0.000 MM12                                                
 3.58E+03  17%  29.538 MM14                                                
  533.933  23%   4.409 MM17                                                
 2.05E+03  24%  16.963 Lip13a+Lip13b                                       
 5.63E+03  12%  46.501 MM14+Lip13a+Lip13b+MM12                             
    0.000 999%   0.000 MM09+Lip09                                          
    0.000 999%   0.000 MM20+Lip20                                          
   6 lines in following misc. output table
  FWHM = 0.153 ppm    S/N =  13                                            
  Data shift = 0.115 ppm                                                   
  Ph: -20 deg      87.9 deg/ppm                                            
  alphaB,S = 1.1E+01,   8.7E+01                                            
    7 spline knots.   Ns = 9(2)                                            
  (14) 4 infls.   (11) 1 extrs.                                            
  498 points on ppm-axis = NY
      4.000000     3.992357     3.984714     3.977070     3.969427     3.961784     3.954141     3.946497     3.938854     3.931211
      3.923568     3.915925     3.908281     3.900638     3.892995     3.885352     3.877708     3.870065     3.862422     3.854779
      3.847136     3.839492     3.831849     3.824206     3.816563     3.808919     3.801276     3.793633     3.785990     3.778347
      3.770703     3.763060     3.755417     3.747774     3.740130     3.732487     3.724844     3.717201     3.709558     3.701914
      3.694271     3.686628     3.678985     3.671341     3.663698     3.656055     3.648412     3.640769     3.633125     3.625482
      3.617839     3.610196     3.602552     3.594909     3.587266     3.579623     3.571980     3.564336     3.556693     3.549050
      3.541407     3.533763     3.526120     3.518477     3.510834     3.503191     3.495547     3.487904     3.480261     3.472618
      3.464974     3.457331     3.449688     3.442045     3.434402     3.426758     3.419115     3.411472     3.403829     3.396185
      3.388542     3.380899     3.373256     3.365613     3.357969     3.350326     3.342683     3.335040     3.327396     3.319753
      3.312110     3.304467     3.296824     3.289180     3.281537     3.273894     3.266251     3.258607     3.250964     3.243321
      3.235678     3.228034     3.220391     3.212748     3.205105     3.197462     3.189818     3.182175     3.174532     3.166889
      3.159245     3.151602     3.143959     3.136316     3.128673     3.121029     3.113386     3.105743     3.098100     3.090456
      3.082813     3.075170     3.067527     3.059884     3.052240     3.044597     3.036954     3.029311     3.021667     3.014024
      3.006381     2.998738     2.991095     2.983451     2.975808     2.968165     2.960522     2.952878     2.945235     2.937592
      2.929949     2.922306     2.914662     2.907019     2.899376     2.891733     2.884089     2.876446     2.868803     2.861160
      2.853517     2.845873     2.838230     2.830587     2.822944     2.815300     2.807657     2.800014     2.792371     2.784728
      2.777084     2.769441     2.761798     2.754155     2.746511     2.738868     2.731225     2.723582     2.715939     2.708295
      2.700652     2.693009     2.685366     2.677722     2.670079     2.662436     2.654793     2.647150     2.639506     2.631863
      2.624220     2.616577     2.608933     2.601290     2.593647     2.586004     2.578361     2.570717     2.563074     2.555431
      2.547788     2.540144     2.532501     2.524858     2.517215     2.509572     2.501928     2.494285     2.486642     2.478999
      2.471355     2.463712     2.456069     2.448426     2.440783     2.433139     2.425496     2.417853     2.410210     2.402566
      2.394923     2.387280     2.379637     2.371994     2.364350     2.356707     2.349064     2.341421     2.333777     2.326134
      2.318491     2.310848     2.303205     2.295561     2.287918     2.280275     2.272632     2.264988     2.257345     2.249702
      2.242059     2.234416     2.226772     2.219129     2.211486     2.203843     2.196199     2.188556     2.180913     2.173270
      2.165627     2.157983     2.150340     2.142697     2.135054     2.127410     2.119767     2.112124     2.104481     2.096838
      2.089194     2.081551     2.073908     2.066265     2.058621     2.050978     2.043335     2.035692     2.028049     2.020405
      2.012762     2.005119     1.997476     1.989833     1.982190     1.974546     1.966903     1.959260     1.951617     1.943974
      1.936331     1.928688     1.921045     1.913402     1.905759     1.898115     1.890472     1.882829     1.875186     1.867543
      1.859900     1.852257     1.844614     1.836971     1.829327     1.821684     1.814041     1.806398     1.798755     1.791112
      1.783469     1.775826     1.768183     1.760540     1.752896     1.745253     1.737610     1.729967     1.722324     1.714681
      1.707038     1.699395     1.691752     1.684108     1.676465     1.668822     1.661179     1.653536     1.645893     1.638250
      1.630607     1.622964     1.615321     1.607677     1.600034     1.592391     1.584748     1.577105     1.569462     1.561819
      1.554176     1.546533     1.538890     1.531246     1.523603     1.515960     1.508317     1.500674     1.493031     1.485388
      1.477745     1.470102     1.462458     1.454815     1.447172     1.439529     1.431886     1.424243     1.416600     1.408957
      1.401314     1.393671     1.386027     1.378384     1.370741     1.363098     1.355455     1.347812     1.340169     1.332526
      1.324883     1.317240     1.309596     1.301953     1.294310     1.286667     1.279024     1.271381     1.263738     1.256095
      1.248452     1.240808     1.233165     1.225522     1.217879     1.210236     1.202593     1.194950     1.187307     1.179664
      1.172021     1.164377     1.156734     1.149091     1.141448     1.133805     1.126162     1.118519     1.110876     1.103233
      1.095590     1.087946     1.080303     1.072660     1.065017     1.057374     1.049731     1.042088     1.034445     1.026802
      1.019158     1.011515     1.003872     0.996229     0.988586     0.980943     0.973300     0.965657     0.958014     0.950371
      0.942727     0.935084     0.927441     0.919798     0.912155     0.904512     0.896869     0.889226     0.881583     0.873940
      0.866296     0.858653     0.851010     0.843367     0.835724     0.828081     0.820438     0.812795     0.805152     0.797508
      0.789865     0.782222     0.774579     0.766936     0.759293     0.751650     0.744007     0.736364     0.728721     0.721077
      0.713434     0.705791     0.698148     0.690505     0.682862     0.675219     0.667576     0.659933     0.652290     0.644646
      0.637003     0.629360     0.621717     0.614074     0.606431     0.598788     0.591145     0.583502     0.575858     0.568215
      0.560572     0.552929     0.545286     0.537643     0.530000     0.522357     0.514714     0.507071     0.499427     0.491784
      0.484141     0.476498     0.468855     0.461212     0.453569     0.445925     0.438282     0.430639     0.422996     0.415353
      0.407710     0.400067     0.392424     0.384780     0.377137     0.369494     0.361851     0.354208     0.346565     0.338922
      0.331278     0.323635     0.315992     0.308349     0.300706     0.293063     0.285420     0.277777     0.270133     0.262490
      0.254847     0.247204     0.239561     0.231918     0.224275     0.216631     0.208988     0.201345
 NY phased data points follow
   7.53696E-01  1.51932E+00  7.67323E-02 -4.94504E-01  1.66077E+00  1.49302E+00  2.15045E+00  8.18582E-01  3.05397E-01  2.59929E+00
   2.80149E-01  2.35105E+00 -8.53720E-01  2.18559E+00  1.43768E+00  9.51922E-01 -5.58243E-01  1.17524E+00  1.39078E+00 -7.46641E-01
  -6.68519E-02  1.40015E+00  6.23080E-01  1.10155E+00 -1.25070E+00  1.58622E+00  1.80691E-01  4.48597E-01 -5.83307E-01  1.16158E+00
  -6.87468E-01  1.28376E+00  1.84029E+00  2.17489E+00 -7.14178E-01  7.75547E-02 -3.80091E-01  4.81035E-02  1.07182E-01  1.74893E+00
   1.17999E+00 -1.74735E-01 -1.78277E+00 -1.90119E+00  1.46502E+00  5.39874E-01  9.48984E-01 -1.16880E+00 -4.75646E-01  5.21700E-01
   1.11790E+00  8.95776E-01  1.63505E+00 -4.15861E-01 -4.35932E-01  1.80545E+00  5.36894E-01 -1.47212E+00 -2.37147E+00 -8.60164E-02
  -8.51372E-03 -4.49689E-02  8.14091E-01  8.81863E-01 -2.24756E+00 -3.85824E-01 -6.30460E-01  1.32818E-01  7.71039E-01 -9.62271E-01
  -9.43234E-01 -1.52976E+00  2.39148E+00  1.55162E-01 -5.94695E-01  2.27493E-01  1.12246E+00 -6.25907E-01 -3.11883E-01 -2.10892E+00
  -1.31908E+00 -2.10922E+00 -4.49644E-01 -7.44823E-01 -6.78509E-01  7.81662E-01 -1.01405E+00  5.68359E-01 -1.35103E+00 -4.54179E-01
   2.09525E-01  1.37553E+00 -1.25100E+00 -1.65009E+00 -7.24500E-01 -1.68309E+00 -1.66012E+00 -2.21415E+00 -5.68955E-01 -7.13715E-01
  -9.09971E-01 -1.87331E+00 -5.08048E-01 -4.52074E-01  3.23601E-01 -4.80317E-01 -1.14171E-01 -8.98392E-01  2.92700E-01 -1.23769E+00
  -2.25848E-02 -2.98476E+00 -4.69486E-01 -1.69631E+00  6.30882E-01 -1.63099E+00 -1.06285E+00 -2.50506E+00  1.71242E-01 -2.10404E+00
   2.43677E-01 -1.42943E-01 -1.30331E+00 -1.54293E+00  1.16686E+00 -1.04652E+00  7.87795E-01 -1.20123E+00 -1.79142E+00 -1.68108E+00
  -1.67870E+00 -3.51474E+00 -7.39012E-01 -2.73695E+00 -9.14339E-01 -2.19041E+00  7.65893E-01 -2.42203E+00 -2.10471E+00 -9.30455E-01
  -1.19405E+00 -9.44825E-01 -4.10085E+00 -1.35945E+00 -1.32458E+00 -1.94880E+00 -1.47685E+00 -1.48372E+00 -1.55656E+00 -1.37155E+00
  -3.12999E+00 -9.58615E-01 -3.77309E+00 -2.39249E+00 -1.66328E+00 -1.65011E+00 -3.05812E+00 -3.49563E+00 -1.82047E+00 -2.44106E+00
  -1.30520E+00 -2.58600E+00 -1.65158E+00 -1.44040E+00 -1.71091E+00 -3.86719E+00 -2.13517E+00 -2.77753E+00 -1.13748E+00 -1.72957E+00
  -2.74978E+00 -1.68098E+00 -2.83061E+00 -7.35023E-01 -4.51496E+00 -3.50380E+00 -4.03290E+00 -1.57463E+00 -5.67552E+00 -2.92990E+00
  -3.92750E+00 -3.97345E+00 -4.38136E+00 -4.09400E+00 -3.26754E+00 -8.05407E-01 -3.53144E+00 -3.84403E+00 -3.29087E+00 -2.46856E+00
  -3.77625E+00 -3.15124E+00 -3.55062E+00 -3.16291E+00 -1.53539E+00 -2.23671E+00 -2.78851E+00 -4.78973E+00 -3.28192E+00 -3.90723E+00
  -2.47549E+00 -2.24975E+00 -2.26986E+00 -3.01946E+00 -2.31719E+00 -3.73236E+00 -4.90911E+00 -4.21219E+00 -2.84100E+00 -2.65941E+00
  -3.04662E+00 -3.41117E+00 -4.68778E+00 -3.87690E+00 -5.57614E+00 -4.79770E+00 -4.26992E+00 -2.45736E+00 -5.48301E+00 -4.56872E+00
  -4.61052E+00 -4.03069E+00 -5.36602E+00 -1.39106E+00 -2.10059E+00 -3.63109E+00 -2.88079E+00 -4.77170E+00 -1.01547E+00 -4.34958E+00
  -2.05918E+00 -5.37982E+00 -4.53689E+00 -3.82795E+00 -2.87660E+00 -4.56607E+00 -4.63939E+00 -2.24042E+00 -4.90784E+00 -4.19131E+00
  -2.42678E+00 -5.08149E+00 -2.53066E+00 -2.57739E+00 -5.07620E+00 -3.20531E+00 -4.61541E+00 -1.52213E+00 -4.79004E+00 -1.15949E+00
  -3.85699E+00 -3.41182E+00 -2.21340E+00 -3.93043E+00 -4.44252E+00 -2.03747E+00 -5.01012E+00 -3.47382E+00 -4.42658E+00 -3.76706E+00
  -3.76980E+00 -5.44537E+00 -4.44813E+00 -3.83474E+00 -4.95171E+00 -4.28524E+00 -3.23327E+00 -3.89644E+00 -3.04652E+00 -2.65932E+00
  -2.92114E+00 -4.36513E+00 -2.82700E+00 -2.72666E+00 -5.41389E+00 -2.44497E+00 -3.12251E+00 -3.21846E+00 -1.87347E+00 -4.69168E+00
  -2.26735E+00 -2.90946E+00 -3.42114E+00 -3.11669E+00 -2.66212E+00 -1.66664E+00 -1.55268E+00  1.89026E+00 -1.20611E-01 -6.09862E-01
   1.10496E+00 -5.38428E-01 -5.00932E-01 -4.78033E-01 -6.55270E-01  9.94536E-01 -3.49664E-01 -1.58981E+00 -2.52060E-01  3.79614E-01
  -8.27630E-01 -2.20670E+00  9.43686E-01  6.14977E-01  2.34889E+00  4.03328E-02  2.22757E+00 -1.25177E+00  1.06489E+00  1.97499E+00
   7.46939E-01 -2.86962E-02  3.00773E+00  7.68803E-01  1.57328E+00  4.71126E+00  3.34673E+00  2.85739E+00  5.64428E+00  4.76068E+00
   5.08050E+00  4.02242E+00  6.75279E+00  7.04239E+00  7.51937E+00  6.77557E+00  9.57280E+00  1.03801E+01  1.13119E+01  1.27765E+01
   1.39616E+01  1.34337E+01  1.57698E+01  1.66731E+01  1.67816E+01  1.80213E+01  1.89780E+01  2.16508E+01  2.38229E+01  2.38369E+01
   2.49296E+01  2.37786E+01  2.64038E+01  2.54840E+01  2.57052E+01  2.63473E+01  2.75592E+01  2.69316E+01  2.83085E+01  2.68835E+01
   2.72491E+01  2.66567E+01  2.56392E+01  2.42420E+01  2.50591E+01  2.37878E+01  2.35069E+01  2.12894E+01  1.96050E+01  1.89547E+01
   1.34956E+01  1.51967E+01  1.33659E+01  1.26891E+01  1.18214E+01  9.11251E+00  9.02873E+00  6.56154E+00  5.82136E+00  6.39564E+00
   2.46703E+00  2.92031E+00  1.83755E+00  1.30861E+00  9.86647E-01 -6.00523E-01 -6.78335E-01 -8.02326E-01 -3.55116E+00 -1.32333E+00
  -3.04703E+00 -2.33272E+00 -3.13214E+00 -3.28372E+00 -2.84493E+00 -4.50303E+00 -3.82993E+00 -4.04311E+00 -3.95225E+00 -3.47796E+00
  -3.73900E+00 -4.40107E+00 -3.68852E+00 -4.59979E+00 -5.09061E+00 -3.56271E+00 -4.34781E+00 -5.39662E+00 -1.71630E+00 -4.63232E+00
  -4.45445E+00 -3.61936E+00 -3.03623E+00 -5.14018E+00 -3.83411E+00 -1.95268E+00 -2.10299E+00 -4.32206E+00 -3.32940E+00 -3.88387E+00
  -4.34134E+00 -3.73047E+00 -4.92165E+00 -4.07891E+00 -4.30019E+00 -4.14623E+00 -4.17051E+00 -5.03229E+00 -4.81884E+00 -4.59313E+00
  -4.97216E+00 -5.77019E+00 -4.75216E+00 -5.05313E+00 -4.29987E+00 -3.25075E+00 -4.30398E+00 -6.30819E+00 -5.12082E+00 -4.29035E+00
  -4.36305E+00 -5.49445E+00 -5.84116E+00 -7.28853E+00 -5.71979E+00 -4.27349E+00 -1.56328E+00 -5.21662E+00 -4.60949E+00 -5.47666E+00
  -5.02711E+00 -5.15037E+00 -4.39891E+00 -6.25652E+00 -5.02993E+00 -4.40237E+00 -4.36774E+00 -3.60893E+00 -5.18760E+00 -4.29230E+00
  -4.90758E+00 -4.73594E+00 -4.96261E+00 -5.09543E+00 -5.09024E+00 -4.77267E+00 -3.68894E+00 -2.43469E+00 -5.10524E+00 -4.50771E+00
  -4.87453E+00 -4.17180E+00 -6.08661E+00 -3.37745E+00 -4.52868E+00 -3.46812E+00 -4.11392E+00 -5.70532E+00 -2.55004E+00 -4.40832E+00
  -3.13661E+00 -4.43655E+00 -1.94193E+00 -3.46197E+00 -4.67867E+00 -1.95593E+00 -3.00277E+00 -3.48077E+00 -3.12263E+00 -1.42823E+00
  -3.65317E+00 -3.71504E+00 -4.22079E+00 -3.50508E+00 -2.91907E+00 -3.03455E+00 -3.94092E+00 -3.38793E+00 -2.35670E+00 -3.90481E+00
  -3.63847E+00 -4.03066E+00 -2.92559E+00 -2.70894E+00 -2.24790E+00 -2.52781E+00 -3.99307E+00 -3.75252E+00
 NY points of the fit to the data follow
   9.63596E-01  1.23844E+00  9.83865E-01  1.15238E+00  9.89514E-01  1.08734E+00  9.36228E-01  9.88543E-01  7.95716E-01  7.54527E-01
   6.03943E-01  5.35983E-01  5.01847E-01  4.92090E-01  4.28612E-01  5.12641E-01  4.26012E-01  4.98334E-01  3.68306E-01  4.18800E-01
   2.82140E-01  4.08849E-01  2.42053E-01  3.92366E-01  2.26949E-01  4.03903E-01  2.45893E-01  3.48927E-01  1.79525E-01  2.52287E-01
   2.03802E-01  2.41027E-01  2.02138E-01  2.29436E-01  3.13608E-01  2.96453E-01  4.89919E-01  3.69668E-01  6.07621E-01  4.11156E-01
   6.33574E-01  3.76607E-01  5.82942E-01  3.03084E-01  5.77836E-01  3.07789E-01  6.21086E-01  4.27599E-01  6.41012E-01  4.18954E-01
   5.57501E-01  2.94615E-01  4.15469E-01  1.47589E-01  2.01019E-01  3.22164E-02  1.07806E-01 -2.74894E-02  5.55874E-02 -5.34478E-02
   4.68819E-02 -6.35505E-02 -1.10528E-03 -1.46070E-01 -8.13557E-02 -2.41107E-01 -1.87632E-01 -3.51216E-01 -2.83404E-01 -4.01807E-01
  -2.81727E-01 -4.04314E-01 -3.06329E-01 -4.56676E-01 -3.87767E-01 -5.53233E-01 -5.12315E-01 -6.97820E-01 -6.72555E-01 -8.75569E-01
  -8.80414E-01 -1.06808E+00 -1.05914E+00 -1.22428E+00 -1.20189E+00 -1.31584E+00 -1.25390E+00 -1.41640E+00 -1.36695E+00 -1.52208E+00
  -1.44361E+00 -1.54219E+00 -1.38603E+00 -1.44172E+00 -1.18831E+00 -1.26993E+00 -9.65281E-01 -1.12005E+00 -8.05791E-01 -9.83811E-01
  -6.34425E-01 -8.40797E-01 -4.58005E-01 -6.97945E-01 -2.96150E-01 -6.19593E-01 -2.50903E-01 -6.51898E-01 -3.40119E-01 -7.02264E-01
  -4.13389E-01 -8.14252E-01 -5.74637E-01 -9.50482E-01 -7.41463E-01 -1.06223E+00 -8.70648E-01 -1.11585E+00 -9.32292E-01 -1.11459E+00
  -9.43086E-01 -1.13010E+00 -9.84521E-01 -1.14175E+00 -9.95295E-01 -1.06270E+00 -8.59856E-01 -9.54682E-01 -7.47168E-01 -9.14229E-01
  -7.17628E-01 -9.67869E-01 -7.94139E-01 -1.06458E+00 -9.05984E-01 -1.20937E+00 -1.08456E+00 -1.40506E+00 -1.31005E+00 -1.63519E+00
  -1.56071E+00 -1.86388E+00 -1.80710E+00 -2.06583E+00 -2.02751E+00 -2.26296E+00 -2.25289E+00 -2.45302E+00 -2.44885E+00 -2.53702E+00
  -2.50725E+00 -2.58053E+00 -2.56473E+00 -2.62768E+00 -2.62651E+00 -2.66793E+00 -2.66632E+00 -2.70037E+00 -2.71364E+00 -2.74391E+00
  -2.77269E+00 -2.79654E+00 -2.82580E+00 -2.84009E+00 -2.86027E+00 -2.87106E+00 -2.88830E+00 -2.90020E+00 -2.91807E+00 -2.93029E+00
  -2.94723E+00 -2.95924E+00 -2.97169E+00 -2.98188E+00 -2.99220E+00 -3.00578E+00 -3.02057E+00 -3.03639E+00 -3.05086E+00 -3.06439E+00
  -3.07849E+00 -3.08121E+00 -3.08751E+00 -3.08702E+00 -3.09944E+00 -3.10210E+00 -3.12487E+00 -3.12446E+00 -3.15119E+00 -3.13955E+00
  -3.16081E+00 -3.13810E+00 -3.15616E+00 -3.13381E+00 -3.16115E+00 -3.14144E+00 -3.17319E+00 -3.15292E+00 -3.18258E+00 -3.15670E+00
  -3.17778E+00 -3.14979E+00 -3.16512E+00 -3.14562E+00 -3.16361E+00 -3.14932E+00 -3.16031E+00 -3.15120E+00 -3.15858E+00 -3.15214E+00
  -3.15624E+00 -3.15534E+00 -3.15542E+00 -3.15913E+00 -3.16038E+00 -3.16307E+00 -3.16173E+00 -3.16705E+00 -3.16851E+00 -3.18052E+00
  -3.19331E+00 -3.21086E+00 -3.23112E+00 -3.24569E+00 -3.26280E+00 -3.26948E+00 -3.28015E+00 -3.28398E+00 -3.28890E+00 -3.29920E+00
  -3.31090E+00 -3.33174E+00 -3.34911E+00 -3.36837E+00 -3.37572E+00 -3.39062E+00 -3.38484E+00 -3.40242E+00 -3.39147E+00 -3.41888E+00
  -3.41367E+00 -3.44925E+00 -3.44529E+00 -3.47540E+00 -3.46081E+00 -3.48527E+00 -3.46349E+00 -3.48498E+00 -3.46394E+00 -3.48503E+00
  -3.47027E+00 -3.48629E+00 -3.47122E+00 -3.48395E+00 -3.47448E+00 -3.48118E+00 -3.47178E+00 -3.47122E+00 -3.46171E+00 -3.44887E+00
  -3.43268E+00 -3.41998E+00 -3.40843E+00 -3.39665E+00 -3.38676E+00 -3.37454E+00 -3.36628E+00 -3.34858E+00 -3.32936E+00 -3.30389E+00
  -3.27636E+00 -3.24325E+00 -3.20600E+00 -3.16360E+00 -3.11639E+00 -3.06332E+00 -3.00324E+00 -2.93463E+00 -2.85710E+00 -2.76918E+00
  -2.67065E+00 -2.56017E+00 -2.43781E+00 -2.30269E+00 -2.15555E+00 -1.99607E+00 -1.82601E+00 -1.64602E+00 -1.45893E+00 -1.26620E+00
  -1.07151E+00 -8.77408E-01 -6.87854E-01 -5.05358E-01 -3.34353E-01 -1.76507E-01 -3.57505E-02  8.74107E-02  1.90823E-01  2.75518E-01
   3.41372E-01  3.92010E-01  4.29992E-01  4.61541E-01  4.92880E-01  5.34372E-01  5.99271E-01  7.12221E-01  9.29094E-01  1.29407E+00
   1.34328E+00  1.56164E+00  1.67901E+00  2.04419E+00  2.25571E+00  2.80404E+00  2.94634E+00  3.90169E+00  4.16442E+00  4.96776E+00
   5.03345E+00  5.65981E+00  5.81642E+00  6.68086E+00  7.06584E+00  8.20528E+00  9.01487E+00  1.02909E+01  1.13979E+01  1.24417E+01
   1.34537E+01  1.40498E+01  1.54643E+01  1.61635E+01  1.78493E+01  1.85557E+01  2.04999E+01  2.12428E+01  2.31668E+01  2.31554E+01
   2.46320E+01  2.42513E+01  2.56193E+01  2.53308E+01  2.64404E+01  2.62225E+01  2.71706E+01  2.69326E+01  2.76239E+01  2.72844E+01
   2.71941E+01  2.65011E+01  2.60861E+01  2.53190E+01  2.44498E+01  2.34302E+01  2.20311E+01  2.10630E+01  1.96297E+01  1.82412E+01
   1.66469E+01  1.52006E+01  1.36513E+01  1.22663E+01  1.07751E+01  9.42233E+00  8.10069E+00  6.80692E+00  5.77966E+00  4.85729E+00
   3.88309E+00  2.99676E+00  2.17039E+00  1.31509E+00  5.97879E-01 -3.06816E-01 -9.53472E-01 -1.43748E+00 -1.82074E+00 -2.13099E+00
  -2.38515E+00 -2.59522E+00 -2.77027E+00 -2.91733E+00 -3.04196E+00 -3.14854E+00 -3.24059E+00 -3.32090E+00 -3.39165E+00 -3.45451E+00
  -3.51081E+00 -3.56161E+00 -3.60775E+00 -3.64993E+00 -3.68869E+00 -3.72443E+00 -3.75750E+00 -3.78821E+00 -3.81682E+00 -3.84356E+00
  -3.86859E+00 -3.89206E+00 -3.91410E+00 -3.93484E+00 -3.95440E+00 -3.97288E+00 -3.99035E+00 -4.00688E+00 -4.02253E+00 -4.03738E+00
  -4.05149E+00 -4.06491E+00 -4.07768E+00 -4.08982E+00 -4.10139E+00 -4.11244E+00 -4.12299E+00 -4.13306E+00 -4.14268E+00 -4.15188E+00
  -4.16068E+00 -4.16911E+00 -4.17719E+00 -4.18494E+00 -4.19235E+00 -4.19946E+00 -4.20629E+00 -4.21285E+00 -4.21915E+00 -4.22520E+00
  -4.23101E+00 -4.23659E+00 -4.24197E+00 -4.24714E+00 -4.25211E+00 -4.25689E+00 -4.26149E+00 -4.26592E+00 -4.27019E+00 -4.27430E+00
  -4.27826E+00 -4.28206E+00 -4.28573E+00 -4.28926E+00 -4.29267E+00 -4.29595E+00 -4.29911E+00 -4.30215E+00 -4.30508E+00 -4.30791E+00
  -4.31064E+00 -4.31326E+00 -4.31578E+00 -4.31821E+00 -4.32055E+00 -4.32281E+00 -4.32499E+00 -4.32708E+00 -4.32909E+00 -4.33102E+00
  -4.33289E+00 -4.33468E+00 -4.33641E+00 -4.33806E+00 -4.33965E+00 -4.34118E+00 -4.34265E+00 -4.34406E+00 -4.34542E+00 -4.34671E+00
  -4.34795E+00 -4.34914E+00 -4.35028E+00 -4.35138E+00 -4.35242E+00 -4.35341E+00 -4.35436E+00 -4.35526E+00 -4.35613E+00 -4.35695E+00
  -4.35772E+00 -4.35845E+00 -4.35915E+00 -4.35981E+00 -4.36042E+00 -4.36100E+00 -4.36153E+00 -4.36203E+00 -4.36249E+00 -4.36291E+00
  -4.36329E+00 -4.36362E+00 -4.36391E+00 -4.36415E+00 -4.36434E+00 -4.36447E+00 -4.36453E+00 -4.36451E+00
 NY background values follow
    -1.005E+00   -1.017E+00   -1.029E+00   -1.041E+00   -1.054E+00   -1.066E+00   -1.078E+00   -1.091E+00   -1.103E+00   -1.115E+00
    -1.128E+00   -1.140E+00   -1.152E+00   -1.165E+00   -1.177E+00   -1.189E+00   -1.202E+00   -1.214E+00   -1.226E+00   -1.239E+00
    -1.251E+00   -1.263E+00   -1.276E+00   -1.288E+00   -1.300E+00   -1.313E+00   -1.325E+00   -1.337E+00   -1.350E+00   -1.362E+00
    -1.374E+00   -1.387E+00   -1.399E+00   -1.411E+00   -1.424E+00   -1.436E+00   -1.448E+00   -1.460E+00   -1.473E+00   -1.485E+00
    -1.497E+00   -1.510E+00   -1.522E+00   -1.534E+00   -1.547E+00   -1.559E+00   -1.571E+00   -1.583E+00   -1.596E+00   -1.608E+00
    -1.620E+00   -1.633E+00   -1.645E+00   -1.657E+00   -1.669E+00   -1.682E+00   -1.694E+00   -1.706E+00   -1.718E+00   -1.731E+00
    -1.743E+00   -1.755E+00   -1.767E+00   -1.780E+00   -1.792E+00   -1.804E+00   -1.816E+00   -1.828E+00   -1.841E+00   -1.853E+00
    -1.865E+00   -1.877E+00   -1.889E+00   -1.901E+00   -1.914E+00   -1.926E+00   -1.938E+00   -1.950E+00   -1.962E+00   -1.974E+00
    -1.986E+00   -1.998E+00   -2.011E+00   -2.023E+00   -2.035E+00   -2.047E+00   -2.059E+00   -2.071E+00   -2.083E+00   -2.095E+00
    -2.107E+00   -2.119E+00   -2.131E+00   -2.143E+00   -2.155E+00   -2.167E+00   -2.179E+00   -2.191E+00   -2.203E+00   -2.215E+00
    -2.227E+00   -2.239E+00   -2.251E+00   -2.263E+00   -2.275E+00   -2.286E+00   -2.298E+00   -2.310E+00   -2.322E+00   -2.334E+00
    -2.346E+00   -2.358E+00   -2.369E+00   -2.381E+00   -2.393E+00   -2.405E+00   -2.417E+00   -2.428E+00   -2.440E+00   -2.452E+00
    -2.464E+00   -2.475E+00   -2.487E+00   -2.499E+00   -2.510E+00   -2.522E+00   -2.534E+00   -2.545E+00   -2.557E+00   -2.569E+00
    -2.580E+00   -2.592E+00   -2.603E+00   -2.615E+00   -2.626E+00   -2.638E+00   -2.649E+00   -2.661E+00   -2.672E+00   -2.684E+00
    -2.695E+00   -2.707E+00   -2.718E+00   -2.729E+00   -2.741E+00   -2.752E+00   -2.764E+00   -2.775E+00   -2.786E+00   -2.797E+00
    -2.809E+00   -2.820E+00   -2.831E+00   -2.842E+00   -2.853E+00   -2.865E+00   -2.876E+00   -2.887E+00   -2.898E+00   -2.909E+00
    -2.920E+00   -2.931E+00   -2.942E+00   -2.953E+00   -2.964E+00   -2.975E+00   -2.986E+00   -2.997E+00   -3.007E+00   -3.018E+00
    -3.029E+00   -3.040E+00   -3.051E+00   -3.061E+00   -3.072E+00   -3.083E+00   -3.093E+00   -3.104E+00   -3.114E+00   -3.125E+00
    -3.136E+00   -3.146E+00   -3.156E+00   -3.167E+00   -3.177E+00   -3.188E+00   -3.198E+00   -3.208E+00   -3.219E+00   -3.229E+00
    -3.239E+00   -3.249E+00   -3.259E+00   -3.270E+00   -3.280E+00   -3.290E+00   -3.300E+00   -3.310E+00   -3.320E+00   -3.330E+00
    -3.339E+00   -3.349E+00   -3.359E+00   -3.369E+00   -3.379E+00   -3.388E+00   -3.398E+00   -3.408E+00   -3.417E+00   -3.427E+00
    -3.436E+00   -3.446E+00   -3.455E+00   -3.465E+00   -3.474E+00   -3.483E+00   -3.493E+00   -3.502E+00   -3.511E+00   -3.520E+00
    -3.530E+00   -3.539E+00   -3.548E+00   -3.557E+00   -3.566E+00   -3.575E+00   -3.584E+00   -3.592E+00   -3.601E+00   -3.610E+00
    -3.619E+00   -3.627E+00   -3.636E+00   -3.645E+00   -3.653E+00   -3.662E+00   -3.670E+00   -3.678E+00   -3.687E+00   -3.695E+00
    -3.703E+00   -3.712E+00   -3.720E+00   -3.728E+00   -3.736E+00   -3.744E+00   -3.752E+00   -3.760E+00   -3.768E+00   -3.776E+00
    -3.784E+00   -3.791E+00   -3.799E+00   -3.807E+00   -3.814E+00   -3.822E+00   -3.829E+00   -3.837E+00   -3.844E+00   -3.851E+00
    -3.859E+00   -3.866E+00   -3.873E+00   -3.880E+00   -3.888E+00   -3.895E+00   -3.902E+00   -3.909E+00   -3.916E+00   -3.922E+00
    -3.929E+00   -3.936E+00   -3.943E+00   -3.949E+00   -3.956E+00   -3.963E+00   -3.969E+00   -3.976E+00   -3.982E+00   -3.989E+00
    -3.995E+00   -4.001E+00   -4.008E+00   -4.014E+00   -4.020E+00   -4.026E+00   -4.032E+00   -4.038E+00   -4.044E+00   -4.050E+00
    -4.056E+00   -4.062E+00   -4.068E+00   -4.073E+00   -4.079E+00   -4.085E+00   -4.090E+00   -4.096E+00   -4.101E+00   -4.107E+00
    -4.112E+00   -4.118E+00   -4.123E+00   -4.128E+00   -4.133E+00   -4.139E+00   -4.144E+00   -4.149E+00   -4.154E+00   -4.159E+00
    -4.164E+00   -4.169E+00   -4.174E+00   -4.179E+00   -4.183E+00   -4.188E+00   -4.193E+00   -4.197E+00   -4.202E+00   -4.207E+00
    -4.211E+00   -4.216E+00   -4.220E+00   -4.224E+00   -4.229E+00   -4.233E+00   -4.237E+00   -4.241E+00   -4.246E+00   -4.250E+00
    -4.254E+00   -4.258E+00   -4.262E+00   -4.266E+00   -4.270E+00   -4.273E+00   -4.277E+00   -4.281E+00   -4.285E+00   -4.288E+00
    -4.292E+00   -4.295E+00   -4.299E+00   -4.303E+00   -4.306E+00   -4.309E+00   -4.313E+00   -4.316E+00   -4.319E+00   -4.323E+00
    -4.326E+00   -4.329E+00   -4.332E+00   -4.335E+00   -4.338E+00   -4.341E+00   -4.344E+00   -4.347E+00   -4.350E+00   -4.352E+00
    -4.355E+00   -4.358E+00   -4.361E+00   -4.363E+00   -4.366E+00   -4.368E+00   -4.371E+00   -4.373E+00   -4.376E+00   -4.378E+00
    -4.380E+00   -4.383E+00   -4.385E+00   -4.387E+00   -4.389E+00   -4.391E+00   -4.393E+00   -4.395E+00   -4.397E+00   -4.399E+00
    -4.401E+00   -4.403E+00   -4.405E+00   -4.407E+00   -4.409E+00   -4.410E+00   -4.412E+00   -4.414E+00   -4.415E+00   -4.417E+00
    -4.418E+00   -4.420E+00   -4.421E+00   -4.423E+00   -4.424E+00   -4.425E+00   -4.427E+00   -4.428E+00   -4.429E+00   -4.430E+00
    -4.431E+00   -4.433E+00   -4.434E+00   -4.435E+00   -4.436E+00   -4.437E+00   -4.438E+00   -4.439E+00   -4.440E+00   -4.441E+00
    -4.441E+00   -4.442E+00   -4.443E+00   -4.444E+00   -4.445E+00   -4.445E+00   -4.446E+00   -4.447E+00   -4.447E+00   -4.448E+00
    -4.448E+00   -4.449E+00   -4.449E+00   -4.450E+00   -4.450E+00   -4.451E+00   -4.451E+00   -4.452E+00   -4.452E+00   -4.452E+00
    -4.452E+00   -4.453E+00   -4.453E+00   -4.453E+00   -4.453E+00   -4.454E+00   -4.454E+00   -4.454E+00   -4.454E+00   -4.454E+00
    -4.454E+00   -4.454E+00   -4.454E+00   -4.454E+00   -4.454E+00   -4.454E+00   -4.454E+00   -4.454E+00   -4.454E+00   -4.454E+00
    -4.454E+00   -4.454E+00   -4.454E+00   -4.454E+00   -4.453E+00   -4.453E+00   -4.453E+00   -4.453E+00   -4.453E+00   -4.452E+00
    -4.452E+00   -4.452E+00   -4.451E+00   -4.451E+00   -4.451E+00   -4.450E+00   -4.450E+00   -4.450E+00   -4.449E+00   -4.449E+00
    -4.449E+00   -4.448E+00   -4.448E+00   -4.447E+00   -4.447E+00   -4.446E+00   -4.446E+00   -4.445E+00   -4.445E+00   -4.444E+00
    -4.444E+00   -4.443E+00   -4.443E+00   -4.442E+00   -4.442E+00   -4.441E+00   -4.441E+00   -4.440E+00   -4.440E+00   -4.439E+00
    -4.439E+00   -4.438E+00   -4.437E+00   -4.437E+00   -4.436E+00   -4.436E+00   -4.435E+00   -4.435E+00
 Ala      Conc. = 1.61E+03
