 LCModel (Version 6.3-1L) Copyright: S.W. Provencher.          Ref.: Magn. Reson. Med. 30:672-679 (1993).                
 Slice#3 Row#14 Col#4  PD_05_press_1_raw_act
 36 lines in following concentration table = NCONC+1
    Conc.  %SD /Cr+PCr  Metabolite                                         
 1.93E+03  12%   0.000 Ala                                                 
    5.388 282%   0.000 Asp                                                 
    0.000 999%   0.000 Cr                                                  
    0.000 999%   0.000 PCr                                                 
    2.824 325%   0.000 GABA                                                
    5.460 168%   0.000 Glc                                                 
    0.000 999%   0.000 Gln                                                 
 1.77E+03  19%   0.000 Glu                                                 
   38.853  28%   0.000 GPC                                                 
    0.000 999%   0.000 PCh                                                 
   64.275  71%   0.000 GSH                                                 
  439.006  27%   0.000 Ins                                                 
 1.89E+03  11%   0.000 Lac                                                 
    0.000 999%   0.000 NAA                                                 
    0.000 999%   0.000 NAAG                                                
    2.933 102%   0.000 Scyllo                                              
   12.403 121%   0.000 Tau                                                 
   26.597  88%   0.000 -CrCH2                                              
   38.853  28%   0.000 GPC+PCh                                             
    0.000 999%   0.000 NAA+NAAG                                            
    0.000 999%   0.000 Cr+PCr                                              
 1.77E+03  19%   0.000 Glu+Gln                                             
    0.000 999%   0.000 Lip13a                                              
    0.000 999%   0.000 Lip13b                                              
    0.000 999%   0.000 Lip09                                               
  156.559  23%   0.000 MM09                                                
    0.000 999%   0.000 Lip20                                               
    0.000 999%   0.000-MM20                                                
   55.905  40%   0.000 MM12                                                
  506.901  10%   0.000+MM14                                                
  348.838  11%   0.000+MM17                                                
    0.000 999%   0.000 Lip13a+Lip13b                                       
  562.807  10%   0.000 MM14+Lip13a+Lip13b+MM12                             
  156.559  23%   0.000 MM09+Lip09                                          
    0.000 999%   0.000 MM20+Lip20                                          
   6 lines in following misc. output table
  FWHM = 0.168 ppm    S/N =   4                                            
  Data shift =-0.046 ppm                                                   
  Ph:-120 deg      22.5 deg/ppm                                            
  alphaB,S = 2.1E+00,   7.0E+02                                            
    8 spline knots.   Ns = 9(2)                                            
  ( 9) 2 infls.   ( 1) 1 extrs.                                            
  498 points on ppm-axis = NY
      4.000000     3.992357     3.984714     3.977070     3.969427     3.961784     3.954141     3.946497     3.938854     3.931211
      3.923568     3.915925     3.908281     3.900638     3.892995     3.885352     3.877708     3.870065     3.862422     3.854779
      3.847136     3.839492     3.831849     3.824206     3.816563     3.808919     3.801276     3.793633     3.785990     3.778347
      3.770703     3.763060     3.755417     3.747774     3.740130     3.732487     3.724844     3.717201     3.709558     3.701914
      3.694271     3.686628     3.678985     3.671341     3.663698     3.656055     3.648412     3.640769     3.633125     3.625482
      3.617839     3.610196     3.602552     3.594909     3.587266     3.579623     3.571980     3.564336     3.556693     3.549050
      3.541407     3.533763     3.526120     3.518477     3.510834     3.503191     3.495547     3.487904     3.480261     3.472618
      3.464974     3.457331     3.449688     3.442045     3.434402     3.426758     3.419115     3.411472     3.403829     3.396185
      3.388542     3.380899     3.373256     3.365613     3.357969     3.350326     3.342683     3.335040     3.327396     3.319753
      3.312110     3.304467     3.296824     3.289180     3.281537     3.273894     3.266251     3.258607     3.250964     3.243321
      3.235678     3.228034     3.220391     3.212748     3.205105     3.197462     3.189818     3.182175     3.174532     3.166889
      3.159245     3.151602     3.143959     3.136316     3.128673     3.121029     3.113386     3.105743     3.098100     3.090456
      3.082813     3.075170     3.067527     3.059884     3.052240     3.044597     3.036954     3.029311     3.021667     3.014024
      3.006381     2.998738     2.991095     2.983451     2.975808     2.968165     2.960522     2.952878     2.945235     2.937592
      2.929949     2.922306     2.914662     2.907019     2.899376     2.891733     2.884089     2.876446     2.868803     2.861160
      2.853517     2.845873     2.838230     2.830587     2.822944     2.815300     2.807657     2.800014     2.792371     2.784728
      2.777084     2.769441     2.761798     2.754155     2.746511     2.738868     2.731225     2.723582     2.715939     2.708295
      2.700652     2.693009     2.685366     2.677722     2.670079     2.662436     2.654793     2.647150     2.639506     2.631863
      2.624220     2.616577     2.608933     2.601290     2.593647     2.586004     2.578361     2.570717     2.563074     2.555431
      2.547788     2.540144     2.532501     2.524858     2.517215     2.509572     2.501928     2.494285     2.486642     2.478999
      2.471355     2.463712     2.456069     2.448426     2.440783     2.433139     2.425496     2.417853     2.410210     2.402566
      2.394923     2.387280     2.379637     2.371994     2.364350     2.356707     2.349064     2.341421     2.333777     2.326134
      2.318491     2.310848     2.303205     2.295561     2.287918     2.280275     2.272632     2.264988     2.257345     2.249702
      2.242059     2.234416     2.226772     2.219129     2.211486     2.203843     2.196199     2.188556     2.180913     2.173270
      2.165627     2.157983     2.150340     2.142697     2.135054     2.127410     2.119767     2.112124     2.104481     2.096838
      2.089194     2.081551     2.073908     2.066265     2.058621     2.050978     2.043335     2.035692     2.028049     2.020405
      2.012762     2.005119     1.997476     1.989833     1.982190     1.974546     1.966903     1.959260     1.951617     1.943974
      1.936331     1.928688     1.921045     1.913402     1.905759     1.898115     1.890472     1.882829     1.875186     1.867543
      1.859900     1.852257     1.844614     1.836971     1.829327     1.821684     1.814041     1.806398     1.798755     1.791112
      1.783469     1.775826     1.768183     1.760540     1.752896     1.745253     1.737610     1.729967     1.722324     1.714681
      1.707038     1.699395     1.691752     1.684108     1.676465     1.668822     1.661179     1.653536     1.645893     1.638250
      1.630607     1.622964     1.615321     1.607677     1.600034     1.592391     1.584748     1.577105     1.569462     1.561819
      1.554176     1.546533     1.538890     1.531246     1.523603     1.515960     1.508317     1.500674     1.493031     1.485388
      1.477745     1.470102     1.462458     1.454815     1.447172     1.439529     1.431886     1.424243     1.416600     1.408957
      1.401314     1.393671     1.386027     1.378384     1.370741     1.363098     1.355455     1.347812     1.340169     1.332526
      1.324883     1.317240     1.309596     1.301953     1.294310     1.286667     1.279024     1.271381     1.263738     1.256095
      1.248452     1.240808     1.233165     1.225522     1.217879     1.210236     1.202593     1.194950     1.187307     1.179664
      1.172021     1.164377     1.156734     1.149091     1.141448     1.133805     1.126162     1.118519     1.110876     1.103233
      1.095590     1.087946     1.080303     1.072660     1.065017     1.057374     1.049731     1.042088     1.034445     1.026802
      1.019158     1.011515     1.003872     0.996229     0.988586     0.980943     0.973300     0.965657     0.958014     0.950371
      0.942727     0.935084     0.927441     0.919798     0.912155     0.904512     0.896869     0.889226     0.881583     0.873940
      0.866296     0.858653     0.851010     0.843367     0.835724     0.828081     0.820438     0.812795     0.805152     0.797508
      0.789865     0.782222     0.774579     0.766936     0.759293     0.751650     0.744007     0.736364     0.728721     0.721077
      0.713434     0.705791     0.698148     0.690505     0.682862     0.675219     0.667576     0.659933     0.652290     0.644646
      0.637003     0.629360     0.621717     0.614074     0.606431     0.598788     0.591145     0.583502     0.575858     0.568215
      0.560572     0.552929     0.545286     0.537643     0.530000     0.522357     0.514714     0.507071     0.499427     0.491784
      0.484141     0.476498     0.468855     0.461212     0.453569     0.445925     0.438282     0.430639     0.422996     0.415353
      0.407710     0.400067     0.392424     0.384780     0.377137     0.369494     0.361851     0.354208     0.346565     0.338922
      0.331278     0.323635     0.315992     0.308349     0.300706     0.293063     0.285420     0.277777     0.270133     0.262490
      0.254847     0.247204     0.239561     0.231918     0.224275     0.216631     0.208988     0.201345
 NY phased data points follow
  -7.28016E+00 -5.99510E+00 -6.49694E+00 -5.30054E+00 -5.11736E+00 -4.86876E+00 -5.02433E+00 -4.80152E+00 -3.20774E+00 -3.95976E+00
  -4.52332E+00 -2.90706E+00 -3.31223E+00 -1.36537E+00 -3.23995E+00 -2.42086E+00 -2.39194E+00 -2.44451E+00 -1.65095E+00 -3.54743E+00
  -1.72720E+00 -1.60748E+00 -5.67705E-01 -2.20794E+00 -2.21736E+00 -1.45871E+00 -1.06288E-01 -1.06258E+00 -2.84527E-01 -7.17346E-01
  -5.66264E-01  7.49600E-01  6.53923E-01 -3.11924E-01  7.55143E-01 -2.07376E-01 -4.81386E-01  1.46414E+00 -2.41294E-01  1.36015E+00
  -8.34553E-01  8.30507E-01  2.98546E-01  1.12792E+00  1.38460E+00  6.56943E-01  5.79642E-01  9.91684E-01  9.54808E-01  1.62566E+00
   2.87041E+00  1.83781E+00  2.64816E+00  1.59487E+00  1.00203E+00  6.07041E-02  8.39263E-01  1.63159E+00  1.74880E+00  1.82165E+00
   1.98173E+00  2.39093E+00  1.31739E+00  1.29624E+00  6.23619E-01  2.20743E+00  2.67534E+00  1.78690E+00  1.30417E+00  9.26906E-01
   3.28668E+00  1.90999E+00  1.16534E+00  2.16923E+00  2.16313E+00  1.81585E+00  1.33642E+00  1.45737E+00  2.77402E+00  2.22162E+00
   2.79185E+00  1.30733E-01  1.98027E+00  2.94561E+00  8.43766E-01  2.74500E+00  2.27877E+00  2.49768E+00  3.03712E+00  2.54010E+00
   3.40672E+00  1.18952E+00  2.55847E+00  2.79645E+00  2.66464E+00  3.25910E+00  2.14248E+00  4.64412E+00  2.53379E+00  4.25669E+00
   1.51325E+00  3.86098E+00  2.74872E+00  2.09815E+00  2.29558E+00  3.09814E+00  3.40709E+00  3.38256E+00  3.55100E+00  2.04303E+00
   5.39378E-01  1.69111E+00  2.32111E+00  2.33582E+00  1.14281E+00  2.11382E+00  2.70443E+00  2.83891E+00  2.63147E+00  3.05229E+00
   2.46776E+00  3.75594E+00  1.90118E+00  2.27209E+00  2.25563E+00  2.02094E+00  3.61307E+00  2.51200E+00  2.79784E+00  2.11697E+00
   2.74571E+00  1.97147E+00  2.37254E+00  1.96281E+00  1.83216E+00  7.87131E-01 -3.73550E-01  1.23072E+00  1.52850E+00  1.57109E+00
   3.01282E+00  1.69887E+00  2.30806E+00  1.52112E+00  2.98168E+00  1.90327E+00  9.42337E-01  2.13490E+00  2.12387E+00  1.91845E+00
   1.58135E+00  1.51553E+00  2.23402E+00  2.06944E+00  1.36198E+00  2.20110E+00  2.41172E+00  2.70840E+00  2.29662E+00  3.16073E+00
   2.65631E+00  2.43927E+00  2.73454E+00  3.07951E+00  1.40668E+00  2.06914E+00  1.62457E+00  2.42355E+00  2.42560E+00  2.01026E+00
   3.16070E+00  2.77389E+00  2.58746E+00  2.45659E+00  2.08753E+00  2.41122E+00  1.61464E+00  3.27985E+00  2.98165E+00  1.83712E+00
   3.42047E+00  3.41829E+00  1.90140E+00  2.61483E+00  1.74999E+00  3.24296E+00  1.66323E+00  3.05364E+00  2.38273E+00  2.38597E+00
   1.82059E+00  2.91348E+00  3.04764E+00  3.17918E+00  3.74551E+00  3.60638E+00  3.42630E+00  2.09919E+00  2.70982E+00  3.18000E+00
   3.78483E+00  1.31073E+00  1.88258E+00  2.10154E+00  1.06431E+00  2.95993E+00  2.23103E+00  1.89350E+00  1.90084E+00  2.38417E+00
   2.01778E+00  1.31826E+00  1.88704E+00  1.37363E+00  1.00114E+00  1.66302E+00  2.29543E+00  9.04845E-01  2.32513E+00  9.45804E-01
   8.71413E-01  2.60091E+00  6.68494E-01  1.23294E+00  1.30732E+00  1.34006E+00  1.75916E+00  2.21107E+00  1.86685E+00  1.64366E+00
   2.77868E+00  7.89149E-01  1.53676E+00  1.89289E+00  1.09819E+00  1.80646E+00  3.52912E+00  2.51259E+00  2.61262E+00  2.73124E+00
   4.26551E+00  2.95598E+00  3.04362E+00  3.34173E+00  4.36684E+00  3.49690E+00  3.60644E+00  2.74634E+00  3.15234E+00  3.83924E+00
   3.47938E+00  3.84498E+00  3.67555E+00  2.75038E+00  5.64631E+00  5.35199E+00  3.66045E+00  4.11301E+00  4.58192E+00  4.32373E+00
   4.38018E+00  4.69481E+00  5.07806E+00  5.28985E+00  4.79321E+00  3.77908E+00  3.55523E+00  2.34577E+00  2.53835E+00  4.35387E+00
   4.68233E+00  4.30108E+00  5.08410E+00  4.07078E+00  5.81517E+00  4.74624E+00  5.74060E+00  5.92999E+00  5.89764E+00  6.27747E+00
   5.91530E+00  5.98913E+00  7.42539E+00  7.20926E+00  5.95985E+00  6.91440E+00  6.49722E+00  7.78642E+00  7.92242E+00  7.69977E+00
   8.36925E+00  8.80924E+00  9.91364E+00  8.77942E+00  9.00817E+00  9.29921E+00  9.38210E+00  1.05297E+01  1.02517E+01  1.06095E+01
   1.07649E+01  1.00184E+01  1.00516E+01  1.12790E+01  1.18699E+01  1.23290E+01  1.23664E+01  1.31439E+01  1.27055E+01  1.37593E+01
   1.43200E+01  1.37517E+01  1.30672E+01  1.36057E+01  1.34213E+01  1.35369E+01  1.36838E+01  1.39747E+01  1.37019E+01  1.39821E+01
   1.41018E+01  1.26250E+01  1.24172E+01  1.33001E+01  1.38652E+01  1.23908E+01  1.35234E+01  1.15777E+01  1.16543E+01  1.15474E+01
   1.16727E+01  1.27956E+01  1.22090E+01  1.31134E+01  1.31655E+01  1.25622E+01  1.11719E+01  1.20334E+01  1.20550E+01  1.22032E+01
   1.11871E+01  1.26467E+01  1.06585E+01  1.14304E+01  1.17223E+01  1.05810E+01  1.11860E+01  1.03191E+01  1.19669E+01  9.99704E+00
   1.14256E+01  1.11360E+01  9.52571E+00  8.95922E+00  1.04850E+01  9.61710E+00  9.77120E+00  1.07781E+01  9.47842E+00  9.70247E+00
   8.33302E+00  1.05790E+01  9.79589E+00  7.67111E+00  8.54385E+00  8.37951E+00  8.97110E+00  8.88962E+00  9.77899E+00  8.30646E+00
   7.36551E+00  9.76826E+00  8.27377E+00  7.76579E+00  8.81703E+00  6.47553E+00  7.36839E+00  7.52656E+00  6.48900E+00  7.95233E+00
   6.44886E+00  7.36594E+00  6.68272E+00  6.54688E+00  5.70706E+00  7.04958E+00  5.66352E+00  6.10755E+00  6.23287E+00  5.09711E+00
   5.78048E+00  6.04044E+00  6.62872E+00  6.66485E+00  5.32452E+00  5.02471E+00  5.90247E+00  5.30049E+00  5.34635E+00  5.80315E+00
   7.21412E+00  4.42553E+00  5.50571E+00  5.83148E+00  5.17387E+00  5.63495E+00  6.34384E+00  6.25462E+00  6.56922E+00  7.07000E+00
   6.57052E+00  5.02135E+00  6.54447E+00  5.75912E+00  5.50186E+00  6.47960E+00  4.39143E+00  5.43426E+00  4.18007E+00  4.42182E+00
   5.16978E+00  5.69249E+00  6.29272E+00  4.80055E+00  5.36508E+00  4.12692E+00  5.19203E+00  5.38740E+00  3.79822E+00  3.89068E+00
   4.35480E+00  4.45265E+00  4.43752E+00  4.83159E+00  5.66733E+00  6.01607E+00  3.65993E+00  4.85300E+00  4.50128E+00  4.64535E+00
   6.44267E+00  3.53149E+00  4.32040E+00  3.59003E+00  4.38642E+00  4.56688E+00  3.54653E+00  5.06313E+00  4.12946E+00  4.80244E+00
   4.92524E+00  5.47759E+00  5.46731E+00  3.89889E+00  3.72583E+00  4.83301E+00  4.24250E+00  3.10977E+00  3.12433E+00  3.92686E+00
   4.06990E+00  4.82386E+00  2.25295E+00  4.13660E+00  4.35588E+00  4.36230E+00  2.62320E+00  4.06251E+00  3.72244E+00  4.79293E+00
   4.13583E+00  4.81995E+00  3.35466E+00  3.86691E+00  2.76735E+00  3.80617E+00  3.21814E+00  3.39402E+00  3.32289E+00  4.08338E+00
   4.55643E+00  4.40715E+00  3.80828E+00  3.56074E+00  3.86743E+00  4.41816E+00  2.62957E+00  4.15135E+00  4.19363E+00  5.27432E+00
   3.24979E+00  4.03925E+00  3.51466E+00  4.40999E+00  3.39765E+00  3.44806E+00  4.74305E+00  3.54907E+00
 NY points of the fit to the data follow
  -4.43010E+00 -4.21863E+00 -4.33811E+00 -4.09986E+00 -4.14333E+00 -3.85612E+00 -3.84394E+00 -3.53996E+00 -3.53438E+00 -3.34507E+00
  -3.38728E+00 -3.30983E+00 -3.34810E+00 -3.25805E+00 -3.21144E+00 -3.04936E+00 -2.85556E+00 -2.69896E+00 -2.39214E+00 -2.32882E+00
  -1.97843E+00 -1.97913E+00 -1.58303E+00 -1.68784E+00 -1.24534E+00 -1.44885E+00 -9.56082E-01 -1.23568E+00 -6.84673E-01 -9.83771E-01
  -3.50148E-01 -6.59313E-01  1.42327E-02 -3.16088E-01  3.49450E-01 -9.07652E-03  6.04793E-01  2.13234E-01  7.51227E-01  3.48900E-01
   8.03844E-01  4.56767E-01  8.85601E-01  6.35828E-01  1.05075E+00  8.96583E-01  1.26816E+00  1.17079E+00  1.40606E+00  1.22512E+00
   1.33819E+00  1.14503E+00  1.20690E+00  1.07084E+00  1.14338E+00  1.10662E+00  1.23766E+00  1.20659E+00  1.33465E+00  1.28926E+00
   1.39807E+00  1.36214E+00  1.44670E+00  1.38712E+00  1.46707E+00  1.40775E+00  1.49192E+00  1.44816E+00  1.55095E+00  1.52931E+00
   1.64568E+00  1.61092E+00  1.70567E+00  1.64562E+00  1.72062E+00  1.64277E+00  1.70541E+00  1.61952E+00  1.67965E+00  1.59478E+00
   1.65086E+00  1.57434E+00  1.63333E+00  1.56529E+00  1.65543E+00  1.64519E+00  1.72800E+00  1.77598E+00  1.83277E+00  1.94202E+00
   1.96677E+00  2.13686E+00  2.12438E+00  2.34760E+00  2.29845E+00  2.56451E+00  2.46962E+00  2.76564E+00  2.62446E+00  2.93794E+00
   2.75190E+00  3.06731E+00  2.84198E+00  3.14221E+00  2.88952E+00  3.15970E+00  2.89311E+00  3.12212E+00  2.85477E+00  3.03301E+00
   2.77462E+00  2.90812E+00  2.67569E+00  2.77568E+00  2.57596E+00  2.64691E+00  2.48673E+00  2.52209E+00  2.39738E+00  2.39502E+00
   2.30209E+00  2.27207E+00  2.22374E+00  2.19156E+00  2.20166E+00  2.19700E+00  2.21751E+00  2.20928E+00  2.23663E+00  2.22097E+00
   2.25400E+00  2.23037E+00  2.26790E+00  2.23652E+00  2.27753E+00  2.23952E+00  2.28278E+00  2.23931E+00  2.28354E+00  2.23678E+00
   2.27975E+00  2.23103E+00  2.26973E+00  2.22058E+00  2.25325E+00  2.20509E+00  2.23021E+00  2.18504E+00  2.20241E+00  2.16190E+00
   2.17298E+00  2.13899E+00  2.14555E+00  2.11920E+00  2.12249E+00  2.10389E+00  2.10385E+00  2.08684E+00  2.07831E+00  2.06343E+00
   2.04944E+00  2.03856E+00  2.02515E+00  2.01808E+00  2.00767E+00  2.00166E+00  1.99274E+00  1.98554E+00  1.97687E+00  1.96914E+00
   1.96091E+00  1.95428E+00  1.94912E+00  1.94632E+00  1.94612E+00  1.94709E+00  1.95012E+00  1.95375E+00  1.95914E+00  1.96435E+00
   1.96989E+00  1.98101E+00  1.99065E+00  2.01118E+00  2.02848E+00  2.06310E+00  2.09510E+00  2.15117E+00  2.17847E+00  2.24220E+00
   2.26266E+00  2.28291E+00  2.29961E+00  2.27022E+00  2.30985E+00  2.27845E+00  2.40687E+00  2.50265E+00  2.67443E+00  2.82356E+00
   2.97261E+00  3.10726E+00  3.15105E+00  3.15235E+00  3.04000E+00  2.98734E+00  2.81832E+00  2.75697E+00  2.58483E+00  2.53988E+00
   2.38281E+00  2.35801E+00  2.20150E+00  2.16772E+00  2.01148E+00  1.95645E+00  1.82348E+00  1.75469E+00  1.68310E+00  1.62256E+00
   1.65025E+00  1.60714E+00  1.72800E+00  1.71552E+00  1.88254E+00  1.92909E+00  2.11664E+00  2.20189E+00  2.35089E+00  2.44633E+00
   2.54389E+00  2.60208E+00  2.64483E+00  2.73117E+00  2.78328E+00  2.98642E+00  3.06395E+00  3.40585E+00  3.40892E+00  3.70819E+00
   3.59679E+00  3.82085E+00  3.60847E+00  3.74120E+00  3.50513E+00  3.67036E+00  3.51725E+00  3.68040E+00  3.62152E+00  3.76064E+00
   3.77811E+00  3.87339E+00  3.94407E+00  3.98297E+00  4.11944E+00  4.12351E+00  4.32843E+00  4.29914E+00  4.55845E+00  4.48226E+00
   4.76907E+00  4.63335E+00  4.91319E+00  4.75182E+00  5.01538E+00  4.87116E+00  5.13396E+00  5.01427E+00  5.25304E+00  5.16138E+00
   5.36117E+00  5.27887E+00  5.43120E+00  5.37702E+00  5.50928E+00  5.48981E+00  5.60119E+00  5.60418E+00  5.69905E+00  5.71538E+00
   5.81359E+00  5.87897E+00  6.00361E+00  6.12404E+00  6.27690E+00  6.45519E+00  6.63443E+00  6.85256E+00  7.07089E+00  7.32356E+00
   7.57254E+00  7.84974E+00  8.12011E+00  8.40865E+00  8.69150E+00  8.98137E+00  9.25618E+00  9.52336E+00  9.77043E+00  1.00011E+01
   1.02121E+01  1.04059E+01  1.05887E+01  1.07675E+01  1.09527E+01  1.11579E+01  1.14029E+01  1.17203E+01  1.21748E+01  1.27706E+01
   1.30811E+01  1.36467E+01  1.36884E+01  1.41135E+01  1.38292E+01  1.40250E+01  1.33736E+01  1.36940E+01  1.30094E+01  1.34157E+01
   1.27199E+01  1.31164E+01  1.24126E+01  1.27543E+01  1.20749E+01  1.23439E+01  1.17775E+01  1.20481E+01  1.18209E+01  1.23524E+01
   1.22567E+01  1.26559E+01  1.26532E+01  1.27821E+01  1.28170E+01  1.25459E+01  1.25452E+01  1.23130E+01  1.23849E+01  1.21316E+01
   1.22077E+01  1.18897E+01  1.19580E+01  1.16193E+01  1.17144E+01  1.14175E+01  1.15852E+01  1.13860E+01  1.15857E+01  1.14605E+01
   1.13724E+01  1.10839E+01  1.08283E+01  1.05027E+01  1.01404E+01  9.86416E+00  9.49384E+00  9.47541E+00  9.27088E+00  9.21106E+00
   9.02664E+00  8.88771E+00  8.73386E+00  8.57770E+00  8.50517E+00  8.43492E+00  8.47967E+00  8.53128E+00  8.63571E+00  8.73412E+00
   8.59951E+00  8.32248E+00  8.04730E+00  7.55320E+00  7.21733E+00  6.70320E+00  6.42529E+00  6.26225E+00  6.15237E+00  6.07471E+00
   6.01904E+00  5.98000E+00  5.95392E+00  5.93874E+00  5.93262E+00  5.93454E+00  5.94320E+00  5.95795E+00  5.97769E+00  6.00185E+00
   6.02929E+00  6.05931E+00  6.09063E+00  6.12239E+00  6.15322E+00  6.18217E+00  6.20780E+00  6.22916E+00  6.24489E+00  6.25422E+00
   6.25609E+00  6.25008E+00  6.23553E+00  6.21249E+00  6.18080E+00  6.14103E+00  6.09353E+00  6.03931E+00  5.97910E+00  5.91421E+00
   5.84555E+00  5.77456E+00  5.70218E+00  5.62974E+00  5.55797E+00  5.48799E+00  5.42025E+00  5.35557E+00  5.29411E+00  5.23636E+00
   5.18217E+00  5.13180E+00  5.08492E+00  5.04159E+00  5.00137E+00  4.96421E+00  4.92960E+00  4.89750E+00  4.86738E+00  4.83924E+00
   4.81257E+00  4.78738E+00  4.76322E+00  4.74017E+00  4.71783E+00  4.69629E+00  4.67521E+00  4.65471E+00  4.63448E+00  4.61469E+00
   4.59505E+00  4.57573E+00  4.55647E+00  4.53746E+00  4.51843E+00  4.49962E+00  4.48077E+00  4.46209E+00  4.44334E+00  4.42474E+00
   4.40605E+00  4.38752E+00  4.36890E+00  4.35042E+00  4.33184E+00  4.31341E+00  4.29489E+00  4.27652E+00  4.25807E+00  4.23977E+00
   4.22140E+00  4.20320E+00  4.18493E+00  4.16686E+00  4.14873E+00  4.13079E+00  4.11281E+00  4.09505E+00  4.07727E+00  4.05972E+00
   4.04217E+00  4.02487E+00  4.00757E+00  3.99056E+00  3.97358E+00  3.95690E+00  3.94027E+00  3.92396E+00  3.90774E+00  3.89187E+00
   3.87611E+00  3.86074E+00  3.84551E+00  3.83069E+00  3.81607E+00  3.80192E+00  3.78800E+00  3.77460E+00  3.76150E+00  3.74898E+00
   3.73684E+00  3.72538E+00  3.71440E+00  3.70422E+00  3.69467E+00  3.68612E+00  3.67844E+00  3.67205E+00
 NY background values follow
    -5.226E+00   -5.129E+00   -5.033E+00   -4.936E+00   -4.840E+00   -4.745E+00   -4.649E+00   -4.554E+00   -4.459E+00   -4.365E+00
    -4.270E+00   -4.176E+00   -4.083E+00   -3.989E+00   -3.896E+00   -3.804E+00   -3.711E+00   -3.619E+00   -3.528E+00   -3.436E+00
    -3.345E+00   -3.255E+00   -3.165E+00   -3.075E+00   -2.986E+00   -2.897E+00   -2.809E+00   -2.721E+00   -2.634E+00   -2.547E+00
    -2.460E+00   -2.374E+00   -2.289E+00   -2.204E+00   -2.119E+00   -2.035E+00   -1.952E+00   -1.869E+00   -1.787E+00   -1.705E+00
    -1.624E+00   -1.543E+00   -1.464E+00   -1.384E+00   -1.305E+00   -1.227E+00   -1.150E+00   -1.073E+00   -9.968E-01   -9.212E-01
    -8.463E-01   -7.722E-01   -6.986E-01   -6.258E-01   -5.537E-01   -4.824E-01   -4.117E-01   -3.418E-01   -2.726E-01   -2.042E-01
    -1.366E-01   -6.968E-02   -3.587E-03    6.172E-02    1.262E-01    1.899E-01    2.528E-01    3.148E-01    3.760E-01    4.364E-01
     4.959E-01    5.545E-01    6.122E-01    6.691E-01    7.250E-01    7.801E-01    8.343E-01    8.875E-01    9.398E-01    9.911E-01
     1.041E+00    1.091E+00    1.139E+00    1.187E+00    1.233E+00    1.279E+00    1.323E+00    1.367E+00    1.409E+00    1.451E+00
     1.491E+00    1.530E+00    1.568E+00    1.606E+00    1.642E+00    1.677E+00    1.711E+00    1.743E+00    1.775E+00    1.806E+00
     1.835E+00    1.863E+00    1.890E+00    1.916E+00    1.941E+00    1.965E+00    1.988E+00    2.010E+00    2.031E+00    2.051E+00
     2.069E+00    2.087E+00    2.104E+00    2.120E+00    2.136E+00    2.150E+00    2.163E+00    2.176E+00    2.188E+00    2.199E+00
     2.209E+00    2.218E+00    2.227E+00    2.235E+00    2.242E+00    2.248E+00    2.254E+00    2.259E+00    2.264E+00    2.267E+00
     2.271E+00    2.273E+00    2.275E+00    2.277E+00    2.278E+00    2.278E+00    2.278E+00    2.278E+00    2.277E+00    2.275E+00
     2.274E+00    2.271E+00    2.269E+00    2.266E+00    2.262E+00    2.258E+00    2.254E+00    2.250E+00    2.245E+00    2.241E+00
     2.235E+00    2.230E+00    2.224E+00    2.219E+00    2.213E+00    2.207E+00    2.200E+00    2.194E+00    2.188E+00    2.181E+00
     2.175E+00    2.168E+00    2.161E+00    2.155E+00    2.148E+00    2.141E+00    2.135E+00    2.128E+00    2.122E+00    2.116E+00
     2.109E+00    2.103E+00    2.097E+00    2.092E+00    2.086E+00    2.081E+00    2.076E+00    2.071E+00    2.066E+00    2.062E+00
     2.058E+00    2.054E+00    2.051E+00    2.048E+00    2.046E+00    2.043E+00    2.042E+00    2.040E+00    2.039E+00    2.039E+00
     2.039E+00    2.039E+00    2.041E+00    2.042E+00    2.044E+00    2.047E+00    2.050E+00    2.054E+00    2.059E+00    2.064E+00
     2.070E+00    2.077E+00    2.084E+00    2.092E+00    2.100E+00    2.109E+00    2.119E+00    2.129E+00    2.140E+00    2.151E+00
     2.163E+00    2.176E+00    2.189E+00    2.203E+00    2.217E+00    2.232E+00    2.247E+00    2.263E+00    2.279E+00    2.296E+00
     2.313E+00    2.331E+00    2.349E+00    2.368E+00    2.387E+00    2.406E+00    2.426E+00    2.447E+00    2.468E+00    2.489E+00
     2.510E+00    2.532E+00    2.555E+00    2.578E+00    2.601E+00    2.624E+00    2.648E+00    2.672E+00    2.696E+00    2.721E+00
     2.746E+00    2.772E+00    2.797E+00    2.823E+00    2.849E+00    2.876E+00    2.902E+00    2.929E+00    2.957E+00    2.984E+00
     3.012E+00    3.039E+00    3.067E+00    3.096E+00    3.124E+00    3.153E+00    3.181E+00    3.210E+00    3.239E+00    3.268E+00
     3.298E+00    3.327E+00    3.356E+00    3.386E+00    3.416E+00    3.446E+00    3.475E+00    3.505E+00    3.535E+00    3.565E+00
     3.595E+00    3.626E+00    3.656E+00    3.686E+00    3.716E+00    3.746E+00    3.776E+00    3.806E+00    3.836E+00    3.866E+00
     3.896E+00    3.926E+00    3.956E+00    3.986E+00    4.015E+00    4.045E+00    4.075E+00    4.104E+00    4.133E+00    4.162E+00
     4.191E+00    4.220E+00    4.249E+00    4.277E+00    4.306E+00    4.334E+00    4.362E+00    4.390E+00    4.417E+00    4.445E+00
     4.472E+00    4.499E+00    4.525E+00    4.552E+00    4.578E+00    4.604E+00    4.630E+00    4.656E+00    4.681E+00    4.706E+00
     4.731E+00    4.755E+00    4.780E+00    4.804E+00    4.828E+00    4.851E+00    4.874E+00    4.898E+00    4.920E+00    4.943E+00
     4.965E+00    4.987E+00    5.009E+00    5.030E+00    5.051E+00    5.072E+00    5.093E+00    5.113E+00    5.133E+00    5.153E+00
     5.172E+00    5.191E+00    5.210E+00    5.228E+00    5.246E+00    5.264E+00    5.282E+00    5.299E+00    5.316E+00    5.333E+00
     5.349E+00    5.365E+00    5.380E+00    5.396E+00    5.411E+00    5.425E+00    5.440E+00    5.454E+00    5.467E+00    5.480E+00
     5.493E+00    5.506E+00    5.518E+00    5.530E+00    5.542E+00    5.553E+00    5.564E+00    5.574E+00    5.584E+00    5.594E+00
     5.603E+00    5.612E+00    5.621E+00    5.629E+00    5.637E+00    5.644E+00    5.651E+00    5.658E+00    5.664E+00    5.670E+00
     5.675E+00    5.681E+00    5.685E+00    5.690E+00    5.693E+00    5.697E+00    5.700E+00    5.703E+00    5.705E+00    5.707E+00
     5.708E+00    5.709E+00    5.710E+00    5.710E+00    5.710E+00    5.709E+00    5.708E+00    5.706E+00    5.704E+00    5.702E+00
     5.699E+00    5.696E+00    5.692E+00    5.688E+00    5.683E+00    5.678E+00    5.673E+00    5.667E+00    5.660E+00    5.653E+00
     5.646E+00    5.638E+00    5.630E+00    5.622E+00    5.613E+00    5.603E+00    5.593E+00    5.583E+00    5.572E+00    5.561E+00
     5.550E+00    5.538E+00    5.526E+00    5.514E+00    5.501E+00    5.488E+00    5.474E+00    5.461E+00    5.447E+00    5.432E+00
     5.417E+00    5.402E+00    5.387E+00    5.372E+00    5.356E+00    5.340E+00    5.324E+00    5.307E+00    5.290E+00    5.273E+00
     5.256E+00    5.239E+00    5.221E+00    5.203E+00    5.185E+00    5.167E+00    5.148E+00    5.130E+00    5.111E+00    5.092E+00
     5.073E+00    5.054E+00    5.034E+00    5.015E+00    4.995E+00    4.976E+00    4.956E+00    4.936E+00    4.916E+00    4.896E+00
     4.876E+00    4.855E+00    4.835E+00    4.815E+00    4.794E+00    4.774E+00    4.753E+00    4.733E+00    4.712E+00    4.691E+00
     4.671E+00    4.650E+00    4.630E+00    4.609E+00    4.589E+00    4.568E+00    4.548E+00    4.527E+00    4.507E+00    4.486E+00
     4.466E+00    4.446E+00    4.426E+00    4.406E+00    4.386E+00    4.366E+00    4.346E+00    4.326E+00    4.307E+00    4.287E+00
     4.268E+00    4.249E+00    4.230E+00    4.211E+00    4.192E+00    4.173E+00    4.155E+00    4.137E+00    4.119E+00    4.101E+00
     4.083E+00    4.066E+00    4.048E+00    4.031E+00    4.015E+00    3.998E+00    3.982E+00    3.965E+00
 Ala      Conc. = 1.93E+03
