 LCModel (Version 6.3-1L) Copyright: S.W. Provencher.          Ref.: Magn. Reson. Med. 30:672-679 (1993).                
 Slice#2 Row#1 Col#7  PD_05_press_1_raw_act
 36 lines in following concentration table = NCONC+1
    Conc.  %SD /Cr+PCr  Metabolite                                         
    0.000 999%   0.000 Ala                                                 
    8.630 109%   0.217 Asp                                                 
   29.732  50%   0.746 Cr                                                  
   10.117 130%   0.254 PCr                                                 
    2.297 240% 5.8E-02 GABA                                                
    4.875 117%   0.122 Glc                                                 
    0.000 999%   0.000 Gln                                                 
   56.145  44%   1.409 Glu                                                 
   12.593  32%   0.316 GPC                                                 
    0.000 999%   0.000 PCh                                                 
    9.936  83%   0.249 GSH                                                 
    0.000 999%   0.000 Ins                                                 
    8.150 126%   0.205 Lac                                                 
   39.791  29%   0.999 NAA                                                 
   37.158  33%   0.932 NAAG                                                
    1.871  93% 4.7E-02 Scyllo                                              
    9.064 102%   0.227 Tau                                                 
    0.000 999%   0.000 -CrCH2                                              
   12.593  32%   0.316 GPC+PCh                                             
   76.950  27%   1.931 NAA+NAAG                                            
   39.849  30%   1.000 Cr+PCr                                              
   56.145  44%   1.409 Glu+Gln                                             
  862.840  16%  21.653 Lip13a                                              
    0.000 999%   0.000 Lip13b                                              
  229.159  17%   5.751 Lip09                                               
    0.000 999%   0.000 MM09                                                
  128.857  17%   3.234 Lip20                                               
    0.000 999%   0.000 MM20                                                
   18.292 223%   0.459 MM12                                                
  141.815  90%   3.559 MM14                                                
   56.981 134%   1.430 MM17                                                
  862.840  16%  21.653 Lip13a+Lip13b                                       
 1.02E+03  13%  25.671 MM14+Lip13a+Lip13b+MM12                             
  229.159  17%   5.751 MM09+Lip09                                          
  128.857  17%   3.234 MM20+Lip20                                          
   6 lines in following misc. output table
  FWHM = 0.031 ppm    S/N =   2                                            
  Data shift = 0.038 ppm                                                   
  Ph:-127 deg      27.1 deg/ppm                                            
  alphaB,S = 8.5E+01,   6.4E+00                                            
   14 spline knots.   Ns = 5(1)                                            
   2 inflections.     2 extrema                                            
  498 points on ppm-axis = NY
      4.000000     3.992357     3.984714     3.977070     3.969427     3.961784     3.954141     3.946497     3.938854     3.931211
      3.923568     3.915925     3.908281     3.900638     3.892995     3.885352     3.877708     3.870065     3.862422     3.854779
      3.847136     3.839492     3.831849     3.824206     3.816563     3.808919     3.801276     3.793633     3.785990     3.778347
      3.770703     3.763060     3.755417     3.747774     3.740130     3.732487     3.724844     3.717201     3.709558     3.701914
      3.694271     3.686628     3.678985     3.671341     3.663698     3.656055     3.648412     3.640769     3.633125     3.625482
      3.617839     3.610196     3.602552     3.594909     3.587266     3.579623     3.571980     3.564336     3.556693     3.549050
      3.541407     3.533763     3.526120     3.518477     3.510834     3.503191     3.495547     3.487904     3.480261     3.472618
      3.464974     3.457331     3.449688     3.442045     3.434402     3.426758     3.419115     3.411472     3.403829     3.396185
      3.388542     3.380899     3.373256     3.365613     3.357969     3.350326     3.342683     3.335040     3.327396     3.319753
      3.312110     3.304467     3.296824     3.289180     3.281537     3.273894     3.266251     3.258607     3.250964     3.243321
      3.235678     3.228034     3.220391     3.212748     3.205105     3.197462     3.189818     3.182175     3.174532     3.166889
      3.159245     3.151602     3.143959     3.136316     3.128673     3.121029     3.113386     3.105743     3.098100     3.090456
      3.082813     3.075170     3.067527     3.059884     3.052240     3.044597     3.036954     3.029311     3.021667     3.014024
      3.006381     2.998738     2.991095     2.983451     2.975808     2.968165     2.960522     2.952878     2.945235     2.937592
      2.929949     2.922306     2.914662     2.907019     2.899376     2.891733     2.884089     2.876446     2.868803     2.861160
      2.853517     2.845873     2.838230     2.830587     2.822944     2.815300     2.807657     2.800014     2.792371     2.784728
      2.777084     2.769441     2.761798     2.754155     2.746511     2.738868     2.731225     2.723582     2.715939     2.708295
      2.700652     2.693009     2.685366     2.677722     2.670079     2.662436     2.654793     2.647150     2.639506     2.631863
      2.624220     2.616577     2.608933     2.601290     2.593647     2.586004     2.578361     2.570717     2.563074     2.555431
      2.547788     2.540144     2.532501     2.524858     2.517215     2.509572     2.501928     2.494285     2.486642     2.478999
      2.471355     2.463712     2.456069     2.448426     2.440783     2.433139     2.425496     2.417853     2.410210     2.402566
      2.394923     2.387280     2.379637     2.371994     2.364350     2.356707     2.349064     2.341421     2.333777     2.326134
      2.318491     2.310848     2.303205     2.295561     2.287918     2.280275     2.272632     2.264988     2.257345     2.249702
      2.242059     2.234416     2.226772     2.219129     2.211486     2.203843     2.196199     2.188556     2.180913     2.173270
      2.165627     2.157983     2.150340     2.142697     2.135054     2.127410     2.119767     2.112124     2.104481     2.096838
      2.089194     2.081551     2.073908     2.066265     2.058621     2.050978     2.043335     2.035692     2.028049     2.020405
      2.012762     2.005119     1.997476     1.989833     1.982190     1.974546     1.966903     1.959260     1.951617     1.943974
      1.936331     1.928688     1.921045     1.913402     1.905759     1.898115     1.890472     1.882829     1.875186     1.867543
      1.859900     1.852257     1.844614     1.836971     1.829327     1.821684     1.814041     1.806398     1.798755     1.791112
      1.783469     1.775826     1.768183     1.760540     1.752896     1.745253     1.737610     1.729967     1.722324     1.714681
      1.707038     1.699395     1.691752     1.684108     1.676465     1.668822     1.661179     1.653536     1.645893     1.638250
      1.630607     1.622964     1.615321     1.607677     1.600034     1.592391     1.584748     1.577105     1.569462     1.561819
      1.554176     1.546533     1.538890     1.531246     1.523603     1.515960     1.508317     1.500674     1.493031     1.485388
      1.477745     1.470102     1.462458     1.454815     1.447172     1.439529     1.431886     1.424243     1.416600     1.408957
      1.401314     1.393671     1.386027     1.378384     1.370741     1.363098     1.355455     1.347812     1.340169     1.332526
      1.324883     1.317240     1.309596     1.301953     1.294310     1.286667     1.279024     1.271381     1.263738     1.256095
      1.248452     1.240808     1.233165     1.225522     1.217879     1.210236     1.202593     1.194950     1.187307     1.179664
      1.172021     1.164377     1.156734     1.149091     1.141448     1.133805     1.126162     1.118519     1.110876     1.103233
      1.095590     1.087946     1.080303     1.072660     1.065017     1.057374     1.049731     1.042088     1.034445     1.026802
      1.019158     1.011515     1.003872     0.996229     0.988586     0.980943     0.973300     0.965657     0.958014     0.950371
      0.942727     0.935084     0.927441     0.919798     0.912155     0.904512     0.896869     0.889226     0.881583     0.873940
      0.866296     0.858653     0.851010     0.843367     0.835724     0.828081     0.820438     0.812795     0.805152     0.797508
      0.789865     0.782222     0.774579     0.766936     0.759293     0.751650     0.744007     0.736364     0.728721     0.721077
      0.713434     0.705791     0.698148     0.690505     0.682862     0.675219     0.667576     0.659933     0.652290     0.644646
      0.637003     0.629360     0.621717     0.614074     0.606431     0.598788     0.591145     0.583502     0.575858     0.568215
      0.560572     0.552929     0.545286     0.537643     0.530000     0.522357     0.514714     0.507071     0.499427     0.491784
      0.484141     0.476498     0.468855     0.461212     0.453569     0.445925     0.438282     0.430639     0.422996     0.415353
      0.407710     0.400067     0.392424     0.384780     0.377137     0.369494     0.361851     0.354208     0.346565     0.338922
      0.331278     0.323635     0.315992     0.308349     0.300706     0.293063     0.285420     0.277777     0.270133     0.262490
      0.254847     0.247204     0.239561     0.231918     0.224275     0.216631     0.208988     0.201345
 NY phased data points follow
  -3.29998E+00 -1.38935E+00 -3.81929E+00 -8.55168E-01 -1.69743E+00  3.04783E+00  4.57053E-01  2.04265E+00  1.63504E+00  8.96351E-01
   5.40545E-01  1.01006E+00  5.58291E-01 -7.90242E-01 -1.53216E+00 -5.50074E-01 -4.91958E+00 -2.52198E+00 -3.31169E+00 -7.18221E-01
  -1.99524E+00 -1.36311E+00 -4.09163E+00  4.32007E-01 -2.08256E+00 -6.74599E-02 -1.23354E+00 -1.07596E+00  2.17284E+00 -7.39052E-01
  -2.49390E+00  1.33914E+00 -3.00095E+00 -1.91411E+00  9.92456E-01 -2.35545E+00 -3.05491E+00 -3.96693E+00 -6.07184E-01 -2.25432E+00
  -1.93635E+00 -1.13258E+00 -1.31113E+00 -6.71211E-01 -2.57477E+00 -2.74365E+00  9.29829E-01 -1.37541E+00 -4.24393E+00 -4.99239E-01
   3.89027E+00 -2.24342E+00 -6.02420E-01 -5.85736E-01  2.64549E-01 -4.65085E+00 -7.62551E-02 -4.33195E-01  7.66649E-01 -2.39923E+00
  -1.90962E+00 -5.34746E-02 -1.19710E+00 -3.21055E+00 -4.59323E-01 -1.93789E+00 -2.74609E+00 -1.60268E+00 -3.85652E+00 -1.77554E+00
   8.29376E-01  1.46371E-01 -1.67205E+00 -1.83011E+00 -8.17214E-01  1.55182E-01  1.04083E-01 -3.88448E+00  4.95398E-01 -2.26380E+00
   4.80015E-01 -1.16878E+00  1.19884E+00 -1.49128E+00 -1.00578E+00 -1.72719E+00 -4.69277E-01 -5.01928E+00 -3.42362E-01 -2.44355E+00
  -1.94116E+00 -2.36826E+00 -2.20008E+00 -2.85090E+00 -3.20858E-01 -2.13391E+00  6.70399E-01  1.00901E+00  2.38991E-01  1.94291E+00
   1.23833E+00  1.09543E+00  2.32237E-01  1.68684E+00 -3.73178E+00 -3.69001E+00 -4.62177E+00 -7.38100E+00 -6.74846E+00 -4.29875E+00
  -1.78585E+00 -6.52096E-01 -3.47706E+00 -3.67871E+00 -2.34324E+00 -4.35842E+00 -2.23737E+00 -6.50927E+00 -1.04157E+00  1.17465E+00
  -1.17263E+00  2.37608E+00  1.30759E+00  3.12169E+00  2.40364E+00  2.01591E+00  4.83447E+00 -2.49449E-01 -3.22218E-01 -2.30757E-01
  -4.24451E+00 -1.40293E+00 -4.08109E+00 -5.81494E+00 -2.98565E+00 -5.00832E+00 -2.89820E+00 -2.19750E+00 -1.11484E+00 -4.90455E+00
  -8.93620E-01 -2.65289E+00 -4.84201E+00 -9.60678E-01  1.74594E-01 -3.22619E+00  2.56940E-01  1.80122E+00 -2.22330E+00 -1.97042E+00
   1.72450E+00 -3.83763E+00 -5.99651E-01 -2.25505E+00 -2.50241E+00 -7.32156E-01 -1.60497E+00 -4.45085E+00  9.33294E-01 -1.04129E+00
  -6.25715E-01 -2.76016E+00 -2.00548E-01 -9.38376E-01 -2.44499E+00  2.59657E-01 -6.55473E-01  4.96580E-01 -1.34465E+00 -1.95339E+00
   2.62639E+00 -4.37208E+00 -1.74494E+00 -4.43806E-01  2.63234E+00 -8.73930E-02  6.09163E-01 -1.31504E+00 -2.64929E+00 -2.52534E+00
   1.10922E+00 -9.75483E-01 -1.77070E+00 -4.61805E-01 -3.12955E-01  1.25624E+00 -1.41255E+00 -2.81272E-01 -7.53881E-02 -9.38325E-01
   1.19959E+00  7.44698E-01  8.85611E-01 -2.85975E-01 -2.52275E+00 -3.20611E-01 -6.76605E-01 -6.89953E-01  4.53848E-01 -7.46388E-01
   3.20405E+00 -2.47337E-01 -4.27186E+00 -1.92672E+00 -1.27135E+00 -2.60405E+00 -4.44023E-01  9.82752E-01  4.27563E-01  3.09534E+00
  -1.65945E+00  8.24005E-01  3.05758E+00 -2.00208E+00 -8.67307E-02 -1.76358E+00 -2.81265E+00 -4.76606E+00 -2.50172E+00 -4.13864E+00
  -2.35813E+00 -2.87211E+00  1.15500E+00 -8.71396E-01 -2.01065E-01  4.82932E-01  1.23296E-01 -1.41087E+00 -6.42456E-01  6.41786E-01
   9.17753E-01 -3.52627E+00 -4.25734E+00 -1.26996E+00 -3.22283E+00 -1.31320E+00  8.81984E-01 -1.00610E+00 -1.59758E+00 -8.14474E-01
  -4.53316E+00 -1.05389E+00  1.34004E+00 -1.14685E-01 -2.72490E-01  1.56975E+00 -3.17392E-01 -1.26777E+00 -3.29685E+00 -2.65234E+00
   4.38606E-01  8.82966E-01  3.26206E+00  5.98782E-01  4.03106E+00  5.66846E+00  1.99464E+00  4.63648E+00  3.16185E-01 -1.36640E+00
  -1.01439E+00 -4.35525E+00 -6.90688E+00 -9.20215E+00 -1.66148E+00 -9.68834E+00 -4.75138E+00  3.79726E-01 -7.07514E-01 -2.62345E+00
   1.14869E+00 -3.52990E+00  2.58084E+00 -3.34519E-01  1.08613E-02  1.88491E+00 -3.20069E+00 -6.11064E-01  1.85034E+00  3.69385E+00
  -1.02535E+00  9.41557E-02 -2.27195E+00  9.33427E-02 -3.97814E-01 -3.50131E+00 -2.24334E+00  3.48473E+00 -1.54060E+00 -6.86307E-01
   4.46502E-01 -4.76373E-01  1.39117E-01 -6.21279E-01 -7.52564E-01 -2.74921E+00  2.86726E+00 -2.30938E-01  8.30411E-01  1.06327E+00
   1.73927E+00 -3.77169E+00 -4.49269E+00 -6.60645E-02 -1.82435E-01 -1.83157E+00 -1.39982E+00  1.91933E+00  2.54771E+00  4.24018E-01
   2.27476E+00  2.27884E+00  1.04199E+00  2.49405E+00 -3.41910E-01 -2.85665E-01 -5.06445E+00 -1.57713E+00  4.11332E-01 -1.58515E+00
  -1.56189E+00 -2.96502E+00  1.00069E-01 -2.74295E-01  2.18211E+00 -3.01575E+00  2.44937E+00  1.54281E+00 -2.97366E-01  1.66767E+00
  -1.66411E+00  3.59100E+00  5.10014E-01  5.98801E-02  7.42692E-01 -2.19145E+00  1.61421E+00 -9.02206E-01  2.16724E+00  4.41564E+00
   2.90590E+00 -7.62746E-01 -2.41836E-01  5.43564E+00  2.71003E+00  3.27855E+00  3.99977E+00  1.84813E+00  4.20966E+00  2.79293E+00
   2.09228E+00  3.60045E+00  2.26813E+00  4.66026E+00  6.86021E+00  5.17110E+00  4.67953E+00  6.76370E+00  4.99141E+00  7.48030E+00
   4.90629E+00  6.80092E+00  6.43850E+00  7.30609E+00  6.72367E+00  6.83592E+00  2.11293E+00  2.84502E+00  4.35846E+00  6.47810E+00
   3.55258E+00  3.31837E+00 -1.01224E+00  2.16744E+00  8.03908E-01  2.84532E+00  1.62339E+00  2.09870E+00  5.60259E-01 -1.75298E+00
  -3.36409E-01  1.15265E+00  1.33195E-01  1.64330E+00  6.40800E-01  1.73525E+00 -2.02451E+00 -2.11396E+00  4.20170E-01  2.03099E+00
  -1.49488E+00  5.18067E-01  2.66814E-01  8.55622E-02 -1.75312E+00  5.68091E-01  3.53606E-01 -1.98706E+00 -9.53049E-01  1.98111E+00
  -3.78138E+00 -9.67979E-01 -1.27677E+00 -3.44658E-01  2.01752E+00 -4.26705E-01 -4.00078E-01  8.42104E-01 -2.17565E+00  2.53123E+00
  -1.35953E+00  8.59017E-01 -4.89903E-01 -2.80671E+00 -3.98127E-01  7.13822E-01 -8.59235E-01  2.92576E-01 -3.46940E-01  6.36414E-01
   4.15943E+00 -2.56438E+00  2.04239E-01  2.98381E-01 -3.70060E+00 -3.06313E-01 -9.13051E-01 -5.68261E-02 -1.31062E-01  1.00675E+00
   9.43878E-01 -4.38420E-01 -1.41073E-01 -8.89490E-03  2.90493E+00  9.44454E-01  1.02982E+00  7.55625E-01  1.81652E+00 -2.01594E+00
   6.84935E-01 -7.30480E-01 -2.25792E+00  1.45854E-01 -6.91627E-01  3.18995E+00  1.18980E+00 -1.08600E+00  1.43635E+00  2.25164E+00
  -2.81709E+00 -1.89775E+00  1.64855E-01 -5.89563E-01  1.91207E+00  1.71183E-01  3.64420E+00  2.39017E+00  2.99532E+00 -2.45032E-01
   3.13837E-01 -2.40012E-01 -3.26784E+00  9.03177E-02  1.71517E+00 -2.12481E+00 -4.10079E-03  8.04632E-01  3.64076E-01 -2.20836E-01
  -6.54859E-01  2.98401E+00  3.42817E-01 -7.42628E-01 -4.65969E-01  1.10202E+00 -1.49350E+00 -5.55165E-01  2.73855E-02 -5.99964E-01
  -3.07954E-01  1.12430E+00  9.03727E-01 -5.34659E-01  1.83915E+00 -2.02325E+00 -2.55030E+00 -1.43193E+00 -2.16884E+00  3.16299E-01
   7.11001E-01  1.82259E+00  9.61244E-01  1.29349E+00 -2.22163E-01  3.91277E-01  1.10681E-02 -1.61851E+00
 NY points of the fit to the data follow
  -1.48631E+00 -1.40733E+00 -1.31202E+00 -1.17150E+00 -8.86764E-01 -5.76120E-01 -1.85304E-01  5.45335E-01  1.11870E+00  1.14693E+00
   6.70581E-01 -1.50156E-01 -1.14475E+00 -2.12842E+00 -2.84083E+00 -3.13283E+00 -3.06555E+00 -2.56271E+00 -1.89208E+00 -1.60378E+00
  -1.51006E+00 -1.40681E+00 -1.36583E+00 -1.45933E+00 -1.56534E+00 -1.45056E+00 -1.18247E+00 -8.78012E-01 -5.87796E-01 -3.94432E-01
  -4.51713E-01 -7.85652E-01 -1.31433E+00 -1.93759E+00 -2.38998E+00 -2.41955E+00 -2.13820E+00 -1.80112E+00 -1.43557E+00 -1.11735E+00
  -9.80754E-01 -1.03575E+00 -1.18058E+00 -1.36435E+00 -1.52405E+00 -1.54974E+00 -1.48831E+00 -1.44416E+00 -1.39301E+00 -1.34121E+00
  -1.33054E+00 -1.35250E+00 -1.38016E+00 -1.43519E+00 -1.50290E+00 -1.53029E+00 -1.51093E+00 -1.48900E+00 -1.47197E+00 -1.45312E+00
  -1.42729E+00 -1.39158E+00 -1.35880E+00 -1.34883E+00 -1.34791E+00 -1.36101E+00 -1.39091E+00 -1.42073E+00 -1.43977E+00 -1.44161E+00
  -1.39052E+00 -1.28414E+00 -1.18842E+00 -1.15283E+00 -1.18530E+00 -1.27093E+00 -1.39387E+00 -1.49109E+00 -1.52444E+00 -1.49729E+00
  -1.39927E+00 -1.17804E+00 -9.41430E-01 -8.34555E-01 -8.54903E-01 -9.68172E-01 -1.13795E+00 -1.31256E+00 -1.46439E+00 -1.58624E+00
  -1.65139E+00 -1.62802E+00 -1.52588E+00 -1.41331E+00 -1.28436E+00 -1.13509E+00 -9.50105E-01 -4.88048E-01  8.55523E-01  2.39469E+00
   3.17955E+00  3.05798E+00  2.13299E+00  5.79894E-01 -1.27758E+00 -2.96696E+00 -4.03729E+00 -4.23466E+00 -3.49029E+00 -2.22969E+00
  -1.53394E+00 -1.37814E+00 -1.32893E+00 -1.29629E+00 -1.26654E+00 -1.25490E+00 -1.24987E+00 -1.23949E+00 -1.22108E+00 -1.18196E+00
  -1.08312E+00 -7.61805E-01  2.37373E-01  1.91180E+00  3.20684E+00  3.56604E+00  2.99355E+00  1.63747E+00 -2.12881E-01 -2.09463E+00
  -3.52650E+00 -4.17103E+00 -3.89747E+00 -2.89296E+00 -1.94074E+00 -1.59934E+00 -1.44502E+00 -1.26135E+00 -1.06894E+00 -9.03480E-01
  -8.16314E-01 -8.29125E-01 -8.98556E-01 -9.89931E-01 -1.06666E+00 -1.10078E+00 -1.10392E+00 -1.09589E+00 -1.08936E+00 -1.11147E+00
  -1.14961E+00 -1.16496E+00 -1.14162E+00 -1.08615E+00 -9.98641E-01 -9.32452E-01 -9.41571E-01 -1.00046E+00 -1.07285E+00 -1.13644E+00
  -1.16307E+00 -1.14926E+00 -1.08906E+00 -1.01896E+00 -9.82591E-01 -1.02237E+00 -1.11883E+00 -1.17516E+00 -1.15054E+00 -1.08103E+00
  -1.02623E+00 -1.04773E+00 -1.12360E+00 -1.17021E+00 -1.18330E+00 -1.18282E+00 -1.18406E+00 -1.16440E+00 -1.14220E+00 -1.10765E+00
  -1.06144E+00 -1.03832E+00 -1.02750E+00 -9.49898E-01 -8.20158E-01 -7.05518E-01 -6.21538E-01 -5.56767E-01 -5.28174E-01 -5.66499E-01
  -6.56346E-01 -8.14258E-01 -1.02198E+00 -1.23988E+00 -1.34488E+00 -1.28792E+00 -1.13644E+00 -9.55549E-01 -7.78460E-01 -6.33816E-01
  -5.45459E-01 -5.22607E-01 -6.04476E-01 -7.65336E-01 -1.01597E+00 -1.27067E+00 -1.46218E+00 -1.57497E+00 -1.55795E+00 -1.32207E+00
  -8.21940E-01 -1.47471E-01  3.31978E-01  4.46404E-01  2.12010E-01 -3.65422E-01 -1.18839E+00 -2.11914E+00 -2.82941E+00 -2.95299E+00
  -2.45248E+00 -1.54167E+00 -5.40980E-01  2.08484E-01  6.67670E-01  7.68093E-01  4.59892E-01 -1.36532E-01 -7.32944E-01 -1.04014E+00
  -1.00972E+00 -8.00396E-01 -5.21188E-01 -2.59719E-01 -1.43363E-01 -2.37921E-01 -5.17705E-01 -9.34717E-01 -1.30581E+00 -1.43817E+00
  -1.28295E+00 -9.09905E-01 -4.54876E-01 -4.34529E-02  1.87665E-01  1.48815E-01 -1.10018E-01 -4.19669E-01 -6.43069E-01 -6.35503E-01
  -1.22856E-01  1.41715E+00  3.20483E+00  4.23110E+00  4.48413E+00  4.74174E+00  4.93307E+00  4.22481E+00  2.77822E+00  1.09492E+00
  -5.71103E-01 -1.85888E+00 -2.64826E+00 -3.45013E+00 -3.88605E+00 -3.36193E+00 -2.05420E+00 -1.06351E+00 -7.70551E-01 -6.16769E-01
  -4.91068E-01 -4.14112E-01 -3.77539E-01 -3.97095E-01 -4.70399E-01 -5.72242E-01 -6.72324E-01 -7.36282E-01 -7.37650E-01 -6.82618E-01
  -6.09383E-01 -5.45929E-01 -5.12112E-01 -5.13227E-01 -5.30778E-01 -5.58174E-01 -5.91911E-01 -6.06512E-01 -5.90369E-01 -5.50172E-01
  -5.02127E-01 -4.59638E-01 -4.23590E-01 -4.03443E-01 -4.04404E-01 -4.15792E-01 -4.25418E-01 -4.22167E-01 -3.97701E-01 -3.63152E-01
  -3.26469E-01 -2.91345E-01 -2.62003E-01 -2.41343E-01 -2.31173E-01 -2.29190E-01 -2.26647E-01 -2.22409E-01 -2.18204E-01 -2.14115E-01
  -2.10823E-01 -2.08102E-01 -2.05431E-01 -2.02246E-01 -1.97913E-01 -1.91796E-01 -1.83356E-01 -1.72194E-01 -1.58028E-01 -1.40794E-01
  -1.20481E-01 -9.68683E-02 -6.98621E-02 -3.94999E-02 -5.88556E-03  3.08759E-02  7.07175E-02  1.13625E-01  1.59653E-01  2.08957E-01
   2.61870E-01  3.18985E-01  3.81187E-01  4.49677E-01  5.26006E-01  6.12109E-01  7.10382E-01  8.23766E-01  9.55877E-01  1.11137E+00
   1.29721E+00  1.52800E+00  1.83359E+00  2.15583E+00  2.37404E+00  2.50519E+00  2.60342E+00  2.70627E+00  2.84746E+00  3.06710E+00
   3.47145E+00  4.08246E+00  4.76852E+00  5.39498E+00  5.82505E+00  6.02651E+00  6.07482E+00  5.99290E+00  5.82079E+00  5.60675E+00
   5.40559E+00  5.26034E+00  5.09857E+00  4.85348E+00  4.55236E+00  4.21580E+00  3.85755E+00  3.48909E+00  3.12048E+00  2.76039E+00
   2.41604E+00  2.09315E+00  1.79591E+00  1.52701E+00  1.28780E+00  1.07845E+00  8.98215E-01  7.45649E-01  6.18794E-01  5.15383E-01
   4.33006E-01  3.69266E-01  3.21881E-01  2.88753E-01  2.67987E-01  2.57907E-01  2.57056E-01  2.64193E-01  2.78266E-01  2.98362E-01
   3.23673E-01  3.53456E-01  3.87020E-01  4.23706E-01  4.62853E-01  5.03779E-01  5.45763E-01  5.88049E-01  6.29864E-01  6.70423E-01
   7.08933E-01  7.44600E-01  7.76655E-01  8.04386E-01  8.27165E-01  8.44468E-01  8.55880E-01  8.61104E-01  8.59987E-01  8.52527E-01
   8.38879E-01  8.19330E-01  7.94288E-01  7.64259E-01  7.29838E-01  6.91697E-01  6.50546E-01  6.07107E-01  5.62082E-01  5.16141E-01
   4.69917E-01  4.23992E-01  3.78877E-01  3.35000E-01  2.92703E-01  2.52254E-01  2.13858E-01  1.77660E-01  1.43741E-01  1.12121E-01
   8.27739E-02  5.56458E-02  3.06645E-02  7.73874E-03 -1.32434E-02 -3.24098E-02 -4.98909E-02 -6.58067E-02 -8.02684E-02 -9.33880E-02
  -1.05281E-01 -1.16061E-01 -1.25827E-01 -1.34662E-01 -1.42641E-01 -1.49836E-01 -1.56323E-01 -1.62172E-01 -1.67436E-01 -1.72158E-01
  -1.76379E-01 -1.80143E-01 -1.83494E-01 -1.86472E-01 -1.89101E-01 -1.91400E-01 -1.93395E-01 -1.95115E-01 -1.96588E-01 -1.97833E-01
  -1.98859E-01 -1.99673E-01 -2.00293E-01 -2.00739E-01 -2.01030E-01 -2.01173E-01 -2.01168E-01 -2.01022E-01 -2.00750E-01 -2.00365E-01
  -1.99877E-01 -1.99284E-01 -1.98586E-01 -1.97790E-01 -1.96909E-01 -1.95955E-01 -1.94930E-01 -1.93828E-01 -1.92650E-01 -1.91404E-01
  -1.90101E-01 -1.88747E-01 -1.87338E-01 -1.85869E-01 -1.84343E-01 -1.82770E-01 -1.81158E-01 -1.79508E-01 -1.77814E-01 -1.76073E-01
  -1.74288E-01 -1.72471E-01 -1.70625E-01 -1.68748E-01 -1.66832E-01 -1.64876E-01 -1.62888E-01 -1.60874E-01
 NY background values follow
    -1.621E+00   -1.618E+00   -1.615E+00   -1.612E+00   -1.610E+00   -1.607E+00   -1.604E+00   -1.601E+00   -1.598E+00   -1.595E+00
    -1.593E+00   -1.590E+00   -1.587E+00   -1.584E+00   -1.581E+00   -1.578E+00   -1.575E+00   -1.573E+00   -1.570E+00   -1.567E+00
    -1.564E+00   -1.561E+00   -1.558E+00   -1.556E+00   -1.553E+00   -1.550E+00   -1.547E+00   -1.544E+00   -1.541E+00   -1.538E+00
    -1.536E+00   -1.533E+00   -1.530E+00   -1.527E+00   -1.524E+00   -1.521E+00   -1.518E+00   -1.516E+00   -1.513E+00   -1.510E+00
    -1.507E+00   -1.504E+00   -1.501E+00   -1.499E+00   -1.496E+00   -1.493E+00   -1.490E+00   -1.487E+00   -1.484E+00   -1.481E+00
    -1.479E+00   -1.476E+00   -1.473E+00   -1.470E+00   -1.467E+00   -1.464E+00   -1.462E+00   -1.459E+00   -1.456E+00   -1.453E+00
    -1.450E+00   -1.447E+00   -1.444E+00   -1.442E+00   -1.439E+00   -1.436E+00   -1.433E+00   -1.430E+00   -1.427E+00   -1.425E+00
    -1.422E+00   -1.419E+00   -1.416E+00   -1.413E+00   -1.410E+00   -1.407E+00   -1.405E+00   -1.402E+00   -1.399E+00   -1.396E+00
    -1.393E+00   -1.390E+00   -1.388E+00   -1.385E+00   -1.382E+00   -1.379E+00   -1.376E+00   -1.373E+00   -1.370E+00   -1.368E+00
    -1.365E+00   -1.362E+00   -1.359E+00   -1.356E+00   -1.353E+00   -1.351E+00   -1.348E+00   -1.345E+00   -1.342E+00   -1.339E+00
    -1.336E+00   -1.333E+00   -1.331E+00   -1.328E+00   -1.325E+00   -1.322E+00   -1.319E+00   -1.316E+00   -1.313E+00   -1.311E+00
    -1.308E+00   -1.305E+00   -1.302E+00   -1.299E+00   -1.296E+00   -1.294E+00   -1.291E+00   -1.288E+00   -1.285E+00   -1.282E+00
    -1.279E+00   -1.276E+00   -1.274E+00   -1.271E+00   -1.268E+00   -1.265E+00   -1.262E+00   -1.259E+00   -1.257E+00   -1.254E+00
    -1.251E+00   -1.248E+00   -1.245E+00   -1.242E+00   -1.239E+00   -1.237E+00   -1.234E+00   -1.231E+00   -1.228E+00   -1.225E+00
    -1.222E+00   -1.220E+00   -1.217E+00   -1.214E+00   -1.211E+00   -1.208E+00   -1.205E+00   -1.202E+00   -1.200E+00   -1.197E+00
    -1.194E+00   -1.191E+00   -1.188E+00   -1.185E+00   -1.183E+00   -1.180E+00   -1.177E+00   -1.174E+00   -1.171E+00   -1.168E+00
    -1.165E+00   -1.163E+00   -1.160E+00   -1.157E+00   -1.154E+00   -1.151E+00   -1.148E+00   -1.145E+00   -1.143E+00   -1.140E+00
    -1.137E+00   -1.134E+00   -1.131E+00   -1.128E+00   -1.126E+00   -1.123E+00   -1.120E+00   -1.117E+00   -1.114E+00   -1.111E+00
    -1.108E+00   -1.106E+00   -1.103E+00   -1.100E+00   -1.097E+00   -1.094E+00   -1.091E+00   -1.089E+00   -1.086E+00   -1.083E+00
    -1.080E+00   -1.077E+00   -1.074E+00   -1.071E+00   -1.069E+00   -1.066E+00   -1.063E+00   -1.060E+00   -1.057E+00   -1.054E+00
    -1.052E+00   -1.049E+00   -1.046E+00   -1.043E+00   -1.040E+00   -1.037E+00   -1.034E+00   -1.032E+00   -1.029E+00   -1.026E+00
    -1.023E+00   -1.020E+00   -1.017E+00   -1.015E+00   -1.012E+00   -1.009E+00   -1.006E+00   -1.003E+00   -1.000E+00   -9.974E-01
    -9.946E-01   -9.917E-01   -9.889E-01   -9.860E-01   -9.832E-01   -9.803E-01   -9.775E-01   -9.746E-01   -9.718E-01   -9.689E-01
    -9.661E-01   -9.632E-01   -9.604E-01   -9.576E-01   -9.547E-01   -9.519E-01   -9.490E-01   -9.462E-01   -9.433E-01   -9.405E-01
    -9.376E-01   -9.348E-01   -9.319E-01   -9.291E-01   -9.262E-01   -9.234E-01   -9.205E-01   -9.177E-01   -9.148E-01   -9.120E-01
    -9.091E-01   -9.063E-01   -9.034E-01   -9.006E-01   -8.978E-01   -8.949E-01   -8.921E-01   -8.892E-01   -8.864E-01   -8.835E-01
    -8.807E-01   -8.778E-01   -8.750E-01   -8.721E-01   -8.693E-01   -8.664E-01   -8.636E-01   -8.607E-01   -8.579E-01   -8.550E-01
    -8.522E-01   -8.493E-01   -8.465E-01   -8.436E-01   -8.408E-01   -8.379E-01   -8.351E-01   -8.323E-01   -8.294E-01   -8.266E-01
    -8.237E-01   -8.209E-01   -8.180E-01   -8.152E-01   -8.123E-01   -8.095E-01   -8.066E-01   -8.038E-01   -8.009E-01   -7.981E-01
    -7.952E-01   -7.924E-01   -7.895E-01   -7.867E-01   -7.838E-01   -7.810E-01   -7.781E-01   -7.753E-01   -7.724E-01   -7.696E-01
    -7.668E-01   -7.639E-01   -7.611E-01   -7.582E-01   -7.554E-01   -7.525E-01   -7.497E-01   -7.468E-01   -7.440E-01   -7.411E-01
    -7.383E-01   -7.354E-01   -7.326E-01   -7.297E-01   -7.269E-01   -7.240E-01   -7.212E-01   -7.183E-01   -7.155E-01   -7.126E-01
    -7.098E-01   -7.069E-01   -7.041E-01   -7.012E-01   -6.984E-01   -6.956E-01   -6.927E-01   -6.899E-01   -6.870E-01   -6.842E-01
    -6.813E-01   -6.785E-01   -6.756E-01   -6.728E-01   -6.699E-01   -6.671E-01   -6.642E-01   -6.614E-01   -6.585E-01   -6.557E-01
    -6.528E-01   -6.500E-01   -6.471E-01   -6.443E-01   -6.414E-01   -6.386E-01   -6.357E-01   -6.329E-01   -6.301E-01   -6.272E-01
    -6.244E-01   -6.215E-01   -6.187E-01   -6.158E-01   -6.130E-01   -6.101E-01   -6.073E-01   -6.044E-01   -6.016E-01   -5.987E-01
    -5.959E-01   -5.930E-01   -5.902E-01   -5.873E-01   -5.845E-01   -5.816E-01   -5.788E-01   -5.759E-01   -5.731E-01   -5.702E-01
    -5.674E-01   -5.645E-01   -5.617E-01   -5.589E-01   -5.560E-01   -5.532E-01   -5.503E-01   -5.475E-01   -5.446E-01   -5.418E-01
    -5.389E-01   -5.361E-01   -5.332E-01   -5.304E-01   -5.275E-01   -5.247E-01   -5.218E-01   -5.190E-01   -5.161E-01   -5.133E-01
    -5.104E-01   -5.076E-01   -5.047E-01   -5.019E-01   -4.990E-01   -4.962E-01   -4.933E-01   -4.905E-01   -4.877E-01   -4.848E-01
    -4.820E-01   -4.791E-01   -4.763E-01   -4.734E-01   -4.706E-01   -4.677E-01   -4.649E-01   -4.620E-01   -4.592E-01   -4.563E-01
    -4.535E-01   -4.506E-01   -4.478E-01   -4.449E-01   -4.421E-01   -4.392E-01   -4.364E-01   -4.335E-01   -4.307E-01   -4.278E-01
    -4.250E-01   -4.221E-01   -4.193E-01   -4.165E-01   -4.136E-01   -4.108E-01   -4.079E-01   -4.051E-01   -4.022E-01   -3.994E-01
    -3.965E-01   -3.937E-01   -3.908E-01   -3.880E-01   -3.851E-01   -3.823E-01   -3.794E-01   -3.766E-01   -3.737E-01   -3.709E-01
    -3.680E-01   -3.652E-01   -3.623E-01   -3.595E-01   -3.566E-01   -3.538E-01   -3.509E-01   -3.481E-01   -3.453E-01   -3.424E-01
    -3.396E-01   -3.367E-01   -3.339E-01   -3.310E-01   -3.282E-01   -3.253E-01   -3.225E-01   -3.196E-01   -3.168E-01   -3.139E-01
    -3.111E-01   -3.082E-01   -3.054E-01   -3.025E-01   -2.997E-01   -2.968E-01   -2.940E-01   -2.911E-01   -2.883E-01   -2.854E-01
    -2.826E-01   -2.797E-01   -2.769E-01   -2.740E-01   -2.712E-01   -2.684E-01   -2.655E-01   -2.627E-01   -2.598E-01   -2.570E-01
    -2.541E-01   -2.513E-01   -2.484E-01   -2.456E-01   -2.427E-01   -2.399E-01   -2.370E-01   -2.342E-01   -2.313E-01   -2.285E-01
    -2.256E-01   -2.228E-01   -2.199E-01   -2.171E-01   -2.142E-01   -2.114E-01   -2.085E-01   -2.057E-01
 Asp      Conc. = 8.63E+00
