 LCModel (Version 6.3-1L) Copyright: S.W. Provencher.          Ref.: Magn. Reson. Med. 30:672-679 (1993).                
 Slice#1 Row#12 Col#2  PD_05_press_1_raw_act
 36 lines in following concentration table = NCONC+1
    Conc.  %SD /Cr+PCr  Metabolite                                         
   53.993  61%   0.847 Ala                                                 
    6.257  82% 9.8E-02 Asp                                                 
    0.000 999%   0.000 Cr                                                  
   63.757  22%   1.000 PCr                                                 
    3.717  82% 5.8E-02 GABA                                                
    3.609  85% 5.7E-02 Glc                                                 
  163.166  42%   2.559 Gln                                                 
    0.000 999%   0.000 Glu                                                 
    0.000 999%   0.000 GPC                                                 
    0.000 999%   0.000 PCh                                                 
    1.531 999% 2.4E-02 GSH                                                 
   72.927  93%   1.144 Ins                                                 
   19.275 186%   0.302 Lac                                                 
   14.799 136%   0.232 NAA                                                 
   48.100  40%   0.754 NAAG                                                
    1.007 101% 1.6E-02 Scyllo                                              
    4.694 109% 7.4E-02 Tau                                                 
    0.000 999%   0.000 -CrCH2                                              
    0.000 999%   0.000 GPC+PCh                                             
   62.899  28%   0.987 NAA+NAAG                                            
   63.757  22%   1.000 Cr+PCr                                              
  163.166  42%   2.559 Glu+Gln                                             
  189.659  46%   2.975 Lip13a                                              
    0.000 999%   0.000 Lip13b                                              
   49.284  58%   0.773 Lip09                                               
    0.792 659% 1.2E-02 MM09                                                
   33.488  53%   0.525 Lip20                                               
    1.563 565% 2.5E-02 MM20                                                
    0.247 774% 3.9E-03 MM12                                                
    0.000 999%   0.000 MM14                                                
    0.000 999%   0.000 MM17                                                
  189.659  46%   2.975 Lip13a+Lip13b                                       
  189.906  46%   2.979 MM14+Lip13a+Lip13b+MM12                             
   50.076  57%   0.785 MM09+Lip09                                          
   35.050  56%   0.550 MM20+Lip20                                          
   6 lines in following misc. output table
  FWHM = 0.061 ppm    S/N =   1                                            
  Data shift = 0.015 ppm                                                   
  Ph: 126 deg      22.3 deg/ppm                                            
  alphaB,S = 4.8E-01,   2.4E+01                                            
   14 spline knots.   Ns = 5(1)                                            
  ( 6) 2 infls.   ( 5) 1 extrs.                                            
  498 points on ppm-axis = NY
      4.000000     3.992357     3.984714     3.977070     3.969427     3.961784     3.954141     3.946497     3.938854     3.931211
      3.923568     3.915925     3.908281     3.900638     3.892995     3.885352     3.877708     3.870065     3.862422     3.854779
      3.847136     3.839492     3.831849     3.824206     3.816563     3.808919     3.801276     3.793633     3.785990     3.778347
      3.770703     3.763060     3.755417     3.747774     3.740130     3.732487     3.724844     3.717201     3.709558     3.701914
      3.694271     3.686628     3.678985     3.671341     3.663698     3.656055     3.648412     3.640769     3.633125     3.625482
      3.617839     3.610196     3.602552     3.594909     3.587266     3.579623     3.571980     3.564336     3.556693     3.549050
      3.541407     3.533763     3.526120     3.518477     3.510834     3.503191     3.495547     3.487904     3.480261     3.472618
      3.464974     3.457331     3.449688     3.442045     3.434402     3.426758     3.419115     3.411472     3.403829     3.396185
      3.388542     3.380899     3.373256     3.365613     3.357969     3.350326     3.342683     3.335040     3.327396     3.319753
      3.312110     3.304467     3.296824     3.289180     3.281537     3.273894     3.266251     3.258607     3.250964     3.243321
      3.235678     3.228034     3.220391     3.212748     3.205105     3.197462     3.189818     3.182175     3.174532     3.166889
      3.159245     3.151602     3.143959     3.136316     3.128673     3.121029     3.113386     3.105743     3.098100     3.090456
      3.082813     3.075170     3.067527     3.059884     3.052240     3.044597     3.036954     3.029311     3.021667     3.014024
      3.006381     2.998738     2.991095     2.983451     2.975808     2.968165     2.960522     2.952878     2.945235     2.937592
      2.929949     2.922306     2.914662     2.907019     2.899376     2.891733     2.884089     2.876446     2.868803     2.861160
      2.853517     2.845873     2.838230     2.830587     2.822944     2.815300     2.807657     2.800014     2.792371     2.784728
      2.777084     2.769441     2.761798     2.754155     2.746511     2.738868     2.731225     2.723582     2.715939     2.708295
      2.700652     2.693009     2.685366     2.677722     2.670079     2.662436     2.654793     2.647150     2.639506     2.631863
      2.624220     2.616577     2.608933     2.601290     2.593647     2.586004     2.578361     2.570717     2.563074     2.555431
      2.547788     2.540144     2.532501     2.524858     2.517215     2.509572     2.501928     2.494285     2.486642     2.478999
      2.471355     2.463712     2.456069     2.448426     2.440783     2.433139     2.425496     2.417853     2.410210     2.402566
      2.394923     2.387280     2.379637     2.371994     2.364350     2.356707     2.349064     2.341421     2.333777     2.326134
      2.318491     2.310848     2.303205     2.295561     2.287918     2.280275     2.272632     2.264988     2.257345     2.249702
      2.242059     2.234416     2.226772     2.219129     2.211486     2.203843     2.196199     2.188556     2.180913     2.173270
      2.165627     2.157983     2.150340     2.142697     2.135054     2.127410     2.119767     2.112124     2.104481     2.096838
      2.089194     2.081551     2.073908     2.066265     2.058621     2.050978     2.043335     2.035692     2.028049     2.020405
      2.012762     2.005119     1.997476     1.989833     1.982190     1.974546     1.966903     1.959260     1.951617     1.943974
      1.936331     1.928688     1.921045     1.913402     1.905759     1.898115     1.890472     1.882829     1.875186     1.867543
      1.859900     1.852257     1.844614     1.836971     1.829327     1.821684     1.814041     1.806398     1.798755     1.791112
      1.783469     1.775826     1.768183     1.760540     1.752896     1.745253     1.737610     1.729967     1.722324     1.714681
      1.707038     1.699395     1.691752     1.684108     1.676465     1.668822     1.661179     1.653536     1.645893     1.638250
      1.630607     1.622964     1.615321     1.607677     1.600034     1.592391     1.584748     1.577105     1.569462     1.561819
      1.554176     1.546533     1.538890     1.531246     1.523603     1.515960     1.508317     1.500674     1.493031     1.485388
      1.477745     1.470102     1.462458     1.454815     1.447172     1.439529     1.431886     1.424243     1.416600     1.408957
      1.401314     1.393671     1.386027     1.378384     1.370741     1.363098     1.355455     1.347812     1.340169     1.332526
      1.324883     1.317240     1.309596     1.301953     1.294310     1.286667     1.279024     1.271381     1.263738     1.256095
      1.248452     1.240808     1.233165     1.225522     1.217879     1.210236     1.202593     1.194950     1.187307     1.179664
      1.172021     1.164377     1.156734     1.149091     1.141448     1.133805     1.126162     1.118519     1.110876     1.103233
      1.095590     1.087946     1.080303     1.072660     1.065017     1.057374     1.049731     1.042088     1.034445     1.026802
      1.019158     1.011515     1.003872     0.996229     0.988586     0.980943     0.973300     0.965657     0.958014     0.950371
      0.942727     0.935084     0.927441     0.919798     0.912155     0.904512     0.896869     0.889226     0.881583     0.873940
      0.866296     0.858653     0.851010     0.843367     0.835724     0.828081     0.820438     0.812795     0.805152     0.797508
      0.789865     0.782222     0.774579     0.766936     0.759293     0.751650     0.744007     0.736364     0.728721     0.721077
      0.713434     0.705791     0.698148     0.690505     0.682862     0.675219     0.667576     0.659933     0.652290     0.644646
      0.637003     0.629360     0.621717     0.614074     0.606431     0.598788     0.591145     0.583502     0.575858     0.568215
      0.560572     0.552929     0.545286     0.537643     0.530000     0.522357     0.514714     0.507071     0.499427     0.491784
      0.484141     0.476498     0.468855     0.461212     0.453569     0.445925     0.438282     0.430639     0.422996     0.415353
      0.407710     0.400067     0.392424     0.384780     0.377137     0.369494     0.361851     0.354208     0.346565     0.338922
      0.331278     0.323635     0.315992     0.308349     0.300706     0.293063     0.285420     0.277777     0.270133     0.262490
      0.254847     0.247204     0.239561     0.231918     0.224275     0.216631     0.208988     0.201345
 NY phased data points follow
   2.41687E+01  2.24634E+01  2.11082E+01  2.28906E+01  2.07221E+01  2.13302E+01  2.21650E+01  2.35627E+01  2.15759E+01  2.16890E+01
   2.09400E+01  2.21925E+01  2.01051E+01  2.16250E+01  1.95835E+01  2.05091E+01  1.82399E+01  1.62436E+01  1.91387E+01  1.75682E+01
   1.92836E+01  1.88346E+01  1.65172E+01  1.81444E+01  1.75684E+01  1.51041E+01  1.70662E+01  1.81601E+01  1.65239E+01  1.53314E+01
   1.73143E+01  1.71684E+01  1.62285E+01  1.70680E+01  1.61952E+01  1.71922E+01  1.52735E+01  1.64143E+01  1.63512E+01  1.36581E+01
   1.55639E+01  1.67570E+01  1.40570E+01  1.53508E+01  1.55166E+01  1.50145E+01  1.31753E+01  1.57455E+01  1.50600E+01  1.56510E+01
   1.49411E+01  1.41076E+01  1.47007E+01  1.41485E+01  1.29655E+01  1.20809E+01  1.28545E+01  1.29372E+01  1.23785E+01  1.24011E+01
   1.06202E+01  1.17551E+01  1.39072E+01  1.08140E+01  1.04769E+01  1.11046E+01  1.22010E+01  1.26280E+01  1.26352E+01  1.20270E+01
   1.10870E+01  1.04816E+01  1.13995E+01  1.18339E+01  1.13368E+01  1.14302E+01  1.24538E+01  1.06379E+01  1.05500E+01  1.00074E+01
   1.10869E+01  1.02667E+01  1.09732E+01  9.05312E+00  9.99141E+00  8.23540E+00  1.00361E+01  1.05899E+01  8.44854E+00  1.01916E+01
   1.03611E+01  9.57534E+00  9.45017E+00  7.36076E+00  9.63088E+00  1.17197E+01  1.00765E+01  8.38465E+00  8.79832E+00  8.37775E+00
   1.04824E+01  8.28766E+00  8.37008E+00  9.76949E+00  1.01567E+01  9.31220E+00  8.84667E+00  8.54010E+00  8.86081E+00  7.23322E+00
   8.86691E+00  6.91079E+00  8.36285E+00  7.29006E+00  7.62760E+00  7.60838E+00  8.74421E+00  7.94725E+00  7.58476E+00  7.34580E+00
   8.20904E+00  8.41115E+00  1.01806E+01  9.16038E+00  8.18143E+00  7.11949E+00  9.27071E+00  9.74876E+00  9.76516E+00  9.46632E+00
   9.39750E+00  9.62620E+00  1.01040E+01  8.85746E+00  7.29631E+00  9.04429E+00  9.61916E+00  7.95639E+00  9.69278E+00  6.97160E+00
   7.68123E+00  8.25265E+00  9.71355E+00  1.01805E+01  6.76778E+00  6.67934E+00  7.52848E+00  7.40131E+00  9.35802E+00  8.42827E+00
   9.90130E+00  8.73414E+00  7.59953E+00  8.02685E+00  9.65075E+00  9.04951E+00  6.23089E+00  7.53167E+00  7.92474E+00  6.72742E+00
   9.18504E+00  8.76278E+00  7.69424E+00  9.28995E+00  8.14668E+00  7.57760E+00  8.28612E+00  8.25759E+00  7.99591E+00  7.38366E+00
   8.09588E+00  6.75631E+00  8.53848E+00  8.01470E+00  8.09623E+00  6.78688E+00  7.34773E+00  6.28177E+00  7.65671E+00  8.29648E+00
   8.53187E+00  6.56604E+00  9.36222E+00  7.98240E+00  8.16616E+00  7.30186E+00  8.40893E+00  9.52137E+00  9.31906E+00  8.15486E+00
   8.45791E+00  8.80072E+00  6.57824E+00  8.43045E+00  8.57500E+00  8.04655E+00  9.20775E+00  9.23503E+00  7.56705E+00  8.96777E+00
   8.93765E+00  9.15128E+00  7.91043E+00  9.79493E+00  8.00855E+00  7.15340E+00  8.10045E+00  6.69341E+00  8.46080E+00  5.96592E+00
   7.68529E+00  5.49821E+00  9.59631E+00  7.17985E+00  8.20822E+00  7.66775E+00  9.78486E+00  6.61760E+00  8.13070E+00  9.54393E+00
   7.19144E+00  9.56012E+00  7.43296E+00  9.02574E+00  8.19755E+00  8.68428E+00  7.99332E+00  9.25729E+00  9.27747E+00  8.94209E+00
   8.35533E+00  7.75340E+00  8.13500E+00  9.33402E+00  7.48435E+00  5.84497E+00  8.85829E+00  8.69287E+00  7.01755E+00  8.17000E+00
   7.82624E+00  9.26689E+00  9.12927E+00  8.33099E+00  7.81987E+00  5.59141E+00  6.60500E+00  7.70600E+00  7.54200E+00  7.20183E+00
   6.42411E+00  7.24950E+00  8.16095E+00  7.60753E+00  7.36887E+00  7.86691E+00  7.68689E+00  7.33125E+00  9.06016E+00  1.02777E+01
   7.43923E+00  9.06425E+00  6.91142E+00  7.61617E+00  7.14372E+00  5.85189E+00  3.44983E+00  4.11312E+00  6.46048E+00  6.11282E+00
   7.20530E+00  6.70819E+00  6.08952E+00  7.29196E+00  7.88401E+00  8.22918E+00  5.42672E+00  5.68261E+00  6.77583E+00  5.98744E+00
   5.75790E+00  5.87477E+00  6.62737E+00  6.79755E+00  4.30579E+00  5.20069E+00  4.52766E+00  5.38125E+00  5.32282E+00  6.93883E+00
   4.04731E+00  5.92989E+00  4.62167E+00  3.82431E+00  5.76864E+00  3.20386E+00  4.81710E+00  5.42609E+00  3.40487E+00  2.29768E+00
   4.00750E+00  3.26322E+00  4.19490E+00  4.05533E+00  5.57340E+00  2.41152E+00  6.02822E+00  5.07224E+00  4.59192E+00  3.79158E+00
   3.52123E+00  2.85936E+00  3.10892E+00  4.81053E+00  2.94947E+00  4.06357E+00  4.57142E+00  3.69711E+00  4.78496E+00  4.11421E+00
   4.59940E+00  4.66617E+00  3.84117E+00  3.16161E+00  5.06296E+00  4.64935E+00  1.95820E+00  3.46292E+00  3.64669E+00  3.61930E+00
   2.63100E+00  2.61715E+00  1.37507E+00  1.58539E+00  3.37873E+00  3.65001E+00  3.39003E+00  2.28593E+00  1.80760E+00  3.96304E+00
   4.42530E+00  3.58493E+00  4.19895E+00  9.27128E-01  6.03913E+00  4.26460E+00  5.56382E+00  2.41729E+00  3.49009E+00  4.27529E+00
   3.57400E+00  4.07451E+00  2.46164E+00  2.36889E+00  3.00735E+00  4.58921E+00  4.00611E+00  2.20202E+00  3.29840E+00  3.84295E+00
   4.08391E+00  2.88925E+00  3.43807E+00  3.03512E+00  2.31691E+00  3.79674E+00  3.01665E+00  2.48875E+00  3.11994E+00  4.24494E+00
   3.68034E+00  3.10762E+00  4.32462E+00  3.02683E+00  4.16139E+00  3.12587E+00  5.08750E+00  2.53353E+00  3.93376E+00  2.29599E+00
   1.56959E+00  1.98362E+00  3.10516E+00  2.18607E+00  7.45238E-01  2.37197E+00  1.24772E+00  1.01019E+00  2.75208E+00  3.22413E+00
   3.11863E+00  3.57991E+00 -6.65677E-02  2.26431E+00  2.07931E+00  1.70063E+00  3.74184E-01  4.19191E-01  2.78643E+00  8.38045E-01
   2.53051E+00  3.57596E+00  2.58554E+00  1.61553E+00  6.38094E-01  2.30326E+00  2.37158E+00  1.23004E+00  4.02926E+00  1.02475E+00
   2.31985E+00  3.02742E+00  2.02473E+00  2.64498E+00  2.38704E+00  1.48876E+00  2.02378E+00  1.61726E+00  5.63843E-01  3.11916E+00
   6.96679E-01  8.70308E-01  1.75741E+00  3.25020E-01  2.06960E+00  1.46381E+00  7.41411E-01  1.46600E+00  4.89806E-01  4.52832E-01
   1.15934E+00  1.70992E+00  1.04810E+00  2.46693E+00  2.94281E+00  1.67904E+00 -5.28275E-01  1.59091E+00  2.42400E+00  1.81642E-01
   2.32023E+00  2.36396E+00  1.53105E+00  1.71158E+00  2.93656E+00  1.17057E+00  8.13303E-01  1.71196E+00  1.87530E+00  3.36369E+00
   2.05416E+00  1.94030E-01  1.17522E+00  7.28693E-01  2.05108E+00  4.44088E-01  4.21248E-01  2.03583E+00  1.69096E+00  9.24619E-01
   1.06404E+00  9.85021E-01  1.65075E+00  1.23907E+00 -2.30262E-01  1.34360E+00 -3.92879E-01  6.08891E-01  7.75723E-02  1.27760E+00
   1.12785E+00  6.67515E-01  3.85251E-01 -1.24576E+00 -6.73446E-01  6.72358E-01  1.96272E+00 -1.22863E+00 -1.53656E-01 -2.08682E-01
  -1.86537E-01  4.83611E-01  8.12895E-01  1.89994E-01  5.48910E-01  5.69110E-01  1.39105E-01  2.91863E-01  1.74646E+00  1.35700E+00
  -1.20043E+00  7.41841E-01 -5.59811E-01  1.61768E+00  2.52592E-01  1.07557E+00  1.09684E+00  1.02568E+00
 NY points of the fit to the data follow
   2.08567E+01  2.06743E+01  2.05081E+01  2.03998E+01  2.04334E+01  2.05450E+01  2.06194E+01  2.06534E+01  2.06611E+01  2.06402E+01
   2.05970E+01  2.05067E+01  2.02972E+01  1.99126E+01  1.93932E+01  1.88870E+01  1.85649E+01  1.83907E+01  1.82619E+01  1.81624E+01
   1.80856E+01  1.79723E+01  1.78162E+01  1.76468E+01  1.74645E+01  1.72661E+01  1.70834E+01  1.69449E+01  1.68042E+01  1.66582E+01
   1.65529E+01  1.65225E+01  1.65405E+01  1.65376E+01  1.64917E+01  1.63570E+01  1.61089E+01  1.57943E+01  1.55038E+01  1.53109E+01
   1.51929E+01  1.51210E+01  1.50783E+01  1.50519E+01  1.50095E+01  1.49493E+01  1.48913E+01  1.48200E+01  1.47288E+01  1.46223E+01
   1.44879E+01  1.43014E+01  1.40526E+01  1.37700E+01  1.35297E+01  1.33886E+01  1.33192E+01  1.32723E+01  1.32195E+01  1.31527E+01
   1.30716E+01  1.29783E+01  1.28757E+01  1.27627E+01  1.26330E+01  1.24840E+01  1.23322E+01  1.22072E+01  1.21137E+01  1.20432E+01
   1.19829E+01  1.19227E+01  1.18525E+01  1.17697E+01  1.16784E+01  1.15798E+01  1.14734E+01  1.13606E+01  1.12453E+01  1.11384E+01
   1.10395E+01  1.09474E+01  1.08546E+01  1.07547E+01  1.06474E+01  1.05380E+01  1.04305E+01  1.03262E+01  1.02246E+01  1.01261E+01
   1.00332E+01  9.95500E+00  9.90324E+00  9.87509E+00  9.85135E+00  9.81371E+00  9.75701E+00  9.68699E+00  9.60790E+00  9.52220E+00
   9.43409E+00  9.35019E+00  9.27418E+00  9.21179E+00  9.16364E+00  9.12261E+00  9.08643E+00  9.05335E+00  9.02283E+00  8.99278E+00
   8.95917E+00  8.92064E+00  8.88023E+00  8.84102E+00  8.80229E+00  8.76409E+00  8.72635E+00  8.68996E+00  8.65546E+00  8.62568E+00
   8.61039E+00  8.66561E+00  8.92952E+00  9.28542E+00  9.58203E+00  9.82526E+00  1.00321E+01  1.01998E+01  1.03378E+01  1.03952E+01
   1.02579E+01  9.85554E+00  9.25949E+00  8.70411E+00  8.42978E+00  8.33783E+00  8.28847E+00  8.25332E+00  8.22607E+00  8.20502E+00
   8.18966E+00  8.17932E+00  8.17129E+00  8.16319E+00  8.15358E+00  8.14254E+00  8.13212E+00  8.12353E+00  8.11572E+00  8.10376E+00
   8.08586E+00  8.06796E+00  8.05357E+00  8.04459E+00  8.04114E+00  8.03546E+00  8.02471E+00  8.01403E+00  8.00804E+00  8.00749E+00
   8.00929E+00  8.00393E+00  7.98769E+00  7.96624E+00  7.94502E+00  7.92800E+00  7.92084E+00  7.92086E+00  7.92111E+00  7.92015E+00
   7.91617E+00  7.90715E+00  7.90041E+00  7.90099E+00  7.90787E+00  7.91501E+00  7.91233E+00  7.89396E+00  7.87001E+00  7.86128E+00
   7.87079E+00  7.88867E+00  7.90397E+00  7.91324E+00  7.92320E+00  7.94064E+00  7.96815E+00  8.00223E+00  8.02370E+00  8.01116E+00
   7.97439E+00  7.91493E+00  7.84238E+00  7.76615E+00  7.68959E+00  7.62512E+00  7.60368E+00  7.63980E+00  7.72496E+00  7.85470E+00
   8.03088E+00  8.21337E+00  8.36732E+00  8.44457E+00  8.38063E+00  8.13235E+00  7.82082E+00  7.53645E+00  7.29307E+00  7.10195E+00
   6.96759E+00  6.90672E+00  6.98219E+00  7.21811E+00  7.57367E+00  7.93162E+00  8.14050E+00  8.15642E+00  8.11365E+00  8.07896E+00
   8.04399E+00  8.00905E+00  7.97997E+00  7.95311E+00  7.92728E+00  7.90171E+00  7.86917E+00  7.82547E+00  7.77683E+00  7.72484E+00
   7.64616E+00  7.51918E+00  7.39885E+00  7.31499E+00  7.26983E+00  7.27551E+00  7.33875E+00  7.39120E+00  7.40339E+00  7.42820E+00
   7.48031E+00  7.51694E+00  7.47379E+00  7.30411E+00  7.04296E+00  6.75899E+00  6.53867E+00  6.44771E+00  6.49834E+00  6.61738E+00
   6.78978E+00  7.11621E+00  7.50146E+00  7.81097E+00  8.03807E+00  8.22289E+00  8.36730E+00  8.46413E+00  8.49961E+00  8.40686E+00
   8.12860E+00  7.70838E+00  7.30563E+00  7.07579E+00  6.93063E+00  6.75714E+00  6.56524E+00  6.42325E+00  6.34213E+00  6.28013E+00
   6.22414E+00  6.17110E+00  6.11828E+00  6.06655E+00  6.01644E+00  5.96573E+00  5.91154E+00  5.85294E+00  5.79282E+00  5.73460E+00
   5.67846E+00  5.62717E+00  5.58232E+00  5.54120E+00  5.49933E+00  5.45544E+00  5.40934E+00  5.36263E+00  5.31506E+00  5.26620E+00
   5.21801E+00  5.17167E+00  5.12625E+00  5.08242E+00  5.03927E+00  4.99615E+00  4.95228E+00  4.90584E+00  4.85674E+00  4.80783E+00
   4.76011E+00  4.71352E+00  4.66858E+00  4.62588E+00  4.58539E+00  4.54599E+00  4.50608E+00  4.46586E+00  4.42597E+00  4.38660E+00
   4.34795E+00  4.31017E+00  4.27348E+00  4.23816E+00  4.20449E+00  4.17288E+00  4.14388E+00  4.11838E+00  4.09782E+00  4.08482E+00
   4.08498E+00  4.11357E+00  4.19448E+00  4.26036E+00  4.25049E+00  4.19128E+00  4.10041E+00  3.97470E+00  3.80830E+00  3.57712E+00
   3.31893E+00  3.10185E+00  2.94470E+00  2.90949E+00  3.03856E+00  3.23974E+00  3.44638E+00  3.67323E+00  3.89872E+00  4.05912E+00
   4.09207E+00  4.00258E+00  3.91028E+00  3.87909E+00  3.85545E+00  3.82828E+00  3.79844E+00  3.76116E+00  3.71184E+00  3.64355E+00
   3.57149E+00  3.50564E+00  3.44776E+00  3.42371E+00  3.45543E+00  3.51676E+00  3.57690E+00  3.63605E+00  3.68323E+00  3.69506E+00
   3.65277E+00  3.56441E+00  3.47323E+00  3.39821E+00  3.32985E+00  3.26378E+00  3.19865E+00  3.13411E+00  3.07025E+00  3.00732E+00
   2.94566E+00  2.88561E+00  2.82744E+00  2.77141E+00  2.71771E+00  2.66648E+00  2.61783E+00  2.57180E+00  2.52839E+00  2.48757E+00
   2.44930E+00  2.41353E+00  2.38020E+00  2.34924E+00  2.32059E+00  2.29418E+00  2.26996E+00  2.24788E+00  2.22791E+00  2.20998E+00
   2.19402E+00  2.17998E+00  2.16776E+00  2.15725E+00  2.14830E+00  2.14075E+00  2.13435E+00  2.12888E+00  2.12403E+00  2.11951E+00
   2.11495E+00  2.11000E+00  2.10430E+00  2.09749E+00  2.08926E+00  2.07931E+00  2.06740E+00  2.05333E+00  2.03701E+00  2.01838E+00
   1.99749E+00  1.97441E+00  1.94932E+00  1.92243E+00  1.89399E+00  1.86431E+00  1.83367E+00  1.80238E+00  1.77073E+00  1.73900E+00
   1.70745E+00  1.67628E+00  1.64568E+00  1.61578E+00  1.58669E+00  1.55848E+00  1.53119E+00  1.50483E+00  1.47938E+00  1.45483E+00
   1.43112E+00  1.40821E+00  1.38605E+00  1.36457E+00  1.34372E+00  1.32344E+00  1.30366E+00  1.28435E+00  1.26546E+00  1.24693E+00
   1.22872E+00  1.21081E+00  1.19315E+00  1.17573E+00  1.15851E+00  1.14146E+00  1.12456E+00  1.10781E+00  1.09117E+00  1.07463E+00
   1.05818E+00  1.04181E+00  1.02549E+00  1.00922E+00  9.93008E-01  9.76834E-01  9.60698E-01  9.44595E-01  9.28523E-01  9.12482E-01
   8.96471E-01  8.80487E-01  8.64527E-01  8.48591E-01  8.32680E-01  8.16793E-01  8.00932E-01  7.85093E-01  7.69276E-01  7.53481E-01
   7.37710E-01  7.21963E-01  7.06241E-01  6.90543E-01  6.74869E-01  6.59221E-01  6.43601E-01  6.28010E-01  6.12447E-01  5.96913E-01
   5.81409E-01  5.65937E-01  5.50499E-01  5.35094E-01  5.19724E-01  5.04390E-01  4.89092E-01  4.73834E-01  4.58615E-01  4.43437E-01
   4.28299E-01  4.13204E-01  3.98153E-01  3.83147E-01  3.68186E-01  3.53272E-01  3.38404E-01  3.23584E-01
 NY background values follow
     2.062E+01    2.048E+01    2.034E+01    2.021E+01    2.007E+01    1.993E+01    1.979E+01    1.965E+01    1.951E+01    1.937E+01
     1.923E+01    1.909E+01    1.895E+01    1.881E+01    1.867E+01    1.853E+01    1.840E+01    1.826E+01    1.812E+01    1.798E+01
     1.784E+01    1.771E+01    1.757E+01    1.743E+01    1.730E+01    1.716E+01    1.703E+01    1.689E+01    1.676E+01    1.662E+01
     1.649E+01    1.636E+01    1.623E+01    1.609E+01    1.596E+01    1.583E+01    1.570E+01    1.557E+01    1.545E+01    1.532E+01
     1.519E+01    1.506E+01    1.494E+01    1.481E+01    1.469E+01    1.457E+01    1.444E+01    1.432E+01    1.420E+01    1.408E+01
     1.396E+01    1.385E+01    1.373E+01    1.361E+01    1.350E+01    1.338E+01    1.327E+01    1.316E+01    1.305E+01    1.294E+01
     1.283E+01    1.272E+01    1.261E+01    1.251E+01    1.240E+01    1.230E+01    1.219E+01    1.209E+01    1.199E+01    1.189E+01
     1.180E+01    1.170E+01    1.160E+01    1.151E+01    1.142E+01    1.132E+01    1.123E+01    1.114E+01    1.106E+01    1.097E+01
     1.088E+01    1.080E+01    1.072E+01    1.064E+01    1.056E+01    1.048E+01    1.040E+01    1.032E+01    1.025E+01    1.018E+01
     1.011E+01    1.004E+01    9.968E+00    9.901E+00    9.836E+00    9.772E+00    9.709E+00    9.648E+00    9.588E+00    9.530E+00
     9.472E+00    9.417E+00    9.362E+00    9.309E+00    9.258E+00    9.207E+00    9.158E+00    9.110E+00    9.063E+00    9.018E+00
     8.974E+00    8.931E+00    8.889E+00    8.849E+00    8.809E+00    8.771E+00    8.734E+00    8.698E+00    8.663E+00    8.629E+00
     8.597E+00    8.565E+00    8.535E+00    8.505E+00    8.477E+00    8.450E+00    8.423E+00    8.398E+00    8.373E+00    8.350E+00
     8.327E+00    8.306E+00    8.285E+00    8.266E+00    8.247E+00    8.229E+00    8.212E+00    8.195E+00    8.180E+00    8.165E+00
     8.152E+00    8.139E+00    8.126E+00    8.115E+00    8.104E+00    8.094E+00    8.084E+00    8.075E+00    8.067E+00    8.059E+00
     8.052E+00    8.045E+00    8.039E+00    8.033E+00    8.028E+00    8.023E+00    8.019E+00    8.015E+00    8.011E+00    8.008E+00
     8.005E+00    8.002E+00    8.000E+00    7.998E+00    7.996E+00    7.994E+00    7.993E+00    7.991E+00    7.990E+00    7.989E+00
     7.988E+00    7.988E+00    7.987E+00    7.986E+00    7.985E+00    7.984E+00    7.984E+00    7.983E+00    7.982E+00    7.981E+00
     7.980E+00    7.978E+00    7.977E+00    7.975E+00    7.973E+00    7.971E+00    7.969E+00    7.966E+00    7.963E+00    7.960E+00
     7.957E+00    7.953E+00    7.950E+00    7.945E+00    7.941E+00    7.936E+00    7.931E+00    7.925E+00    7.919E+00    7.913E+00
     7.906E+00    7.899E+00    7.892E+00    7.884E+00    7.875E+00    7.866E+00    7.857E+00    7.847E+00    7.837E+00    7.826E+00
     7.815E+00    7.803E+00    7.790E+00    7.777E+00    7.764E+00    7.750E+00    7.735E+00    7.720E+00    7.704E+00    7.687E+00
     7.670E+00    7.652E+00    7.633E+00    7.614E+00    7.594E+00    7.574E+00    7.552E+00    7.530E+00    7.507E+00    7.484E+00
     7.460E+00    7.435E+00    7.409E+00    7.383E+00    7.356E+00    7.329E+00    7.301E+00    7.272E+00    7.243E+00    7.213E+00
     7.182E+00    7.151E+00    7.119E+00    7.087E+00    7.054E+00    7.021E+00    6.987E+00    6.953E+00    6.918E+00    6.882E+00
     6.847E+00    6.810E+00    6.774E+00    6.736E+00    6.699E+00    6.661E+00    6.622E+00    6.583E+00    6.544E+00    6.504E+00
     6.464E+00    6.424E+00    6.383E+00    6.342E+00    6.300E+00    6.259E+00    6.216E+00    6.174E+00    6.131E+00    6.088E+00
     6.045E+00    6.002E+00    5.958E+00    5.914E+00    5.870E+00    5.826E+00    5.781E+00    5.736E+00    5.691E+00    5.646E+00
     5.601E+00    5.556E+00    5.511E+00    5.465E+00    5.419E+00    5.374E+00    5.328E+00    5.282E+00    5.237E+00    5.191E+00
     5.145E+00    5.100E+00    5.054E+00    5.008E+00    4.963E+00    4.917E+00    4.872E+00    4.827E+00    4.782E+00    4.737E+00
     4.692E+00    4.647E+00    4.603E+00    4.558E+00    4.514E+00    4.470E+00    4.427E+00    4.383E+00    4.340E+00    4.297E+00
     4.255E+00    4.213E+00    4.171E+00    4.129E+00    4.088E+00    4.047E+00    4.007E+00    3.967E+00    3.927E+00    3.888E+00
     3.849E+00    3.810E+00    3.772E+00    3.734E+00    3.697E+00    3.660E+00    3.623E+00    3.587E+00    3.551E+00    3.515E+00
     3.480E+00    3.445E+00    3.411E+00    3.377E+00    3.343E+00    3.309E+00    3.276E+00    3.244E+00    3.211E+00    3.179E+00
     3.147E+00    3.116E+00    3.085E+00    3.054E+00    3.024E+00    2.993E+00    2.964E+00    2.934E+00    2.905E+00    2.876E+00
     2.847E+00    2.819E+00    2.791E+00    2.763E+00    2.736E+00    2.709E+00    2.682E+00    2.655E+00    2.629E+00    2.603E+00
     2.577E+00    2.551E+00    2.526E+00    2.501E+00    2.477E+00    2.452E+00    2.428E+00    2.404E+00    2.380E+00    2.357E+00
     2.334E+00    2.311E+00    2.288E+00    2.265E+00    2.243E+00    2.221E+00    2.199E+00    2.178E+00    2.156E+00    2.135E+00
     2.114E+00    2.093E+00    2.073E+00    2.052E+00    2.032E+00    2.012E+00    1.992E+00    1.973E+00    1.953E+00    1.934E+00
     1.915E+00    1.896E+00    1.877E+00    1.859E+00    1.841E+00    1.822E+00    1.804E+00    1.786E+00    1.769E+00    1.751E+00
     1.734E+00    1.716E+00    1.699E+00    1.682E+00    1.665E+00    1.649E+00    1.632E+00    1.615E+00    1.599E+00    1.583E+00
     1.567E+00    1.551E+00    1.535E+00    1.519E+00    1.503E+00    1.487E+00    1.472E+00    1.456E+00    1.441E+00    1.426E+00
     1.411E+00    1.395E+00    1.380E+00    1.365E+00    1.350E+00    1.336E+00    1.321E+00    1.306E+00    1.291E+00    1.277E+00
     1.262E+00    1.247E+00    1.233E+00    1.218E+00    1.204E+00    1.189E+00    1.175E+00    1.161E+00    1.146E+00    1.132E+00
     1.118E+00    1.103E+00    1.089E+00    1.074E+00    1.060E+00    1.046E+00    1.031E+00    1.017E+00    1.002E+00    9.880E-01
     9.735E-01    9.590E-01    9.444E-01    9.298E-01    9.152E-01    9.006E-01    8.859E-01    8.712E-01    8.564E-01    8.417E-01
     8.269E-01    8.121E-01    7.973E-01    7.824E-01    7.676E-01    7.527E-01    7.378E-01    7.229E-01    7.080E-01    6.931E-01
     6.782E-01    6.633E-01    6.484E-01    6.335E-01    6.186E-01    6.037E-01    5.888E-01    5.740E-01    5.591E-01    5.443E-01
     5.294E-01    5.146E-01    4.998E-01    4.851E-01    4.703E-01    4.556E-01    4.409E-01    4.262E-01    4.116E-01    3.970E-01
     3.825E-01    3.679E-01    3.535E-01    3.390E-01    3.246E-01    3.103E-01    2.960E-01    2.817E-01
 Ala      Conc. = 5.40E+01
