 LCModel (Version 6.3-1L) Copyright: S.W. Provencher.          Ref.: Magn. Reson. Med. 30:672-679 (1993).                
 Slice#3 Row#11 Col#7  PD_05_press_1_raw_act
 36 lines in following concentration table = NCONC+1
    Conc.  %SD /Cr+PCr  Metabolite                                         
   52.755 201% 4.6E-02 Ala                                                 
    0.000 999%   0.000 Asp                                                 
  900.783  21%   0.782 Cr                                                  
  250.390  75%   0.218 PCr                                                 
    0.000 999%   0.000 GABA                                                
    0.000 999%   0.000 Glc                                                 
 1.35E+03  18%   1.176 Gln                                                 
 1.39E+03  19%   1.206 Glu                                                 
  345.599   4%   0.300 GPC                                                 
    0.000 999%   0.000 PCh                                                 
  514.561  11%   0.447 GSH                                                 
 1.24E+03  16%   1.080 Ins                                                 
  167.260  71%   0.145 Lac                                                 
 1.58E+03   7%   1.371 NAA                                                 
  159.929  73%   0.139 NAAG                                                
   57.956  32% 5.0E-02 Scyllo                                              
    0.000 999%   0.000 Tau                                                 
    0.000 999%   0.000 -CrCH2                                              
  345.599   4%   0.300 GPC+PCh                                             
 1.74E+03   3%   1.510 NAA+NAAG                                            
 1.15E+03   4%   1.000 Cr+PCr                                              
 2.74E+03  16%   2.381 Glu+Gln                                             
  795.378  30%   0.691 Lip13a                                              
    0.000 999%   0.000 Lip13b                                              
    0.000 999%   0.000 Lip09                                               
  768.224  16%   0.667 MM09                                                
  172.498  55%   0.150 Lip20                                               
 1.89E+03  13%   1.640 MM20                                                
  283.083  33%   0.246 MM12                                                
  869.949  24%   0.756 MM14                                                
  636.977  24%   0.553 MM17                                                
  795.378  30%   0.691 Lip13a+Lip13b                                       
 1.95E+03  14%   1.693 MM14+Lip13a+Lip13b+MM12                             
  768.224  16%   0.667 MM09+Lip09                                          
 2.06E+03  12%   1.790 MM20+Lip20                                          
   6 lines in following misc. output table
  FWHM = 0.069 ppm    S/N =  12                                            
  Data shift = 0.038 ppm                                                   
  Ph:  17 deg       3.6 deg/ppm                                            
  alphaB,S = 8.9E-01,   1.0E+02                                            
   14 spline knots.   Ns = 9(1)                                            
  (14) 6 infls.   ( 9) 1 extrs.                                            
  498 points on ppm-axis = NY
      4.000000     3.992357     3.984714     3.977070     3.969427     3.961784     3.954141     3.946497     3.938854     3.931211
      3.923568     3.915925     3.908281     3.900638     3.892995     3.885352     3.877708     3.870065     3.862422     3.854779
      3.847136     3.839492     3.831849     3.824206     3.816563     3.808919     3.801276     3.793633     3.785990     3.778347
      3.770703     3.763060     3.755417     3.747774     3.740130     3.732487     3.724844     3.717201     3.709558     3.701914
      3.694271     3.686628     3.678985     3.671341     3.663698     3.656055     3.648412     3.640769     3.633125     3.625482
      3.617839     3.610196     3.602552     3.594909     3.587266     3.579623     3.571980     3.564336     3.556693     3.549050
      3.541407     3.533763     3.526120     3.518477     3.510834     3.503191     3.495547     3.487904     3.480261     3.472618
      3.464974     3.457331     3.449688     3.442045     3.434402     3.426758     3.419115     3.411472     3.403829     3.396185
      3.388542     3.380899     3.373256     3.365613     3.357969     3.350326     3.342683     3.335040     3.327396     3.319753
      3.312110     3.304467     3.296824     3.289180     3.281537     3.273894     3.266251     3.258607     3.250964     3.243321
      3.235678     3.228034     3.220391     3.212748     3.205105     3.197462     3.189818     3.182175     3.174532     3.166889
      3.159245     3.151602     3.143959     3.136316     3.128673     3.121029     3.113386     3.105743     3.098100     3.090456
      3.082813     3.075170     3.067527     3.059884     3.052240     3.044597     3.036954     3.029311     3.021667     3.014024
      3.006381     2.998738     2.991095     2.983451     2.975808     2.968165     2.960522     2.952878     2.945235     2.937592
      2.929949     2.922306     2.914662     2.907019     2.899376     2.891733     2.884089     2.876446     2.868803     2.861160
      2.853517     2.845873     2.838230     2.830587     2.822944     2.815300     2.807657     2.800014     2.792371     2.784728
      2.777084     2.769441     2.761798     2.754155     2.746511     2.738868     2.731225     2.723582     2.715939     2.708295
      2.700652     2.693009     2.685366     2.677722     2.670079     2.662436     2.654793     2.647150     2.639506     2.631863
      2.624220     2.616577     2.608933     2.601290     2.593647     2.586004     2.578361     2.570717     2.563074     2.555431
      2.547788     2.540144     2.532501     2.524858     2.517215     2.509572     2.501928     2.494285     2.486642     2.478999
      2.471355     2.463712     2.456069     2.448426     2.440783     2.433139     2.425496     2.417853     2.410210     2.402566
      2.394923     2.387280     2.379637     2.371994     2.364350     2.356707     2.349064     2.341421     2.333777     2.326134
      2.318491     2.310848     2.303205     2.295561     2.287918     2.280275     2.272632     2.264988     2.257345     2.249702
      2.242059     2.234416     2.226772     2.219129     2.211486     2.203843     2.196199     2.188556     2.180913     2.173270
      2.165627     2.157983     2.150340     2.142697     2.135054     2.127410     2.119767     2.112124     2.104481     2.096838
      2.089194     2.081551     2.073908     2.066265     2.058621     2.050978     2.043335     2.035692     2.028049     2.020405
      2.012762     2.005119     1.997476     1.989833     1.982190     1.974546     1.966903     1.959260     1.951617     1.943974
      1.936331     1.928688     1.921045     1.913402     1.905759     1.898115     1.890472     1.882829     1.875186     1.867543
      1.859900     1.852257     1.844614     1.836971     1.829327     1.821684     1.814041     1.806398     1.798755     1.791112
      1.783469     1.775826     1.768183     1.760540     1.752896     1.745253     1.737610     1.729967     1.722324     1.714681
      1.707038     1.699395     1.691752     1.684108     1.676465     1.668822     1.661179     1.653536     1.645893     1.638250
      1.630607     1.622964     1.615321     1.607677     1.600034     1.592391     1.584748     1.577105     1.569462     1.561819
      1.554176     1.546533     1.538890     1.531246     1.523603     1.515960     1.508317     1.500674     1.493031     1.485388
      1.477745     1.470102     1.462458     1.454815     1.447172     1.439529     1.431886     1.424243     1.416600     1.408957
      1.401314     1.393671     1.386027     1.378384     1.370741     1.363098     1.355455     1.347812     1.340169     1.332526
      1.324883     1.317240     1.309596     1.301953     1.294310     1.286667     1.279024     1.271381     1.263738     1.256095
      1.248452     1.240808     1.233165     1.225522     1.217879     1.210236     1.202593     1.194950     1.187307     1.179664
      1.172021     1.164377     1.156734     1.149091     1.141448     1.133805     1.126162     1.118519     1.110876     1.103233
      1.095590     1.087946     1.080303     1.072660     1.065017     1.057374     1.049731     1.042088     1.034445     1.026802
      1.019158     1.011515     1.003872     0.996229     0.988586     0.980943     0.973300     0.965657     0.958014     0.950371
      0.942727     0.935084     0.927441     0.919798     0.912155     0.904512     0.896869     0.889226     0.881583     0.873940
      0.866296     0.858653     0.851010     0.843367     0.835724     0.828081     0.820438     0.812795     0.805152     0.797508
      0.789865     0.782222     0.774579     0.766936     0.759293     0.751650     0.744007     0.736364     0.728721     0.721077
      0.713434     0.705791     0.698148     0.690505     0.682862     0.675219     0.667576     0.659933     0.652290     0.644646
      0.637003     0.629360     0.621717     0.614074     0.606431     0.598788     0.591145     0.583502     0.575858     0.568215
      0.560572     0.552929     0.545286     0.537643     0.530000     0.522357     0.514714     0.507071     0.499427     0.491784
      0.484141     0.476498     0.468855     0.461212     0.453569     0.445925     0.438282     0.430639     0.422996     0.415353
      0.407710     0.400067     0.392424     0.384780     0.377137     0.369494     0.361851     0.354208     0.346565     0.338922
      0.331278     0.323635     0.315992     0.308349     0.300706     0.293063     0.285420     0.277777     0.270133     0.262490
      0.254847     0.247204     0.239561     0.231918     0.224275     0.216631     0.208988     0.201345
 NY phased data points follow
   1.42438E+01  1.36157E+01  1.63771E+01  1.09560E+01  1.47530E+01  1.77448E+01  2.15851E+01  2.43524E+01  2.66500E+01  3.02530E+01
   3.28772E+01  3.34536E+01  3.20677E+01  3.01982E+01  2.94044E+01  2.65625E+01  2.63184E+01  2.32900E+01  2.01802E+01  1.78000E+01
   1.81331E+01  1.88016E+01  1.53257E+01  1.35900E+01  1.68763E+01  1.58126E+01  1.74929E+01  1.74350E+01  1.86717E+01  1.92631E+01
   1.85474E+01  1.96571E+01  2.06703E+01  1.74366E+01  1.96149E+01  1.72318E+01  1.57226E+01  1.38049E+01  1.87637E+01  1.61028E+01
   1.67283E+01  1.59667E+01  1.60719E+01  1.48599E+01  1.55272E+01  1.55513E+01  1.70992E+01  1.80635E+01  1.65192E+01  1.55016E+01
   1.41743E+01  1.39641E+01  1.34571E+01  1.31172E+01  1.20355E+01  1.19131E+01  1.13571E+01  1.08189E+01  1.36736E+01  9.25028E+00
   9.69472E+00  1.07368E+01  1.01153E+01  6.76793E+00  9.85824E+00  7.05962E+00  1.00094E+01  4.88253E+00  5.23557E+00  5.58374E+00
   4.20300E+00  7.67279E+00  4.38324E+00  9.06330E+00  8.52337E+00  6.22109E+00  5.25445E+00  7.76040E+00  8.38689E+00  5.60061E+00
   7.04891E+00  4.71864E+00  8.55721E+00  5.69217E+00  8.23159E+00  6.81165E+00  6.58278E+00  6.82547E+00  6.11568E+00  2.71264E+00
   6.10772E+00  3.84496E+00  5.98373E+00  4.14814E+00  6.20529E+00  6.25399E+00  4.24557E+00  9.66949E+00  9.49003E+00  1.64185E+01
   1.68085E+01  2.19769E+01  2.42031E+01  2.58634E+01  2.96496E+01  2.44263E+01  2.39508E+01  2.16048E+01  1.64836E+01  1.36378E+01
   1.61374E+01  1.17675E+01  9.66239E+00  9.04684E+00  1.06883E+01  5.33787E+00  7.23809E+00  6.24291E+00  5.46303E+00  3.61844E+00
   7.21543E+00  1.01394E+01  1.12231E+01  1.36255E+01  1.80722E+01  2.72431E+01  2.96476E+01  3.11139E+01  3.31657E+01  3.13914E+01
   2.85937E+01  2.34660E+01  2.09842E+01  1.85745E+01  1.42890E+01  1.23918E+01  1.10579E+01  7.15769E+00  7.12069E+00  7.86314E+00
   7.76703E+00  7.46183E+00  1.66528E+00  4.44949E+00  2.39654E+00  1.25433E+00  6.03139E+00  5.76785E+00  4.71241E-01  3.73304E+00
   3.40163E+00  3.23012E+00  3.41877E+00  3.80107E+00  1.83405E+00  2.99280E+00  1.13597E+00 -1.72882E+00  2.03913E+00  2.90997E-02
   3.39300E+00 -2.03673E+00 -8.67612E-02  1.15614E-01  9.49319E-01 -1.97754E+00 -3.85868E-01  1.88193E+00 -4.66962E-01 -1.35224E+00
   1.21626E+00 -3.89976E+00 -2.66253E+00 -3.61884E+00 -4.99033E+00 -6.85644E+00 -6.96764E+00 -6.32094E+00 -5.06516E+00 -5.95443E+00
  -7.38739E+00 -9.54551E+00 -7.33762E+00 -5.10625E+00 -8.70732E+00 -4.71908E+00 -2.86123E+00 -1.27859E+00 -2.77786E+00  1.49296E+00
   1.57090E+00  8.83253E-01 -1.57608E+00  2.38608E+00 -1.04893E+00  3.00953E-01  1.23379E+00  2.40080E+00  2.67551E+00  1.32531E+00
   2.48061E-01 -3.14098E+00 -1.23618E-01  3.84620E-01  1.43197E+00  1.90391E+00  1.08482E+00  9.17029E-01 -1.47912E+00 -3.81281E-01
  -9.18948E-01  1.85517E+00  7.57788E-01  1.82997E+00  4.61668E+00  5.78947E+00  6.52621E+00  4.82658E+00  5.76480E+00  4.27142E+00
   5.21362E+00  8.36051E-01  1.01383E+00  1.33491E+00  4.60308E+00  2.77357E+00  4.65172E+00  2.64437E+00  4.81480E+00  7.56164E+00
   1.04973E+01  6.31255E+00  6.32236E+00  8.93130E+00  5.39526E+00  3.81907E+00  8.44987E+00  5.94004E+00  8.06297E+00  6.50861E+00
   6.03606E+00  4.81199E+00  1.79459E+00  3.65471E+00  4.67724E+00  5.33701E+00  6.21777E+00  7.05708E+00  5.37046E+00  5.69862E+00
   7.94073E+00  1.24808E+01  1.00430E+01  1.75374E+01  2.30143E+01  2.63003E+01  3.16108E+01  3.69689E+01  4.10853E+01  4.62980E+01
   4.70376E+01  5.01055E+01  4.59163E+01  3.69466E+01  3.26111E+01  2.80415E+01  2.27967E+01  1.86542E+01  1.53601E+01  1.38269E+01
   1.25410E+01  7.95594E+00  6.74849E+00  7.85316E+00  4.00222E+00  5.27431E+00  5.08896E+00  3.88408E+00  1.92623E+00  4.93188E+00
   2.90895E+00  4.41272E+00  3.15958E+00  2.01590E+00  2.20933E+00  3.37169E+00  3.82528E-01  3.87151E+00  2.07121E+00  4.37675E+00
   3.45373E+00  3.17628E+00  3.99836E+00  2.33646E+00  3.99736E+00  3.67192E+00  2.42825E+00  1.11095E+00  3.01069E+00  2.32027E+00
   4.02956E+00  3.56833E+00  7.96130E+00  3.31037E+00  4.85012E+00  2.79163E+00  2.78205E+00  5.10039E+00  6.91511E+00  6.31469E+00
   6.34715E+00  3.64657E+00  5.66211E+00  6.95636E+00  6.94088E+00  5.10795E+00  4.76457E+00  7.29643E+00  3.59911E+00  4.83229E+00
   7.36291E+00  4.86290E+00  5.21002E+00  4.02059E+00  4.89524E+00  7.26596E+00  2.70999E+00  7.79470E+00  6.89959E+00  5.91575E+00
   7.00668E+00  5.84807E+00  2.71340E+00  5.32857E+00  6.67775E+00  5.93693E+00  7.73846E+00  3.82559E+00  5.65786E+00  7.01919E+00
   7.40798E+00  9.21921E+00  6.80755E+00  5.06634E+00  5.74212E+00  6.54659E+00  6.48759E+00  5.74945E+00  3.16346E+00  7.88597E+00
   4.30953E+00  5.67137E+00  4.25010E+00  5.39124E+00  5.84918E+00  5.81940E+00  6.95049E+00  6.72874E+00  6.77261E+00  5.20756E+00
   5.33850E+00  6.18918E+00  5.47447E+00  5.75050E+00  6.85891E+00  8.05247E+00  4.56200E+00  5.97376E+00  5.85941E+00  5.15272E+00
   3.87929E+00  5.08622E+00  2.81675E+00  5.27426E+00  6.37009E+00  3.65761E+00  3.12936E+00  7.95309E-01  4.85548E+00  4.18055E+00
   2.36656E+00  4.47762E+00  3.19828E+00  6.42082E+00  3.61647E+00  2.21674E+00  2.06944E-01  4.05589E+00  1.52705E+00  4.80006E+00
   3.72632E+00  3.42933E+00  7.47919E+00  5.50124E+00  2.26567E+00  3.74209E+00  3.88186E+00  4.36559E+00  3.59371E+00  4.68727E+00
   3.30146E+00  3.70311E+00  3.00966E+00  3.16527E+00  3.81310E+00  5.29972E+00  4.28593E+00  5.29743E+00  2.90527E+00  4.33810E+00
   2.69612E+00  7.20789E+00  6.96820E+00  5.68041E-01  4.00654E+00  2.44720E+00  3.72268E+00  2.26577E+00  2.98940E+00  4.73296E+00
   3.42431E+00  2.71519E+00  2.74301E+00  2.67858E+00  4.32963E-01  2.23562E+00  3.47986E+00  5.26873E-01  4.42972E-01  8.25345E-01
   2.69642E+00  1.23044E+00  1.00838E+00  4.30501E-01  4.23402E+00  1.44342E+00 -2.10288E-02  1.91032E+00  1.19497E+00 -2.03242E+00
   5.67105E-01 -1.94660E+00  1.59074E+00 -1.91503E-01  1.89319E+00  4.06959E+00  1.08151E+00 -4.01388E-01 -7.92796E-01  1.14790E+00
  -2.20762E+00 -2.17104E+00  2.36157E+00  1.60607E-01  8.99826E-01 -3.86699E-01 -9.00802E-01 -2.27070E+00  3.93119E-01  7.19737E-01
   2.15718E+00 -3.26068E-02 -3.91086E-01  1.42042E+00  1.35087E+00  3.29049E+00 -4.25656E-01  1.81624E-01  9.36145E-01 -1.06254E-01
  -1.75421E-02 -1.60958E+00  5.91093E-01  9.67885E-01  1.58594E+00 -1.00024E+00  2.52477E+00 -4.58489E-01  3.21169E-02  1.98990E+00
   3.60102E+00  5.79770E-01 -1.64302E+00  3.41024E-01 -1.93367E+00 -6.46295E-01 -1.60699E+00 -1.42918E+00  8.45154E-01  1.64669E+00
  -1.12916E+00  1.36163E+00  1.15238E+00  9.65390E-01  1.84791E+00 -1.89263E+00 -8.80396E-01 -2.50525E+00
 NY points of the fit to the data follow
   1.42963E+01  1.41411E+01  1.42258E+01  1.48764E+01  1.62514E+01  1.80783E+01  2.01333E+01  2.24526E+01  2.50322E+01  2.76788E+01
   2.98928E+01  3.11839E+01  3.13355E+01  3.03151E+01  2.84297E+01  2.62779E+01  2.43248E+01  2.25968E+01  2.09562E+01  1.93021E+01
   1.77576E+01  1.63285E+01  1.48687E+01  1.43608E+01  1.46098E+01  1.51516E+01  1.60285E+01  1.73174E+01  1.88877E+01  2.04683E+01
   2.16672E+01  2.20684E+01  2.15065E+01  2.01932E+01  1.85312E+01  1.68416E+01  1.54151E+01  1.44265E+01  1.40311E+01  1.38349E+01
   1.35505E+01  1.35590E+01  1.37949E+01  1.42760E+01  1.50098E+01  1.58505E+01  1.65573E+01  1.67954E+01  1.64271E+01  1.54907E+01
   1.42163E+01  1.30613E+01  1.22610E+01  1.16718E+01  1.12362E+01  1.10148E+01  1.08126E+01  1.04084E+01  1.00665E+01  1.00186E+01
   1.00272E+01  9.81644E+00  9.44099E+00  9.04051E+00  8.72331E+00  8.52163E+00  8.42569E+00  8.45147E+00  8.52918E+00  8.54481E+00
   8.51009E+00  8.45242E+00  8.37326E+00  8.27758E+00  8.13514E+00  7.97197E+00  7.81193E+00  7.67789E+00  7.58207E+00  7.49301E+00
   7.38176E+00  7.20915E+00  7.02156E+00  6.90337E+00  6.77657E+00  6.55846E+00  6.22233E+00  5.79477E+00  5.35403E+00  5.01765E+00
   4.84655E+00  4.79439E+00  4.79693E+00  4.85004E+00  5.09718E+00  5.91501E+00  7.33938E+00  9.38075E+00  1.17423E+01  1.43612E+01
   1.75330E+01  2.11988E+01  2.46445E+01  2.70779E+01  2.79193E+01  2.68108E+01  2.41475E+01  2.10364E+01  1.82518E+01  1.58303E+01
   1.36781E+01  1.19036E+01  1.03678E+01  8.29462E+00  5.70632E+00  4.39705E+00  4.08600E+00  4.07768E+00  4.49324E+00  5.81611E+00
   8.00841E+00  1.07963E+01  1.38058E+01  1.71473E+01  2.11575E+01  2.56482E+01  2.97158E+01  3.24567E+01  3.32182E+01  3.17051E+01
   2.85658E+01  2.49881E+01  2.16743E+01  1.86172E+01  1.57447E+01  1.32482E+01  1.10235E+01  8.32325E+00  5.53177E+00  4.50461E+00
   4.45770E+00  4.53652E+00  4.50464E+00  4.27861E+00  3.98340E+00  3.79836E+00  3.66442E+00  3.51317E+00  3.33768E+00  3.09549E+00
   2.79539E+00  2.46859E+00  2.12091E+00  1.84052E+00  1.60813E+00  1.42449E+00  1.29801E+00  1.17978E+00  1.00930E+00  7.82616E-01
   5.59121E-01  3.91746E-01  3.02941E-01  2.64031E-01  2.09511E-01  6.98452E-02 -1.96419E-01 -5.54164E-01 -9.38643E-01 -1.28493E+00
  -1.53861E+00 -1.69573E+00 -1.89623E+00 -2.19434E+00 -2.53723E+00 -2.83040E+00 -2.95426E+00 -2.96110E+00 -2.97608E+00 -3.03380E+00
  -3.10395E+00 -3.12217E+00 -3.02024E+00 -2.78718E+00 -2.45594E+00 -2.02413E+00 -1.46406E+00 -8.62259E-01 -3.07931E-01  1.58836E-01
   4.51779E-01  5.24122E-01  3.63568E-01  4.10437E-02 -2.71123E-01 -3.63969E-01 -9.59912E-02  5.72711E-01  1.49670E+00  2.50322E+00
   3.40159E+00  3.91088E+00  3.96344E+00  3.61399E+00  2.89860E+00  1.77874E+00  3.76838E-01 -9.66793E-01 -1.79669E+00 -2.02831E+00
  -1.64299E+00 -6.58639E-01  7.91709E-01  2.30426E+00  3.42675E+00  4.03953E+00  4.17808E+00  3.79253E+00  2.99989E+00  2.17278E+00
   1.49927E+00  7.85568E-01  4.57877E-01  7.58082E-01  1.47162E+00  2.25652E+00  2.79351E+00  3.20694E+00  3.60305E+00  3.87850E+00
   4.11204E+00  4.42113E+00  4.93274E+00  5.51953E+00  5.90703E+00  6.11036E+00  6.32234E+00  6.53772E+00  6.58906E+00  6.27952E+00
   5.65894E+00  5.03219E+00  4.52051E+00  4.13390E+00  4.11119E+00  4.58302E+00  5.27046E+00  5.86603E+00  6.54994E+00  7.42612E+00
   8.44165E+00  1.01646E+01  1.33723E+01  1.77319E+01  2.23937E+01  2.68315E+01  3.14266E+01  3.65923E+01  4.18235E+01  4.60424E+01
   4.83109E+01  4.78071E+01  4.43133E+01  3.90217E+01  3.36248E+01  2.87461E+01  2.42516E+01  2.04633E+01  1.75691E+01  1.46467E+01
   1.04678E+01  6.70669E+00  5.36122E+00  4.83789E+00  4.48443E+00  4.22021E+00  4.00707E+00  3.76972E+00  3.54636E+00  3.34977E+00
   3.17681E+00  3.03126E+00  2.91741E+00  2.81164E+00  2.70210E+00  2.60686E+00  2.54147E+00  2.50541E+00  2.49095E+00  2.49895E+00
   2.53711E+00  2.60510E+00  2.68929E+00  2.78749E+00  2.90212E+00  3.03444E+00  3.18124E+00  3.34210E+00  3.51611E+00  3.70078E+00
   3.89289E+00  4.08777E+00  4.27776E+00  4.45957E+00  4.62989E+00  4.78475E+00  4.92073E+00  5.03555E+00  5.12886E+00  5.20070E+00
   5.24965E+00  5.27744E+00  5.28744E+00  5.28287E+00  5.26830E+00  5.24908E+00  5.23088E+00  5.22123E+00  5.23000E+00  5.25604E+00
   5.28969E+00  5.32385E+00  5.35882E+00  5.39943E+00  5.43740E+00  5.45095E+00  5.43210E+00  5.39327E+00  5.34711E+00  5.31219E+00
   5.30960E+00  5.35566E+00  5.45440E+00  5.59925E+00  5.77684E+00  5.96682E+00  6.13660E+00  6.27684E+00  6.44485E+00  6.64006E+00
   6.80464E+00  6.91459E+00  6.97405E+00  7.01125E+00  7.00014E+00  6.84985E+00  6.56073E+00  6.20722E+00  5.82067E+00  5.44895E+00
   5.17594E+00  5.07563E+00  5.16064E+00  5.38868E+00  5.70386E+00  6.03081E+00  6.24427E+00  6.29115E+00  6.31184E+00  6.35161E+00
   6.32632E+00  6.24121E+00  6.12476E+00  6.00638E+00  5.84372E+00  5.55595E+00  5.24860E+00  4.99936E+00  4.77691E+00  4.56750E+00
   4.36725E+00  4.17549E+00  3.99282E+00  3.82045E+00  3.65979E+00  3.51234E+00  3.37950E+00  3.26259E+00  3.16279E+00  3.08114E+00
   3.01850E+00  2.97556E+00  2.95283E+00  2.95066E+00  2.96917E+00  3.00831E+00  3.06774E+00  3.14686E+00  3.24477E+00  3.36022E+00
   3.49157E+00  3.63676E+00  3.79330E+00  3.95829E+00  4.12841E+00  4.29998E+00  4.46905E+00  4.63144E+00  4.78292E+00  4.91932E+00
   5.03667E+00  5.13139E+00  5.20038E+00  5.24117E+00  5.25206E+00  5.23212E+00  5.18132E+00  5.10043E+00  4.99104E+00  4.85542E+00
   4.69648E+00  4.51759E+00  4.32242E+00  4.11481E+00  3.89862E+00  3.67756E+00  3.45513E+00  3.23447E+00  3.01834E+00  2.80903E+00
   2.60838E+00  2.41778E+00  2.23819E+00  2.07019E+00  1.91403E+00  1.76963E+00  1.63674E+00  1.51488E+00  1.40349E+00  1.30189E+00
   1.20937E+00  1.12520E+00  1.04865E+00  9.79033E-01  9.15677E-01  8.57969E-01  8.05334E-01  7.57252E-01  7.13253E-01  6.72920E-01
   6.35876E-01  6.01784E-01  5.70342E-01  5.41284E-01  5.14373E-01  4.89404E-01  4.66195E-01  4.44577E-01  4.24401E-01  4.05537E-01
   3.87874E-01  3.71311E-01  3.55755E-01  3.41120E-01  3.27333E-01  3.14327E-01  3.02045E-01  2.90435E-01  2.79445E-01  2.69028E-01
   2.59142E-01  2.49754E-01  2.40833E-01  2.32351E-01  2.24275E-01  2.16575E-01  2.09228E-01  2.02213E-01  1.95512E-01  1.89107E-01
   1.82979E-01  1.77110E-01  1.71489E-01  1.66105E-01  1.60946E-01  1.55997E-01  1.51246E-01  1.46682E-01  1.42298E-01  1.38088E-01
   1.34045E-01  1.30157E-01  1.26417E-01  1.22820E-01  1.19363E-01  1.16041E-01  1.12849E-01  1.09780E-01  1.06831E-01  1.04001E-01
   1.01289E-01  9.86940E-02  9.62140E-02  9.38470E-02  9.15945E-02  8.94606E-02  8.74502E-02  8.55681E-02
 NY background values follow
     1.017E+01    1.009E+01    1.002E+01    9.947E+00    9.873E+00    9.799E+00    9.725E+00    9.651E+00    9.577E+00    9.504E+00
     9.430E+00    9.356E+00    9.282E+00    9.208E+00    9.134E+00    9.060E+00    8.986E+00    8.912E+00    8.838E+00    8.765E+00
     8.691E+00    8.617E+00    8.543E+00    8.470E+00    8.396E+00    8.322E+00    8.249E+00    8.175E+00    8.102E+00    8.029E+00
     7.955E+00    7.882E+00    7.809E+00    7.736E+00    7.663E+00    7.590E+00    7.517E+00    7.444E+00    7.371E+00    7.299E+00
     7.226E+00    7.154E+00    7.081E+00    7.009E+00    6.937E+00    6.865E+00    6.793E+00    6.721E+00    6.650E+00    6.578E+00
     6.507E+00    6.436E+00    6.364E+00    6.293E+00    6.223E+00    6.152E+00    6.082E+00    6.011E+00    5.941E+00    5.871E+00
     5.802E+00    5.732E+00    5.663E+00    5.594E+00    5.525E+00    5.456E+00    5.388E+00    5.319E+00    5.251E+00    5.184E+00
     5.116E+00    5.049E+00    4.982E+00    4.915E+00    4.849E+00    4.783E+00    4.717E+00    4.651E+00    4.586E+00    4.521E+00
     4.457E+00    4.392E+00    4.328E+00    4.265E+00    4.201E+00    4.138E+00    4.076E+00    4.013E+00    3.951E+00    3.890E+00
     3.829E+00    3.768E+00    3.707E+00    3.647E+00    3.587E+00    3.528E+00    3.469E+00    3.410E+00    3.352E+00    3.294E+00
     3.237E+00    3.180E+00    3.123E+00    3.067E+00    3.011E+00    2.956E+00    2.901E+00    2.846E+00    2.792E+00    2.738E+00
     2.685E+00    2.632E+00    2.579E+00    2.527E+00    2.475E+00    2.424E+00    2.373E+00    2.322E+00    2.272E+00    2.222E+00
     2.173E+00    2.124E+00    2.076E+00    2.028E+00    1.980E+00    1.933E+00    1.887E+00    1.840E+00    1.794E+00    1.749E+00
     1.704E+00    1.660E+00    1.616E+00    1.572E+00    1.529E+00    1.486E+00    1.444E+00    1.402E+00    1.361E+00    1.320E+00
     1.279E+00    1.239E+00    1.200E+00    1.161E+00    1.122E+00    1.084E+00    1.047E+00    1.009E+00    9.727E-01    9.365E-01
     9.008E-01    8.656E-01    8.309E-01    7.966E-01    7.629E-01    7.296E-01    6.968E-01    6.646E-01    6.328E-01    6.016E-01
     5.708E-01    5.406E-01    5.108E-01    4.816E-01    4.529E-01    4.247E-01    3.971E-01    3.699E-01    3.433E-01    3.172E-01
     2.916E-01    2.666E-01    2.421E-01    2.181E-01    1.947E-01    1.718E-01    1.495E-01    1.277E-01    1.065E-01    8.576E-02
     6.562E-02    4.603E-02    2.700E-02    8.505E-03   -9.451E-03   -2.688E-02   -4.379E-02   -6.019E-02   -7.610E-02   -9.151E-02
    -1.064E-01   -1.209E-01   -1.349E-01   -1.485E-01   -1.616E-01   -1.742E-01   -1.865E-01   -1.983E-01   -2.097E-01   -2.207E-01
    -2.314E-01   -2.416E-01   -2.515E-01   -2.610E-01   -2.702E-01   -2.790E-01   -2.875E-01   -2.957E-01   -3.035E-01   -3.111E-01
    -3.183E-01   -3.253E-01   -3.319E-01   -3.383E-01   -3.445E-01   -3.504E-01   -3.560E-01   -3.615E-01   -3.667E-01   -3.716E-01
    -3.764E-01   -3.810E-01   -3.854E-01   -3.896E-01   -3.936E-01   -3.975E-01   -4.013E-01   -4.048E-01   -4.083E-01   -4.116E-01
    -4.148E-01   -4.178E-01   -4.207E-01   -4.235E-01   -4.262E-01   -4.287E-01   -4.311E-01   -4.334E-01   -4.355E-01   -4.376E-01
    -4.395E-01   -4.413E-01   -4.430E-01   -4.446E-01   -4.461E-01   -4.474E-01   -4.487E-01   -4.499E-01   -4.510E-01   -4.519E-01
    -4.528E-01   -4.536E-01   -4.543E-01   -4.549E-01   -4.554E-01   -4.558E-01   -4.562E-01   -4.564E-01   -4.566E-01   -4.567E-01
    -4.567E-01   -4.567E-01   -4.566E-01   -4.564E-01   -4.561E-01   -4.558E-01   -4.554E-01   -4.550E-01   -4.545E-01   -4.539E-01
    -4.533E-01   -4.526E-01   -4.519E-01   -4.511E-01   -4.503E-01   -4.494E-01   -4.485E-01   -4.475E-01   -4.465E-01   -4.455E-01
    -4.444E-01   -4.433E-01   -4.421E-01   -4.409E-01   -4.397E-01   -4.384E-01   -4.371E-01   -4.358E-01   -4.344E-01   -4.330E-01
    -4.316E-01   -4.301E-01   -4.286E-01   -4.271E-01   -4.256E-01   -4.241E-01   -4.225E-01   -4.209E-01   -4.193E-01   -4.177E-01
    -4.160E-01   -4.144E-01   -4.127E-01   -4.110E-01   -4.094E-01   -4.077E-01   -4.060E-01   -4.043E-01   -4.026E-01   -4.008E-01
    -3.991E-01   -3.974E-01   -3.957E-01   -3.940E-01   -3.923E-01   -3.906E-01   -3.889E-01   -3.872E-01   -3.855E-01   -3.838E-01
    -3.821E-01   -3.805E-01   -3.788E-01   -3.772E-01   -3.755E-01   -3.739E-01   -3.723E-01   -3.707E-01   -3.691E-01   -3.675E-01
    -3.659E-01   -3.643E-01   -3.628E-01   -3.612E-01   -3.597E-01   -3.582E-01   -3.567E-01   -3.552E-01   -3.537E-01   -3.522E-01
    -3.507E-01   -3.493E-01   -3.479E-01   -3.464E-01   -3.450E-01   -3.436E-01   -3.423E-01   -3.409E-01   -3.396E-01   -3.382E-01
    -3.369E-01   -3.356E-01   -3.343E-01   -3.331E-01   -3.318E-01   -3.306E-01   -3.294E-01   -3.282E-01   -3.270E-01   -3.258E-01
    -3.247E-01   -3.235E-01   -3.224E-01   -3.213E-01   -3.203E-01   -3.192E-01   -3.182E-01   -3.171E-01   -3.161E-01   -3.151E-01
    -3.141E-01   -3.132E-01   -3.122E-01   -3.112E-01   -3.103E-01   -3.093E-01   -3.084E-01   -3.075E-01   -3.065E-01   -3.056E-01
    -3.047E-01   -3.038E-01   -3.029E-01   -3.019E-01   -3.010E-01   -3.001E-01   -2.992E-01   -2.982E-01   -2.973E-01   -2.964E-01
    -2.954E-01   -2.945E-01   -2.935E-01   -2.925E-01   -2.916E-01   -2.906E-01   -2.896E-01   -2.886E-01   -2.875E-01   -2.865E-01
    -2.854E-01   -2.844E-01   -2.833E-01   -2.822E-01   -2.810E-01   -2.799E-01   -2.787E-01   -2.775E-01   -2.763E-01   -2.751E-01
    -2.738E-01   -2.725E-01   -2.712E-01   -2.699E-01   -2.686E-01   -2.672E-01   -2.659E-01   -2.645E-01   -2.631E-01   -2.617E-01
    -2.602E-01   -2.588E-01   -2.573E-01   -2.559E-01   -2.544E-01   -2.529E-01   -2.514E-01   -2.499E-01   -2.484E-01   -2.469E-01
    -2.454E-01   -2.438E-01   -2.423E-01   -2.407E-01   -2.392E-01   -2.376E-01   -2.361E-01   -2.345E-01   -2.330E-01   -2.314E-01
    -2.298E-01   -2.283E-01   -2.267E-01   -2.252E-01   -2.236E-01   -2.221E-01   -2.205E-01   -2.190E-01   -2.174E-01   -2.159E-01
    -2.144E-01   -2.129E-01   -2.114E-01   -2.099E-01   -2.084E-01   -2.069E-01   -2.054E-01   -2.040E-01   -2.025E-01   -2.011E-01
    -1.996E-01   -1.982E-01   -1.968E-01   -1.954E-01   -1.940E-01   -1.926E-01   -1.912E-01   -1.898E-01   -1.884E-01   -1.871E-01
    -1.857E-01   -1.844E-01   -1.831E-01   -1.817E-01   -1.804E-01   -1.791E-01   -1.778E-01   -1.765E-01   -1.752E-01   -1.740E-01
    -1.727E-01   -1.714E-01   -1.702E-01   -1.689E-01   -1.677E-01   -1.665E-01   -1.653E-01   -1.641E-01   -1.629E-01   -1.617E-01
    -1.605E-01   -1.593E-01   -1.581E-01   -1.570E-01   -1.558E-01   -1.547E-01   -1.535E-01   -1.524E-01
 Ala      Conc. = 5.28E+01
