 LCModel (Version 6.3-1L) Copyright: S.W. Provencher.          Ref.: Magn. Reson. Med. 30:672-679 (1993).                
 Slice#1 Row#13 Col#7  PD_05_press_1_raw_act
 36 lines in following concentration table = NCONC+1
    Conc.  %SD /Cr+PCr  Metabolite                                         
   49.891 129%   0.111 Ala                                                 
    0.000 999%   0.000 Asp                                                 
    7.576 999% 1.7E-02 Cr                                                  
  443.428  32%   0.983 PCr                                                 
   17.554 298% 3.9E-02 GABA                                                
   32.317 160% 7.2E-02 Glc                                                 
  256.117  52%   0.568 Gln                                                 
  492.870  31%   1.093 Glu                                                 
    0.000 999%   0.000 GPC                                                 
  117.163  10%   0.260 PCh                                                 
   60.980  67%   0.135 GSH                                                 
  404.048  34%   0.896 Ins                                                 
   31.540 223% 7.0E-02 Lac                                                 
  826.556   8%   1.833 NAA                                                 
   59.903 121%   0.133 NAAG                                                
   22.919  54% 5.1E-02 Scyllo                                              
  138.377  56%   0.307 Tau                                                 
  364.036  16%   0.807 -CrCH2                                              
  117.163  10%   0.260 GPC+PCh                                             
  886.459   5%   1.966 NAA+NAAG                                            
  451.004   7%   1.000 Cr+PCr                                              
  748.987  29%   1.661 Glu+Gln                                             
  409.585  37%   0.908 Lip13a                                              
    0.000 999%   0.000 Lip13b                                              
    0.000 999%   0.000 Lip09                                               
  467.090  18%   1.036 MM09                                                
   95.917  60%   0.213 Lip20                                               
  991.961  16%   2.199 MM20                                                
  146.556  33%   0.325 MM12                                                
  550.554  24%   1.221 MM14                                                
  367.690  25%   0.815 MM17                                                
  409.585  37%   0.908 Lip13a+Lip13b                                       
 1.11E+03  15%   2.454 MM14+Lip13a+Lip13b+MM12                             
  467.090  18%   1.036 MM09+Lip09                                          
 1.09E+03  15%   2.412 MM20+Lip20                                          
   6 lines in following misc. output table
  FWHM = 0.046 ppm    S/N =   8                                            
  Data shift = 0.031 ppm                                                   
  Ph: -41 deg     -10.4 deg/ppm                                            
  alphaB,S = 2.0E+00,   6.1E+01                                            
   14 spline knots.   Ns = 7(1)                                            
  (10) 3 infls.   ( 9) 1 extrs.                                            
  498 points on ppm-axis = NY
      4.000000     3.992357     3.984714     3.977070     3.969427     3.961784     3.954141     3.946497     3.938854     3.931211
      3.923568     3.915925     3.908281     3.900638     3.892995     3.885352     3.877708     3.870065     3.862422     3.854779
      3.847136     3.839492     3.831849     3.824206     3.816563     3.808919     3.801276     3.793633     3.785990     3.778347
      3.770703     3.763060     3.755417     3.747774     3.740130     3.732487     3.724844     3.717201     3.709558     3.701914
      3.694271     3.686628     3.678985     3.671341     3.663698     3.656055     3.648412     3.640769     3.633125     3.625482
      3.617839     3.610196     3.602552     3.594909     3.587266     3.579623     3.571980     3.564336     3.556693     3.549050
      3.541407     3.533763     3.526120     3.518477     3.510834     3.503191     3.495547     3.487904     3.480261     3.472618
      3.464974     3.457331     3.449688     3.442045     3.434402     3.426758     3.419115     3.411472     3.403829     3.396185
      3.388542     3.380899     3.373256     3.365613     3.357969     3.350326     3.342683     3.335040     3.327396     3.319753
      3.312110     3.304467     3.296824     3.289180     3.281537     3.273894     3.266251     3.258607     3.250964     3.243321
      3.235678     3.228034     3.220391     3.212748     3.205105     3.197462     3.189818     3.182175     3.174532     3.166889
      3.159245     3.151602     3.143959     3.136316     3.128673     3.121029     3.113386     3.105743     3.098100     3.090456
      3.082813     3.075170     3.067527     3.059884     3.052240     3.044597     3.036954     3.029311     3.021667     3.014024
      3.006381     2.998738     2.991095     2.983451     2.975808     2.968165     2.960522     2.952878     2.945235     2.937592
      2.929949     2.922306     2.914662     2.907019     2.899376     2.891733     2.884089     2.876446     2.868803     2.861160
      2.853517     2.845873     2.838230     2.830587     2.822944     2.815300     2.807657     2.800014     2.792371     2.784728
      2.777084     2.769441     2.761798     2.754155     2.746511     2.738868     2.731225     2.723582     2.715939     2.708295
      2.700652     2.693009     2.685366     2.677722     2.670079     2.662436     2.654793     2.647150     2.639506     2.631863
      2.624220     2.616577     2.608933     2.601290     2.593647     2.586004     2.578361     2.570717     2.563074     2.555431
      2.547788     2.540144     2.532501     2.524858     2.517215     2.509572     2.501928     2.494285     2.486642     2.478999
      2.471355     2.463712     2.456069     2.448426     2.440783     2.433139     2.425496     2.417853     2.410210     2.402566
      2.394923     2.387280     2.379637     2.371994     2.364350     2.356707     2.349064     2.341421     2.333777     2.326134
      2.318491     2.310848     2.303205     2.295561     2.287918     2.280275     2.272632     2.264988     2.257345     2.249702
      2.242059     2.234416     2.226772     2.219129     2.211486     2.203843     2.196199     2.188556     2.180913     2.173270
      2.165627     2.157983     2.150340     2.142697     2.135054     2.127410     2.119767     2.112124     2.104481     2.096838
      2.089194     2.081551     2.073908     2.066265     2.058621     2.050978     2.043335     2.035692     2.028049     2.020405
      2.012762     2.005119     1.997476     1.989833     1.982190     1.974546     1.966903     1.959260     1.951617     1.943974
      1.936331     1.928688     1.921045     1.913402     1.905759     1.898115     1.890472     1.882829     1.875186     1.867543
      1.859900     1.852257     1.844614     1.836971     1.829327     1.821684     1.814041     1.806398     1.798755     1.791112
      1.783469     1.775826     1.768183     1.760540     1.752896     1.745253     1.737610     1.729967     1.722324     1.714681
      1.707038     1.699395     1.691752     1.684108     1.676465     1.668822     1.661179     1.653536     1.645893     1.638250
      1.630607     1.622964     1.615321     1.607677     1.600034     1.592391     1.584748     1.577105     1.569462     1.561819
      1.554176     1.546533     1.538890     1.531246     1.523603     1.515960     1.508317     1.500674     1.493031     1.485388
      1.477745     1.470102     1.462458     1.454815     1.447172     1.439529     1.431886     1.424243     1.416600     1.408957
      1.401314     1.393671     1.386027     1.378384     1.370741     1.363098     1.355455     1.347812     1.340169     1.332526
      1.324883     1.317240     1.309596     1.301953     1.294310     1.286667     1.279024     1.271381     1.263738     1.256095
      1.248452     1.240808     1.233165     1.225522     1.217879     1.210236     1.202593     1.194950     1.187307     1.179664
      1.172021     1.164377     1.156734     1.149091     1.141448     1.133805     1.126162     1.118519     1.110876     1.103233
      1.095590     1.087946     1.080303     1.072660     1.065017     1.057374     1.049731     1.042088     1.034445     1.026802
      1.019158     1.011515     1.003872     0.996229     0.988586     0.980943     0.973300     0.965657     0.958014     0.950371
      0.942727     0.935084     0.927441     0.919798     0.912155     0.904512     0.896869     0.889226     0.881583     0.873940
      0.866296     0.858653     0.851010     0.843367     0.835724     0.828081     0.820438     0.812795     0.805152     0.797508
      0.789865     0.782222     0.774579     0.766936     0.759293     0.751650     0.744007     0.736364     0.728721     0.721077
      0.713434     0.705791     0.698148     0.690505     0.682862     0.675219     0.667576     0.659933     0.652290     0.644646
      0.637003     0.629360     0.621717     0.614074     0.606431     0.598788     0.591145     0.583502     0.575858     0.568215
      0.560572     0.552929     0.545286     0.537643     0.530000     0.522357     0.514714     0.507071     0.499427     0.491784
      0.484141     0.476498     0.468855     0.461212     0.453569     0.445925     0.438282     0.430639     0.422996     0.415353
      0.407710     0.400067     0.392424     0.384780     0.377137     0.369494     0.361851     0.354208     0.346565     0.338922
      0.331278     0.323635     0.315992     0.308349     0.300706     0.293063     0.285420     0.277777     0.270133     0.262490
      0.254847     0.247204     0.239561     0.231918     0.224275     0.216631     0.208988     0.201345
 NY phased data points follow
  -1.66564E+01 -1.42172E+01 -1.48005E+01 -1.47815E+01 -1.53431E+01 -1.32476E+01 -1.20749E+01 -1.18233E+01 -1.00322E+01 -8.58959E+00
  -9.16379E+00 -8.91488E+00 -9.60996E+00 -8.29119E+00 -1.06430E+01 -1.20614E+01 -9.59396E+00 -1.13087E+01 -1.40397E+01 -1.17163E+01
  -1.26509E+01 -9.40979E+00 -1.11903E+01 -1.04342E+01 -1.22128E+01 -1.06271E+01 -1.52070E+01 -9.18383E+00 -7.30399E+00 -8.90228E+00
  -1.20648E+01 -8.15692E+00 -7.72169E+00 -7.56656E+00 -7.65698E+00 -9.54505E+00 -8.47859E+00 -9.37983E+00 -7.56596E+00 -8.60512E+00
  -5.75730E+00 -9.91046E+00 -9.71047E+00 -5.59749E+00 -7.82181E+00 -7.00542E+00 -8.63024E+00 -2.53823E+00 -5.55701E+00 -8.74923E+00
  -7.46902E+00 -5.50084E+00 -6.69512E+00 -7.85729E+00 -1.05704E+01 -8.18402E+00 -1.08920E+01 -7.34287E+00 -7.94695E+00 -6.83399E+00
  -7.57623E+00 -7.20525E+00 -1.04399E+01 -9.87926E+00 -8.13557E+00 -6.32823E+00 -6.93087E+00 -9.86584E+00 -8.56201E+00 -7.23440E+00
  -8.71079E+00 -5.80491E+00 -5.40446E+00 -7.21036E+00 -7.72292E+00 -8.20903E+00 -5.30275E+00 -3.45465E+00 -7.17947E+00 -7.16391E+00
  -5.59414E+00 -5.90167E+00 -7.05567E+00 -8.44737E+00 -6.72686E+00 -8.05064E+00 -6.36232E+00 -5.24543E+00 -7.39685E+00 -7.04730E+00
  -8.07263E+00 -6.45430E+00 -4.77835E+00 -4.29002E+00 -3.39173E+00 -2.78300E+00 -2.36086E+00 -4.22448E+00 -2.15099E+00 -2.62714E+00
   1.09807E+00  1.14424E+00  6.17883E-01  6.82980E+00  2.67353E+00  3.31294E+00  4.16096E-01 -2.74972E+00 -5.24361E+00 -2.90298E+00
  -2.94326E+00 -7.68197E+00 -6.05393E+00 -5.59063E+00 -5.38205E+00 -5.99162E+00 -6.04756E+00 -4.39706E+00  1.46632E+00 -4.33594E+00
  -5.02597E+00 -8.74368E-01 -2.70631E+00  1.53063E+00  2.29123E+00  8.86087E+00  8.45703E+00  9.79869E+00  7.25872E+00  6.16575E+00
   4.95339E+00  1.23779E+00  7.97122E-01 -2.98871E+00 -6.69543E-01 -1.56527E+00 -1.86782E-01 -5.83521E+00 -3.94417E+00 -4.97046E+00
  -2.39870E+00 -3.75043E+00 -1.45786E-01 -3.48987E+00 -6.65708E+00 -4.15936E+00 -5.83794E+00 -3.51874E+00 -4.56491E+00 -2.23505E+00
  -4.76743E+00 -6.70541E+00 -8.26557E+00 -2.62414E+00 -3.55065E+00 -4.17969E+00 -4.49458E+00 -3.04190E+00 -1.85062E+00 -4.01149E+00
  -4.27942E+00 -3.58052E+00 -1.29665E+00 -2.10745E+00 -3.34629E+00 -6.74476E+00 -6.07577E+00 -5.08388E+00 -7.74432E+00 -4.30063E+00
  -5.52074E+00 -6.93538E+00 -5.84786E+00 -5.70878E+00 -7.85714E+00 -8.69148E+00 -8.50985E+00 -6.14633E+00 -8.06655E+00 -9.76937E+00
  -8.38621E+00 -8.28409E+00 -5.68139E+00 -4.13159E+00 -8.65948E-01 -6.07353E+00 -3.98523E+00 -7.55377E+00 -3.40623E+00 -6.25291E+00
  -3.60271E+00 -2.13492E+00 -4.21852E+00 -4.73916E+00 -3.60873E+00 -3.57930E+00 -3.98292E+00 -6.43522E+00 -3.32465E+00 -5.25578E+00
  -6.32234E+00 -3.77673E-01 -5.42084E+00 -1.39572E+00 -7.73950E-01 -2.79098E+00 -3.34766E+00 -3.41913E+00 -2.50228E+00 -5.98846E+00
  -4.06478E+00 -2.70608E+00 -4.26571E+00 -5.22780E-01 -7.62386E-01 -1.32643E-01  1.98039E+00 -3.25480E-01 -2.94150E-01 -3.35860E+00
  -1.64212E+00 -2.38028E+00 -1.32055E+00 -2.88585E+00 -2.33381E+00 -1.95103E+00 -2.42575E+00  1.09581E-01 -4.99932E-01 -8.58113E-01
   2.64840E+00  1.22965E+00  1.62722E+00  3.45350E+00 -8.83378E-01  8.30754E-01  8.25973E-01  2.18770E+00  3.76106E+00 -1.44243E+00
  -5.19137E-01 -1.35350E+00 -3.26101E+00 -2.45528E+00  9.84799E-01  2.24816E+00  8.04669E-01  1.98938E+00  4.50720E+00  1.65401E+00
   1.92818E+00  4.53339E+00  5.55657E+00  8.67340E+00  7.59000E+00  1.20511E+01  1.01114E+01  1.48624E+01  2.39005E+01  3.01298E+01
   2.98299E+01  2.95844E+01  2.13176E+01  1.83661E+01  1.49953E+01  1.33247E+01  9.27661E+00  3.19361E+00  6.03477E+00  5.80030E+00
  -2.07412E+00 -3.68364E-01  2.88978E-01  2.22574E+00  3.27065E+00  6.52570E-01  5.27663E-01  3.69586E+00 -1.39779E-01  2.15036E+00
   5.51857E-01  2.01440E+00  1.64463E+00  1.53189E+00  2.87394E+00 -6.47658E-02  9.38412E-02 -1.23007E+00  8.61241E-01  2.31329E-01
   1.92119E-01 -2.13892E+00 -2.89122E+00 -1.03529E+00  1.29801E+00 -1.44268E+00  3.91560E-01 -4.38597E-01  2.02526E+00 -1.59826E-01
  -6.76709E-01  1.76488E-01  3.25210E+00  1.17120E+00 -2.00295E-01 -1.24446E+00  4.32869E+00  2.76182E+00  4.49804E+00  3.42676E+00
   3.10420E+00  1.74127E+00  4.01267E+00  1.68509E+00  2.41941E+00  4.85631E+00  2.91364E+00  3.28304E+00  2.95807E+00  4.89116E-01
   4.01868E+00  3.30264E+00  2.48209E+00  1.17532E+00  1.35734E-01 -1.21741E-01  2.09050E+00  4.59395E+00  2.19258E+00 -7.83840E-02
  -1.11502E+00  2.32086E+00  3.76971E+00  4.66448E+00  2.76227E+00  4.75045E+00  3.74510E+00 -1.05963E-01  4.52212E+00  5.24919E+00
   4.11656E+00  3.44803E+00  6.13239E+00  1.11952E+00  1.17539E+00  3.57005E+00  3.23228E+00  3.23214E+00  1.25205E+00  4.71131E+00
   1.78754E+00  1.68953E+00  1.34732E+00  5.71627E+00  2.82524E+00  1.84290E+00  3.37444E+00 -5.48897E-01  5.42119E-01  2.60574E+00
   5.94128E+00  3.50337E+00 -5.54293E-02  2.76421E+00  4.61476E+00  2.60125E+00  2.76881E+00  8.77563E-01  3.81467E+00  1.55612E+00
   7.30780E-01  3.59062E+00  1.22650E+00  1.81320E+00  1.13115E+00  4.05358E+00  3.78754E+00  8.78489E-01 -6.78493E-01 -1.08047E+00
   7.11767E-01  2.26776E-01  1.78050E+00  5.10988E-01 -1.94867E+00  4.82063E-01 -2.25139E+00 -1.82133E-01  3.37377E-02  4.20298E-01
   1.52362E+00  2.59034E+00  2.37826E+00  2.81211E+00  1.11045E+00  1.34822E+00 -5.96939E-01  1.80853E+00  2.60468E+00  3.01448E+00
   2.02130E+00  2.39528E+00  2.02481E+00  3.45154E+00  3.05610E+00  2.79992E+00  2.54034E+00  2.89045E+00  9.53318E-01  3.10781E+00
   1.17851E+00  1.96354E+00  9.51085E-01  2.52931E+00  1.37132E+00  3.46972E+00  1.75076E-01  1.44994E+00  2.86391E+00  2.38913E-01
  -6.49768E-01 -1.06170E+00  1.29231E+00  4.10198E+00 -3.33152E-02 -1.50597E+00 -1.10301E+00 -1.29681E+00 -6.47797E-01  1.39395E-01
   1.19409E+00  9.25608E-01  6.32402E-01 -1.80364E+00 -3.11940E+00  8.02272E-01  9.42376E-01  3.68120E+00  2.11530E+00  9.69402E-01
   3.21124E+00 -9.69041E-01 -4.41323E-01  1.04767E-01  1.29024E+00 -1.35618E+00  1.05205E+00  2.06213E+00 -1.49035E+00  4.70553E-01
   4.69881E-01  3.30930E+00  3.29321E-01  3.93650E-02 -3.53741E-03  1.61335E+00  6.32710E-01 -8.90147E-01 -2.43373E+00 -2.06154E-01
  -3.48424E-01 -1.97144E+00  2.83767E-01  1.46015E-01 -2.23381E+00 -2.84128E+00 -6.64832E-01 -5.83379E-01 -4.50786E-01 -2.08170E+00
   1.78827E+00  2.45250E+00  5.29629E-01 -3.21602E+00 -1.61557E-01 -3.89664E-01 -1.03285E+00  7.55775E-01 -7.50472E-01  3.57571E-01
  -3.37012E-01  1.61460E+00  2.11511E-03  3.88366E-01 -6.46184E-02 -1.62133E+00 -9.62937E-01 -7.58735E-01  3.01301E+00 -9.05098E-01
  -6.91132E-01  4.74684E-01 -4.18763E-01  2.10151E-01 -4.41089E-01  1.28131E+00  5.73119E-01  2.91475E+00
 NY points of the fit to the data follow
  -1.14386E+01 -1.19100E+01 -1.21175E+01 -1.19832E+01 -1.21478E+01 -1.24979E+01 -1.23864E+01 -1.14840E+01 -1.01726E+01 -9.08957E+00
  -8.69452E+00 -8.89692E+00 -9.24152E+00 -9.50847E+00 -9.74128E+00 -9.97227E+00 -1.00959E+01 -1.03560E+01 -1.05706E+01 -1.05102E+01
  -1.03745E+01 -1.02486E+01 -1.01646E+01 -1.00687E+01 -1.00304E+01 -1.00718E+01 -1.00883E+01 -9.91756E+00 -9.48479E+00 -8.87204E+00
  -8.23526E+00 -7.73657E+00 -7.52028E+00 -7.60671E+00 -7.91962E+00 -8.39255E+00 -8.89031E+00 -9.28987E+00 -9.55924E+00 -9.64502E+00
  -9.53622E+00 -9.29783E+00 -9.01914E+00 -8.64507E+00 -8.04137E+00 -7.28889E+00 -6.68448E+00 -6.49661E+00 -6.78525E+00 -7.33239E+00
  -7.86171E+00 -8.25759E+00 -8.50714E+00 -8.63647E+00 -8.69481E+00 -8.68547E+00 -8.55720E+00 -8.27581E+00 -7.92430E+00 -7.63541E+00
  -7.50196E+00 -7.53118E+00 -7.63670E+00 -7.74658E+00 -7.80946E+00 -7.77732E+00 -7.69397E+00 -7.62344E+00 -7.52336E+00 -7.35062E+00
  -7.16581E+00 -6.98711E+00 -6.81169E+00 -6.65916E+00 -6.57479E+00 -6.58707E+00 -6.70909E+00 -6.91248E+00 -7.07796E+00 -7.11063E+00
  -7.04556E+00 -6.95780E+00 -6.84134E+00 -6.68151E+00 -6.52552E+00 -6.45851E+00 -6.55784E+00 -6.77557E+00 -6.97571E+00 -7.06313E+00
  -7.08202E+00 -7.09161E+00 -7.09379E+00 -7.09311E+00 -7.04282E+00 -6.72778E+00 -5.82024E+00 -4.78159E+00 -3.80582E+00 -2.31966E+00
  -5.03393E-02  2.39046E+00  3.96666E+00  4.10222E+00  3.00696E+00  1.45374E+00  4.85626E-04 -1.27491E+00 -2.43584E+00 -3.47711E+00
  -4.40198E+00 -5.23681E+00 -5.66919E+00 -5.79030E+00 -5.82915E+00 -5.83141E+00 -5.81987E+00 -5.78065E+00 -5.68525E+00 -5.35852E+00
  -4.31852E+00 -3.00076E+00 -1.69612E+00  3.31393E-01  3.47516E+00  6.87754E+00  9.12134E+00  9.41087E+00  7.98065E+00  5.84820E+00
   3.84234E+00  2.09717E+00  4.66537E-01 -1.04488E+00 -2.42349E+00 -3.69901E+00 -4.41150E+00 -4.60264E+00 -4.61979E+00 -4.56447E+00
  -4.49264E+00 -4.44229E+00 -4.42153E+00 -4.41634E+00 -4.42314E+00 -4.43741E+00 -4.45588E+00 -4.48314E+00 -4.51797E+00 -4.54810E+00
  -4.57500E+00 -4.59207E+00 -4.59926E+00 -4.59891E+00 -4.61675E+00 -4.63805E+00 -4.64073E+00 -4.66584E+00 -4.74390E+00 -4.87944E+00
  -5.01017E+00 -5.01720E+00 -4.87857E+00 -4.71117E+00 -4.64888E+00 -4.72315E+00 -4.88145E+00 -5.04527E+00 -5.17261E+00 -5.27620E+00
  -5.39328E+00 -5.49347E+00 -5.60583E+00 -5.77129E+00 -5.92903E+00 -5.96998E+00 -5.85204E+00 -5.66167E+00 -5.53932E+00 -5.53339E+00
  -5.57179E+00 -5.53458E+00 -5.38317E+00 -5.22294E+00 -5.11266E+00 -4.98912E+00 -4.76685E+00 -4.39651E+00 -3.93398E+00 -3.49894E+00
  -3.18848E+00 -3.05460E+00 -3.04135E+00 -3.06065E+00 -3.06537E+00 -3.05639E+00 -3.05694E+00 -3.00156E+00 -2.81925E+00 -2.51969E+00
  -2.14490E+00 -1.75969E+00 -1.45295E+00 -1.38552E+00 -1.55259E+00 -1.96347E+00 -2.63964E+00 -3.43414E+00 -4.06230E+00 -4.30501E+00
  -4.16651E+00 -3.77310E+00 -3.12367E+00 -2.21276E+00 -1.24948E+00 -6.16681E-01 -5.49465E-01 -9.36732E-01 -1.53867E+00 -2.32611E+00
  -3.14401E+00 -3.68835E+00 -3.76729E+00 -3.37624E+00 -2.71920E+00 -2.00966E+00 -1.34515E+00 -8.16608E-01 -4.68473E-01 -3.06649E-01
  -2.07779E-01 -1.15196E-01 -8.08163E-02 -7.35757E-02  1.85648E-02  2.15786E-01  4.59000E-01  7.21304E-01  9.18859E-01  9.67994E-01
   8.53299E-01  6.79017E-01  5.89659E-01  6.60701E-01  8.65108E-01  1.10050E+00  1.34568E+00  1.60214E+00  1.88220E+00  2.24616E+00
   2.66806E+00  3.17514E+00  3.93498E+00  5.65308E+00  8.43006E+00  1.08170E+01  1.33925E+01  1.76731E+01  2.33742E+01  2.81446E+01
   2.97841E+01  2.78401E+01  2.36797E+01  1.92396E+01  1.53400E+01  1.19118E+01  8.82158E+00  6.14451E+00  3.70718E+00  1.78819E+00
   1.03809E+00  7.55670E-01  6.10355E-01  5.27965E-01  4.66204E-01  3.86233E-01  2.93576E-01  1.96185E-01  9.52353E-02 -4.32955E-03
  -9.30728E-02 -1.67870E-01 -2.28813E-01 -2.73251E-01 -3.02411E-01 -3.18039E-01 -3.22819E-01 -3.18093E-01 -3.02133E-01 -2.70883E-01
  -2.26049E-01 -1.68155E-01 -9.79130E-02 -1.49230E-02  8.03591E-02  1.88643E-01  3.09279E-01  4.42133E-01  5.86153E-01  7.40551E-01
   9.02246E-01  1.06859E+00  1.23548E+00  1.39888E+00  1.55432E+00  1.69839E+00  1.82779E+00  1.94048E+00  2.03375E+00  2.10693E+00
   2.15959E+00  2.19275E+00  2.20794E+00  2.20833E+00  2.19696E+00  2.17816E+00  2.15623E+00  2.13694E+00  2.12690E+00  2.13756E+00
   2.17914E+00  2.21858E+00  2.25443E+00  2.32012E+00  2.39558E+00  2.41163E+00  2.32094E+00  2.14527E+00  1.98067E+00  1.89342E+00
   1.86519E+00  1.89576E+00  2.02310E+00  2.26003E+00  2.55066E+00  2.81539E+00  3.01754E+00  3.14365E+00  3.21457E+00  3.26259E+00
   3.30136E+00  3.31812E+00  3.30750E+00  3.28526E+00  3.26618E+00  3.22880E+00  3.12601E+00  2.96046E+00  2.79127E+00  2.65773E+00
   2.56066E+00  2.50904E+00  2.52249E+00  2.59929E+00  2.69984E+00  2.77473E+00  2.80612E+00  2.79683E+00  2.75381E+00  2.69047E+00
   2.60935E+00  2.51411E+00  2.40740E+00  2.28565E+00  2.16425E+00  2.05208E+00  1.94342E+00  1.83686E+00  1.73220E+00  1.63045E+00
   1.53221E+00  1.43873E+00  1.35070E+00  1.26941E+00  1.19552E+00  1.13015E+00  1.07376E+00  1.02727E+00  9.91023E-01  9.65906E-01
   9.52181E-01  9.50597E-01  9.61258E-01  9.84794E-01  1.02125E+00  1.07117E+00  1.13440E+00  1.21116E+00  1.30088E+00  1.40334E+00
   1.51749E+00  1.64253E+00  1.77667E+00  1.91823E+00  2.06458E+00  2.21330E+00  2.36110E+00  2.50493E+00  2.64102E+00  2.76605E+00
   2.87624E+00  2.96867E+00  3.04025E+00  3.08891E+00  3.11266E+00  3.11077E+00  3.08276E+00  3.02951E+00  2.95213E+00  2.85288E+00
   2.73407E+00  2.59898E+00  2.45069E+00  2.29298E+00  2.12908E+00  1.96256E+00  1.79619E+00  1.63297E+00  1.47498E+00  1.32437E+00
   1.18230E+00  1.05000E+00  9.27766E-01  8.16111E-01  7.14748E-01  6.23651E-01  5.42065E-01  4.69608E-01  4.05326E-01  3.48773E-01
   2.98988E-01  2.55514E-01  2.17391E-01  1.84216E-01  1.55160E-01  1.29986E-01  1.07999E-01  8.90291E-02  7.24372E-02  5.81476E-02
   4.56570E-02  3.50104E-02  2.57632E-02  1.79667E-02  1.11941E-02  5.56161E-03  7.34030E-04 -3.11749E-03 -6.33173E-03 -8.76511E-03
  -1.07458E-02 -1.20735E-02 -1.30147E-02 -1.33578E-02 -1.34036E-02 -1.29709E-02 -1.23397E-02 -1.12738E-02 -1.00158E-02 -8.34829E-03
  -6.55763E-03 -4.44121E-03 -2.24741E-03  2.75673E-04  2.89074E-03  5.81016E-03  8.75637E-03  1.19476E-02  1.51566E-02  1.86382E-02
   2.21513E-02  2.59028E-02  2.96278E-02  3.35597E-02  3.74843E-02  4.16499E-02  4.58080E-02  5.01613E-02  5.44593E-02  5.89471E-02
   6.34163E-02  6.81046E-02  7.27579E-02  7.75808E-02  8.23401E-02  8.72895E-02  9.22200E-02  9.73559E-02  1.02442E-01  1.07689E-01
   1.12881E-01  1.18276E-01  1.23661E-01  1.29249E-01  1.34788E-01  1.40505E-01  1.46200E-01  1.52132E-01
 NY background values follow
    -1.220E+01   -1.215E+01   -1.210E+01   -1.205E+01   -1.200E+01   -1.194E+01   -1.189E+01   -1.184E+01   -1.179E+01   -1.174E+01
    -1.169E+01   -1.163E+01   -1.158E+01   -1.153E+01   -1.148E+01   -1.143E+01   -1.138E+01   -1.132E+01   -1.127E+01   -1.122E+01
    -1.117E+01   -1.112E+01   -1.107E+01   -1.102E+01   -1.096E+01   -1.091E+01   -1.086E+01   -1.081E+01   -1.076E+01   -1.071E+01
    -1.066E+01   -1.061E+01   -1.055E+01   -1.050E+01   -1.045E+01   -1.040E+01   -1.035E+01   -1.030E+01   -1.025E+01   -1.020E+01
    -1.015E+01   -1.010E+01   -1.004E+01   -9.994E+00   -9.944E+00   -9.893E+00   -9.843E+00   -9.792E+00   -9.742E+00   -9.692E+00
    -9.641E+00   -9.591E+00   -9.541E+00   -9.491E+00   -9.442E+00   -9.392E+00   -9.342E+00   -9.292E+00   -9.243E+00   -9.193E+00
    -9.144E+00   -9.095E+00   -9.045E+00   -8.996E+00   -8.947E+00   -8.898E+00   -8.850E+00   -8.801E+00   -8.752E+00   -8.704E+00
    -8.655E+00   -8.607E+00   -8.559E+00   -8.511E+00   -8.463E+00   -8.415E+00   -8.367E+00   -8.320E+00   -8.272E+00   -8.225E+00
    -8.177E+00   -8.130E+00   -8.083E+00   -8.036E+00   -7.990E+00   -7.943E+00   -7.896E+00   -7.850E+00   -7.804E+00   -7.758E+00
    -7.712E+00   -7.666E+00   -7.620E+00   -7.575E+00   -7.530E+00   -7.484E+00   -7.439E+00   -7.394E+00   -7.349E+00   -7.305E+00
    -7.260E+00   -7.216E+00   -7.172E+00   -7.128E+00   -7.084E+00   -7.040E+00   -6.996E+00   -6.953E+00   -6.910E+00   -6.867E+00
    -6.824E+00   -6.781E+00   -6.738E+00   -6.695E+00   -6.653E+00   -6.611E+00   -6.569E+00   -6.527E+00   -6.485E+00   -6.444E+00
    -6.402E+00   -6.361E+00   -6.320E+00   -6.279E+00   -6.238E+00   -6.197E+00   -6.157E+00   -6.117E+00   -6.076E+00   -6.036E+00
    -5.997E+00   -5.957E+00   -5.918E+00   -5.878E+00   -5.839E+00   -5.800E+00   -5.761E+00   -5.723E+00   -5.684E+00   -5.646E+00
    -5.608E+00   -5.570E+00   -5.532E+00   -5.494E+00   -5.457E+00   -5.419E+00   -5.382E+00   -5.345E+00   -5.308E+00   -5.271E+00
    -5.235E+00   -5.198E+00   -5.162E+00   -5.126E+00   -5.090E+00   -5.054E+00   -5.019E+00   -4.983E+00   -4.948E+00   -4.912E+00
    -4.877E+00   -4.842E+00   -4.808E+00   -4.773E+00   -4.738E+00   -4.704E+00   -4.670E+00   -4.636E+00   -4.602E+00   -4.568E+00
    -4.534E+00   -4.501E+00   -4.467E+00   -4.434E+00   -4.401E+00   -4.367E+00   -4.335E+00   -4.302E+00   -4.269E+00   -4.236E+00
    -4.204E+00   -4.172E+00   -4.139E+00   -4.107E+00   -4.075E+00   -4.043E+00   -4.012E+00   -3.980E+00   -3.949E+00   -3.917E+00
    -3.886E+00   -3.855E+00   -3.824E+00   -3.793E+00   -3.762E+00   -3.732E+00   -3.701E+00   -3.671E+00   -3.641E+00   -3.611E+00
    -3.581E+00   -3.551E+00   -3.521E+00   -3.492E+00   -3.462E+00   -3.433E+00   -3.404E+00   -3.375E+00   -3.346E+00   -3.317E+00
    -3.289E+00   -3.260E+00   -3.232E+00   -3.204E+00   -3.176E+00   -3.148E+00   -3.120E+00   -3.093E+00   -3.065E+00   -3.038E+00
    -3.011E+00   -2.984E+00   -2.957E+00   -2.930E+00   -2.904E+00   -2.877E+00   -2.851E+00   -2.825E+00   -2.799E+00   -2.773E+00
    -2.748E+00   -2.722E+00   -2.697E+00   -2.672E+00   -2.646E+00   -2.622E+00   -2.597E+00   -2.572E+00   -2.548E+00   -2.523E+00
    -2.499E+00   -2.475E+00   -2.452E+00   -2.428E+00   -2.404E+00   -2.381E+00   -2.358E+00   -2.335E+00   -2.312E+00   -2.289E+00
    -2.267E+00   -2.244E+00   -2.222E+00   -2.200E+00   -2.178E+00   -2.156E+00   -2.134E+00   -2.113E+00   -2.092E+00   -2.071E+00
    -2.050E+00   -2.029E+00   -2.008E+00   -1.988E+00   -1.967E+00   -1.947E+00   -1.927E+00   -1.907E+00   -1.887E+00   -1.868E+00
    -1.848E+00   -1.829E+00   -1.810E+00   -1.791E+00   -1.773E+00   -1.754E+00   -1.736E+00   -1.717E+00   -1.699E+00   -1.681E+00
    -1.664E+00   -1.646E+00   -1.628E+00   -1.611E+00   -1.594E+00   -1.577E+00   -1.560E+00   -1.543E+00   -1.527E+00   -1.511E+00
    -1.494E+00   -1.478E+00   -1.462E+00   -1.446E+00   -1.431E+00   -1.415E+00   -1.400E+00   -1.385E+00   -1.370E+00   -1.355E+00
    -1.340E+00   -1.325E+00   -1.311E+00   -1.296E+00   -1.282E+00   -1.268E+00   -1.254E+00   -1.240E+00   -1.227E+00   -1.213E+00
    -1.200E+00   -1.187E+00   -1.173E+00   -1.160E+00   -1.148E+00   -1.135E+00   -1.122E+00   -1.110E+00   -1.097E+00   -1.085E+00
    -1.073E+00   -1.061E+00   -1.049E+00   -1.038E+00   -1.026E+00   -1.015E+00   -1.003E+00   -9.920E-01   -9.809E-01   -9.699E-01
    -9.590E-01   -9.482E-01   -9.375E-01   -9.270E-01   -9.165E-01   -9.061E-01   -8.959E-01   -8.858E-01   -8.757E-01   -8.658E-01
    -8.559E-01   -8.462E-01   -8.366E-01   -8.270E-01   -8.176E-01   -8.082E-01   -7.989E-01   -7.898E-01   -7.807E-01   -7.717E-01
    -7.627E-01   -7.539E-01   -7.452E-01   -7.365E-01   -7.279E-01   -7.194E-01   -7.110E-01   -7.026E-01   -6.943E-01   -6.861E-01
    -6.780E-01   -6.699E-01   -6.620E-01   -6.540E-01   -6.462E-01   -6.384E-01   -6.307E-01   -6.230E-01   -6.154E-01   -6.079E-01
    -6.004E-01   -5.930E-01   -5.856E-01   -5.783E-01   -5.710E-01   -5.638E-01   -5.567E-01   -5.496E-01   -5.425E-01   -5.355E-01
    -5.286E-01   -5.216E-01   -5.148E-01   -5.079E-01   -5.011E-01   -4.944E-01   -4.877E-01   -4.810E-01   -4.743E-01   -4.677E-01
    -4.611E-01   -4.546E-01   -4.481E-01   -4.416E-01   -4.351E-01   -4.287E-01   -4.223E-01   -4.159E-01   -4.095E-01   -4.031E-01
    -3.968E-01   -3.905E-01   -3.842E-01   -3.779E-01   -3.716E-01   -3.654E-01   -3.591E-01   -3.529E-01   -3.466E-01   -3.404E-01
    -3.342E-01   -3.280E-01   -3.218E-01   -3.156E-01   -3.094E-01   -3.032E-01   -2.970E-01   -2.909E-01   -2.847E-01   -2.786E-01
    -2.724E-01   -2.663E-01   -2.601E-01   -2.540E-01   -2.479E-01   -2.418E-01   -2.357E-01   -2.296E-01   -2.235E-01   -2.174E-01
    -2.113E-01   -2.052E-01   -1.991E-01   -1.931E-01   -1.870E-01   -1.810E-01   -1.749E-01   -1.688E-01   -1.628E-01   -1.568E-01
    -1.507E-01   -1.447E-01   -1.387E-01   -1.326E-01   -1.266E-01   -1.206E-01   -1.146E-01   -1.086E-01   -1.026E-01   -9.657E-02
    -9.057E-02   -8.457E-02   -7.858E-02   -7.259E-02   -6.660E-02   -6.061E-02   -5.462E-02   -4.864E-02   -4.266E-02   -3.668E-02
    -3.070E-02   -2.473E-02   -1.875E-02   -1.278E-02   -6.808E-03   -8.368E-04    5.134E-03    1.110E-02    1.707E-02    2.304E-02
     2.901E-02    3.498E-02    4.095E-02    4.692E-02    5.289E-02    5.886E-02    6.483E-02    7.081E-02    7.678E-02    8.275E-02
     8.873E-02    9.471E-02    1.007E-01    1.067E-01    1.126E-01    1.186E-01    1.246E-01    1.306E-01    1.366E-01    1.426E-01
     1.486E-01    1.546E-01    1.606E-01    1.666E-01    1.726E-01    1.786E-01    1.846E-01    1.907E-01
 Ala      Conc. = 4.99E+01
