 LCModel (Version 6.3-1L) Copyright: S.W. Provencher.          Ref.: Magn. Reson. Med. 30:672-679 (1993).                
 Slice#3 Row#6 Col#10  PD_05_press_1_raw_act
 36 lines in following concentration table = NCONC+1
    Conc.  %SD /Cr+PCr  Metabolite                                         
  214.492  43%   0.163 Ala                                                 
    0.000 999%   0.000 Asp                                                 
  466.702  36%   0.355 Cr                                                  
  847.787  21%   0.645 PCr                                                 
  100.566 128% 7.7E-02 GABA                                                
    0.000 999%   0.000 Glc                                                 
  637.971  29%   0.485 Gln                                                 
 1.45E+03  16%   1.104 Glu                                                 
  402.763   4%   0.306 GPC                                                 
    0.000 999%   0.000 PCh                                                 
  395.349  15%   0.301 GSH                                                 
  567.776  37%   0.432 Ins                                                 
  184.952  75%   0.141 Lac                                                 
 1.88E+03   6%   1.430 NAA                                                 
  143.360  87%   0.109 NAAG                                                
   77.317  28% 5.9E-02 Scyllo                                              
    0.000 999%   0.000 Tau                                                 
  186.549  47%   0.142 -CrCH2                                              
  402.763   4%   0.306 GPC+PCh                                             
 2.02E+03   3%   1.539 NAA+NAAG                                            
 1.31E+03   3%   1.000 Cr+PCr                                              
 2.09E+03  15%   1.589 Glu+Gln                                             
    0.000 999%   0.000 Lip13a                                              
  551.125  45%   0.419 Lip13b                                              
   42.965 234% 3.3E-02 Lip09                                               
  977.631  18%   0.744 MM09                                                
   92.920  69% 7.1E-02 Lip20                                               
 2.23E+03  13%   1.696 MM20                                                
  255.292  43%   0.194 MM12                                                
 2.14E+03  15%   1.629 MM14                                                
 1.25E+03  18%   0.951 MM17                                                
  551.125  45%   0.419 Lip13a+Lip13b                                       
 2.95E+03  12%   2.243 MM14+Lip13a+Lip13b+MM12                             
 1.02E+03  16%   0.776 MM09+Lip09                                          
 2.32E+03  12%   1.767 MM20+Lip20                                          
   6 lines in following misc. output table
  FWHM = 0.054 ppm    S/N =  13                                            
  Data shift = 0.000 ppm                                                   
  Ph:  -1 deg      -6.0 deg/ppm                                            
  alphaB,S = 4.6E-01,   1.9E+02                                            
   14 spline knots.   Ns = 7(1)                                            
  (10) 4 infls.   ( 3) 1 extrs.                                            
  498 points on ppm-axis = NY
      4.000000     3.992357     3.984714     3.977070     3.969427     3.961784     3.954141     3.946497     3.938854     3.931211
      3.923568     3.915925     3.908281     3.900638     3.892995     3.885352     3.877708     3.870065     3.862422     3.854779
      3.847136     3.839492     3.831849     3.824206     3.816563     3.808919     3.801276     3.793633     3.785990     3.778347
      3.770703     3.763060     3.755417     3.747774     3.740130     3.732487     3.724844     3.717201     3.709558     3.701914
      3.694271     3.686628     3.678985     3.671341     3.663698     3.656055     3.648412     3.640769     3.633125     3.625482
      3.617839     3.610196     3.602552     3.594909     3.587266     3.579623     3.571980     3.564336     3.556693     3.549050
      3.541407     3.533763     3.526120     3.518477     3.510834     3.503191     3.495547     3.487904     3.480261     3.472618
      3.464974     3.457331     3.449688     3.442045     3.434402     3.426758     3.419115     3.411472     3.403829     3.396185
      3.388542     3.380899     3.373256     3.365613     3.357969     3.350326     3.342683     3.335040     3.327396     3.319753
      3.312110     3.304467     3.296824     3.289180     3.281537     3.273894     3.266251     3.258607     3.250964     3.243321
      3.235678     3.228034     3.220391     3.212748     3.205105     3.197462     3.189818     3.182175     3.174532     3.166889
      3.159245     3.151602     3.143959     3.136316     3.128673     3.121029     3.113386     3.105743     3.098100     3.090456
      3.082813     3.075170     3.067527     3.059884     3.052240     3.044597     3.036954     3.029311     3.021667     3.014024
      3.006381     2.998738     2.991095     2.983451     2.975808     2.968165     2.960522     2.952878     2.945235     2.937592
      2.929949     2.922306     2.914662     2.907019     2.899376     2.891733     2.884089     2.876446     2.868803     2.861160
      2.853517     2.845873     2.838230     2.830587     2.822944     2.815300     2.807657     2.800014     2.792371     2.784728
      2.777084     2.769441     2.761798     2.754155     2.746511     2.738868     2.731225     2.723582     2.715939     2.708295
      2.700652     2.693009     2.685366     2.677722     2.670079     2.662436     2.654793     2.647150     2.639506     2.631863
      2.624220     2.616577     2.608933     2.601290     2.593647     2.586004     2.578361     2.570717     2.563074     2.555431
      2.547788     2.540144     2.532501     2.524858     2.517215     2.509572     2.501928     2.494285     2.486642     2.478999
      2.471355     2.463712     2.456069     2.448426     2.440783     2.433139     2.425496     2.417853     2.410210     2.402566
      2.394923     2.387280     2.379637     2.371994     2.364350     2.356707     2.349064     2.341421     2.333777     2.326134
      2.318491     2.310848     2.303205     2.295561     2.287918     2.280275     2.272632     2.264988     2.257345     2.249702
      2.242059     2.234416     2.226772     2.219129     2.211486     2.203843     2.196199     2.188556     2.180913     2.173270
      2.165627     2.157983     2.150340     2.142697     2.135054     2.127410     2.119767     2.112124     2.104481     2.096838
      2.089194     2.081551     2.073908     2.066265     2.058621     2.050978     2.043335     2.035692     2.028049     2.020405
      2.012762     2.005119     1.997476     1.989833     1.982190     1.974546     1.966903     1.959260     1.951617     1.943974
      1.936331     1.928688     1.921045     1.913402     1.905759     1.898115     1.890472     1.882829     1.875186     1.867543
      1.859900     1.852257     1.844614     1.836971     1.829327     1.821684     1.814041     1.806398     1.798755     1.791112
      1.783469     1.775826     1.768183     1.760540     1.752896     1.745253     1.737610     1.729967     1.722324     1.714681
      1.707038     1.699395     1.691752     1.684108     1.676465     1.668822     1.661179     1.653536     1.645893     1.638250
      1.630607     1.622964     1.615321     1.607677     1.600034     1.592391     1.584748     1.577105     1.569462     1.561819
      1.554176     1.546533     1.538890     1.531246     1.523603     1.515960     1.508317     1.500674     1.493031     1.485388
      1.477745     1.470102     1.462458     1.454815     1.447172     1.439529     1.431886     1.424243     1.416600     1.408957
      1.401314     1.393671     1.386027     1.378384     1.370741     1.363098     1.355455     1.347812     1.340169     1.332526
      1.324883     1.317240     1.309596     1.301953     1.294310     1.286667     1.279024     1.271381     1.263738     1.256095
      1.248452     1.240808     1.233165     1.225522     1.217879     1.210236     1.202593     1.194950     1.187307     1.179664
      1.172021     1.164377     1.156734     1.149091     1.141448     1.133805     1.126162     1.118519     1.110876     1.103233
      1.095590     1.087946     1.080303     1.072660     1.065017     1.057374     1.049731     1.042088     1.034445     1.026802
      1.019158     1.011515     1.003872     0.996229     0.988586     0.980943     0.973300     0.965657     0.958014     0.950371
      0.942727     0.935084     0.927441     0.919798     0.912155     0.904512     0.896869     0.889226     0.881583     0.873940
      0.866296     0.858653     0.851010     0.843367     0.835724     0.828081     0.820438     0.812795     0.805152     0.797508
      0.789865     0.782222     0.774579     0.766936     0.759293     0.751650     0.744007     0.736364     0.728721     0.721077
      0.713434     0.705791     0.698148     0.690505     0.682862     0.675219     0.667576     0.659933     0.652290     0.644646
      0.637003     0.629360     0.621717     0.614074     0.606431     0.598788     0.591145     0.583502     0.575858     0.568215
      0.560572     0.552929     0.545286     0.537643     0.530000     0.522357     0.514714     0.507071     0.499427     0.491784
      0.484141     0.476498     0.468855     0.461212     0.453569     0.445925     0.438282     0.430639     0.422996     0.415353
      0.407710     0.400067     0.392424     0.384780     0.377137     0.369494     0.361851     0.354208     0.346565     0.338922
      0.331278     0.323635     0.315992     0.308349     0.300706     0.293063     0.285420     0.277777     0.270133     0.262490
      0.254847     0.247204     0.239561     0.231918     0.224275     0.216631     0.208988     0.201345
 NY phased data points follow
   2.25654E+01  2.46184E+01  2.59454E+01  2.88195E+01  2.84905E+01  3.27818E+01  3.55463E+01  3.70631E+01  4.07860E+01  4.26067E+01
   4.40733E+01  4.28382E+01  4.22291E+01  3.89293E+01  3.49689E+01  3.22240E+01  2.56938E+01  2.69964E+01  2.57236E+01  2.50244E+01
   2.20414E+01  2.09957E+01  2.19372E+01  2.38934E+01  2.38719E+01  2.88793E+01  2.75398E+01  2.74318E+01  2.48046E+01  2.86569E+01
   2.13302E+01  2.76860E+01  2.49380E+01  2.42420E+01  2.39107E+01  2.18695E+01  2.53439E+01  2.29886E+01  2.03676E+01  2.28852E+01
   2.11032E+01  2.19145E+01  2.21573E+01  2.17846E+01  2.62894E+01  2.42344E+01  2.63639E+01  2.68783E+01  2.53390E+01  2.49644E+01
   1.96003E+01  1.80083E+01  1.76973E+01  1.81556E+01  1.74803E+01  1.81853E+01  1.85170E+01  1.86802E+01  1.49757E+01  1.26195E+01
   1.31554E+01  1.34810E+01  1.16190E+01  1.12220E+01  7.98846E+00  7.51889E+00  7.04512E+00  8.65156E+00  6.27269E+00  6.67110E+00
   1.02184E+01  9.94228E+00  7.62991E+00  9.75872E+00  1.10283E+01  8.32598E+00  9.11990E+00  8.72799E+00  9.60899E+00  7.75906E+00
   6.69075E+00  1.16903E+01  7.24748E+00  9.54650E+00  1.17650E+01  1.24836E+01  1.28559E+01  1.47131E+01  9.14680E+00  1.24097E+01
   1.24717E+01  1.10606E+01  1.30191E+01  1.09103E+01  1.39668E+01  1.48190E+01  1.70058E+01  1.97861E+01  2.05592E+01  2.47021E+01
   2.87931E+01  3.58876E+01  3.98352E+01  4.15517E+01  4.05704E+01  3.62567E+01  3.04297E+01  2.37209E+01  1.96891E+01  1.63705E+01
   1.26829E+01  1.00512E+01  1.05678E+01  7.65466E+00  8.39042E+00  8.65130E+00  9.68864E+00  1.19551E+01  1.14018E+01  1.51679E+01
   1.53894E+01  1.67704E+01  2.76180E+01  2.57397E+01  3.17732E+01  4.06685E+01  4.42152E+01  4.62580E+01  4.50126E+01  3.99513E+01
   3.62999E+01  2.60487E+01  1.99306E+01  1.49020E+01  1.07066E+01  7.33316E+00  6.56117E+00  7.66924E+00  8.03766E+00  4.73736E+00
   6.54523E+00  6.74829E+00  8.85379E+00  7.73639E+00  6.43481E+00  4.83509E+00  4.49391E+00  7.29677E+00  7.02561E+00  5.91878E+00
   3.88501E+00  6.25272E+00  5.11845E+00  2.65136E+00  4.51466E+00  3.09059E+00  4.78919E+00  5.30011E+00  6.76049E-01  2.29819E+00
   1.79896E+00 -1.32675E+00 -2.81888E-01  2.94305E+00  7.73797E-01  2.31852E+00  2.76702E+00  1.36666E+00 -1.37698E+00  4.02981E-02
  -4.89747E+00 -2.17711E+00 -3.81031E+00 -2.02621E+00 -5.34525E+00 -8.29348E+00 -8.44704E+00 -9.23613E+00 -5.12483E+00 -2.51760E+00
  -3.69397E+00 -5.01500E+00 -6.79167E+00 -3.14533E+00 -2.57835E+00 -7.12650E+00 -5.11731E+00 -2.08701E+00 -1.31021E+00 -2.11623E+00
   2.00244E+00  2.55305E+00  2.17754E+00  1.63092E+00  1.09323E-02  9.98363E-01  2.01291E+00 -7.70534E-01  9.26408E-01 -1.47109E+00
  -2.12957E+00  1.78588E+00  6.05381E-01  1.45678E+00  4.30473E+00  1.23471E+00  8.96961E-01  2.92353E+00  9.44354E-01 -2.29898E+00
  -1.80171E+00 -7.69520E-01  3.56486E+00  6.53146E+00  8.03365E+00  8.19207E+00  9.26021E+00  8.03806E+00  7.76345E+00  6.10597E+00
   8.74713E-01  4.43716E-02 -3.65621E+00 -3.27408E-01  2.08521E+00  2.83475E+00  4.73614E+00  7.73882E+00  6.74770E+00  7.99943E+00
   5.86566E+00  6.63513E+00  6.63028E+00  3.44342E+00  4.90822E+00  7.84890E+00  4.31456E+00  7.77482E+00  5.90021E+00  7.47117E+00
   7.11023E+00  4.27190E+00  4.35806E+00  5.76790E+00  5.76782E+00  7.40089E+00  8.94453E+00  1.10707E+01  1.31424E+01  1.45353E+01
   1.60405E+01  1.80263E+01  2.10944E+01  2.28731E+01  3.02578E+01  3.28625E+01  4.06081E+01  4.81803E+01  5.80296E+01  6.78503E+01
   6.98815E+01  6.85098E+01  6.11858E+01  5.29286E+01  3.41864E+01  2.31005E+01  1.85887E+01  1.29848E+01  9.67650E+00  5.52220E+00
   3.94824E+00  5.91885E+00  8.32451E+00  7.20134E+00  5.94644E+00  9.18360E+00  6.76984E+00  7.34419E+00  8.14642E+00  6.64472E+00
   5.15362E+00  4.95427E+00  5.80314E+00  4.38364E+00  6.82285E+00  3.85105E+00  2.97248E+00  5.95051E+00  7.60679E+00  2.84635E+00
   8.18074E+00  6.30452E+00  5.17999E+00  6.72008E+00  5.59166E+00  4.23145E+00  5.57072E+00  8.25969E+00  8.28543E+00  8.29030E+00
   7.24615E+00  1.02951E+01  6.07148E+00  8.55139E+00  8.17964E+00  9.16795E+00  1.18588E+01  7.83705E+00  1.11365E+01  9.64897E+00
   1.08697E+01  1.19769E+01  1.17762E+01  1.14209E+01  1.36916E+01  1.27987E+01  1.48796E+01  1.26166E+01  1.25086E+01  1.32370E+01
   1.07853E+01  1.29328E+01  1.50890E+01  1.37405E+01  1.37729E+01  1.24380E+01  1.21539E+01  7.59255E+00  1.34816E+01  1.26659E+01
   1.13798E+01  1.57920E+01  1.18601E+01  1.18539E+01  9.67738E+00  1.29360E+01  1.13181E+01  1.15262E+01  1.40107E+01  1.33048E+01
   1.42955E+01  1.33166E+01  1.25789E+01  1.23667E+01  1.32370E+01  1.46969E+01  1.21375E+01  8.74576E+00  1.02910E+01  7.41086E+00
   8.79663E+00  1.03300E+01  1.15914E+01  9.28911E+00  1.16531E+01  1.02877E+01  8.00991E+00  7.20023E+00  9.59483E+00  8.82908E+00
   4.56966E+00  5.37290E+00  6.37269E+00  1.51653E+00  2.31499E+00  4.41908E+00  2.14200E+00  4.34876E+00  2.83824E+00  3.45896E+00
   2.25661E+00  3.52130E-01 -1.68301E+00  2.27155E+00 -8.45759E-02  8.52833E-01 -3.63494E-01 -2.04990E+00 -3.48343E-01  1.41916E+00
  -5.42187E-01 -3.01399E+00 -1.97340E+00 -1.23049E+00 -1.33427E+00 -4.22280E+00  2.73415E-01  4.99888E-01 -2.90849E+00 -2.05018E-01
   2.08900E-01  2.46567E-01  2.90743E-01 -1.14723E+00  4.75462E+00  2.71460E+00  3.12680E+00  4.27533E+00  4.96989E+00  4.45295E+00
   4.48861E+00  3.73696E+00  5.51991E+00  5.10994E+00  6.77552E+00  4.28726E+00  7.84954E+00  8.27346E+00  6.01767E+00  8.14741E+00
   6.93417E+00  5.94541E+00  6.41195E+00  3.11688E+00  4.16964E+00  3.55299E+00  4.18247E+00  3.21760E+00  3.86311E+00  2.89931E+00
   3.02426E+00 -1.37761E+00  4.01946E-01  1.17121E+00  1.64454E+00  2.21469E+00  1.74196E+00  3.61345E+00  1.07071E+00  4.89248E-02
   5.05084E+00  4.69015E-02  1.65843E+00  2.65519E+00  1.72578E+00  2.55787E-01  1.40359E+00  1.71828E+00  1.47525E+00  1.81542E+00
   1.62220E+00  1.67856E+00  3.09543E+00  4.78569E-01 -2.04217E+00 -1.45491E+00  1.28320E+00  7.34280E-01  1.69408E+00  3.36255E-01
  -5.73088E-01  6.23381E-01  2.00460E+00  1.57772E+00  1.60529E+00 -2.55012E+00  1.15688E+00 -6.39423E-01 -4.15586E-01  2.99583E+00
   1.55966E+00 -5.13111E-01  1.36153E+00 -1.39728E+00 -5.30299E-01  2.10326E-02  1.62414E+00 -4.67508E-01  1.82523E+00 -1.15671E+00
   1.41099E+00  3.36554E-01  1.31288E+00 -9.83698E-01 -9.77373E-01  1.41624E+00  3.41832E-01 -2.24454E+00 -1.36650E+00 -9.27588E-01
  -3.71110E-01 -8.69273E-02 -4.25728E-01 -8.56143E-01 -2.02096E+00  2.22189E+00 -8.17304E-01  1.91581E+00  3.91227E-01  1.41139E+00
   6.35192E-01 -1.85424E-01  1.32476E+00  2.26253E+00  1.36782E-01  1.86477E+00 -2.58362E-01  1.35958E+00
 NY points of the fit to the data follow
   2.32016E+01  2.38460E+01  2.52777E+01  2.69398E+01  2.91522E+01  3.20951E+01  3.53749E+01  3.85807E+01  4.13171E+01  4.32100E+01
   4.38947E+01  4.31148E+01  4.09977E+01  3.80479E+01  3.47912E+01  3.15803E+01  2.87317E+01  2.66128E+01  2.51656E+01  2.40718E+01
   2.33250E+01  2.27537E+01  2.24875E+01  2.26425E+01  2.28999E+01  2.32294E+01  2.37681E+01  2.46678E+01  2.58451E+01  2.69892E+01
   2.78657E+01  2.82901E+01  2.80666E+01  2.71664E+01  2.57237E+01  2.40057E+01  2.22540E+01  2.05794E+01  1.93083E+01  1.87287E+01
   1.87926E+01  1.92682E+01  1.98799E+01  2.05137E+01  2.10953E+01  2.15403E+01  2.17673E+01  2.16977E+01  2.12887E+01  2.05502E+01
   1.95333E+01  1.84158E+01  1.74264E+01  1.66410E+01  1.60683E+01  1.57025E+01  1.55087E+01  1.54163E+01  1.53473E+01  1.52456E+01
   1.50673E+01  1.47749E+01  1.43650E+01  1.38728E+01  1.34023E+01  1.30371E+01  1.27885E+01  1.26487E+01  1.26033E+01  1.26133E+01
   1.26301E+01  1.26021E+01  1.24991E+01  1.23176E+01  1.20711E+01  1.17857E+01  1.14977E+01  1.12357E+01  1.10185E+01  1.08926E+01
   1.10109E+01  1.12300E+01  1.14122E+01  1.16001E+01  1.18622E+01  1.21822E+01  1.24445E+01  1.25104E+01  1.23031E+01  1.18409E+01
   1.11880E+01  1.04815E+01  9.89109E+00  9.52771E+00  9.54920E+00  1.08365E+01  1.40835E+01  1.78806E+01  2.16269E+01  2.57857E+01
   3.07235E+01  3.59498E+01  4.01791E+01  4.21074E+01  4.10563E+01  3.71207E+01  3.11512E+01  2.45849E+01  1.87741E+01  1.42544E+01
   1.09558E+01  8.94979E+00  8.13604E+00  7.78161E+00  7.57621E+00  7.45851E+00  7.41089E+00  7.48479E+00  7.98685E+00  9.98339E+00
   1.38146E+01  1.82914E+01  2.28547E+01  2.79300E+01  3.37884E+01  3.97972E+01  4.45745E+01  4.66775E+01  4.53356E+01  4.07668E+01
   3.40256E+01  2.66772E+01  2.01021E+01  1.47783E+01  1.07143E+01  8.03472E+00  6.60855E+00  5.92069E+00  5.71017E+00  5.85660E+00
   6.18214E+00  6.51069E+00  6.71221E+00  6.68481E+00  6.42235E+00  6.01317E+00  5.54373E+00  5.07079E+00  4.64169E+00  4.27340E+00
   3.97321E+00  3.71818E+00  3.49519E+00  3.25854E+00  2.95340E+00  2.65675E+00  2.41672E+00  2.24006E+00  2.08565E+00  1.82675E+00
   1.49876E+00  1.22464E+00  1.07583E+00  1.02697E+00  9.97331E-01  8.93405E-01  6.40020E-01  2.28660E-01 -2.98427E-01 -9.06011E-01
  -1.44190E+00 -1.80527E+00 -2.07729E+00 -2.35095E+00 -2.66714E+00 -2.92025E+00 -3.00420E+00 -2.94355E+00 -2.84321E+00 -2.79976E+00
  -2.85776E+00 -2.87851E+00 -2.77036E+00 -2.51132E+00 -2.11581E+00 -1.60414E+00 -9.60098E-01 -1.54302E-01  7.77564E-01  1.69319E+00
   2.37384E+00  2.66706E+00  2.58445E+00  2.21880E+00  1.72750E+00  1.25860E+00  1.00318E+00  1.16474E+00  1.73751E+00  2.61072E+00
   3.60872E+00  4.51211E+00  5.05653E+00  5.03500E+00  4.54648E+00  3.57584E+00  2.09499E+00  4.17938E-01 -1.00592E+00 -1.65462E+00
  -1.45677E+00 -6.24650E-01  8.14772E-01  2.74948E+00  4.76386E+00  6.20117E+00  6.60708E+00  6.02410E+00  4.63868E+00  2.57886E+00
   3.13126E-01 -1.55751E+00 -2.52933E+00 -2.37822E+00 -1.25553E+00  6.15328E-01  2.80918E+00  4.73785E+00  5.98116E+00  6.55093E+00
   6.77476E+00  6.79279E+00  6.72998E+00  6.82599E+00  7.18820E+00  7.65008E+00  8.00644E+00  8.22330E+00  8.32369E+00  8.22640E+00
   7.83670E+00  7.32526E+00  6.99572E+00  7.02410E+00  7.40603E+00  8.11169E+00  9.10269E+00  1.01810E+01  1.12000E+01  1.22408E+01
   1.32902E+01  1.43848E+01  1.65258E+01  2.21139E+01  2.95418E+01  3.65922E+01  4.34110E+01  5.08550E+01  5.87237E+01  6.52832E+01
   6.84309E+01  6.69029E+01  6.05902E+01  5.04983E+01  3.87800E+01  2.79893E+01  1.94755E+01  1.31402E+01  8.84802E+00  6.87313E+00
   6.12010E+00  5.70598E+00  5.47738E+00  5.39204E+00  5.37448E+00  5.35218E+00  5.29504E+00  5.17220E+00  4.97713E+00  4.73706E+00
   4.49076E+00  4.26604E+00  4.09054E+00  3.98490E+00  3.94796E+00  3.96802E+00  4.02997E+00  4.11965E+00  4.23214E+00  4.36714E+00
   4.52510E+00  4.71168E+00  4.92947E+00  5.17866E+00  5.45914E+00  5.77044E+00  6.10989E+00  6.47416E+00  6.86068E+00  7.26581E+00
   7.68388E+00  8.10871E+00  8.53240E+00  8.94470E+00  9.33593E+00  9.69794E+00  1.00245E+01  1.03110E+01  1.05546E+01  1.07557E+01
   1.09167E+01  1.10417E+01  1.11368E+01  1.12099E+01  1.12699E+01  1.13276E+01  1.13951E+01  1.14862E+01  1.16185E+01  1.18203E+01
   1.21436E+01  1.25300E+01  1.28174E+01  1.30247E+01  1.32011E+01  1.33128E+01  1.32506E+01  1.29082E+01  1.23431E+01  1.17848E+01
   1.12984E+01  1.09387E+01  1.08243E+01  1.10404E+01  1.15515E+01  1.22277E+01  1.29183E+01  1.34492E+01  1.36738E+01  1.36014E+01
   1.33546E+01  1.29706E+01  1.24602E+01  1.19265E+01  1.14679E+01  1.11098E+01  1.07328E+01  1.02600E+01  9.81716E+00  9.47215E+00
   9.21213E+00  9.08486E+00  9.15971E+00  9.42405E+00  9.75076E+00  9.98022E+00  9.98868E+00  9.65651E+00  8.94494E+00  7.94545E+00
   6.81403E+00  5.69864E+00  4.67925E+00  3.79651E+00  3.10291E+00  2.58444E+00  2.19326E+00  1.89736E+00  1.67251E+00  1.49940E+00
   1.36333E+00  1.25369E+00  1.16341E+00  1.08798E+00  1.02483E+00  9.72597E-01  9.30914E-01  9.00015E-01  8.80577E-01  8.73374E-01
   8.79300E-01  8.99273E-01  9.34416E-01  9.85922E-01  1.05508E+00  1.14306E+00  1.25107E+00  1.38021E+00  1.53166E+00  1.70640E+00
   1.90515E+00  2.12815E+00  2.37519E+00  2.64543E+00  2.93746E+00  3.24893E+00  3.57657E+00  3.91602E+00  4.26201E+00  4.60837E+00
   4.94822E+00  5.27398E+00  5.57770E+00  5.85128E+00  6.08701E+00  6.27784E+00  6.41775E+00  6.50194E+00  6.52716E+00  6.49186E+00
   6.39647E+00  6.24324E+00  6.03620E+00  5.78081E+00  5.48380E+00  5.15279E+00  4.79608E+00  4.42213E+00  4.03920E+00  3.65497E+00
   3.27640E+00  2.90951E+00  2.55940E+00  2.22994E+00  1.92392E+00  1.64301E+00  1.38802E+00  1.15897E+00  9.55301E-01  7.75862E-01
   6.19137E-01  4.83308E-01  3.66538E-01  2.66947E-01  1.82745E-01  1.12117E-01  5.33889E-02  4.98639E-03 -3.43990E-02 -6.59539E-02
  -9.06873E-02 -1.09590E-01 -1.23485E-01 -1.33108E-01 -1.38988E-01 -1.41625E-01 -1.41435E-01 -1.38877E-01 -1.34286E-01 -1.27964E-01
  -1.20076E-01 -1.10840E-01 -1.00439E-01 -8.91085E-02 -7.69541E-02 -6.40742E-02 -5.04800E-02 -3.62739E-02 -2.15326E-02 -6.38566E-03
   9.15374E-03  2.50566E-02  4.13492E-02  5.79511E-02  7.48195E-02  9.18760E-02  1.09156E-01  1.26656E-01  1.44403E-01  1.62317E-01
   1.80380E-01  1.98550E-01  2.16891E-01  2.35406E-01  2.54111E-01  2.72929E-01  2.91862E-01  3.10896E-01  3.30106E-01  3.49481E-01
   3.69028E-01  3.88676E-01  4.08455E-01  4.28375E-01  4.48511E-01  4.68841E-01  4.89364E-01  5.10029E-01  5.30891E-01  5.51974E-01
   5.73349E-01  5.94981E-01  6.16880E-01  6.39021E-01  6.61490E-01  6.84326E-01  7.07599E-01  7.31281E-01
 NY background values follow
     2.211E+01    2.195E+01    2.179E+01    2.163E+01    2.147E+01    2.131E+01    2.115E+01    2.098E+01    2.082E+01    2.066E+01
     2.050E+01    2.034E+01    2.018E+01    2.002E+01    1.986E+01    1.970E+01    1.954E+01    1.938E+01    1.921E+01    1.905E+01
     1.889E+01    1.873E+01    1.857E+01    1.841E+01    1.825E+01    1.809E+01    1.793E+01    1.777E+01    1.761E+01    1.745E+01
     1.729E+01    1.713E+01    1.697E+01    1.681E+01    1.665E+01    1.649E+01    1.633E+01    1.618E+01    1.602E+01    1.586E+01
     1.570E+01    1.555E+01    1.539E+01    1.523E+01    1.508E+01    1.492E+01    1.477E+01    1.461E+01    1.446E+01    1.430E+01
     1.415E+01    1.400E+01    1.385E+01    1.369E+01    1.354E+01    1.339E+01    1.324E+01    1.309E+01    1.294E+01    1.279E+01
     1.264E+01    1.250E+01    1.235E+01    1.220E+01    1.206E+01    1.191E+01    1.177E+01    1.162E+01    1.148E+01    1.134E+01
     1.119E+01    1.105E+01    1.091E+01    1.077E+01    1.063E+01    1.050E+01    1.036E+01    1.022E+01    1.009E+01    9.952E+00
     9.818E+00    9.685E+00    9.553E+00    9.422E+00    9.291E+00    9.162E+00    9.033E+00    8.906E+00    8.779E+00    8.654E+00
     8.529E+00    8.405E+00    8.283E+00    8.161E+00    8.040E+00    7.921E+00    7.802E+00    7.684E+00    7.567E+00    7.451E+00
     7.336E+00    7.222E+00    7.109E+00    6.996E+00    6.884E+00    6.774E+00    6.664E+00    6.555E+00    6.446E+00    6.339E+00
     6.232E+00    6.126E+00    6.020E+00    5.916E+00    5.812E+00    5.708E+00    5.606E+00    5.504E+00    5.403E+00    5.302E+00
     5.202E+00    5.103E+00    5.004E+00    4.906E+00    4.809E+00    4.712E+00    4.615E+00    4.519E+00    4.424E+00    4.329E+00
     4.235E+00    4.141E+00    4.048E+00    3.955E+00    3.862E+00    3.770E+00    3.679E+00    3.587E+00    3.497E+00    3.406E+00
     3.317E+00    3.227E+00    3.139E+00    3.051E+00    2.964E+00    2.877E+00    2.791E+00    2.706E+00    2.621E+00    2.538E+00
     2.455E+00    2.373E+00    2.292E+00    2.212E+00    2.133E+00    2.055E+00    1.978E+00    1.902E+00    1.827E+00    1.754E+00
     1.681E+00    1.610E+00    1.539E+00    1.471E+00    1.403E+00    1.337E+00    1.272E+00    1.208E+00    1.146E+00    1.085E+00
     1.026E+00    9.685E-01    9.124E-01    8.578E-01    8.049E-01    7.536E-01    7.040E-01    6.560E-01    6.098E-01    5.654E-01
     5.228E-01    4.820E-01    4.431E-01    4.060E-01    3.706E-01    3.370E-01    3.052E-01    2.750E-01    2.466E-01    2.197E-01
     1.945E-01    1.708E-01    1.487E-01    1.281E-01    1.090E-01    9.136E-02    7.515E-02    6.033E-02    4.689E-02    3.478E-02
     2.398E-02    1.446E-02    6.187E-03   -8.653E-04   -6.729E-03   -1.143E-02   -1.501E-02   -1.749E-02   -1.889E-02   -1.926E-02
    -1.862E-02   -1.700E-02   -1.443E-02   -1.095E-02   -6.568E-03   -1.332E-03    4.733E-03    1.160E-02    1.923E-02    2.760E-02
     3.668E-02    4.645E-02    5.686E-02    6.788E-02    7.950E-02    9.168E-02    1.044E-01    1.176E-01    1.313E-01    1.454E-01
     1.600E-01    1.749E-01    1.903E-01    2.060E-01    2.220E-01    2.384E-01    2.550E-01    2.719E-01    2.891E-01    3.064E-01
     3.240E-01    3.417E-01    3.595E-01    3.775E-01    3.956E-01    4.137E-01    4.319E-01    4.501E-01    4.683E-01    4.865E-01
     5.047E-01    5.228E-01    5.408E-01    5.586E-01    5.764E-01    5.939E-01    6.113E-01    6.285E-01    6.454E-01    6.620E-01
     6.784E-01    6.945E-01    7.103E-01    7.256E-01    7.407E-01    7.553E-01    7.695E-01    7.832E-01    7.965E-01    8.092E-01
     8.215E-01    8.332E-01    8.443E-01    8.549E-01    8.649E-01    8.743E-01    8.832E-01    8.914E-01    8.991E-01    9.062E-01
     9.127E-01    9.186E-01    9.239E-01    9.286E-01    9.327E-01    9.362E-01    9.391E-01    9.414E-01    9.431E-01    9.442E-01
     9.446E-01    9.445E-01    9.437E-01    9.423E-01    9.402E-01    9.376E-01    9.343E-01    9.304E-01    9.258E-01    9.206E-01
     9.148E-01    9.083E-01    9.012E-01    8.934E-01    8.849E-01    8.759E-01    8.661E-01    8.557E-01    8.446E-01    8.329E-01
     8.205E-01    8.075E-01    7.937E-01    7.793E-01    7.642E-01    7.485E-01    7.320E-01    7.149E-01    6.971E-01    6.787E-01
     6.596E-01    6.400E-01    6.198E-01    5.991E-01    5.779E-01    5.562E-01    5.340E-01    5.114E-01    4.885E-01    4.651E-01
     4.415E-01    4.175E-01    3.932E-01    3.687E-01    3.439E-01    3.189E-01    2.937E-01    2.684E-01    2.430E-01    2.175E-01
     1.918E-01    1.662E-01    1.405E-01    1.148E-01    8.921E-02    6.364E-02    3.816E-02    1.280E-02   -1.243E-02   -3.748E-02
    -6.234E-02   -8.697E-02   -1.114E-01   -1.355E-01   -1.593E-01   -1.827E-01   -2.059E-01   -2.286E-01   -2.509E-01   -2.728E-01
    -2.942E-01   -3.151E-01   -3.356E-01   -3.554E-01   -3.748E-01   -3.936E-01   -4.118E-01   -4.295E-01   -4.466E-01   -4.632E-01
    -4.792E-01   -4.946E-01   -5.094E-01   -5.236E-01   -5.372E-01   -5.502E-01   -5.626E-01   -5.744E-01   -5.855E-01   -5.961E-01
    -6.059E-01   -6.152E-01   -6.238E-01   -6.317E-01   -6.390E-01   -6.457E-01   -6.516E-01   -6.569E-01   -6.615E-01   -6.654E-01
    -6.686E-01   -6.711E-01   -6.729E-01   -6.739E-01   -6.743E-01   -6.739E-01   -6.728E-01   -6.710E-01   -6.684E-01   -6.651E-01
    -6.610E-01   -6.562E-01   -6.505E-01   -6.442E-01   -6.370E-01   -6.291E-01   -6.203E-01   -6.108E-01   -6.004E-01   -5.893E-01
    -5.775E-01   -5.649E-01   -5.517E-01   -5.377E-01   -5.231E-01   -5.079E-01   -4.920E-01   -4.756E-01   -4.586E-01   -4.410E-01
    -4.229E-01   -4.044E-01   -3.853E-01   -3.658E-01   -3.459E-01   -3.255E-01   -3.048E-01   -2.837E-01   -2.623E-01   -2.405E-01
    -2.184E-01   -1.961E-01   -1.735E-01   -1.507E-01   -1.277E-01   -1.045E-01   -8.117E-02   -5.767E-02   -3.405E-02   -1.034E-02
     1.344E-02    3.727E-02    6.113E-02    8.500E-02    1.088E-01    1.327E-01    1.564E-01    1.801E-01    2.036E-01    2.270E-01
     2.503E-01    2.734E-01    2.963E-01    3.190E-01    3.415E-01    3.638E-01    3.859E-01    4.078E-01    4.296E-01    4.511E-01
     4.725E-01    4.938E-01    5.149E-01    5.358E-01    5.566E-01    5.773E-01    5.979E-01    6.183E-01    6.387E-01    6.589E-01
     6.790E-01    6.991E-01    7.191E-01    7.390E-01    7.588E-01    7.786E-01    7.983E-01    8.180E-01    8.376E-01    8.572E-01
     8.768E-01    8.964E-01    9.159E-01    9.354E-01    9.550E-01    9.745E-01    9.941E-01    1.014E+00    1.033E+00    1.053E+00
     1.073E+00    1.092E+00    1.112E+00    1.132E+00    1.152E+00    1.172E+00    1.192E+00    1.212E+00
 Ala      Conc. = 2.14E+02
