 LCModel (Version 6.3-1L) Copyright: S.W. Provencher.          Ref.: Magn. Reson. Med. 30:672-679 (1993).                
 Slice#1 Row#8 Col#1  PD_05_press_1_raw_act
 36 lines in following concentration table = NCONC+1
    Conc.  %SD /Cr+PCr  Metabolite                                         
   12.547 212%   0.317 Ala                                                 
    6.630  79%   0.167 Asp                                                 
    0.000 999%   0.000 Cr                                                  
   39.616 109%   1.000 PCr                                                 
    4.214  74%   0.106 GABA                                                
    3.936  80% 9.9E-02 Glc                                                 
   83.522  67%   2.108 Gln                                                 
  165.591  37%   4.180 Glu                                                 
    7.944  61%   0.201 GPC                                                 
    0.000 999%   0.000 PCh                                                 
   15.833 115%   0.400 GSH                                                 
   62.055  97%   1.566 Ins                                                 
    0.000 999%   0.000 Lac                                                 
   61.022  29%   1.540 NAA                                                 
   15.796 126%   0.399 NAAG                                                
    1.226  85% 3.1E-02 Scyllo                                              
    5.501  94%   0.139 Tau                                                 
    0.000 999%   0.000 -CrCH2                                              
    7.944  61%   0.201 GPC+PCh                                             
   76.818  23%   1.939 NAA+NAAG                                            
   39.616  31%   1.000 Cr+PCr                                              
  249.114  34%   6.288 Glu+Gln                                             
  282.568  31%   7.133 Lip13a                                              
    0.000 999%   0.000 Lip13b                                              
   68.422  50%   1.727 Lip09                                               
    2.022 999% 5.1E-02 MM09                                                
   48.379  48%   1.221 Lip20                                               
   13.412 482%   0.339 MM20                                                
    0.152 999% 3.8E-03 MM12                                                
    0.000 999%   0.000 MM14                                                
   31.570 118%   0.797 MM17                                                
  282.568  31%   7.133 Lip13a+Lip13b                                       
  282.719  31%   7.137 MM14+Lip13a+Lip13b+MM12                             
   70.444  57%   1.778 MM09+Lip09                                          
   61.791 107%   1.560 MM20+Lip20                                          
   6 lines in following misc. output table
  FWHM = 0.054 ppm    S/N =   1                                            
  Data shift =-0.008 ppm                                                   
  Ph:  99 deg      -7.6 deg/ppm                                            
  alphaB,S = 9.6E-01,   4.5E+01                                            
   14 spline knots.   Ns = 5(1)                                            
  ( 4) 2 infls.   ( 5) 1 extrs.                                            
  498 points on ppm-axis = NY
      4.000000     3.992357     3.984714     3.977070     3.969427     3.961784     3.954141     3.946497     3.938854     3.931211
      3.923568     3.915925     3.908281     3.900638     3.892995     3.885352     3.877708     3.870065     3.862422     3.854779
      3.847136     3.839492     3.831849     3.824206     3.816563     3.808919     3.801276     3.793633     3.785990     3.778347
      3.770703     3.763060     3.755417     3.747774     3.740130     3.732487     3.724844     3.717201     3.709558     3.701914
      3.694271     3.686628     3.678985     3.671341     3.663698     3.656055     3.648412     3.640769     3.633125     3.625482
      3.617839     3.610196     3.602552     3.594909     3.587266     3.579623     3.571980     3.564336     3.556693     3.549050
      3.541407     3.533763     3.526120     3.518477     3.510834     3.503191     3.495547     3.487904     3.480261     3.472618
      3.464974     3.457331     3.449688     3.442045     3.434402     3.426758     3.419115     3.411472     3.403829     3.396185
      3.388542     3.380899     3.373256     3.365613     3.357969     3.350326     3.342683     3.335040     3.327396     3.319753
      3.312110     3.304467     3.296824     3.289180     3.281537     3.273894     3.266251     3.258607     3.250964     3.243321
      3.235678     3.228034     3.220391     3.212748     3.205105     3.197462     3.189818     3.182175     3.174532     3.166889
      3.159245     3.151602     3.143959     3.136316     3.128673     3.121029     3.113386     3.105743     3.098100     3.090456
      3.082813     3.075170     3.067527     3.059884     3.052240     3.044597     3.036954     3.029311     3.021667     3.014024
      3.006381     2.998738     2.991095     2.983451     2.975808     2.968165     2.960522     2.952878     2.945235     2.937592
      2.929949     2.922306     2.914662     2.907019     2.899376     2.891733     2.884089     2.876446     2.868803     2.861160
      2.853517     2.845873     2.838230     2.830587     2.822944     2.815300     2.807657     2.800014     2.792371     2.784728
      2.777084     2.769441     2.761798     2.754155     2.746511     2.738868     2.731225     2.723582     2.715939     2.708295
      2.700652     2.693009     2.685366     2.677722     2.670079     2.662436     2.654793     2.647150     2.639506     2.631863
      2.624220     2.616577     2.608933     2.601290     2.593647     2.586004     2.578361     2.570717     2.563074     2.555431
      2.547788     2.540144     2.532501     2.524858     2.517215     2.509572     2.501928     2.494285     2.486642     2.478999
      2.471355     2.463712     2.456069     2.448426     2.440783     2.433139     2.425496     2.417853     2.410210     2.402566
      2.394923     2.387280     2.379637     2.371994     2.364350     2.356707     2.349064     2.341421     2.333777     2.326134
      2.318491     2.310848     2.303205     2.295561     2.287918     2.280275     2.272632     2.264988     2.257345     2.249702
      2.242059     2.234416     2.226772     2.219129     2.211486     2.203843     2.196199     2.188556     2.180913     2.173270
      2.165627     2.157983     2.150340     2.142697     2.135054     2.127410     2.119767     2.112124     2.104481     2.096838
      2.089194     2.081551     2.073908     2.066265     2.058621     2.050978     2.043335     2.035692     2.028049     2.020405
      2.012762     2.005119     1.997476     1.989833     1.982190     1.974546     1.966903     1.959260     1.951617     1.943974
      1.936331     1.928688     1.921045     1.913402     1.905759     1.898115     1.890472     1.882829     1.875186     1.867543
      1.859900     1.852257     1.844614     1.836971     1.829327     1.821684     1.814041     1.806398     1.798755     1.791112
      1.783469     1.775826     1.768183     1.760540     1.752896     1.745253     1.737610     1.729967     1.722324     1.714681
      1.707038     1.699395     1.691752     1.684108     1.676465     1.668822     1.661179     1.653536     1.645893     1.638250
      1.630607     1.622964     1.615321     1.607677     1.600034     1.592391     1.584748     1.577105     1.569462     1.561819
      1.554176     1.546533     1.538890     1.531246     1.523603     1.515960     1.508317     1.500674     1.493031     1.485388
      1.477745     1.470102     1.462458     1.454815     1.447172     1.439529     1.431886     1.424243     1.416600     1.408957
      1.401314     1.393671     1.386027     1.378384     1.370741     1.363098     1.355455     1.347812     1.340169     1.332526
      1.324883     1.317240     1.309596     1.301953     1.294310     1.286667     1.279024     1.271381     1.263738     1.256095
      1.248452     1.240808     1.233165     1.225522     1.217879     1.210236     1.202593     1.194950     1.187307     1.179664
      1.172021     1.164377     1.156734     1.149091     1.141448     1.133805     1.126162     1.118519     1.110876     1.103233
      1.095590     1.087946     1.080303     1.072660     1.065017     1.057374     1.049731     1.042088     1.034445     1.026802
      1.019158     1.011515     1.003872     0.996229     0.988586     0.980943     0.973300     0.965657     0.958014     0.950371
      0.942727     0.935084     0.927441     0.919798     0.912155     0.904512     0.896869     0.889226     0.881583     0.873940
      0.866296     0.858653     0.851010     0.843367     0.835724     0.828081     0.820438     0.812795     0.805152     0.797508
      0.789865     0.782222     0.774579     0.766936     0.759293     0.751650     0.744007     0.736364     0.728721     0.721077
      0.713434     0.705791     0.698148     0.690505     0.682862     0.675219     0.667576     0.659933     0.652290     0.644646
      0.637003     0.629360     0.621717     0.614074     0.606431     0.598788     0.591145     0.583502     0.575858     0.568215
      0.560572     0.552929     0.545286     0.537643     0.530000     0.522357     0.514714     0.507071     0.499427     0.491784
      0.484141     0.476498     0.468855     0.461212     0.453569     0.445925     0.438282     0.430639     0.422996     0.415353
      0.407710     0.400067     0.392424     0.384780     0.377137     0.369494     0.361851     0.354208     0.346565     0.338922
      0.331278     0.323635     0.315992     0.308349     0.300706     0.293063     0.285420     0.277777     0.270133     0.262490
      0.254847     0.247204     0.239561     0.231918     0.224275     0.216631     0.208988     0.201345
 NY phased data points follow
   1.87930E+01  1.77821E+01  1.73048E+01  1.70903E+01  1.70630E+01  1.67289E+01  1.73944E+01  1.63269E+01  1.68892E+01  1.51827E+01
   1.71976E+01  1.71768E+01  1.62642E+01  1.52088E+01  1.67053E+01  1.38576E+01  1.57567E+01  1.48998E+01  1.65024E+01  1.38237E+01
   1.46424E+01  1.56138E+01  1.51612E+01  1.50534E+01  1.49562E+01  1.36820E+01  1.49967E+01  1.30874E+01  1.37013E+01  1.20728E+01
   1.52953E+01  1.25164E+01  1.30049E+01  1.37715E+01  1.39446E+01  1.22542E+01  1.26646E+01  1.14687E+01  1.20615E+01  1.21461E+01
   1.21173E+01  1.04808E+01  1.12320E+01  1.08727E+01  1.18875E+01  1.25850E+01  1.45680E+01  1.21543E+01  1.37653E+01  1.06783E+01
   1.26468E+01  1.15499E+01  1.05201E+01  1.14593E+01  1.02307E+01  9.73477E+00  1.21812E+01  1.01093E+01  1.32040E+01  1.00961E+01
   1.22777E+01  9.37281E+00  1.09418E+01  1.08927E+01  1.10753E+01  9.67668E+00  1.02809E+01  1.11651E+01  1.11864E+01  9.32446E+00
   1.01667E+01  8.76387E+00  9.70655E+00  9.42657E+00  9.51252E+00  1.03210E+01  1.01706E+01  9.26988E+00  8.66774E+00  8.56116E+00
   9.85443E+00  8.84814E+00  1.03578E+01  8.84280E+00  9.38626E+00  8.79724E+00  1.01680E+01  8.15546E+00  9.66484E+00  7.96621E+00
   7.80283E+00  7.85900E+00  8.45549E+00  8.02820E+00  8.03545E+00  7.87531E+00  8.61117E+00  8.71559E+00  7.79200E+00  7.26574E+00
   8.30958E+00  7.87282E+00  8.20169E+00  1.05039E+01  9.58430E+00  8.04563E+00  9.53942E+00  8.48312E+00  7.90960E+00  8.69181E+00
   7.68077E+00  5.76397E+00  7.87121E+00  8.75491E+00  7.95252E+00  9.37114E+00  7.24324E+00  6.87340E+00  7.43317E+00  6.03573E+00
   7.39883E+00  7.35659E+00  6.99730E+00  4.77001E+00  6.95254E+00  6.94579E+00  7.24321E+00  7.19443E+00  1.01152E+01  8.02556E+00
   7.74462E+00  6.07962E+00  7.03325E+00  6.32135E+00  8.85561E+00  6.08233E+00  6.84425E+00  8.34725E+00  6.40869E+00  7.87897E+00
   7.16414E+00  4.81419E+00  6.78580E+00  7.24494E+00  5.60923E+00  6.91978E+00  6.89446E+00  7.17327E+00  7.33245E+00  8.16106E+00
   6.61130E+00  6.24102E+00  6.09412E+00  4.70751E+00  6.37536E+00  6.81932E+00  5.89767E+00  6.49661E+00  8.02871E+00  5.46301E+00
   6.37201E+00  6.44931E+00  6.46784E+00  6.59207E+00  6.74178E+00  4.12988E+00  4.37763E+00  5.15474E+00  5.58331E+00  6.90724E+00
   4.49815E+00  4.76966E+00  5.32027E+00  3.68945E+00  5.62351E+00  4.26155E+00  4.07871E+00  4.02363E+00  4.85370E+00  4.23955E+00
   5.52387E+00  5.94999E+00  3.31989E+00  4.81224E+00  5.91666E+00  5.67562E+00  4.12590E+00  4.04863E+00  6.08149E+00  3.42921E+00
   4.21825E+00  4.49173E+00  4.86851E+00  4.49231E+00  4.37157E+00  3.13042E+00  3.42070E+00  4.57976E+00  3.52605E+00  2.98268E+00
   2.87217E+00  3.99499E+00  4.00297E+00  5.83622E+00  5.72641E+00  5.16183E+00  4.62629E+00  2.65616E+00  5.99166E+00  5.56534E+00
   4.64043E+00  2.57215E+00  4.28467E+00  5.07922E+00  3.40007E+00  4.44841E+00  5.41381E+00  5.19448E+00  4.97137E+00  3.91638E+00
   4.17509E+00  2.98473E+00  4.19340E+00  3.37155E+00  3.61317E+00  3.16491E+00  4.61825E+00  4.48508E+00  3.26524E+00  6.30587E+00
   4.74618E+00  4.82040E+00  6.14869E+00  3.64794E+00  3.87919E+00  5.13828E+00  4.72377E+00  3.83885E+00  4.49282E+00  3.62071E+00
   4.47011E+00  2.53496E+00  4.89016E+00  2.62449E+00  2.70185E+00  1.28838E+00  3.55386E+00  2.79695E+00  4.25655E+00  4.10867E+00
   5.31975E+00  3.57691E+00  4.73688E+00  3.91856E+00  4.18990E+00  3.47143E+00  4.75516E+00  6.11500E+00  4.73727E+00  5.32364E+00
   5.69762E+00  5.40527E+00  5.69565E+00  6.27530E+00  5.41093E+00  5.34055E+00  4.21164E+00  4.05176E+00  3.17363E+00  1.93293E+00
   2.44513E+00  3.33438E+00  3.95861E+00  4.16835E+00  2.94873E+00  2.80786E+00  3.14290E+00  4.25491E+00  3.96865E+00  5.47882E+00
   2.90491E+00  3.45581E+00  3.45147E+00  9.98836E-01  3.36346E+00  3.94676E+00  3.83515E+00  1.45924E+00  3.58047E+00  3.60476E+00
   3.80322E+00  4.96813E+00  2.77416E+00  3.96662E+00  3.93196E+00  4.55047E+00  3.81649E+00  3.13639E+00  6.45015E+00  3.47161E+00
   2.77240E+00  2.87123E+00  4.29576E+00  1.83501E+00  3.86857E+00  1.42999E+00  3.99977E+00  6.77802E-01  3.39301E+00  3.08520E+00
   2.13150E+00  1.32432E+00  1.16537E+00  2.88814E+00  3.33952E+00  2.69009E+00  3.25589E+00  2.03420E+00  2.99966E+00  2.23093E+00
   3.78563E+00  4.66730E+00  3.54926E+00  2.90948E+00  2.56356E+00  1.50232E+00  2.12619E+00  2.65579E+00  2.00417E+00  1.74682E+00
   2.45660E+00  2.62047E+00  1.69229E+00  3.10175E+00  1.78752E+00  2.39620E+00  4.02631E+00  3.96502E+00  2.91842E+00  2.03189E+00
   2.66547E+00  1.53486E+00  3.62338E+00  3.66759E+00  2.51977E+00  3.78250E+00  2.85505E+00  4.05281E+00  3.90810E+00  4.47128E+00
   4.17601E+00  4.04184E+00  3.20529E+00  4.70615E+00  3.68311E+00  2.03513E+00  3.84874E+00  3.09995E+00  4.85282E+00  3.94774E-01
   2.03793E+00  2.82184E+00  4.21752E+00  3.68217E+00  4.13676E+00  3.40072E+00  3.91013E+00  3.76417E+00  1.55777E+00  3.28139E+00
   3.58065E+00  4.34660E+00  2.81966E+00  3.03726E+00  9.06141E-01  3.56786E+00  1.81967E+00  2.02063E+00  1.56040E-01  2.70080E+00
   1.82697E+00  3.10333E+00  2.20927E+00  8.75316E-01  2.32055E+00  1.82995E+00  1.82142E+00  1.58535E+00  2.04105E+00  2.86457E+00
   2.73276E+00  2.70419E+00  3.95694E+00  2.54653E+00  2.20955E+00  3.39636E+00  2.16050E+00  1.65564E+00  3.12051E+00  2.91229E+00
   9.28488E-01  1.99301E+00  1.35338E+00  2.11191E+00  1.22149E+00  1.94767E+00  3.02582E+00  3.35895E+00  2.18816E+00  1.97379E+00
   1.62588E+00  2.15979E+00  2.54555E+00  3.55042E+00  2.95548E+00  2.24450E+00  3.51215E+00  1.45635E+00  1.03631E+00  1.57019E+00
   1.87302E+00  1.30336E+00  7.19912E-01  1.40467E+00  2.73210E+00  2.63784E+00  2.20325E+00  1.62064E+00  2.30471E+00  2.28128E+00
   2.37365E+00  2.69644E+00  2.28081E+00  3.38557E-01  1.58691E+00  1.48696E+00  2.84487E+00  1.14125E+00  2.30776E+00  1.64235E+00
   2.25947E+00  2.96465E+00  1.77231E+00  2.00417E+00  2.18901E+00  2.07004E+00  8.45039E-01  9.93588E-01  3.63022E+00  1.20555E+00
   1.53481E+00  1.24881E+00  1.14169E+00  2.48936E+00  1.42100E+00  3.33510E+00  2.00626E+00  1.31578E+00  2.01914E+00  7.73944E-01
   2.29715E+00 -3.17567E-01  9.77086E-01  2.50675E+00  3.47018E+00  2.97698E+00  2.80894E+00  1.42277E+00  1.82168E-02  7.68181E-01
   1.62746E+00  2.40759E+00  7.88472E-01  2.48586E+00  2.55649E+00  1.82873E+00  2.05472E+00 -5.11249E-01  1.06971E+00  3.20349E+00
   2.23700E+00  2.50010E+00  1.19614E+00  1.58235E+00  8.74958E-02  1.67111E+00  1.77279E+00  2.39665E+00  1.77135E+00 -4.12899E-01
   2.77562E+00  1.12208E+00  2.27493E+00  2.72989E+00  4.28044E-01  1.06682E+00  4.88393E-01  1.23743E+00
 NY points of the fit to the data follow
   1.55962E+01  1.54839E+01  1.53861E+01  1.53191E+01  1.53085E+01  1.53576E+01  1.54416E+01  1.55386E+01  1.56340E+01  1.57047E+01
   1.57109E+01  1.56168E+01  1.54159E+01  1.51338E+01  1.48214E+01  1.45513E+01  1.43882E+01  1.42970E+01  1.42271E+01  1.41698E+01
   1.41255E+01  1.40902E+01  1.40533E+01  1.39935E+01  1.39000E+01  1.37839E+01  1.36573E+01  1.35391E+01  1.34621E+01  1.34547E+01
   1.35273E+01  1.36574E+01  1.38005E+01  1.38826E+01  1.38304E+01  1.36130E+01  1.32788E+01  1.29142E+01  1.25866E+01  1.23671E+01
   1.22845E+01  1.23070E+01  1.23872E+01  1.24742E+01  1.25359E+01  1.25523E+01  1.25334E+01  1.25029E+01  1.24522E+01  1.23578E+01
   1.22075E+01  1.20065E+01  1.17800E+01  1.15696E+01  1.14189E+01  1.13398E+01  1.13052E+01  1.12864E+01  1.12687E+01  1.12452E+01
   1.12094E+01  1.11547E+01  1.10781E+01  1.09804E+01  1.08666E+01  1.07477E+01  1.06430E+01  1.05663E+01  1.05162E+01  1.04826E+01
   1.04517E+01  1.04165E+01  1.03727E+01  1.03180E+01  1.02532E+01  1.01791E+01  1.00980E+01  1.00112E+01  9.92315E+00  9.84089E+00
   9.76348E+00  9.69187E+00  9.62598E+00  9.56068E+00  9.48903E+00  9.40908E+00  9.32139E+00  9.22685E+00  9.12955E+00  9.03818E+00
   8.96130E+00  8.90547E+00  8.87229E+00  8.85467E+00  8.83486E+00  8.80052E+00  8.75170E+00  8.70261E+00  8.68722E+00  8.71665E+00
   8.77500E+00  8.84916E+00  8.93083E+00  9.00242E+00  9.02519E+00  8.96161E+00  8.80373E+00  8.57261E+00  8.31468E+00  8.09577E+00
   7.96989E+00  7.90050E+00  7.84358E+00  7.79107E+00  7.74008E+00  7.68960E+00  7.63857E+00  7.58741E+00  7.53692E+00  7.48871E+00
   7.44759E+00  7.43414E+00  7.49993E+00  7.65001E+00  7.84894E+00  8.06713E+00  8.28374E+00  8.45964E+00  8.53295E+00  8.45183E+00
   8.20761E+00  7.84161E+00  7.43626E+00  7.10323E+00  6.92311E+00  6.82132E+00  6.73333E+00  6.65505E+00  6.59220E+00  6.55100E+00
   6.53457E+00  6.53560E+00  6.53575E+00  6.52260E+00  6.49195E+00  6.44526E+00  6.39033E+00  6.33482E+00  6.28215E+00  6.23353E+00
   6.18524E+00  6.13718E+00  6.09070E+00  6.04698E+00  6.00591E+00  5.96650E+00  5.92709E+00  5.88608E+00  5.84353E+00  5.79953E+00
   5.75438E+00  5.70731E+00  5.66011E+00  5.61824E+00  5.58445E+00  5.55658E+00  5.52897E+00  5.49405E+00  5.44777E+00  5.39481E+00
   5.34200E+00  5.29254E+00  5.24804E+00  5.20634E+00  5.16527E+00  5.12394E+00  5.08055E+00  5.03694E+00  4.99930E+00  4.97131E+00
   4.94955E+00  4.92728E+00  4.89848E+00  4.86402E+00  4.83435E+00  4.81955E+00  4.81824E+00  4.82570E+00  4.83598E+00  4.84523E+00
   4.85204E+00  4.84941E+00  4.82372E+00  4.76394E+00  4.67317E+00  4.57148E+00  4.48552E+00  4.43828E+00  4.44484E+00  4.50716E+00
   4.61610E+00  4.75197E+00  4.88498E+00  4.97392E+00  4.98441E+00  4.88096E+00  4.66781E+00  4.38602E+00  4.08427E+00  3.81426E+00
   3.63269E+00  3.61589E+00  3.80052E+00  4.13953E+00  4.54321E+00  4.91974E+00  5.16472E+00  5.16188E+00  4.90642E+00  4.47529E+00
   3.96494E+00  3.48577E+00  3.14866E+00  3.04492E+00  3.16060E+00  3.43205E+00  3.79032E+00  4.14335E+00  4.39975E+00  4.49391E+00
   4.43802E+00  4.30772E+00  4.17035E+00  4.05359E+00  3.97975E+00  3.95170E+00  3.96231E+00  3.99936E+00  4.02607E+00  4.02479E+00
   4.00045E+00  3.95048E+00  3.85997E+00  3.73226E+00  3.61581E+00  3.54590E+00  3.52431E+00  3.54176E+00  3.58845E+00  3.64074E+00
   3.67260E+00  3.72822E+00  3.82967E+00  3.96045E+00  4.10753E+00  4.31890E+00  4.63239E+00  4.97845E+00  5.28727E+00  5.54646E+00
   5.76321E+00  5.89602E+00  5.87980E+00  5.67578E+00  5.26230E+00  4.68792E+00  4.10243E+00  3.70443E+00  3.53203E+00  3.43838E+00
   3.37669E+00  3.34163E+00  3.32338E+00  3.31404E+00  3.31792E+00  3.32798E+00  3.33351E+00  3.32705E+00  3.30618E+00  3.27243E+00
   3.23422E+00  3.20075E+00  3.17518E+00  3.15681E+00  3.14409E+00  3.13554E+00  3.12925E+00  3.12272E+00  3.11429E+00  3.10528E+00
   3.09697E+00  3.08985E+00  3.08408E+00  3.07976E+00  3.07608E+00  3.07197E+00  3.06691E+00  3.06073E+00  3.05345E+00  3.04561E+00
   3.03748E+00  3.02893E+00  3.01988E+00  3.01018E+00  2.99957E+00  2.98765E+00  2.97408E+00  2.95906E+00  2.94292E+00  2.92596E+00
   2.90859E+00  2.89114E+00  2.87383E+00  2.85694E+00  2.84071E+00  2.82543E+00  2.81140E+00  2.79896E+00  2.78851E+00  2.78065E+00
   2.77641E+00  2.77811E+00  2.78938E+00  2.80536E+00  2.81695E+00  2.81949E+00  2.81075E+00  2.78669E+00  2.74219E+00  2.67766E+00
   2.60896E+00  2.55937E+00  2.54481E+00  2.57410E+00  2.64605E+00  2.73993E+00  2.83860E+00  2.93200E+00  3.00887E+00  3.06158E+00
   3.08901E+00  3.10029E+00  3.11751E+00  3.15070E+00  3.19255E+00  3.23871E+00  3.28685E+00  3.33522E+00  3.38231E+00  3.42671E+00
   3.46705E+00  3.50209E+00  3.53066E+00  3.55176E+00  3.56458E+00  3.56852E+00  3.56323E+00  3.54861E+00  3.52480E+00  3.49223E+00
   3.45152E+00  3.40353E+00  3.34925E+00  3.28978E+00  3.22632E+00  3.16006E+00  3.09218E+00  3.02380E+00  2.95596E+00  2.88955E+00
   2.82534E+00  2.76397E+00  2.70594E+00  2.65159E+00  2.60117E+00  2.55479E+00  2.51248E+00  2.47422E+00  2.43990E+00  2.40939E+00
   2.38254E+00  2.35919E+00  2.33915E+00  2.32229E+00  2.30844E+00  2.29747E+00  2.28924E+00  2.28365E+00  2.28056E+00  2.27987E+00
   2.28144E+00  2.28512E+00  2.29074E+00  2.29809E+00  2.30692E+00  2.31696E+00  2.32785E+00  2.33925E+00  2.35072E+00  2.36185E+00
   2.37217E+00  2.38124E+00  2.38860E+00  2.39384E+00  2.39660E+00  2.39658E+00  2.39355E+00  2.38736E+00  2.37798E+00  2.36543E+00
   2.34988E+00  2.33152E+00  2.31066E+00  2.28765E+00  2.26286E+00  2.23672E+00  2.20964E+00  2.18204E+00  2.15428E+00  2.12673E+00
   2.09968E+00  2.07339E+00  2.04807E+00  2.02386E+00  2.00087E+00  1.97915E+00  1.95873E+00  1.93961E+00  1.92173E+00  1.90506E+00
   1.88951E+00  1.87502E+00  1.86149E+00  1.84886E+00  1.83702E+00  1.82592E+00  1.81546E+00  1.80559E+00  1.79624E+00  1.78735E+00
   1.77888E+00  1.77078E+00  1.76301E+00  1.75553E+00  1.74831E+00  1.74133E+00  1.73457E+00  1.72798E+00  1.72157E+00  1.71530E+00
   1.70918E+00  1.70318E+00  1.69729E+00  1.69150E+00  1.68580E+00  1.68019E+00  1.67465E+00  1.66919E+00  1.66380E+00  1.65846E+00
   1.65317E+00  1.64794E+00  1.64276E+00  1.63762E+00  1.63253E+00  1.62747E+00  1.62244E+00  1.61746E+00  1.61250E+00  1.60757E+00
   1.60267E+00  1.59779E+00  1.59294E+00  1.58811E+00  1.58330E+00  1.57851E+00  1.57374E+00  1.56898E+00  1.56425E+00  1.55953E+00
   1.55482E+00  1.55013E+00  1.54545E+00  1.54078E+00  1.53612E+00  1.53148E+00  1.52685E+00  1.52222E+00  1.51760E+00  1.51300E+00
   1.50840E+00  1.50381E+00  1.49923E+00  1.49466E+00  1.49009E+00  1.48553E+00  1.48098E+00  1.47644E+00
 NY background values follow
     1.540E+01    1.532E+01    1.524E+01    1.517E+01    1.509E+01    1.501E+01    1.494E+01    1.486E+01    1.478E+01    1.471E+01
     1.463E+01    1.455E+01    1.448E+01    1.440E+01    1.433E+01    1.425E+01    1.417E+01    1.410E+01    1.402E+01    1.394E+01
     1.387E+01    1.379E+01    1.372E+01    1.364E+01    1.356E+01    1.349E+01    1.341E+01    1.334E+01    1.326E+01    1.319E+01
     1.311E+01    1.304E+01    1.296E+01    1.289E+01    1.281E+01    1.274E+01    1.266E+01    1.259E+01    1.252E+01    1.244E+01
     1.237E+01    1.230E+01    1.222E+01    1.215E+01    1.208E+01    1.200E+01    1.193E+01    1.186E+01    1.179E+01    1.172E+01
     1.165E+01    1.157E+01    1.150E+01    1.143E+01    1.136E+01    1.129E+01    1.122E+01    1.115E+01    1.108E+01    1.102E+01
     1.095E+01    1.088E+01    1.081E+01    1.074E+01    1.067E+01    1.061E+01    1.054E+01    1.047E+01    1.041E+01    1.034E+01
     1.027E+01    1.021E+01    1.014E+01    1.008E+01    1.001E+01    9.949E+00    9.885E+00    9.821E+00    9.758E+00    9.695E+00
     9.632E+00    9.570E+00    9.508E+00    9.446E+00    9.385E+00    9.324E+00    9.263E+00    9.203E+00    9.143E+00    9.084E+00
     9.024E+00    8.966E+00    8.907E+00    8.849E+00    8.792E+00    8.734E+00    8.677E+00    8.621E+00    8.565E+00    8.509E+00
     8.453E+00    8.398E+00    8.343E+00    8.289E+00    8.235E+00    8.181E+00    8.128E+00    8.075E+00    8.022E+00    7.970E+00
     7.918E+00    7.867E+00    7.816E+00    7.765E+00    7.714E+00    7.664E+00    7.614E+00    7.565E+00    7.515E+00    7.467E+00
     7.418E+00    7.370E+00    7.322E+00    7.275E+00    7.228E+00    7.181E+00    7.134E+00    7.088E+00    7.042E+00    6.997E+00
     6.952E+00    6.907E+00    6.862E+00    6.818E+00    6.774E+00    6.730E+00    6.687E+00    6.644E+00    6.602E+00    6.559E+00
     6.517E+00    6.475E+00    6.434E+00    6.393E+00    6.352E+00    6.312E+00    6.271E+00    6.232E+00    6.192E+00    6.153E+00
     6.114E+00    6.075E+00    6.037E+00    5.999E+00    5.961E+00    5.923E+00    5.886E+00    5.849E+00    5.812E+00    5.776E+00
     5.740E+00    5.704E+00    5.669E+00    5.634E+00    5.599E+00    5.564E+00    5.530E+00    5.496E+00    5.462E+00    5.428E+00
     5.395E+00    5.362E+00    5.329E+00    5.297E+00    5.265E+00    5.233E+00    5.201E+00    5.170E+00    5.139E+00    5.108E+00
     5.078E+00    5.047E+00    5.017E+00    4.988E+00    4.958E+00    4.929E+00    4.900E+00    4.871E+00    4.843E+00    4.814E+00
     4.786E+00    4.759E+00    4.731E+00    4.704E+00    4.677E+00    4.650E+00    4.624E+00    4.597E+00    4.571E+00    4.545E+00
     4.520E+00    4.494E+00    4.469E+00    4.444E+00    4.419E+00    4.395E+00    4.371E+00    4.346E+00    4.322E+00    4.299E+00
     4.275E+00    4.252E+00    4.229E+00    4.206E+00    4.183E+00    4.161E+00    4.138E+00    4.116E+00    4.094E+00    4.073E+00
     4.051E+00    4.030E+00    4.009E+00    3.987E+00    3.967E+00    3.946E+00    3.925E+00    3.905E+00    3.885E+00    3.865E+00
     3.845E+00    3.825E+00    3.806E+00    3.786E+00    3.767E+00    3.748E+00    3.729E+00    3.711E+00    3.692E+00    3.673E+00
     3.655E+00    3.637E+00    3.619E+00    3.601E+00    3.583E+00    3.566E+00    3.548E+00    3.531E+00    3.514E+00    3.497E+00
     3.480E+00    3.463E+00    3.446E+00    3.429E+00    3.413E+00    3.397E+00    3.380E+00    3.364E+00    3.348E+00    3.332E+00
     3.316E+00    3.301E+00    3.285E+00    3.270E+00    3.254E+00    3.239E+00    3.224E+00    3.209E+00    3.194E+00    3.179E+00
     3.164E+00    3.149E+00    3.134E+00    3.120E+00    3.105E+00    3.091E+00    3.077E+00    3.062E+00    3.048E+00    3.034E+00
     3.020E+00    3.006E+00    2.992E+00    2.979E+00    2.965E+00    2.951E+00    2.938E+00    2.924E+00    2.911E+00    2.898E+00
     2.885E+00    2.872E+00    2.859E+00    2.846E+00    2.833E+00    2.820E+00    2.807E+00    2.795E+00    2.782E+00    2.770E+00
     2.757E+00    2.745E+00    2.733E+00    2.721E+00    2.709E+00    2.697E+00    2.685E+00    2.673E+00    2.661E+00    2.649E+00
     2.638E+00    2.626E+00    2.615E+00    2.603E+00    2.592E+00    2.581E+00    2.570E+00    2.558E+00    2.547E+00    2.536E+00
     2.526E+00    2.515E+00    2.504E+00    2.493E+00    2.483E+00    2.472E+00    2.462E+00    2.452E+00    2.441E+00    2.431E+00
     2.421E+00    2.411E+00    2.401E+00    2.391E+00    2.381E+00    2.371E+00    2.362E+00    2.352E+00    2.343E+00    2.333E+00
     2.324E+00    2.314E+00    2.305E+00    2.296E+00    2.287E+00    2.278E+00    2.269E+00    2.260E+00    2.251E+00    2.242E+00
     2.234E+00    2.225E+00    2.216E+00    2.208E+00    2.200E+00    2.191E+00    2.183E+00    2.175E+00    2.167E+00    2.159E+00
     2.151E+00    2.143E+00    2.135E+00    2.127E+00    2.120E+00    2.112E+00    2.104E+00    2.097E+00    2.090E+00    2.082E+00
     2.075E+00    2.068E+00    2.061E+00    2.054E+00    2.047E+00    2.040E+00    2.033E+00    2.026E+00    2.019E+00    2.013E+00
     2.006E+00    1.999E+00    1.993E+00    1.986E+00    1.980E+00    1.974E+00    1.967E+00    1.961E+00    1.955E+00    1.949E+00
     1.943E+00    1.937E+00    1.931E+00    1.925E+00    1.919E+00    1.913E+00    1.908E+00    1.902E+00    1.896E+00    1.891E+00
     1.885E+00    1.880E+00    1.874E+00    1.869E+00    1.864E+00    1.858E+00    1.853E+00    1.848E+00    1.843E+00    1.838E+00
     1.833E+00    1.828E+00    1.823E+00    1.818E+00    1.813E+00    1.808E+00    1.803E+00    1.799E+00    1.794E+00    1.789E+00
     1.784E+00    1.780E+00    1.775E+00    1.771E+00    1.766E+00    1.761E+00    1.757E+00    1.753E+00    1.748E+00    1.744E+00
     1.739E+00    1.735E+00    1.730E+00    1.726E+00    1.722E+00    1.718E+00    1.713E+00    1.709E+00    1.705E+00    1.700E+00
     1.696E+00    1.692E+00    1.688E+00    1.684E+00    1.679E+00    1.675E+00    1.671E+00    1.667E+00    1.663E+00    1.658E+00
     1.654E+00    1.650E+00    1.646E+00    1.642E+00    1.638E+00    1.633E+00    1.629E+00    1.625E+00    1.621E+00    1.617E+00
     1.613E+00    1.608E+00    1.604E+00    1.600E+00    1.596E+00    1.592E+00    1.587E+00    1.583E+00    1.579E+00    1.575E+00
     1.571E+00    1.567E+00    1.562E+00    1.558E+00    1.554E+00    1.550E+00    1.545E+00    1.541E+00    1.537E+00    1.533E+00
     1.529E+00    1.524E+00    1.520E+00    1.516E+00    1.512E+00    1.508E+00    1.503E+00    1.499E+00    1.495E+00    1.491E+00
     1.486E+00    1.482E+00    1.478E+00    1.474E+00    1.469E+00    1.465E+00    1.461E+00    1.457E+00
 Ala      Conc. = 1.25E+01
