 LCModel (Version 6.3-1L) Copyright: S.W. Provencher.          Ref.: Magn. Reson. Med. 30:672-679 (1993).                
 Slice#3 Row#7 Col#6  PD_05_press_1_raw_act
 36 lines in following concentration table = NCONC+1
    Conc.  %SD /Cr+PCr  Metabolite                                         
    0.000 999%   0.000 Ala                                                 
   92.564 182% 7.4E-02 Asp                                                 
  499.783  28%   0.401 Cr                                                  
  747.284  19%   0.599 PCr                                                 
    0.000 999%   0.000 GABA                                                
   92.991 126% 7.5E-02 Glc                                                 
  673.519  23%   0.540 Gln                                                 
 1.27E+03  13%   1.022 Glu                                                 
  454.734   4%   0.365 GPC                                                 
    0.000 999%   0.000 PCh                                                 
  359.336  14%   0.288 GSH                                                 
  704.691  23%   0.565 Ins                                                 
    0.000 999%   0.000 Lac                                                 
 1.74E+03   5%   1.397 NAA                                                 
   94.703  95% 7.6E-02 NAAG                                                
   75.887  26% 6.1E-02 Scyllo                                              
   36.863 403% 3.0E-02 Tau                                                 
    0.000 999%   0.000 -CrCH2                                              
  454.734   4%   0.365 GPC+PCh                                             
 1.84E+03   3%   1.473 NAA+NAAG                                            
 1.25E+03   3%   1.000 Cr+PCr                                              
 1.95E+03  12%   1.562 Glu+Gln                                             
  390.855  55%   0.313 Lip13a                                              
    0.000 999%   0.000 Lip13b                                              
    0.000 999%   0.000 Lip09                                               
 1.23E+03  11%   0.986 MM09                                                
   45.811 197% 3.7E-02 Lip20                                               
 2.81E+03   9%   2.251 MM20                                                
  472.988  22%   0.379 MM12                                                
  663.717  34%   0.532 MM14                                                
  894.526  19%   0.717 MM17                                                
  390.855  55%   0.313 Lip13a+Lip13b                                       
 1.53E+03  14%   1.225 MM14+Lip13a+Lip13b+MM12                             
 1.23E+03  11%   0.986 MM09+Lip09                                          
 2.85E+03   9%   2.288 MM20+Lip20                                          
   6 lines in following misc. output table
  FWHM = 0.046 ppm    S/N =  14                                            
  Data shift = 0.015 ppm                                                   
  Ph: -21 deg      -7.5 deg/ppm                                            
  alphaB,S = 8.5E+01,   1.1E+02                                            
   14 spline knots.   Ns = 6(1)                                            
   2 inflections.     1 extrema                                            
  498 points on ppm-axis = NY
      4.000000     3.992357     3.984714     3.977070     3.969427     3.961784     3.954141     3.946497     3.938854     3.931211
      3.923568     3.915925     3.908281     3.900638     3.892995     3.885352     3.877708     3.870065     3.862422     3.854779
      3.847136     3.839492     3.831849     3.824206     3.816563     3.808919     3.801276     3.793633     3.785990     3.778347
      3.770703     3.763060     3.755417     3.747774     3.740130     3.732487     3.724844     3.717201     3.709558     3.701914
      3.694271     3.686628     3.678985     3.671341     3.663698     3.656055     3.648412     3.640769     3.633125     3.625482
      3.617839     3.610196     3.602552     3.594909     3.587266     3.579623     3.571980     3.564336     3.556693     3.549050
      3.541407     3.533763     3.526120     3.518477     3.510834     3.503191     3.495547     3.487904     3.480261     3.472618
      3.464974     3.457331     3.449688     3.442045     3.434402     3.426758     3.419115     3.411472     3.403829     3.396185
      3.388542     3.380899     3.373256     3.365613     3.357969     3.350326     3.342683     3.335040     3.327396     3.319753
      3.312110     3.304467     3.296824     3.289180     3.281537     3.273894     3.266251     3.258607     3.250964     3.243321
      3.235678     3.228034     3.220391     3.212748     3.205105     3.197462     3.189818     3.182175     3.174532     3.166889
      3.159245     3.151602     3.143959     3.136316     3.128673     3.121029     3.113386     3.105743     3.098100     3.090456
      3.082813     3.075170     3.067527     3.059884     3.052240     3.044597     3.036954     3.029311     3.021667     3.014024
      3.006381     2.998738     2.991095     2.983451     2.975808     2.968165     2.960522     2.952878     2.945235     2.937592
      2.929949     2.922306     2.914662     2.907019     2.899376     2.891733     2.884089     2.876446     2.868803     2.861160
      2.853517     2.845873     2.838230     2.830587     2.822944     2.815300     2.807657     2.800014     2.792371     2.784728
      2.777084     2.769441     2.761798     2.754155     2.746511     2.738868     2.731225     2.723582     2.715939     2.708295
      2.700652     2.693009     2.685366     2.677722     2.670079     2.662436     2.654793     2.647150     2.639506     2.631863
      2.624220     2.616577     2.608933     2.601290     2.593647     2.586004     2.578361     2.570717     2.563074     2.555431
      2.547788     2.540144     2.532501     2.524858     2.517215     2.509572     2.501928     2.494285     2.486642     2.478999
      2.471355     2.463712     2.456069     2.448426     2.440783     2.433139     2.425496     2.417853     2.410210     2.402566
      2.394923     2.387280     2.379637     2.371994     2.364350     2.356707     2.349064     2.341421     2.333777     2.326134
      2.318491     2.310848     2.303205     2.295561     2.287918     2.280275     2.272632     2.264988     2.257345     2.249702
      2.242059     2.234416     2.226772     2.219129     2.211486     2.203843     2.196199     2.188556     2.180913     2.173270
      2.165627     2.157983     2.150340     2.142697     2.135054     2.127410     2.119767     2.112124     2.104481     2.096838
      2.089194     2.081551     2.073908     2.066265     2.058621     2.050978     2.043335     2.035692     2.028049     2.020405
      2.012762     2.005119     1.997476     1.989833     1.982190     1.974546     1.966903     1.959260     1.951617     1.943974
      1.936331     1.928688     1.921045     1.913402     1.905759     1.898115     1.890472     1.882829     1.875186     1.867543
      1.859900     1.852257     1.844614     1.836971     1.829327     1.821684     1.814041     1.806398     1.798755     1.791112
      1.783469     1.775826     1.768183     1.760540     1.752896     1.745253     1.737610     1.729967     1.722324     1.714681
      1.707038     1.699395     1.691752     1.684108     1.676465     1.668822     1.661179     1.653536     1.645893     1.638250
      1.630607     1.622964     1.615321     1.607677     1.600034     1.592391     1.584748     1.577105     1.569462     1.561819
      1.554176     1.546533     1.538890     1.531246     1.523603     1.515960     1.508317     1.500674     1.493031     1.485388
      1.477745     1.470102     1.462458     1.454815     1.447172     1.439529     1.431886     1.424243     1.416600     1.408957
      1.401314     1.393671     1.386027     1.378384     1.370741     1.363098     1.355455     1.347812     1.340169     1.332526
      1.324883     1.317240     1.309596     1.301953     1.294310     1.286667     1.279024     1.271381     1.263738     1.256095
      1.248452     1.240808     1.233165     1.225522     1.217879     1.210236     1.202593     1.194950     1.187307     1.179664
      1.172021     1.164377     1.156734     1.149091     1.141448     1.133805     1.126162     1.118519     1.110876     1.103233
      1.095590     1.087946     1.080303     1.072660     1.065017     1.057374     1.049731     1.042088     1.034445     1.026802
      1.019158     1.011515     1.003872     0.996229     0.988586     0.980943     0.973300     0.965657     0.958014     0.950371
      0.942727     0.935084     0.927441     0.919798     0.912155     0.904512     0.896869     0.889226     0.881583     0.873940
      0.866296     0.858653     0.851010     0.843367     0.835724     0.828081     0.820438     0.812795     0.805152     0.797508
      0.789865     0.782222     0.774579     0.766936     0.759293     0.751650     0.744007     0.736364     0.728721     0.721077
      0.713434     0.705791     0.698148     0.690505     0.682862     0.675219     0.667576     0.659933     0.652290     0.644646
      0.637003     0.629360     0.621717     0.614074     0.606431     0.598788     0.591145     0.583502     0.575858     0.568215
      0.560572     0.552929     0.545286     0.537643     0.530000     0.522357     0.514714     0.507071     0.499427     0.491784
      0.484141     0.476498     0.468855     0.461212     0.453569     0.445925     0.438282     0.430639     0.422996     0.415353
      0.407710     0.400067     0.392424     0.384780     0.377137     0.369494     0.361851     0.354208     0.346565     0.338922
      0.331278     0.323635     0.315992     0.308349     0.300706     0.293063     0.285420     0.277777     0.270133     0.262490
      0.254847     0.247204     0.239561     0.231918     0.224275     0.216631     0.208988     0.201345
 NY phased data points follow
  -1.22815E+01 -9.28711E+00 -1.03922E+01 -8.85642E+00 -6.21002E+00 -1.16328E+00  4.83795E+00  1.12738E+01  1.35049E+01  1.83525E+01
   2.12237E+01  2.17207E+01  1.94979E+01  1.76039E+01  7.89741E+00  3.00760E+00 -1.39616E+00 -2.01023E+00 -6.96051E+00 -2.78067E+00
  -1.06161E+01 -7.58099E+00 -6.73177E+00 -6.73296E+00 -5.06173E+00 -3.82896E+00 -2.73242E+00 -1.81580E+00 -6.21966E-01  7.81672E-01
   1.85069E+00  1.21455E+00  1.85502E+00  4.20049E+00 -7.79709E-01 -9.25190E-01  2.21657E-01  1.49491E-02 -1.20162E+00 -2.91405E+00
  -3.44943E+00  1.23803E+00 -4.34314E+00 -5.53401E+00 -2.60656E+00 -1.44310E+00  4.57741E-01  6.39730E-01  3.13692E+00  1.70732E+00
  -1.98311E+00 -1.13946E+00 -4.31367E+00 -6.76451E+00 -7.02352E+00 -8.45994E+00 -5.63438E+00 -4.96383E+00 -6.62727E+00 -3.41463E+00
  -6.31508E+00 -8.84878E+00 -6.23153E+00 -7.93120E+00 -1.21125E+01 -9.18275E+00 -1.20044E+01 -9.73297E+00 -9.96553E+00 -1.07144E+01
  -8.82751E+00 -6.78984E+00 -7.54757E+00 -4.84497E+00 -8.75205E+00 -4.46880E+00 -4.52603E+00 -4.44185E+00 -6.06716E+00 -6.42102E+00
  -4.67485E+00 -4.08496E+00 -3.87486E+00 -5.53617E+00 -1.80286E+00 -3.24516E+00 -5.26483E+00 -4.31846E+00 -3.87052E+00 -2.85477E+00
  -4.43149E+00 -2.90302E+00 -2.93581E+00  2.09262E-01 -2.30394E+00 -7.35407E-01 -4.69579E-01 -9.45657E-01  6.43986E-01  8.93502E+00
   1.80357E+01  2.30731E+01  3.55573E+01  3.81222E+01  3.85036E+01  3.13919E+01  2.27878E+01  1.60978E+01  8.15718E+00  6.12556E+00
   1.08520E+00  8.34681E-02 -2.78332E+00 -4.04337E+00 -1.04256E+00 -4.89212E+00 -1.59636E+00 -5.85065E+00 -1.21911E+00 -2.07360E-01
  -9.30587E-01  1.61770E+00  4.17651E+00  4.09924E+00  1.29145E+01  2.31657E+01  3.62473E+01  4.09925E+01  3.98947E+01  3.45356E+01
   2.60793E+01  2.00906E+01  1.09877E+01  7.46008E+00  3.48420E-01  2.91582E-01 -9.90282E-01 -5.00500E+00 -6.10905E+00 -4.08259E+00
  -3.90990E+00 -1.67036E-01 -5.19137E+00 -7.32344E+00 -7.13707E+00 -5.79263E+00 -6.44258E+00 -4.66970E+00 -5.50759E+00 -7.32784E+00
  -4.86825E+00 -6.45672E+00 -7.35300E+00 -5.06433E+00 -9.18480E+00 -5.52976E+00 -4.97112E+00 -6.89534E+00 -3.80118E+00 -3.62420E+00
  -8.35989E+00 -9.80158E+00 -1.32345E+01 -8.59052E+00 -8.58789E+00 -4.99378E+00 -4.34685E+00 -6.68432E+00 -6.22093E+00 -5.86351E+00
  -1.01489E+01 -7.90036E+00 -8.34911E+00 -1.42153E+01 -1.31065E+01 -1.46412E+01 -1.43715E+01 -1.30949E+01 -8.66409E+00 -1.32520E+01
  -1.03324E+01 -1.27229E+01 -9.58712E+00 -1.20395E+01 -1.28637E+01 -1.25424E+01 -1.12661E+01 -9.76850E+00 -6.89548E+00 -4.89971E+00
  -1.12860E+00 -3.09841E+00  4.68890E-01  5.40894E-01  1.53836E+00  3.03856E-01 -5.08560E+00 -2.23967E+00  1.42818E+00 -2.36562E+00
  -4.99080E+00 -1.58265E+00 -2.79506E+00  2.11029E-01  2.32376E+00 -1.06748E+00 -1.45875E+00 -2.14811E+00 -5.38886E+00 -6.32748E+00
  -9.25412E+00 -1.11119E+01 -3.23493E+00 -8.52957E-01  6.00968E+00  5.66292E+00  1.14044E+01  8.21206E+00  9.16838E+00  4.86908E+00
   1.26529E+00 -4.09775E+00 -6.73513E+00 -6.67858E+00 -4.62780E-01  3.82124E+00 -5.30748E-02  3.97709E+00  5.54129E+00  6.44852E+00
   4.88411E+00  4.09773E+00  7.63695E-01  5.71839E+00  4.73476E+00  2.98965E+00  2.41360E+00  4.99115E+00  4.34576E+00  1.54612E+00
   4.82161E+00  7.00650E+00 -2.08379E-01  1.04374E+00 -2.42338E-01  5.45988E+00  8.38764E+00  8.35345E+00  1.04260E+01  5.51881E+00
   1.16001E+01  9.85801E+00  1.11904E+01  1.46369E+01  2.02329E+01  2.61952E+01  2.57405E+01  3.16046E+01  4.74804E+01  6.53484E+01
   7.69541E+01  7.31066E+01  6.01043E+01  4.45941E+01  3.39679E+01  2.54430E+01  1.23461E+01  1.01719E+01  1.09941E+01  8.52987E+00
   7.37628E+00  5.63578E+00  4.47140E+00  8.47217E+00  4.31910E+00  3.28823E+00  4.29404E+00  2.78876E+00  1.64792E+00  5.40913E+00
   1.84829E+00  9.78714E-01  4.30906E+00  4.27608E+00  3.05910E+00  5.63324E-01  6.11308E-01 -1.18881E+00  1.56058E+00  2.02019E+00
   3.89690E+00  4.69499E-01 -9.69398E-01  1.39959E+00  1.03607E+00  9.90031E-01 -1.44956E+00  2.76209E+00  3.22680E-01  1.05967E+00
   2.36055E+00  2.79122E+00  2.21650E+00  4.06838E+00  3.37114E+00  8.93446E+00  3.71769E+00  3.97187E+00  4.77255E+00  5.87120E+00
   6.23328E+00  6.36003E+00  8.01939E+00  6.95780E+00  7.99021E+00  8.25046E+00  4.37210E+00  4.39488E+00  3.11323E+00  7.42373E+00
   2.37722E+00  6.22224E+00  7.01025E+00  5.79608E+00  5.72319E+00  4.48191E+00  5.44145E+00  4.55798E+00  5.03701E+00  4.89049E+00
   7.16575E+00  3.94657E+00  5.04770E+00  6.46139E+00  4.77699E+00  4.14710E+00  7.63233E+00  3.38689E+00 -9.09630E-02  8.03772E-02
   4.80509E+00 -8.06916E-01 -9.80122E-01  1.48553E+00 -3.00293E-01  7.03036E+00  3.95523E+00  6.96921E+00  5.70861E+00  6.34489E+00
   5.13825E+00  4.25478E+00  5.57473E+00  5.97866E+00  8.23337E+00  5.92340E+00  3.93367E+00  3.26157E+00  1.26079E+00  4.81373E+00
   2.26318E+00  3.62028E+00  6.03603E+00  7.22390E+00  6.42342E+00  4.80639E+00  6.89271E+00  8.68493E+00  8.46794E+00  6.19379E+00
   6.65477E+00  7.17300E+00  7.82540E+00  9.32996E+00  7.88539E+00  8.76266E+00  4.99599E+00  7.13929E+00  2.60059E+00  5.46371E+00
   3.11663E+00  1.65594E+00  9.28024E-01  2.88503E+00  2.76643E+00  6.90952E+00  2.61891E+00  5.48748E+00  2.40478E+00  5.14229E+00
   7.84768E+00  5.82709E+00  6.36148E+00  5.11688E+00  6.60610E+00  1.00920E+01  7.95134E+00  6.95328E+00  8.12679E+00  1.09186E+01
   1.10058E+01  1.31460E+01  1.05142E+01  9.40769E+00  1.11443E+01  8.62554E+00  8.97460E+00  9.94630E+00  1.01653E+01  7.90361E+00
   1.10593E+01  8.68884E+00  5.34698E+00  8.45481E+00  6.25425E+00  6.58694E+00  6.56180E+00  4.71258E+00  6.36672E+00  5.87120E-01
   7.44426E+00  6.43928E+00  6.25999E+00  8.56499E+00  5.75203E+00  3.93585E+00  6.80450E+00  3.64211E+00  4.67585E+00  3.63415E+00
   4.12434E+00  4.32021E+00  3.30497E+00  2.48278E+00  1.11486E+00  3.01959E+00  2.19997E+00  2.59149E+00  5.04099E-01  6.56066E+00
   6.89040E+00 -1.26644E+00  5.31766E+00  6.31898E+00  5.27975E+00  2.51768E+00  2.72587E+00  4.17230E+00  5.34880E+00  2.03049E+00
   6.08198E+00  5.50511E+00  6.17589E+00  4.67397E+00  3.83843E+00  4.96608E+00  6.00698E+00  3.54716E+00  3.53899E+00  5.05239E+00
   2.66444E+00  1.20050E+00  3.84897E+00  4.40810E+00  1.21536E+00  3.06092E+00  3.07279E+00  3.10260E+00  3.55508E+00  5.56809E+00
   8.15224E+00  3.22077E+00  6.04220E+00  3.16014E+00  5.14725E+00  3.61248E+00  3.45205E+00  3.07467E+00  2.95332E+00  7.54273E-01
   3.43122E+00  4.87377E+00  3.95955E+00  1.97303E+00  2.50745E+00  4.39621E+00  5.36473E+00  4.02881E+00  1.42339E+00  5.82395E+00
   4.06255E+00  3.26188E+00  5.30378E+00  4.42187E+00  2.01686E+00  3.59407E+00  4.77262E+00  6.18243E+00
 NY points of the fit to the data follow
  -7.52872E+00 -7.48386E+00 -7.08291E+00 -5.90887E+00 -3.92589E+00 -1.23452E+00  2.69609E+00  7.86540E+00  1.37206E+01  1.89106E+01
   2.18045E+01  2.15198E+01  1.84001E+01  1.36703E+01  8.63405E+00  4.10001E+00  3.42980E-01 -2.37535E+00 -4.12320E+00 -5.11669E+00
  -5.45753E+00 -5.57621E+00 -5.74357E+00 -5.88857E+00 -5.72892E+00 -5.50394E+00 -5.04697E+00 -3.89544E+00 -1.90734E+00  5.27297E-01
   2.58429E+00  3.68793E+00  3.68145E+00  2.69445E+00  9.30811E-01 -1.30565E+00 -3.65547E+00 -5.54816E+00 -6.52113E+00 -6.79232E+00
  -6.45462E+00 -5.62701E+00 -4.61983E+00 -3.63966E+00 -2.65089E+00 -1.50956E+00 -3.76972E-01  2.88642E-01  1.55666E-01 -7.34458E-01
  -2.04135E+00 -3.37668E+00 -4.56037E+00 -5.49614E+00 -6.09230E+00 -6.32156E+00 -6.23931E+00 -5.96724E+00 -5.56856E+00 -5.16668E+00
  -4.95274E+00 -5.05649E+00 -5.47213E+00 -6.03475E+00 -6.55484E+00 -6.90013E+00 -7.00992E+00 -6.91599E+00 -6.67687E+00 -6.33884E+00
  -5.94217E+00 -5.58478E+00 -5.34397E+00 -5.24231E+00 -5.25430E+00 -5.32947E+00 -5.44634E+00 -5.58980E+00 -5.74506E+00 -5.86031E+00
  -5.79402E+00 -5.52778E+00 -5.22135E+00 -4.75903E+00 -4.00440E+00 -3.16713E+00 -2.69408E+00 -2.88390E+00 -3.62146E+00 -4.50914E+00
  -5.18174E+00 -5.55291E+00 -5.71332E+00 -5.71426E+00 -5.49080E+00 -4.94467E+00 -3.79696E+00 -1.08154E+00  2.65163E+00  7.46974E+00
   1.49873E+01  2.51744E+01  3.49843E+01  4.02450E+01  3.89107E+01  3.23361E+01  2.36660E+01  1.53369E+01  8.18080E+00  2.23848E+00
  -2.21009E+00 -4.33429E+00 -4.89311E+00 -5.01710E+00 -5.00291E+00 -4.92216E+00 -4.79679E+00 -4.63916E+00 -4.42622E+00 -4.07029E+00
  -3.21716E+00 -7.07109E-01  3.09510E+00  7.64600E+00  1.45744E+01  2.44552E+01  3.47201E+01  4.11178E+01  4.09948E+01  3.51944E+01
   2.69255E+01  1.88932E+01  1.18997E+01  5.73062E+00  4.08994E-01 -2.93972E+00 -4.37560E+00 -4.98308E+00 -4.99221E+00 -4.57015E+00
  -3.96557E+00 -3.40667E+00 -3.05189E+00 -2.97409E+00 -3.11431E+00 -3.37966E+00 -3.71651E+00 -4.06284E+00 -4.38851E+00 -4.66880E+00
  -4.88662E+00 -5.07596E+00 -5.24051E+00 -5.36190E+00 -5.44517E+00 -5.53603E+00 -5.59984E+00 -5.69436E+00 -5.93261E+00 -6.30188E+00
  -6.71160E+00 -6.89335E+00 -6.68979E+00 -6.25972E+00 -5.92089E+00 -5.88093E+00 -6.11041E+00 -6.44090E+00 -6.75978E+00 -7.09220E+00
  -7.44384E+00 -7.74818E+00 -7.97818E+00 -8.22979E+00 -8.57068E+00 -8.84951E+00 -8.80467E+00 -8.46044E+00 -8.11374E+00 -8.00638E+00
  -8.09110E+00 -8.16051E+00 -8.01191E+00 -7.75287E+00 -7.60201E+00 -7.44222E+00 -6.93897E+00 -5.94730E+00 -4.59452E+00 -3.22712E+00
  -2.19050E+00 -1.70199E+00 -1.82308E+00 -2.34249E+00 -3.07038E+00 -3.87672E+00 -4.51637E+00 -4.72014E+00 -4.29275E+00 -3.22955E+00
  -1.71960E+00 -9.75431E-02  1.27592E+00  2.13280E+00  2.11830E+00  1.24855E+00 -4.51984E-01 -2.85494E+00 -5.38497E+00 -7.29117E+00
  -7.96520E+00 -7.24089E+00 -5.43722E+00 -2.70953E+00  6.21879E-01  3.73422E+00  5.51857E+00  5.34585E+00  3.43490E+00  6.28450E-01
  -2.51254E+00 -5.49449E+00 -7.42929E+00 -7.61263E+00 -5.96873E+00 -3.22318E+00 -4.63561E-01  1.79254E+00  3.34375E+00  4.09342E+00
   4.08356E+00  3.69646E+00  3.36878E+00  3.31584E+00  3.58095E+00  4.18647E+00  5.03792E+00  5.82051E+00  6.31282E+00  6.34874E+00
   5.85177E+00  4.99357E+00  4.20145E+00  3.88966E+00  4.19620E+00  5.04301E+00  6.10785E+00  7.10252E+00  7.93266E+00  8.61777E+00
   9.26573E+00  9.88508E+00  1.07437E+01  1.25234E+01  1.69312E+01  2.27013E+01  2.87858E+01  3.77982E+01  5.08863E+01  6.44871E+01
   7.23858E+01  7.08996E+01  6.14843E+01  4.87550E+01  3.65464E+01  2.60451E+01  1.70982E+01  9.88269E+00  5.99208E+00  4.64044E+00
   3.88452E+00  3.35713E+00  3.03992E+00  2.90439E+00  2.82775E+00  2.73543E+00  2.59309E+00  2.39918E+00  2.16701E+00  1.91133E+00
   1.64671E+00  1.40404E+00  1.21851E+00  1.09436E+00  1.00938E+00  9.45130E-01  8.97749E-01  8.68653E-01  8.59197E-01  8.68711E-01
   9.05374E-01  9.76476E-01  1.08124E+00  1.21500E+00  1.37594E+00  1.56255E+00  1.77280E+00  2.00548E+00  2.26172E+00  2.54216E+00
   2.84601E+00  3.16883E+00  3.50385E+00  3.84335E+00  4.17930E+00  4.50353E+00  4.80799E+00  5.08513E+00  5.32964E+00  5.53724E+00
   5.70427E+00  5.82825E+00  5.90809E+00  5.94410E+00  5.93861E+00  5.89561E+00  5.82011E+00  5.71766E+00  5.59435E+00  5.45678E+00
   5.31173E+00  5.16548E+00  5.02325E+00  4.88911E+00  4.76622E+00  4.65699E+00  4.56292E+00  4.48438E+00  4.42059E+00  4.37005E+00
   4.33104E+00  4.30188E+00  4.28082E+00  4.26594E+00  4.25535E+00  4.24757E+00  4.24178E+00  4.23780E+00  4.23573E+00  4.23578E+00
   4.23838E+00  4.24437E+00  4.25501E+00  4.27164E+00  4.29535E+00  4.32682E+00  4.36657E+00  4.41503E+00  4.47247E+00  4.53869E+00
   4.61285E+00  4.69358E+00  4.77927E+00  4.86822E+00  4.95853E+00  5.04794E+00  5.13383E+00  5.21355E+00  5.28473E+00  5.34533E+00
   5.39352E+00  5.42760E+00  5.44615E+00  5.44832E+00  5.43400E+00  5.40374E+00  5.35849E+00  5.29956E+00  5.22872E+00  5.14834E+00
   5.06138E+00  4.97108E+00  4.88072E+00  4.79356E+00  4.71295E+00  4.64241E+00  4.58548E+00  4.54543E+00  4.52514E+00  4.52719E+00
   4.55404E+00  4.60801E+00  4.69116E+00  4.80500E+00  4.95050E+00  5.12823E+00  5.33839E+00  5.58071E+00  5.85417E+00  6.15678E+00
   6.48561E+00  6.83693E+00  7.20621E+00  7.58801E+00  7.97584E+00  8.36230E+00  8.73932E+00  9.09862E+00  9.43193E+00  9.73111E+00
   9.98841E+00  1.01968E+01  1.03506E+01  1.04456E+01  1.04794E+01  1.04512E+01  1.03619E+01  1.02141E+01  1.00122E+01  9.76205E+00
   9.47052E+00  9.14517E+00  8.79387E+00  8.42459E+00  8.04526E+00  7.66334E+00  7.28552E+00  6.91743E+00  6.56368E+00  6.22800E+00
   5.91324E+00  5.62136E+00  5.35330E+00  5.10921E+00  4.88862E+00  4.69078E+00  4.51464E+00  4.35888E+00  4.22186E+00  4.10186E+00
   3.99722E+00  3.90649E+00  3.82831E+00  3.76134E+00  3.70418E+00  3.65562E+00  3.61464E+00  3.58049E+00  3.55245E+00  3.52978E+00
   3.51173E+00  3.49772E+00  3.48736E+00  3.48039E+00  3.47647E+00  3.47519E+00  3.47616E+00  3.47916E+00  3.48410E+00  3.49088E+00
   3.49930E+00  3.50910E+00  3.52009E+00  3.53222E+00  3.54552E+00  3.55993E+00  3.57529E+00  3.59141E+00  3.60821E+00  3.62574E+00
   3.64403E+00  3.66303E+00  3.68258E+00  3.70255E+00  3.72297E+00  3.74392E+00  3.76541E+00  3.78735E+00  3.80959E+00  3.83209E+00
   3.85491E+00  3.87814E+00  3.90176E+00  3.92566E+00  3.94972E+00  3.97397E+00  3.99851E+00  4.02338E+00  4.04851E+00  4.07379E+00
   4.09916E+00  4.12470E+00  4.15049E+00  4.17655E+00  4.20278E+00  4.22907E+00  4.25544E+00  4.28199E+00  4.30878E+00  4.33578E+00
   4.36286E+00  4.38998E+00  4.41720E+00  4.44462E+00  4.47228E+00  4.50009E+00  4.52795E+00  4.55587E+00
 NY background values follow
    -1.073E+01   -1.070E+01   -1.067E+01   -1.064E+01   -1.061E+01   -1.058E+01   -1.055E+01   -1.052E+01   -1.049E+01   -1.046E+01
    -1.043E+01   -1.040E+01   -1.036E+01   -1.033E+01   -1.030E+01   -1.027E+01   -1.024E+01   -1.021E+01   -1.018E+01   -1.015E+01
    -1.012E+01   -1.009E+01   -1.006E+01   -1.003E+01   -1.000E+01   -9.970E+00   -9.939E+00   -9.909E+00   -9.879E+00   -9.848E+00
    -9.818E+00   -9.787E+00   -9.757E+00   -9.727E+00   -9.696E+00   -9.666E+00   -9.635E+00   -9.605E+00   -9.575E+00   -9.544E+00
    -9.514E+00   -9.483E+00   -9.453E+00   -9.423E+00   -9.392E+00   -9.362E+00   -9.331E+00   -9.301E+00   -9.271E+00   -9.240E+00
    -9.210E+00   -9.179E+00   -9.149E+00   -9.119E+00   -9.088E+00   -9.058E+00   -9.027E+00   -8.997E+00   -8.966E+00   -8.936E+00
    -8.906E+00   -8.875E+00   -8.845E+00   -8.814E+00   -8.784E+00   -8.754E+00   -8.723E+00   -8.693E+00   -8.662E+00   -8.632E+00
    -8.602E+00   -8.571E+00   -8.541E+00   -8.510E+00   -8.480E+00   -8.450E+00   -8.419E+00   -8.389E+00   -8.358E+00   -8.328E+00
    -8.298E+00   -8.267E+00   -8.237E+00   -8.206E+00   -8.176E+00   -8.146E+00   -8.115E+00   -8.085E+00   -8.054E+00   -8.024E+00
    -7.994E+00   -7.963E+00   -7.933E+00   -7.902E+00   -7.872E+00   -7.842E+00   -7.811E+00   -7.781E+00   -7.750E+00   -7.720E+00
    -7.690E+00   -7.659E+00   -7.629E+00   -7.598E+00   -7.568E+00   -7.538E+00   -7.507E+00   -7.477E+00   -7.446E+00   -7.416E+00
    -7.386E+00   -7.355E+00   -7.325E+00   -7.294E+00   -7.264E+00   -7.234E+00   -7.203E+00   -7.173E+00   -7.142E+00   -7.112E+00
    -7.082E+00   -7.051E+00   -7.021E+00   -6.990E+00   -6.960E+00   -6.929E+00   -6.899E+00   -6.869E+00   -6.838E+00   -6.808E+00
    -6.777E+00   -6.747E+00   -6.717E+00   -6.686E+00   -6.656E+00   -6.625E+00   -6.595E+00   -6.565E+00   -6.534E+00   -6.504E+00
    -6.473E+00   -6.443E+00   -6.413E+00   -6.382E+00   -6.352E+00   -6.321E+00   -6.291E+00   -6.261E+00   -6.230E+00   -6.200E+00
    -6.169E+00   -6.139E+00   -6.109E+00   -6.078E+00   -6.048E+00   -6.017E+00   -5.987E+00   -5.957E+00   -5.926E+00   -5.896E+00
    -5.865E+00   -5.835E+00   -5.804E+00   -5.774E+00   -5.744E+00   -5.713E+00   -5.683E+00   -5.652E+00   -5.622E+00   -5.592E+00
    -5.561E+00   -5.531E+00   -5.500E+00   -5.470E+00   -5.440E+00   -5.409E+00   -5.379E+00   -5.348E+00   -5.318E+00   -5.287E+00
    -5.257E+00   -5.227E+00   -5.196E+00   -5.166E+00   -5.135E+00   -5.105E+00   -5.075E+00   -5.044E+00   -5.014E+00   -4.983E+00
    -4.953E+00   -4.923E+00   -4.892E+00   -4.862E+00   -4.831E+00   -4.801E+00   -4.770E+00   -4.740E+00   -4.710E+00   -4.679E+00
    -4.649E+00   -4.618E+00   -4.588E+00   -4.558E+00   -4.527E+00   -4.497E+00   -4.466E+00   -4.436E+00   -4.405E+00   -4.375E+00
    -4.345E+00   -4.314E+00   -4.284E+00   -4.253E+00   -4.223E+00   -4.193E+00   -4.162E+00   -4.132E+00   -4.101E+00   -4.071E+00
    -4.041E+00   -4.010E+00   -3.980E+00   -3.949E+00   -3.919E+00   -3.888E+00   -3.858E+00   -3.828E+00   -3.797E+00   -3.767E+00
    -3.736E+00   -3.706E+00   -3.676E+00   -3.645E+00   -3.615E+00   -3.584E+00   -3.554E+00   -3.523E+00   -3.493E+00   -3.463E+00
    -3.432E+00   -3.402E+00   -3.371E+00   -3.341E+00   -3.311E+00   -3.280E+00   -3.250E+00   -3.219E+00   -3.189E+00   -3.159E+00
    -3.128E+00   -3.098E+00   -3.067E+00   -3.037E+00   -3.006E+00   -2.976E+00   -2.946E+00   -2.915E+00   -2.885E+00   -2.854E+00
    -2.824E+00   -2.794E+00   -2.763E+00   -2.733E+00   -2.702E+00   -2.672E+00   -2.642E+00   -2.611E+00   -2.581E+00   -2.550E+00
    -2.520E+00   -2.490E+00   -2.459E+00   -2.429E+00   -2.398E+00   -2.368E+00   -2.337E+00   -2.307E+00   -2.277E+00   -2.246E+00
    -2.216E+00   -2.185E+00   -2.155E+00   -2.125E+00   -2.094E+00   -2.064E+00   -2.033E+00   -2.003E+00   -1.973E+00   -1.942E+00
    -1.912E+00   -1.881E+00   -1.851E+00   -1.821E+00   -1.790E+00   -1.760E+00   -1.729E+00   -1.699E+00   -1.669E+00   -1.638E+00
    -1.608E+00   -1.577E+00   -1.547E+00   -1.516E+00   -1.486E+00   -1.456E+00   -1.425E+00   -1.395E+00   -1.364E+00   -1.334E+00
    -1.304E+00   -1.273E+00   -1.243E+00   -1.212E+00   -1.182E+00   -1.152E+00   -1.121E+00   -1.091E+00   -1.060E+00   -1.030E+00
    -9.996E-01   -9.692E-01   -9.388E-01   -9.084E-01   -8.780E-01   -8.476E-01   -8.172E-01   -7.868E-01   -7.564E-01   -7.260E-01
    -6.956E-01   -6.652E-01   -6.348E-01   -6.044E-01   -5.740E-01   -5.436E-01   -5.132E-01   -4.828E-01   -4.524E-01   -4.220E-01
    -3.916E-01   -3.612E-01   -3.308E-01   -3.004E-01   -2.700E-01   -2.396E-01   -2.092E-01   -1.788E-01   -1.484E-01   -1.180E-01
    -8.758E-02   -5.718E-02   -2.678E-02    3.622E-03    3.402E-02    6.442E-02    9.482E-02    1.252E-01    1.556E-01    1.860E-01
     2.164E-01    2.468E-01    2.772E-01    3.076E-01    3.380E-01    3.684E-01    3.988E-01    4.292E-01    4.596E-01    4.900E-01
     5.204E-01    5.508E-01    5.812E-01    6.116E-01    6.420E-01    6.724E-01    7.028E-01    7.332E-01    7.636E-01    7.940E-01
     8.244E-01    8.548E-01    8.852E-01    9.156E-01    9.460E-01    9.764E-01    1.007E+00    1.037E+00    1.068E+00    1.098E+00
     1.128E+00    1.159E+00    1.189E+00    1.220E+00    1.250E+00    1.280E+00    1.311E+00    1.341E+00    1.372E+00    1.402E+00
     1.432E+00    1.463E+00    1.493E+00    1.524E+00    1.554E+00    1.584E+00    1.615E+00    1.645E+00    1.676E+00    1.706E+00
     1.736E+00    1.767E+00    1.797E+00    1.828E+00    1.858E+00    1.888E+00    1.919E+00    1.949E+00    1.980E+00    2.010E+00
     2.040E+00    2.071E+00    2.101E+00    2.132E+00    2.162E+00    2.192E+00    2.223E+00    2.253E+00    2.284E+00    2.314E+00
     2.344E+00    2.375E+00    2.405E+00    2.435E+00    2.466E+00    2.496E+00    2.527E+00    2.557E+00    2.587E+00    2.618E+00
     2.648E+00    2.679E+00    2.709E+00    2.739E+00    2.770E+00    2.800E+00    2.831E+00    2.861E+00    2.891E+00    2.922E+00
     2.952E+00    2.983E+00    3.013E+00    3.043E+00    3.074E+00    3.104E+00    3.135E+00    3.165E+00    3.195E+00    3.226E+00
     3.256E+00    3.287E+00    3.317E+00    3.347E+00    3.378E+00    3.408E+00    3.439E+00    3.469E+00    3.499E+00    3.530E+00
     3.560E+00    3.591E+00    3.621E+00    3.651E+00    3.682E+00    3.712E+00    3.743E+00    3.773E+00    3.803E+00    3.834E+00
     3.864E+00    3.895E+00    3.925E+00    3.955E+00    3.986E+00    4.016E+00    4.047E+00    4.077E+00    4.107E+00    4.138E+00
     4.168E+00    4.199E+00    4.229E+00    4.259E+00    4.290E+00    4.320E+00    4.351E+00    4.381E+00
 Asp      Conc. = 9.26E+01
