 LCModel (Version 6.3-1L) Copyright: S.W. Provencher.          Ref.: Magn. Reson. Med. 30:672-679 (1993).                
 Slice#2 Row#12 Col#6  PD_05_press_1_raw_act
 36 lines in following concentration table = NCONC+1
    Conc.  %SD /Cr+PCr  Metabolite                                         
  186.164  53%   0.187 Ala                                                 
    0.000 999%   0.000 Asp                                                 
  553.950  36%   0.556 Cr                                                  
  442.662  45%   0.444 PCr                                                 
    0.000 999%   0.000 GABA                                                
    0.000 999%   0.000 Glc                                                 
 1.01E+03  23%   1.016 Gln                                                 
 1.16E+03  23%   1.162 Glu                                                 
  336.671   5%   0.338 GPC                                                 
    0.000 999%   0.000 PCh                                                 
  464.356  12%   0.466 GSH                                                 
 1.45E+03  15%   1.455 Ins                                                 
   84.465 149% 8.5E-02 Lac                                                 
 1.81E+03   3%   1.811 NAA                                                 
    0.000 999%   0.000 NAAG                                                
  128.941  16%   0.129 Scyllo                                              
  127.875 118%   0.128 Tau                                                 
  309.340  27%   0.310 -CrCH2                                              
  336.671   5%   0.338 GPC+PCh                                             
 1.81E+03   3%   1.811 NAA+NAAG                                            
  996.612   4%   1.000 Cr+PCr                                              
 2.17E+03  20%   2.178 Glu+Gln                                             
    0.000 999%   0.000 Lip13a                                              
  214.953  62%   0.216 Lip13b                                              
   24.484 294% 2.5E-02 Lip09                                               
  829.049  17%   0.832 MM09                                                
   39.648 121% 4.0E-02 Lip20                                               
 1.86E+03  13%   1.869 MM20                                                
  254.834  35%   0.256 MM12                                                
  278.629  64%   0.280 MM14                                                
  270.461  46%   0.271 MM17                                                
  214.953  62%   0.216 Lip13a+Lip13b                                       
  748.416  32%   0.751 MM14+Lip13a+Lip13b+MM12                             
  853.534  16%   0.856 MM09+Lip09                                          
 1.90E+03  12%   1.909 MM20+Lip20                                          
   6 lines in following misc. output table
  FWHM = 0.069 ppm    S/N =  14                                            
  Data shift = 0.015 ppm                                                   
  Ph: -47 deg     -13.9 deg/ppm                                            
  alphaB,S = 7.0E-01,   9.2E+01                                            
   14 spline knots.   Ns = 9(1)                                            
  (12) 5 infls.   ( 9) 1 extrs.                                            
  498 points on ppm-axis = NY
      4.000000     3.992357     3.984714     3.977070     3.969427     3.961784     3.954141     3.946497     3.938854     3.931211
      3.923568     3.915925     3.908281     3.900638     3.892995     3.885352     3.877708     3.870065     3.862422     3.854779
      3.847136     3.839492     3.831849     3.824206     3.816563     3.808919     3.801276     3.793633     3.785990     3.778347
      3.770703     3.763060     3.755417     3.747774     3.740130     3.732487     3.724844     3.717201     3.709558     3.701914
      3.694271     3.686628     3.678985     3.671341     3.663698     3.656055     3.648412     3.640769     3.633125     3.625482
      3.617839     3.610196     3.602552     3.594909     3.587266     3.579623     3.571980     3.564336     3.556693     3.549050
      3.541407     3.533763     3.526120     3.518477     3.510834     3.503191     3.495547     3.487904     3.480261     3.472618
      3.464974     3.457331     3.449688     3.442045     3.434402     3.426758     3.419115     3.411472     3.403829     3.396185
      3.388542     3.380899     3.373256     3.365613     3.357969     3.350326     3.342683     3.335040     3.327396     3.319753
      3.312110     3.304467     3.296824     3.289180     3.281537     3.273894     3.266251     3.258607     3.250964     3.243321
      3.235678     3.228034     3.220391     3.212748     3.205105     3.197462     3.189818     3.182175     3.174532     3.166889
      3.159245     3.151602     3.143959     3.136316     3.128673     3.121029     3.113386     3.105743     3.098100     3.090456
      3.082813     3.075170     3.067527     3.059884     3.052240     3.044597     3.036954     3.029311     3.021667     3.014024
      3.006381     2.998738     2.991095     2.983451     2.975808     2.968165     2.960522     2.952878     2.945235     2.937592
      2.929949     2.922306     2.914662     2.907019     2.899376     2.891733     2.884089     2.876446     2.868803     2.861160
      2.853517     2.845873     2.838230     2.830587     2.822944     2.815300     2.807657     2.800014     2.792371     2.784728
      2.777084     2.769441     2.761798     2.754155     2.746511     2.738868     2.731225     2.723582     2.715939     2.708295
      2.700652     2.693009     2.685366     2.677722     2.670079     2.662436     2.654793     2.647150     2.639506     2.631863
      2.624220     2.616577     2.608933     2.601290     2.593647     2.586004     2.578361     2.570717     2.563074     2.555431
      2.547788     2.540144     2.532501     2.524858     2.517215     2.509572     2.501928     2.494285     2.486642     2.478999
      2.471355     2.463712     2.456069     2.448426     2.440783     2.433139     2.425496     2.417853     2.410210     2.402566
      2.394923     2.387280     2.379637     2.371994     2.364350     2.356707     2.349064     2.341421     2.333777     2.326134
      2.318491     2.310848     2.303205     2.295561     2.287918     2.280275     2.272632     2.264988     2.257345     2.249702
      2.242059     2.234416     2.226772     2.219129     2.211486     2.203843     2.196199     2.188556     2.180913     2.173270
      2.165627     2.157983     2.150340     2.142697     2.135054     2.127410     2.119767     2.112124     2.104481     2.096838
      2.089194     2.081551     2.073908     2.066265     2.058621     2.050978     2.043335     2.035692     2.028049     2.020405
      2.012762     2.005119     1.997476     1.989833     1.982190     1.974546     1.966903     1.959260     1.951617     1.943974
      1.936331     1.928688     1.921045     1.913402     1.905759     1.898115     1.890472     1.882829     1.875186     1.867543
      1.859900     1.852257     1.844614     1.836971     1.829327     1.821684     1.814041     1.806398     1.798755     1.791112
      1.783469     1.775826     1.768183     1.760540     1.752896     1.745253     1.737610     1.729967     1.722324     1.714681
      1.707038     1.699395     1.691752     1.684108     1.676465     1.668822     1.661179     1.653536     1.645893     1.638250
      1.630607     1.622964     1.615321     1.607677     1.600034     1.592391     1.584748     1.577105     1.569462     1.561819
      1.554176     1.546533     1.538890     1.531246     1.523603     1.515960     1.508317     1.500674     1.493031     1.485388
      1.477745     1.470102     1.462458     1.454815     1.447172     1.439529     1.431886     1.424243     1.416600     1.408957
      1.401314     1.393671     1.386027     1.378384     1.370741     1.363098     1.355455     1.347812     1.340169     1.332526
      1.324883     1.317240     1.309596     1.301953     1.294310     1.286667     1.279024     1.271381     1.263738     1.256095
      1.248452     1.240808     1.233165     1.225522     1.217879     1.210236     1.202593     1.194950     1.187307     1.179664
      1.172021     1.164377     1.156734     1.149091     1.141448     1.133805     1.126162     1.118519     1.110876     1.103233
      1.095590     1.087946     1.080303     1.072660     1.065017     1.057374     1.049731     1.042088     1.034445     1.026802
      1.019158     1.011515     1.003872     0.996229     0.988586     0.980943     0.973300     0.965657     0.958014     0.950371
      0.942727     0.935084     0.927441     0.919798     0.912155     0.904512     0.896869     0.889226     0.881583     0.873940
      0.866296     0.858653     0.851010     0.843367     0.835724     0.828081     0.820438     0.812795     0.805152     0.797508
      0.789865     0.782222     0.774579     0.766936     0.759293     0.751650     0.744007     0.736364     0.728721     0.721077
      0.713434     0.705791     0.698148     0.690505     0.682862     0.675219     0.667576     0.659933     0.652290     0.644646
      0.637003     0.629360     0.621717     0.614074     0.606431     0.598788     0.591145     0.583502     0.575858     0.568215
      0.560572     0.552929     0.545286     0.537643     0.530000     0.522357     0.514714     0.507071     0.499427     0.491784
      0.484141     0.476498     0.468855     0.461212     0.453569     0.445925     0.438282     0.430639     0.422996     0.415353
      0.407710     0.400067     0.392424     0.384780     0.377137     0.369494     0.361851     0.354208     0.346565     0.338922
      0.331278     0.323635     0.315992     0.308349     0.300706     0.293063     0.285420     0.277777     0.270133     0.262490
      0.254847     0.247204     0.239561     0.231918     0.224275     0.216631     0.208988     0.201345
 NY phased data points follow
  -4.85553E+01 -5.02544E+01 -4.77927E+01 -4.19392E+01 -4.27137E+01 -4.21380E+01 -3.88219E+01 -3.82503E+01 -3.21940E+01 -3.47090E+01
  -3.07873E+01 -3.19107E+01 -3.19033E+01 -3.38705E+01 -3.20426E+01 -3.59836E+01 -3.77028E+01 -3.78023E+01 -3.84975E+01 -3.85708E+01
  -3.95664E+01 -3.90069E+01 -3.77041E+01 -3.59747E+01 -3.81053E+01 -3.56526E+01 -3.33473E+01 -3.30451E+01 -3.28063E+01 -3.11404E+01
  -2.89559E+01 -2.87921E+01 -2.87918E+01 -2.96074E+01 -2.94610E+01 -3.12796E+01 -2.86763E+01 -2.78675E+01 -3.05666E+01 -2.89617E+01
  -2.66463E+01 -2.86868E+01 -2.77244E+01 -2.81757E+01 -2.55893E+01 -2.65443E+01 -2.35501E+01 -2.49546E+01 -2.54464E+01 -2.44018E+01
  -2.50943E+01 -2.55341E+01 -2.58235E+01 -2.67533E+01 -2.81948E+01 -3.04618E+01 -2.68484E+01 -2.85346E+01 -2.81011E+01 -2.77269E+01
  -2.58251E+01 -2.75984E+01 -2.77674E+01 -2.67697E+01 -2.90783E+01 -2.69563E+01 -2.75768E+01 -2.76629E+01 -2.59469E+01 -2.51921E+01
  -2.65331E+01 -2.55417E+01 -2.52118E+01 -2.57956E+01 -2.66661E+01 -2.59111E+01 -2.60749E+01 -2.18656E+01 -2.50410E+01 -2.27182E+01
  -2.18646E+01 -2.10199E+01 -2.10722E+01 -2.20554E+01 -2.15591E+01 -2.05037E+01 -2.17737E+01 -1.83353E+01 -2.10868E+01 -2.15712E+01
  -2.05389E+01 -1.82090E+01 -1.72764E+01 -1.93498E+01 -1.70623E+01 -1.50647E+01 -1.46237E+01 -1.30168E+01 -1.15309E+01 -8.51074E+00
  -6.47370E+00 -4.75141E+00 -2.24545E+00  8.31106E-01 -1.13639E+00  5.56111E-01 -3.09839E+00 -2.72978E+00 -6.43589E+00 -9.70218E+00
  -1.06582E+01 -1.44110E+01 -1.40637E+01 -1.51934E+01 -1.50332E+01 -1.54603E+01 -1.45995E+01 -1.25843E+01 -1.06937E+01 -1.07305E+01
  -1.08823E+01 -5.93399E+00 -7.93964E+00 -1.88668E+00 -8.05927E-01  3.56513E+00  7.06006E+00  7.96485E+00  8.92253E+00  8.11207E+00
   3.52790E+00 -5.44547E-01 -2.49693E+00 -6.27365E+00 -8.96342E+00 -1.18750E+01 -1.17160E+01 -1.31950E+01 -1.42536E+01 -1.28612E+01
  -1.50991E+01 -1.54138E+01 -1.22095E+01 -1.62375E+01 -1.39650E+01 -1.43669E+01 -1.59097E+01 -1.57009E+01 -1.43521E+01 -1.55912E+01
  -1.10107E+01 -1.40841E+01 -1.18475E+01 -1.46303E+01 -1.42183E+01 -1.34153E+01 -1.56982E+01 -1.22566E+01 -1.43404E+01 -1.38985E+01
  -1.63785E+01 -1.63229E+01 -1.31123E+01 -1.25187E+01 -1.51187E+01 -1.27714E+01 -1.51056E+01 -1.46438E+01 -1.52934E+01 -1.38662E+01
  -1.50160E+01 -1.48313E+01 -1.63778E+01 -1.96563E+01 -1.70099E+01 -1.77152E+01 -1.90696E+01 -2.08542E+01 -2.09163E+01 -1.83013E+01
  -1.62479E+01 -1.65697E+01 -1.78285E+01 -1.65608E+01 -1.55578E+01 -1.56589E+01 -1.60037E+01 -1.23825E+01 -1.23760E+01 -1.08333E+01
  -1.12119E+01 -9.13876E+00 -8.51410E+00 -8.64866E+00 -8.14584E+00 -8.87086E+00 -1.07341E+01 -8.30603E+00 -8.62273E+00 -1.13197E+01
  -8.54384E+00 -8.11947E+00 -6.72551E+00 -9.65605E+00 -3.95298E+00 -7.34055E+00 -5.64052E+00 -8.32619E+00 -8.89490E+00 -9.35074E+00
  -1.07942E+01 -6.61835E+00 -6.98927E+00 -2.79343E+00 -5.66411E+00 -7.72129E-01 -2.78279E+00 -1.99235E+00 -2.71916E+00 -4.24695E+00
  -4.09217E+00 -3.50195E+00 -6.27532E+00 -6.45077E+00 -4.48509E+00 -3.70159E+00 -3.75213E+00 -1.05866E+00 -1.81510E+00 -1.41561E+00
   1.18591E+00 -2.69694E+00  2.92257E-01  4.72044E-01 -5.99675E-01 -1.75354E+00  7.38025E-01  3.40165E-01 -3.91708E-01 -2.16402E+00
  -7.02658E-01 -1.31093E+00 -3.40812E+00 -4.57211E-01 -2.16648E+00  9.03888E-01  1.43489E+00  2.16610E+00  4.28748E+00  2.19248E+00
   6.09284E+00  7.90017E+00  6.19203E+00  1.16009E+01  1.69191E+01  2.09115E+01  2.59697E+01  3.41514E+01  4.11478E+01  4.14513E+01
   4.37474E+01  4.39469E+01  4.25693E+01  3.79820E+01  3.12506E+01  2.65020E+01  2.06192E+01  1.53556E+01  1.12258E+01  6.96794E+00
   4.24163E+00  3.51002E+00  2.01073E+00  2.40102E+00  1.36879E+00  8.90247E-01  1.55370E+00 -8.88786E-01  1.63581E+00 -1.16071E+00
  -2.25471E+00 -8.64134E-01 -1.04963E+00  7.29753E-01 -2.02701E+00 -2.20535E+00 -3.39545E-01 -2.64862E+00 -9.23049E-01 -7.65424E-01
  -1.86279E+00 -3.52752E+00 -1.41730E+00 -2.47947E+00 -2.50308E+00 -4.81100E+00 -2.45461E+00 -2.48291E+00 -3.96415E+00 -2.06386E+00
  -7.72410E-01 -3.28438E+00 -2.15958E+00  2.71327E+00 -1.41113E+00 -1.01886E+00 -1.76020E+00 -2.68150E+00  5.19076E-01 -1.05954E+00
   5.91034E-02  1.31663E+00 -3.60938E-01 -9.78107E-01  2.35828E+00  2.32809E+00  1.64815E+00  1.64651E+00 -3.92658E-03  5.98471E-01
   1.29870E+00  6.84315E-01 -2.71362E+00 -6.82984E-01 -1.64306E+00 -2.49145E+00  6.64151E-01 -8.34513E-01 -3.95560E-01 -3.38512E-01
  -1.01053E+00 -1.21066E+00 -1.10565E+00 -2.83136E+00 -1.22452E+00 -2.88284E+00 -6.44214E-01  4.86449E-01 -1.36781E-01  9.44471E-01
  -1.83532E+00  2.14954E+00  1.48589E+00  3.83643E+00  1.35942E+00  1.14184E+00 -9.00365E-01  2.16076E+00  3.86902E-01  2.15651E+00
   4.09615E-01  2.85065E+00  7.16146E-01 -1.85569E-01  1.59517E+00  2.35361E+00  2.39995E+00  3.44222E+00  1.34609E+00  2.22208E+00
   2.07870E-01  7.91239E-02  3.37899E+00  6.42124E-01  3.02444E-01  1.64245E+00 -1.92954E+00 -9.23909E-01  3.34673E+00  2.38397E-01
  -7.22460E-01  2.37412E+00 -6.42013E-01 -9.49301E-01 -4.00101E-01  5.32342E-01 -1.84154E+00 -1.41215E-01  1.01409E+00  2.50354E+00
   2.42277E-01 -1.01511E-01 -1.01496E+00 -1.00177E+00  1.07707E+00 -1.21588E+00 -1.34896E+00  1.69247E-01  6.51992E-01 -8.94949E-01
   1.21105E+00 -3.69883E-01  4.56897E-01  1.85670E+00  3.38234E+00  2.42023E+00  4.31904E+00  4.04711E+00  3.84666E+00  5.07117E+00
   3.08424E+00  2.70861E+00  2.49190E+00  5.31631E+00  3.15652E+00  2.66700E+00  4.74734E+00  3.86132E+00  5.80285E+00  6.64821E+00
   5.89013E+00  6.34045E+00  4.68177E+00  3.26102E+00  4.07061E+00  3.33118E+00  5.38517E+00  3.27642E+00  2.34430E+00  2.68860E+00
   2.10678E+00  1.68930E+00  4.61673E+00  9.67517E-01  1.85516E+00  2.60241E+00 -1.13217E+00 -1.17538E+00  2.09170E+00 -1.58478E+00
   1.88261E+00  7.06796E-01 -5.59606E-01  3.54316E-01  1.70841E-01  2.61853E-01  3.69609E-01  4.28525E-01  6.53565E-01  2.07837E+00
   1.28499E-01 -1.04384E+00 -2.52486E+00 -9.39756E-01 -6.57164E-01 -1.87053E+00  2.61095E+00  1.60752E+00 -3.12239E-01  3.86661E+00
  -7.53138E-02  1.53405E+00 -8.00955E-01  1.78037E+00  2.90500E+00  1.21465E+00  1.19477E+00  5.87087E-02  2.26625E+00  2.72135E+00
   9.73263E-01  2.83024E+00 -1.66813E-01  1.35194E+00 -1.47301E+00  3.42958E-01  1.95703E+00  2.91724E-01 -2.77660E+00  2.42743E+00
  -6.08749E-01  9.84950E-01  6.26166E-01  2.09490E+00  8.39210E-01  8.57351E-02  5.78921E-01 -6.97207E-01  2.53319E+00  4.73706E-01
  -4.11133E-01 -1.16306E+00  7.48032E-01  8.78649E-01  1.07810E+00  1.59891E+00  2.28874E+00  1.76485E+00 -3.03024E-01  9.09545E-01
   2.34166E+00  2.06136E+00  2.16856E+00  1.19353E-02 -9.30861E-02  1.31367E+00  4.23046E+00  3.09834E+00
 NY points of the fit to the data follow
  -4.57918E+01 -4.53499E+01 -4.45121E+01 -4.35339E+01 -4.24095E+01 -4.10675E+01 -3.93177E+01 -3.72917E+01 -3.53856E+01 -3.38550E+01
  -3.27405E+01 -3.21213E+01 -3.20985E+01 -3.26372E+01 -3.35225E+01 -3.45216E+01 -3.54889E+01 -3.63989E+01 -3.71260E+01 -3.77985E+01
  -3.84168E+01 -3.85157E+01 -3.79538E+01 -3.72806E+01 -3.66198E+01 -3.58104E+01 -3.46655E+01 -3.32549E+01 -3.17413E+01 -3.02787E+01
  -2.89741E+01 -2.79317E+01 -2.74600E+01 -2.76699E+01 -2.83680E+01 -2.93536E+01 -3.03916E+01 -3.11166E+01 -3.12352E+01 -3.10695E+01
  -3.09993E+01 -3.06770E+01 -2.97827E+01 -2.84956E+01 -2.72009E+01 -2.61754E+01 -2.54512E+01 -2.51040E+01 -2.52104E+01 -2.57385E+01
  -2.65277E+01 -2.72960E+01 -2.79065E+01 -2.83909E+01 -2.86273E+01 -2.85531E+01 -2.84026E+01 -2.82305E+01 -2.78614E+01 -2.73875E+01
  -2.70288E+01 -2.68740E+01 -2.68057E+01 -2.67669E+01 -2.67331E+01 -2.66658E+01 -2.64759E+01 -2.61109E+01 -2.57037E+01 -2.53344E+01
  -2.49772E+01 -2.46510E+01 -2.43372E+01 -2.40842E+01 -2.39237E+01 -2.38332E+01 -2.37967E+01 -2.37315E+01 -2.34176E+01 -2.31345E+01
  -2.28994E+01 -2.26385E+01 -2.22308E+01 -2.16353E+01 -2.10146E+01 -2.05621E+01 -2.02350E+01 -1.99849E+01 -1.99199E+01 -2.00373E+01
  -2.02551E+01 -2.04709E+01 -2.06076E+01 -2.04335E+01 -1.92088E+01 -1.73680E+01 -1.58081E+01 -1.43310E+01 -1.22027E+01 -9.23694E+00
  -5.90724E+00 -2.99904E+00 -8.17801E-01  6.02588E-01  1.02895E+00  2.07612E-01 -1.76985E+00 -4.34854E+00 -7.05758E+00 -9.68814E+00
  -1.20189E+01 -1.38512E+01 -1.53508E+01 -1.69423E+01 -1.79860E+01 -1.81500E+01 -1.78847E+01 -1.68038E+01 -1.45834E+01 -1.24430E+01
  -1.04880E+01 -8.22400E+00 -5.24898E+00 -1.60297E+00  1.96032E+00  4.82707E+00  6.83911E+00  7.79272E+00  7.45592E+00  5.78873E+00
   3.17409E+00  2.30040E-01 -2.77393E+00 -5.61619E+00 -8.07859E+00 -1.00903E+01 -1.20406E+01 -1.38497E+01 -1.45203E+01 -1.45363E+01
  -1.43533E+01 -1.40910E+01 -1.38309E+01 -1.36628E+01 -1.36078E+01 -1.35798E+01 -1.35794E+01 -1.36369E+01 -1.37180E+01 -1.38227E+01
  -1.39543E+01 -1.40828E+01 -1.42761E+01 -1.44232E+01 -1.44891E+01 -1.44967E+01 -1.44559E+01 -1.44692E+01 -1.45485E+01 -1.46156E+01
  -1.46340E+01 -1.46047E+01 -1.45629E+01 -1.45305E+01 -1.44960E+01 -1.44827E+01 -1.45500E+01 -1.47331E+01 -1.49677E+01 -1.51408E+01
  -1.52712E+01 -1.53859E+01 -1.55799E+01 -1.57790E+01 -1.58769E+01 -1.59009E+01 -1.58676E+01 -1.58259E+01 -1.57926E+01 -1.56694E+01
  -1.54445E+01 -1.51869E+01 -1.48941E+01 -1.45423E+01 -1.41198E+01 -1.36216E+01 -1.30052E+01 -1.23458E+01 -1.16865E+01 -1.11090E+01
  -1.06013E+01 -1.01353E+01 -9.78437E+00 -9.60158E+00 -9.55192E+00 -9.46181E+00 -9.18829E+00 -8.73128E+00 -8.19629E+00 -7.61794E+00
  -7.04663E+00 -6.65676E+00 -6.30191E+00 -6.11519E+00 -6.32109E+00 -6.89841E+00 -7.68043E+00 -8.33537E+00 -8.74769E+00 -9.06763E+00
  -9.10040E+00 -8.64108E+00 -7.69874E+00 -6.61125E+00 -5.73032E+00 -4.98363E+00 -4.35166E+00 -4.12218E+00 -4.40013E+00 -4.96962E+00
  -5.50423E+00 -6.01544E+00 -6.33830E+00 -6.32769E+00 -5.92350E+00 -5.20371E+00 -4.47974E+00 -3.79505E+00 -3.04291E+00 -2.32862E+00
  -1.78739E+00 -1.44695E+00 -1.13581E+00 -8.34227E-01 -6.34917E-01 -4.45386E-01 -1.82904E-01  1.16038E-01  3.26427E-01  3.44627E-01
   1.63697E-01 -6.64220E-02 -2.48280E-01 -4.13642E-01 -4.32319E-01 -1.45919E-01  3.84062E-01  9.33626E-01  1.54722E+00  2.30675E+00
   3.48039E+00  6.38100E+00  1.07435E+01  1.44498E+01  1.78238E+01  2.17876E+01  2.69676E+01  3.29038E+01  3.80898E+01  4.18040E+01
   4.40638E+01  4.44549E+01  4.24878E+01  3.82007E+01  3.25355E+01  2.66035E+01  2.08649E+01  1.56296E+01  1.13888E+01  7.98570E+00
   4.42625E+00  1.54719E+00  5.24724E-01  1.17814E-01 -1.39550E-01 -3.18540E-01 -4.53844E-01 -6.05602E-01 -7.56935E-01 -9.03007E-01
  -1.04655E+00 -1.18186E+00 -1.29968E+00 -1.40827E+00 -1.50936E+00 -1.59293E+00 -1.65575E+00 -1.70166E+00 -1.73451E+00 -1.75556E+00
  -1.76243E+00 -1.75457E+00 -1.73797E+00 -1.71127E+00 -1.67246E+00 -1.62120E+00 -1.55842E+00 -1.48501E+00 -1.40143E+00 -1.30886E+00
  -1.20943E+00 -1.10432E+00 -9.95516E-01 -8.85722E-01 -7.77384E-01 -6.72763E-01 -5.74040E-01 -4.83274E-01 -4.02182E-01 -3.31977E-01
  -2.73190E-01 -2.25493E-01 -1.87843E-01 -1.58465E-01 -1.34138E-01 -1.09616E-01 -7.62779E-02 -1.56403E-02  1.05735E-01  2.18986E-01
   2.39400E-01  2.39032E-01  2.51441E-01  2.61820E-01  2.01679E-01 -3.96899E-03 -2.81546E-01 -5.12746E-01 -7.87252E-01 -1.12020E+00
  -1.43867E+00 -1.62237E+00 -1.59099E+00 -1.39000E+00 -1.08301E+00 -6.87541E-01 -2.57286E-01  1.30019E-01  4.95289E-01  8.01234E-01
   9.54825E-01  1.01615E+00  1.02846E+00  1.02693E+00  1.01516E+00  9.28997E-01  8.10751E-01  7.77071E-01  7.78370E-01  7.96319E-01
   8.53778E-01  9.90539E-01  1.20700E+00  1.45353E+00  1.69444E+00  1.90894E+00  2.05752E+00  2.10087E+00  2.05927E+00  1.95073E+00
   1.76544E+00  1.52913E+00  1.27146E+00  1.02463E+00  8.00224E-01  5.74475E-01  3.76551E-01  2.30565E-01  1.19791E-01  3.38497E-02
  -3.35754E-02 -8.69233E-02 -1.29228E-01 -1.62430E-01 -1.87576E-01 -2.05049E-01 -2.14675E-01 -2.15888E-01 -2.07815E-01 -1.89446E-01
  -1.59665E-01 -1.17312E-01 -6.11244E-02  1.01971E-02  9.79929E-02  2.03523E-01  3.27989E-01  4.72458E-01  6.37885E-01  8.24958E-01
   1.03403E+00  1.26492E+00  1.51690E+00  1.78857E+00  2.07780E+00  2.38164E+00  2.69625E+00  3.01687E+00  3.33799E+00  3.65342E+00
   3.95655E+00  4.24043E+00  4.49814E+00  4.72301E+00  4.90904E+00  5.05113E+00  5.14543E+00  5.18940E+00  5.18203E+00  5.12386E+00
   5.01703E+00  4.86512E+00  4.67299E+00  4.44643E+00  4.19196E+00  3.91645E+00  3.62692E+00  3.33016E+00  3.03252E+00  2.73960E+00
   2.45624E+00  2.18638E+00  1.93311E+00  1.69857E+00  1.48409E+00  1.29022E+00  1.11691E+00  9.63594E-01  8.29399E-01  7.13106E-01
   6.13345E-01  5.28601E-01  4.57410E-01  3.98319E-01  3.50004E-01  3.11161E-01  2.80628E-01  2.57308E-01  2.40305E-01  2.28796E-01
   2.22111E-01  2.19584E-01  2.20681E-01  2.24896E-01  2.31874E-01  2.41263E-01  2.52799E-01  2.66168E-01  2.81155E-01  2.97536E-01
   3.15194E-01  3.33965E-01  3.53741E-01  3.74351E-01  3.95727E-01  4.17775E-01  4.40485E-01  4.63772E-01  4.87599E-01  5.11864E-01
   5.36560E-01  5.61638E-01  5.87125E-01  6.12951E-01  6.39102E-01  6.65508E-01  6.92195E-01  7.19135E-01  7.46360E-01  7.73805E-01
   8.01471E-01  8.29309E-01  8.57368E-01  8.85626E-01  9.14112E-01  9.42761E-01  9.71589E-01  1.00056E+00  1.02975E+00  1.05911E+00
   1.08868E+00  1.11838E+00  1.14827E+00  1.17831E+00  1.20856E+00  1.23901E+00  1.26966E+00  1.30046E+00  1.33147E+00  1.36267E+00
   1.39413E+00  1.42581E+00  1.45773E+00  1.48985E+00  1.52225E+00  1.55491E+00  1.58792E+00  1.62123E+00
 NY background values follow
    -5.004E+01   -4.972E+01   -4.940E+01   -4.907E+01   -4.875E+01   -4.843E+01   -4.811E+01   -4.779E+01   -4.747E+01   -4.715E+01
    -4.683E+01   -4.651E+01   -4.619E+01   -4.587E+01   -4.555E+01   -4.524E+01   -4.492E+01   -4.460E+01   -4.428E+01   -4.397E+01
    -4.365E+01   -4.334E+01   -4.302E+01   -4.271E+01   -4.239E+01   -4.208E+01   -4.177E+01   -4.146E+01   -4.115E+01   -4.084E+01
    -4.053E+01   -4.022E+01   -3.992E+01   -3.961E+01   -3.931E+01   -3.901E+01   -3.870E+01   -3.840E+01   -3.810E+01   -3.780E+01
    -3.751E+01   -3.721E+01   -3.692E+01   -3.662E+01   -3.633E+01   -3.604E+01   -3.575E+01   -3.546E+01   -3.518E+01   -3.489E+01
    -3.461E+01   -3.433E+01   -3.405E+01   -3.377E+01   -3.349E+01   -3.321E+01   -3.294E+01   -3.267E+01   -3.240E+01   -3.213E+01
    -3.186E+01   -3.159E+01   -3.133E+01   -3.107E+01   -3.081E+01   -3.055E+01   -3.029E+01   -3.004E+01   -2.978E+01   -2.953E+01
    -2.928E+01   -2.903E+01   -2.879E+01   -2.854E+01   -2.830E+01   -2.806E+01   -2.782E+01   -2.759E+01   -2.735E+01   -2.712E+01
    -2.689E+01   -2.666E+01   -2.643E+01   -2.621E+01   -2.599E+01   -2.577E+01   -2.555E+01   -2.533E+01   -2.512E+01   -2.491E+01
    -2.470E+01   -2.449E+01   -2.428E+01   -2.408E+01   -2.388E+01   -2.368E+01   -2.348E+01   -2.329E+01   -2.310E+01   -2.291E+01
    -2.272E+01   -2.253E+01   -2.235E+01   -2.216E+01   -2.198E+01   -2.181E+01   -2.163E+01   -2.145E+01   -2.128E+01   -2.111E+01
    -2.094E+01   -2.077E+01   -2.061E+01   -2.044E+01   -2.028E+01   -2.012E+01   -1.996E+01   -1.981E+01   -1.965E+01   -1.950E+01
    -1.935E+01   -1.920E+01   -1.905E+01   -1.890E+01   -1.876E+01   -1.861E+01   -1.847E+01   -1.833E+01   -1.819E+01   -1.806E+01
    -1.792E+01   -1.779E+01   -1.765E+01   -1.752E+01   -1.739E+01   -1.726E+01   -1.714E+01   -1.701E+01   -1.689E+01   -1.676E+01
    -1.664E+01   -1.652E+01   -1.640E+01   -1.628E+01   -1.617E+01   -1.605E+01   -1.593E+01   -1.582E+01   -1.571E+01   -1.559E+01
    -1.548E+01   -1.537E+01   -1.526E+01   -1.515E+01   -1.504E+01   -1.493E+01   -1.482E+01   -1.471E+01   -1.460E+01   -1.449E+01
    -1.439E+01   -1.428E+01   -1.417E+01   -1.407E+01   -1.396E+01   -1.385E+01   -1.374E+01   -1.364E+01   -1.353E+01   -1.342E+01
    -1.331E+01   -1.320E+01   -1.310E+01   -1.299E+01   -1.288E+01   -1.277E+01   -1.266E+01   -1.255E+01   -1.243E+01   -1.232E+01
    -1.221E+01   -1.209E+01   -1.198E+01   -1.186E+01   -1.175E+01   -1.163E+01   -1.151E+01   -1.140E+01   -1.128E+01   -1.116E+01
    -1.104E+01   -1.092E+01   -1.080E+01   -1.068E+01   -1.056E+01   -1.044E+01   -1.032E+01   -1.020E+01   -1.008E+01   -9.957E+00
    -9.837E+00   -9.717E+00   -9.597E+00   -9.478E+00   -9.359E+00   -9.240E+00   -9.122E+00   -9.004E+00   -8.887E+00   -8.771E+00
    -8.655E+00   -8.540E+00   -8.426E+00   -8.313E+00   -8.201E+00   -8.089E+00   -7.979E+00   -7.869E+00   -7.761E+00   -7.654E+00
    -7.549E+00   -7.444E+00   -7.341E+00   -7.239E+00   -7.139E+00   -7.040E+00   -6.943E+00   -6.847E+00   -6.753E+00   -6.660E+00
    -6.570E+00   -6.480E+00   -6.392E+00   -6.306E+00   -6.221E+00   -6.138E+00   -6.056E+00   -5.975E+00   -5.896E+00   -5.818E+00
    -5.742E+00   -5.667E+00   -5.594E+00   -5.522E+00   -5.451E+00   -5.382E+00   -5.313E+00   -5.247E+00   -5.181E+00   -5.117E+00
    -5.054E+00   -4.992E+00   -4.931E+00   -4.872E+00   -4.814E+00   -4.756E+00   -4.701E+00   -4.646E+00   -4.592E+00   -4.540E+00
    -4.488E+00   -4.438E+00   -4.389E+00   -4.340E+00   -4.293E+00   -4.247E+00   -4.202E+00   -4.158E+00   -4.114E+00   -4.072E+00
    -4.031E+00   -3.990E+00   -3.951E+00   -3.912E+00   -3.875E+00   -3.838E+00   -3.802E+00   -3.766E+00   -3.732E+00   -3.698E+00
    -3.666E+00   -3.634E+00   -3.602E+00   -3.572E+00   -3.542E+00   -3.512E+00   -3.484E+00   -3.456E+00   -3.429E+00   -3.402E+00
    -3.376E+00   -3.351E+00   -3.326E+00   -3.302E+00   -3.278E+00   -3.255E+00   -3.232E+00   -3.210E+00   -3.188E+00   -3.166E+00
    -3.146E+00   -3.125E+00   -3.105E+00   -3.085E+00   -3.066E+00   -3.047E+00   -3.028E+00   -3.010E+00   -2.992E+00   -2.974E+00
    -2.957E+00   -2.940E+00   -2.923E+00   -2.906E+00   -2.889E+00   -2.873E+00   -2.857E+00   -2.840E+00   -2.824E+00   -2.809E+00
    -2.793E+00   -2.777E+00   -2.762E+00   -2.747E+00   -2.731E+00   -2.716E+00   -2.701E+00   -2.686E+00   -2.672E+00   -2.657E+00
    -2.642E+00   -2.627E+00   -2.613E+00   -2.598E+00   -2.584E+00   -2.570E+00   -2.555E+00   -2.541E+00   -2.527E+00   -2.513E+00
    -2.498E+00   -2.484E+00   -2.470E+00   -2.456E+00   -2.442E+00   -2.427E+00   -2.413E+00   -2.399E+00   -2.385E+00   -2.371E+00
    -2.356E+00   -2.342E+00   -2.328E+00   -2.313E+00   -2.299E+00   -2.284E+00   -2.270E+00   -2.255E+00   -2.241E+00   -2.226E+00
    -2.211E+00   -2.196E+00   -2.181E+00   -2.166E+00   -2.151E+00   -2.135E+00   -2.120E+00   -2.104E+00   -2.089E+00   -2.073E+00
    -2.057E+00   -2.040E+00   -2.024E+00   -2.008E+00   -1.991E+00   -1.974E+00   -1.957E+00   -1.940E+00   -1.922E+00   -1.905E+00
    -1.887E+00   -1.869E+00   -1.850E+00   -1.832E+00   -1.813E+00   -1.794E+00   -1.774E+00   -1.755E+00   -1.735E+00   -1.715E+00
    -1.694E+00   -1.673E+00   -1.652E+00   -1.631E+00   -1.609E+00   -1.587E+00   -1.565E+00   -1.542E+00   -1.519E+00   -1.496E+00
    -1.472E+00   -1.448E+00   -1.423E+00   -1.398E+00   -1.373E+00   -1.347E+00   -1.321E+00   -1.295E+00   -1.268E+00   -1.240E+00
    -1.213E+00   -1.185E+00   -1.156E+00   -1.127E+00   -1.098E+00   -1.069E+00   -1.039E+00   -1.009E+00   -9.782E-01   -9.475E-01
    -9.166E-01   -8.853E-01   -8.539E-01   -8.222E-01   -7.902E-01   -7.581E-01   -7.257E-01   -6.932E-01   -6.605E-01   -6.276E-01
    -5.945E-01   -5.614E-01   -5.281E-01   -4.946E-01   -4.611E-01   -4.275E-01   -3.938E-01   -3.600E-01   -3.261E-01   -2.923E-01
    -2.583E-01   -2.244E-01   -1.904E-01   -1.565E-01   -1.225E-01   -8.857E-02   -5.467E-02   -2.082E-02    1.297E-02    4.669E-02
     8.033E-02    1.139E-01    1.473E-01    1.807E-01    2.139E-01    2.470E-01    2.800E-01    3.130E-01    3.458E-01    3.786E-01
     4.112E-01    4.438E-01    4.764E-01    5.089E-01    5.413E-01    5.737E-01    6.060E-01    6.383E-01    6.705E-01    7.027E-01
     7.349E-01    7.671E-01    7.992E-01    8.314E-01    8.635E-01    8.957E-01    9.278E-01    9.599E-01    9.921E-01    1.024E+00
     1.057E+00    1.089E+00    1.121E+00    1.153E+00    1.186E+00    1.218E+00    1.251E+00    1.283E+00    1.316E+00    1.348E+00
     1.381E+00    1.414E+00    1.447E+00    1.480E+00    1.513E+00    1.546E+00    1.580E+00    1.613E+00
 Ala      Conc. = 1.86E+02
