 LCModel (Version 6.3-1L) Copyright: S.W. Provencher.          Ref.: Magn. Reson. Med. 30:672-679 (1993).                
 Slice#2 Row#6 Col#4  PD_05_press_1_raw_act
 36 lines in following concentration table = NCONC+1
    Conc.  %SD /Cr+PCr  Metabolite                                         
  105.966  78% 7.3E-02 Ala                                                 
    0.000 999%   0.000 Asp                                                 
  600.962  29%   0.416 Cr                                                  
  844.823  21%   0.584 PCr                                                 
    0.000 999%   0.000 GABA                                                
    0.000 999%   0.000 Glc                                                 
  611.328  28%   0.423 Gln                                                 
 1.71E+03  12%   1.180 Glu                                                 
  488.313   4%   0.338 GPC                                                 
    0.000 999%   0.000 PCh                                                 
  440.397  13%   0.305 GSH                                                 
  812.138  25%   0.562 Ins                                                 
    0.000 999%   0.000 Lac                                                 
 2.43E+03   4%   1.679 NAA                                                 
  373.159  29%   0.258 NAAG                                                
   76.258  29% 5.3E-02 Scyllo                                              
    0.000 999%   0.000 Tau                                                 
   48.362 186% 3.3E-02 -CrCH2                                              
  488.313   4%   0.338 GPC+PCh                                             
 2.80E+03   3%   1.937 NAA+NAAG                                            
 1.45E+03   3%   1.000 Cr+PCr                                              
 2.32E+03  12%   1.602 Glu+Gln                                             
    0.000 999%   0.000 Lip13a                                              
  205.902  77%   0.142 Lip13b                                              
   29.364 185% 2.0E-02 Lip09                                               
 1.51E+03  13%   1.043 MM09                                                
   33.105 101% 2.3E-02 Lip20                                               
 2.84E+03  10%   1.965 MM20                                                
  448.853  19%   0.310 MM12                                                
 1.24E+03  19%   0.861 MM14                                                
  664.702  23%   0.460 MM17                                                
  205.902  77%   0.142 Lip13a+Lip13b                                       
 1.90E+03  15%   1.314 MM14+Lip13a+Lip13b+MM12                             
 1.54E+03  13%   1.063 MM09+Lip09                                          
 2.87E+03  10%   1.988 MM20+Lip20                                          
   6 lines in following misc. output table
  FWHM = 0.054 ppm    S/N =  18                                            
  Data shift = 0.015 ppm                                                   
  Ph: -31 deg      -4.4 deg/ppm                                            
  alphaB,S = 5.9E-01,   1.8E+02                                            
   14 spline knots.   Ns = 7(1)                                            
  (10) 4 infls.   ( 3) 1 extrs.                                            
  498 points on ppm-axis = NY
      4.000000     3.992357     3.984714     3.977070     3.969427     3.961784     3.954141     3.946497     3.938854     3.931211
      3.923568     3.915925     3.908281     3.900638     3.892995     3.885352     3.877708     3.870065     3.862422     3.854779
      3.847136     3.839492     3.831849     3.824206     3.816563     3.808919     3.801276     3.793633     3.785990     3.778347
      3.770703     3.763060     3.755417     3.747774     3.740130     3.732487     3.724844     3.717201     3.709558     3.701914
      3.694271     3.686628     3.678985     3.671341     3.663698     3.656055     3.648412     3.640769     3.633125     3.625482
      3.617839     3.610196     3.602552     3.594909     3.587266     3.579623     3.571980     3.564336     3.556693     3.549050
      3.541407     3.533763     3.526120     3.518477     3.510834     3.503191     3.495547     3.487904     3.480261     3.472618
      3.464974     3.457331     3.449688     3.442045     3.434402     3.426758     3.419115     3.411472     3.403829     3.396185
      3.388542     3.380899     3.373256     3.365613     3.357969     3.350326     3.342683     3.335040     3.327396     3.319753
      3.312110     3.304467     3.296824     3.289180     3.281537     3.273894     3.266251     3.258607     3.250964     3.243321
      3.235678     3.228034     3.220391     3.212748     3.205105     3.197462     3.189818     3.182175     3.174532     3.166889
      3.159245     3.151602     3.143959     3.136316     3.128673     3.121029     3.113386     3.105743     3.098100     3.090456
      3.082813     3.075170     3.067527     3.059884     3.052240     3.044597     3.036954     3.029311     3.021667     3.014024
      3.006381     2.998738     2.991095     2.983451     2.975808     2.968165     2.960522     2.952878     2.945235     2.937592
      2.929949     2.922306     2.914662     2.907019     2.899376     2.891733     2.884089     2.876446     2.868803     2.861160
      2.853517     2.845873     2.838230     2.830587     2.822944     2.815300     2.807657     2.800014     2.792371     2.784728
      2.777084     2.769441     2.761798     2.754155     2.746511     2.738868     2.731225     2.723582     2.715939     2.708295
      2.700652     2.693009     2.685366     2.677722     2.670079     2.662436     2.654793     2.647150     2.639506     2.631863
      2.624220     2.616577     2.608933     2.601290     2.593647     2.586004     2.578361     2.570717     2.563074     2.555431
      2.547788     2.540144     2.532501     2.524858     2.517215     2.509572     2.501928     2.494285     2.486642     2.478999
      2.471355     2.463712     2.456069     2.448426     2.440783     2.433139     2.425496     2.417853     2.410210     2.402566
      2.394923     2.387280     2.379637     2.371994     2.364350     2.356707     2.349064     2.341421     2.333777     2.326134
      2.318491     2.310848     2.303205     2.295561     2.287918     2.280275     2.272632     2.264988     2.257345     2.249702
      2.242059     2.234416     2.226772     2.219129     2.211486     2.203843     2.196199     2.188556     2.180913     2.173270
      2.165627     2.157983     2.150340     2.142697     2.135054     2.127410     2.119767     2.112124     2.104481     2.096838
      2.089194     2.081551     2.073908     2.066265     2.058621     2.050978     2.043335     2.035692     2.028049     2.020405
      2.012762     2.005119     1.997476     1.989833     1.982190     1.974546     1.966903     1.959260     1.951617     1.943974
      1.936331     1.928688     1.921045     1.913402     1.905759     1.898115     1.890472     1.882829     1.875186     1.867543
      1.859900     1.852257     1.844614     1.836971     1.829327     1.821684     1.814041     1.806398     1.798755     1.791112
      1.783469     1.775826     1.768183     1.760540     1.752896     1.745253     1.737610     1.729967     1.722324     1.714681
      1.707038     1.699395     1.691752     1.684108     1.676465     1.668822     1.661179     1.653536     1.645893     1.638250
      1.630607     1.622964     1.615321     1.607677     1.600034     1.592391     1.584748     1.577105     1.569462     1.561819
      1.554176     1.546533     1.538890     1.531246     1.523603     1.515960     1.508317     1.500674     1.493031     1.485388
      1.477745     1.470102     1.462458     1.454815     1.447172     1.439529     1.431886     1.424243     1.416600     1.408957
      1.401314     1.393671     1.386027     1.378384     1.370741     1.363098     1.355455     1.347812     1.340169     1.332526
      1.324883     1.317240     1.309596     1.301953     1.294310     1.286667     1.279024     1.271381     1.263738     1.256095
      1.248452     1.240808     1.233165     1.225522     1.217879     1.210236     1.202593     1.194950     1.187307     1.179664
      1.172021     1.164377     1.156734     1.149091     1.141448     1.133805     1.126162     1.118519     1.110876     1.103233
      1.095590     1.087946     1.080303     1.072660     1.065017     1.057374     1.049731     1.042088     1.034445     1.026802
      1.019158     1.011515     1.003872     0.996229     0.988586     0.980943     0.973300     0.965657     0.958014     0.950371
      0.942727     0.935084     0.927441     0.919798     0.912155     0.904512     0.896869     0.889226     0.881583     0.873940
      0.866296     0.858653     0.851010     0.843367     0.835724     0.828081     0.820438     0.812795     0.805152     0.797508
      0.789865     0.782222     0.774579     0.766936     0.759293     0.751650     0.744007     0.736364     0.728721     0.721077
      0.713434     0.705791     0.698148     0.690505     0.682862     0.675219     0.667576     0.659933     0.652290     0.644646
      0.637003     0.629360     0.621717     0.614074     0.606431     0.598788     0.591145     0.583502     0.575858     0.568215
      0.560572     0.552929     0.545286     0.537643     0.530000     0.522357     0.514714     0.507071     0.499427     0.491784
      0.484141     0.476498     0.468855     0.461212     0.453569     0.445925     0.438282     0.430639     0.422996     0.415353
      0.407710     0.400067     0.392424     0.384780     0.377137     0.369494     0.361851     0.354208     0.346565     0.338922
      0.331278     0.323635     0.315992     0.308349     0.300706     0.293063     0.285420     0.277777     0.270133     0.262490
      0.254847     0.247204     0.239561     0.231918     0.224275     0.216631     0.208988     0.201345
 NY phased data points follow
  -2.43908E+01 -2.28073E+01 -1.91966E+01 -1.83826E+01 -1.43890E+01 -1.13896E+01 -3.80892E+00 -4.93998E+00  2.98593E+00  6.63158E+00
   9.75366E+00  9.75558E+00  7.93182E+00 -8.40989E-01 -2.23623E+00 -1.16827E+01 -1.08297E+01 -1.55637E+01 -1.89672E+01 -1.92218E+01
  -1.55928E+01 -1.85312E+01 -1.61077E+01 -1.86114E+01 -1.61694E+01 -1.43732E+01 -1.48698E+01 -1.27210E+01 -1.08179E+01 -1.07274E+01
  -9.71996E+00 -1.31408E+01 -8.53207E+00 -1.44072E+01 -1.28298E+01 -1.36586E+01 -1.76383E+01 -1.91870E+01 -1.96934E+01 -1.81623E+01
  -1.45735E+01 -1.79659E+01 -1.18597E+01 -1.24915E+01 -1.13024E+01 -9.17840E+00 -1.08268E+01 -1.12775E+01 -8.03656E+00 -6.56019E+00
  -1.26682E+01 -1.51939E+01 -1.33115E+01 -1.49998E+01 -1.50848E+01 -1.29839E+01 -1.58065E+01 -1.25237E+01 -1.53006E+01 -1.39900E+01
  -1.57890E+01 -1.73171E+01 -2.04943E+01 -1.98754E+01 -1.94620E+01 -2.22466E+01 -2.25024E+01 -2.35469E+01 -1.90043E+01 -2.28756E+01
  -1.97167E+01 -2.01817E+01 -2.01174E+01 -1.85797E+01 -1.97927E+01 -1.53448E+01 -1.67973E+01 -1.99749E+01 -1.67529E+01 -1.91322E+01
  -2.17935E+01 -1.73505E+01 -1.77322E+01 -1.84619E+01 -1.83154E+01 -1.66158E+01 -1.23032E+01 -1.27655E+01 -1.38330E+01 -1.23459E+01
  -1.65291E+01 -1.25209E+01 -1.62201E+01 -1.19850E+01 -1.13490E+01 -1.01575E+01 -7.06805E+00 -1.50415E+00 -5.39536E-01  7.87247E+00
   1.32363E+01  2.20705E+01  2.40368E+01  2.34626E+01  1.96004E+01  1.66243E+01  6.89654E+00  3.43361E+00 -1.32307E+00 -5.63000E+00
  -1.03880E+01 -1.09377E+01 -1.06864E+01 -1.03299E+01 -1.20052E+01 -1.30245E+01 -1.27670E+01 -1.05993E+01 -1.38173E+01 -8.50141E+00
  -5.44749E+00 -6.29394E+00 -1.57760E+00  5.56431E+00  9.13251E+00  2.04952E+01  2.79904E+01  3.34269E+01  3.34256E+01  2.68592E+01
   1.85324E+01  1.01699E+01  1.04998E+00 -5.68873E+00 -5.64801E+00 -1.03947E+01 -1.14776E+01 -1.40861E+01 -1.49761E+01 -1.52179E+01
  -1.23456E+01 -1.03305E+01 -1.33339E+01 -1.09365E+01 -1.71717E+01 -1.28896E+01 -1.54200E+01 -1.07871E+01 -1.50307E+01 -1.45536E+01
  -2.00155E+01 -1.21869E+01 -1.38140E+01 -1.58658E+01 -1.74763E+01 -1.79524E+01 -1.39899E+01 -1.37197E+01 -1.69014E+01 -1.85639E+01
  -1.78908E+01 -1.80304E+01 -1.84103E+01 -2.12060E+01 -1.81210E+01 -1.66339E+01 -1.42594E+01 -1.55708E+01 -1.87468E+01 -1.86435E+01
  -1.80101E+01 -1.77156E+01 -2.04836E+01 -2.21781E+01 -2.45444E+01 -2.30179E+01 -2.23962E+01 -2.60383E+01 -2.31625E+01 -2.36300E+01
  -2.27055E+01 -2.42483E+01 -2.01719E+01 -2.25471E+01 -1.88685E+01 -1.93489E+01 -1.94517E+01 -1.75241E+01 -1.62633E+01 -1.21385E+01
  -9.32987E+00 -8.23582E+00 -6.78561E+00 -7.39572E+00 -8.84351E+00 -8.80630E+00 -9.53473E+00 -9.77245E+00 -1.12853E+01 -1.17183E+01
  -1.45181E+01 -1.03719E+01 -9.96802E+00 -7.12437E+00 -5.90521E+00 -6.79010E+00 -9.72033E+00 -1.16888E+01 -1.38986E+01 -1.57039E+01
  -1.15055E+01 -1.28111E+01 -1.01489E+01 -5.84983E+00 -9.92299E-01 -2.64719E-01  1.76088E+00  8.97322E-01 -4.23138E+00 -6.01752E+00
  -1.17891E+01 -1.04474E+01 -1.58721E+01 -1.20508E+01 -6.09928E+00 -8.54842E+00 -4.22439E+00 -3.17862E+00 -1.62538E+00  2.79025E-01
  -8.92336E-01 -1.04833E+00 -2.28260E+00 -2.77286E+00 -1.54829E-01 -7.47861E-01 -1.55374E+00  7.13988E-01 -2.14883E+00 -4.25019E+00
  -1.96842E-01 -1.03231E+00 -1.92576E+00 -1.70661E+00 -2.22526E+00 -1.56056E+00  6.79036E+00  7.50622E+00  8.27500E+00  8.83461E+00
   1.09425E+01  1.22225E+01  1.49800E+01  2.07720E+01  3.05283E+01  3.33549E+01  4.15123E+01  4.93405E+01  6.22415E+01  7.58558E+01
   8.60291E+01  8.73936E+01  7.76084E+01  5.97995E+01  4.39071E+01  3.25533E+01  1.88071E+01  1.12143E+01  2.95164E+00  3.54363E+00
   2.06308E+00  6.62296E-01 -1.87561E+00  2.58918E+00  2.26804E+00 -2.64330E+00 -9.41696E-01 -2.03888E+00 -1.72683E+00 -1.56719E+00
  -6.60379E+00 -3.58375E+00 -4.99615E+00 -2.76286E+00 -8.78427E-01 -5.78917E+00 -5.26636E+00 -5.32966E+00 -6.48559E+00 -6.13298E+00
  -6.83015E+00 -5.66361E+00 -5.48583E+00 -4.64906E+00 -4.62818E+00 -3.73104E+00 -4.55072E+00 -5.66625E+00 -3.81682E+00 -4.95846E+00
  -6.78215E+00 -3.87467E+00 -5.88861E+00 -4.44221E+00 -4.67156E+00 -5.50719E+00 -2.50731E+00 -5.06273E+00 -5.06495E+00 -5.19822E+00
   1.08891E+00 -2.09401E+00 -1.14144E+00  3.63976E-01  5.73449E-01 -1.51769E+00 -1.59392E+00 -8.86741E-01  5.83874E-01 -2.20598E+00
  -1.37002E+00 -1.03350E+00 -1.30122E+00 -4.16344E+00 -4.13951E+00 -4.42282E+00 -3.89910E+00 -3.33464E+00 -5.10188E+00 -4.49737E+00
  -4.62275E+00 -4.20710E+00 -4.82459E+00 -1.61444E+00 -1.64666E+00  1.07915E+00 -1.35964E-01 -1.72708E+00 -1.29096E+00 -1.00182E+00
  -1.47846E+00 -3.69133E+00 -1.73937E+00 -5.75603E+00 -5.94633E+00 -2.24655E+00 -1.10371E+00 -3.18369E+00 -9.48002E-01 -2.91010E+00
  -2.29853E+00 -3.93779E+00 -1.01458E+00 -3.78184E+00 -2.36380E-01 -2.72136E+00 -2.65628E+00 -3.82751E+00 -4.57320E+00 -2.06607E+00
  -8.30075E+00 -2.62791E+00 -2.57048E+00 -5.37485E+00 -5.79594E+00 -7.19263E+00 -5.75241E+00 -5.02220E+00 -5.51617E+00 -5.20158E+00
  -6.60882E+00 -3.52861E+00 -7.21426E+00 -5.16749E+00 -7.09923E+00 -1.05073E+01 -7.99301E+00 -9.17759E+00 -8.13972E+00 -9.53068E+00
  -9.72258E+00 -1.25647E+01 -8.55588E+00 -9.00948E+00 -9.32798E+00 -6.90083E+00 -9.14522E+00 -1.00853E+01 -8.03865E+00 -1.00973E+01
  -1.13822E+01 -7.73489E+00 -5.93798E+00 -5.52599E+00 -9.49147E+00 -4.22393E+00 -5.07575E+00 -2.74651E+00 -2.98440E+00 -2.62945E+00
  -8.56101E-01 -3.51784E+00 -4.01988E-01  5.06442E-01 -1.86965E+00 -2.13782E-01 -5.05989E-01 -1.16097E+00 -3.21853E+00 -9.89891E-01
  -2.98060E+00 -1.35908E+00 -1.73142E+00 -8.99797E-01 -1.41152E+00 -2.16958E+00 -2.87249E+00 -4.13014E+00 -2.24487E+00 -4.64730E+00
  -2.88468E+00 -3.76711E+00 -3.31081E+00 -4.06854E+00 -3.85567E+00 -4.63470E+00 -7.94461E-02 -4.42598E+00 -3.81068E+00 -6.54162E+00
  -4.31935E+00 -2.76660E+00 -5.13306E+00 -4.93637E+00 -5.40857E+00 -7.44295E+00 -5.52833E+00 -4.03776E+00 -4.13495E+00 -8.23847E+00
  -5.07711E+00 -6.25240E+00 -5.79397E+00 -5.06106E+00 -5.53405E+00 -3.95519E+00 -5.57122E+00 -4.44783E+00 -4.88214E+00 -2.03221E+00
  -3.29939E+00 -6.67839E+00 -4.19823E+00 -3.19174E+00 -6.52558E+00 -2.76058E+00 -2.77358E+00 -7.68292E+00 -4.10961E+00 -5.26760E+00
  -5.65775E+00 -5.00576E+00 -6.70699E+00 -3.98904E+00 -1.74400E+00 -7.11453E+00 -3.72867E+00 -5.21965E+00 -5.02215E+00 -1.51409E+00
  -4.25029E+00 -3.81245E+00 -4.50798E+00 -5.70832E+00 -2.05171E+00 -6.96674E+00 -3.94725E+00 -4.97737E+00 -2.90307E+00 -3.91579E+00
  -2.13586E+00 -3.09756E+00 -3.46522E+00 -5.28249E+00 -4.63995E+00 -2.58641E+00 -3.77265E+00 -3.39901E+00 -2.39239E+00 -2.20004E+00
  -3.56300E+00 -4.25926E+00 -3.40596E+00 -2.09170E+00 -1.30145E+00 -1.45176E+00 -4.17593E+00 -3.66469E+00
 NY points of the fit to the data follow
  -2.09375E+01 -2.06005E+01 -1.94347E+01 -1.72963E+01 -1.44033E+01 -1.09564E+01 -6.95350E+00 -2.22144E+00  2.85410E+00  7.17714E+00
   9.43046E+00  8.84425E+00  5.67981E+00  1.01057E+00 -3.93038E+00 -8.31536E+00 -1.18958E+01 -1.46761E+01 -1.65581E+01 -1.76074E+01
  -1.80750E+01 -1.83261E+01 -1.82367E+01 -1.77961E+01 -1.73513E+01 -1.67371E+01 -1.56931E+01 -1.40991E+01 -1.21648E+01 -1.03228E+01
  -8.97018E+00 -8.42712E+00 -8.82256E+00 -9.99337E+00 -1.17265E+01 -1.37469E+01 -1.57219E+01 -1.73886E+01 -1.83060E+01 -1.83142E+01
  -1.76573E+01 -1.66314E+01 -1.55294E+01 -1.44386E+01 -1.33587E+01 -1.23464E+01 -1.15823E+01 -1.13353E+01 -1.17692E+01 -1.27885E+01
  -1.41368E+01 -1.54700E+01 -1.65120E+01 -1.72223E+01 -1.76277E+01 -1.77460E+01 -1.76067E+01 -1.72869E+01 -1.69159E+01 -1.66290E+01
  -1.65338E+01 -1.66933E+01 -1.70643E+01 -1.75271E+01 -1.79047E+01 -1.80800E+01 -1.80663E+01 -1.79040E+01 -1.76236E+01 -1.72815E+01
  -1.69453E+01 -1.66866E+01 -1.65567E+01 -1.65597E+01 -1.66596E+01 -1.67959E+01 -1.69122E+01 -1.69852E+01 -1.70052E+01 -1.69510E+01
  -1.67037E+01 -1.63905E+01 -1.61033E+01 -1.57537E+01 -1.52807E+01 -1.47500E+01 -1.43313E+01 -1.41870E+01 -1.43655E+01 -1.47358E+01
  -1.51157E+01 -1.53483E+01 -1.53595E+01 -1.51172E+01 -1.44191E+01 -1.23571E+01 -8.67060E+00 -4.63368E+00 -1.08705E-01  5.80894E+00
   1.31845E+01  2.05906E+01  2.56817E+01  2.65625E+01  2.29102E+01  1.61179E+01  8.31755E+00  1.16242E+00 -4.69278E+00 -9.25532E+00
  -1.26145E+01 -1.45143E+01 -1.50892E+01 -1.51720E+01 -1.50971E+01 -1.49413E+01 -1.47233E+01 -1.44171E+01 -1.39289E+01 -1.27595E+01
  -9.58146E+00 -5.11817E+00 -4.87895E-01  5.01609E+00  1.22465E+01  2.07489E+01  2.84812E+01  3.27622E+01  3.19648E+01  2.65554E+01
   1.85900E+01  1.03190E+01  3.03490E+00 -3.06808E+00 -8.11900E+00 -1.19660E+01 -1.39701E+01 -1.45180E+01 -1.43895E+01 -1.39168E+01
  -1.33678E+01 -1.29373E+01 -1.27186E+01 -1.27526E+01 -1.29926E+01 -1.33294E+01 -1.36964E+01 -1.40704E+01 -1.44077E+01 -1.46938E+01
  -1.49189E+01 -1.51015E+01 -1.52457E+01 -1.53587E+01 -1.54978E+01 -1.56224E+01 -1.56808E+01 -1.57317E+01 -1.58398E+01 -1.61190E+01
  -1.65298E+01 -1.68361E+01 -1.68721E+01 -1.66798E+01 -1.64440E+01 -1.63881E+01 -1.66208E+01 -1.70748E+01 -1.76006E+01 -1.81020E+01
  -1.85509E+01 -1.88527E+01 -1.90978E+01 -1.94014E+01 -1.97678E+01 -2.00551E+01 -2.00434E+01 -1.97301E+01 -1.93279E+01 -1.90450E+01
  -1.89721E+01 -1.89222E+01 -1.86349E+01 -1.81143E+01 -1.74724E+01 -1.67591E+01 -1.59021E+01 -1.47190E+01 -1.32255E+01 -1.17084E+01
  -1.05400E+01 -9.97587E+00 -9.98313E+00 -1.03851E+01 -1.09268E+01 -1.13804E+01 -1.15864E+01 -1.13222E+01 -1.05778E+01 -9.52261E+00
  -8.35874E+00 -7.24899E+00 -6.42107E+00 -6.14050E+00 -6.39676E+00 -7.30928E+00 -8.96352E+00 -1.09942E+01 -1.27531E+01 -1.35681E+01
  -1.34095E+01 -1.24142E+01 -1.05669E+01 -8.00461E+00 -5.30075E+00 -3.36398E+00 -2.85381E+00 -3.80193E+00 -5.94589E+00 -8.91502E+00
  -1.19032E+01 -1.41271E+01 -1.50098E+01 -1.42873E+01 -1.22082E+01 -9.29862E+00 -6.36045E+00 -4.04028E+00 -2.58472E+00 -1.87962E+00
  -1.59287E+00 -1.57345E+00 -1.61360E+00 -1.42773E+00 -9.38484E-01 -3.72331E-01  4.59543E-02  2.91283E-01  3.37012E-01  8.77477E-02
  -4.36331E-01 -9.11286E-01 -9.88582E-01 -5.14249E-01  4.36128E-01  1.67685E+00  3.01381E+00  4.22320E+00  5.43161E+00  6.88546E+00
   8.37600E+00  1.00183E+01  1.25613E+01  1.81841E+01  2.72372E+01  3.59958E+01  4.41272E+01  5.35060E+01  6.49195E+01  7.64285E+01
   8.40621E+01  8.42107E+01  7.60408E+01  6.20662E+01  4.64923E+01  3.25377E+01  2.11569E+01  1.21157E+01  5.14311E+00  8.68927E-01
  -7.49864E-01 -1.47288E+00 -1.88353E+00 -2.12462E+00 -2.32232E+00 -2.55787E+00 -2.83830E+00 -3.16431E+00 -3.51284E+00 -3.85174E+00
  -4.15735E+00 -4.42188E+00 -4.63651E+00 -4.80255E+00 -4.93667E+00 -5.05801E+00 -5.17591E+00 -5.28508E+00 -5.37456E+00 -5.43599E+00
  -5.46358E+00 -5.45346E+00 -5.41022E+00 -5.34267E+00 -5.26021E+00 -5.16754E+00 -5.06401E+00 -4.94613E+00 -4.80901E+00 -4.64878E+00
  -4.46250E+00 -4.25122E+00 -4.02255E+00 -3.78601E+00 -3.55038E+00 -3.32290E+00 -3.10957E+00 -2.91611E+00 -2.74699E+00 -2.60383E+00
  -2.48863E+00 -2.40274E+00 -2.34577E+00 -2.31582E+00 -2.30947E+00 -2.32179E+00 -2.34626E+00 -2.37418E+00 -2.39260E+00 -2.37783E+00
  -2.31433E+00 -2.26779E+00 -2.24352E+00 -2.20550E+00 -2.16441E+00 -2.18608E+00 -2.35123E+00 -2.68503E+00 -3.07568E+00 -3.41940E+00
  -3.66334E+00 -3.75244E+00 -3.64742E+00 -3.34444E+00 -2.89279E+00 -2.38757E+00 -1.94728E+00 -1.69061E+00 -1.63739E+00 -1.73228E+00
  -1.91310E+00 -2.13885E+00 -2.39053E+00 -2.64973E+00 -2.86919E+00 -3.03114E+00 -3.14176E+00 -3.19912E+00 -3.20081E+00 -3.14908E+00
  -3.05333E+00 -2.93092E+00 -2.80611E+00 -2.70746E+00 -2.66366E+00 -2.69869E+00 -2.82725E+00 -3.05203E+00 -3.36326E+00 -3.74099E+00
  -4.15897E+00 -4.58937E+00 -5.00705E+00 -5.39278E+00 -5.73480E+00 -6.02882E+00 -6.27658E+00 -6.48378E+00 -6.65779E+00 -6.80599E+00
  -6.93473E+00 -7.04884E+00 -7.15149E+00 -7.24420E+00 -7.32718E+00 -7.39971E+00 -7.46060E+00 -7.50846E+00 -7.54175E+00 -7.55885E+00
  -7.55806E+00 -7.53781E+00 -7.49666E+00 -7.43339E+00 -7.34680E+00 -7.23571E+00 -7.09897E+00 -6.93567E+00 -6.74512E+00 -6.52693E+00
  -6.28088E+00 -6.00709E+00 -5.70608E+00 -5.37905E+00 -5.02789E+00 -4.65522E+00 -4.26431E+00 -3.85921E+00 -3.44483E+00 -3.02692E+00
  -2.61194E+00 -2.20684E+00 -1.81882E+00 -1.45523E+00 -1.12331E+00 -8.30004E-01 -5.81559E-01 -3.83210E-01 -2.38963E-01 -1.51564E-01
  -1.22330E-01 -1.51103E-01 -2.36132E-01 -3.74182E-01 -5.60689E-01 -7.90097E-01 -1.05606E+00 -1.35174E+00 -1.66991E+00 -2.00331E+00
  -2.34493E+00 -2.68831E+00 -3.02764E+00 -3.35784E+00 -3.67457E+00 -3.97434E+00 -4.25449E+00 -4.51327E+00 -4.74964E+00 -4.96314E+00
  -5.15378E+00 -5.32202E+00 -5.46868E+00 -5.59494E+00 -5.70207E+00 -5.79141E+00 -5.86428E+00 -5.92205E+00 -5.96608E+00 -5.99774E+00
  -6.01823E+00 -6.02865E+00 -6.02994E+00 -6.02308E+00 -6.00894E+00 -5.98837E+00 -5.96202E+00 -5.93048E+00 -5.89427E+00 -5.85391E+00
  -5.80992E+00 -5.76272E+00 -5.71264E+00 -5.65994E+00 -5.60485E+00 -5.54766E+00 -5.48859E+00 -5.42781E+00 -5.36544E+00 -5.30157E+00
  -5.23634E+00 -5.16992E+00 -5.10244E+00 -5.03396E+00 -4.96450E+00 -4.89413E+00 -4.82294E+00 -4.75106E+00 -4.67853E+00 -4.60537E+00
  -4.53156E+00 -4.45717E+00 -4.38228E+00 -4.30695E+00 -4.23119E+00 -4.15498E+00 -4.07831E+00 -4.00126E+00 -3.92389E+00 -3.84623E+00
  -3.76825E+00 -3.68993E+00 -3.61128E+00 -3.53237E+00 -3.45323E+00 -3.37387E+00 -3.29424E+00 -3.21432E+00 -3.13415E+00 -3.05379E+00
  -2.97324E+00 -2.89249E+00 -2.81148E+00 -2.73022E+00 -2.64874E+00 -2.56708E+00 -2.48524E+00 -2.40316E+00
 NY background values follow
    -2.501E+01   -2.493E+01   -2.485E+01   -2.476E+01   -2.468E+01   -2.460E+01   -2.451E+01   -2.443E+01   -2.435E+01   -2.427E+01
    -2.418E+01   -2.410E+01   -2.402E+01   -2.394E+01   -2.385E+01   -2.377E+01   -2.369E+01   -2.361E+01   -2.353E+01   -2.345E+01
    -2.337E+01   -2.329E+01   -2.320E+01   -2.312E+01   -2.304E+01   -2.296E+01   -2.289E+01   -2.281E+01   -2.273E+01   -2.265E+01
    -2.257E+01   -2.249E+01   -2.241E+01   -2.234E+01   -2.226E+01   -2.218E+01   -2.210E+01   -2.203E+01   -2.195E+01   -2.188E+01
    -2.180E+01   -2.173E+01   -2.165E+01   -2.158E+01   -2.150E+01   -2.143E+01   -2.135E+01   -2.128E+01   -2.121E+01   -2.114E+01
    -2.106E+01   -2.099E+01   -2.092E+01   -2.085E+01   -2.078E+01   -2.071E+01   -2.064E+01   -2.057E+01   -2.050E+01   -2.043E+01
    -2.037E+01   -2.030E+01   -2.023E+01   -2.017E+01   -2.010E+01   -2.003E+01   -1.997E+01   -1.990E+01   -1.984E+01   -1.977E+01
    -1.971E+01   -1.965E+01   -1.958E+01   -1.952E+01   -1.946E+01   -1.940E+01   -1.934E+01   -1.928E+01   -1.922E+01   -1.916E+01
    -1.910E+01   -1.904E+01   -1.898E+01   -1.893E+01   -1.887E+01   -1.881E+01   -1.876E+01   -1.870E+01   -1.865E+01   -1.859E+01
    -1.854E+01   -1.849E+01   -1.843E+01   -1.838E+01   -1.833E+01   -1.828E+01   -1.823E+01   -1.818E+01   -1.813E+01   -1.808E+01
    -1.803E+01   -1.798E+01   -1.793E+01   -1.789E+01   -1.784E+01   -1.779E+01   -1.775E+01   -1.770E+01   -1.766E+01   -1.761E+01
    -1.757E+01   -1.753E+01   -1.748E+01   -1.744E+01   -1.740E+01   -1.735E+01   -1.731E+01   -1.727E+01   -1.723E+01   -1.719E+01
    -1.715E+01   -1.711E+01   -1.707E+01   -1.703E+01   -1.699E+01   -1.695E+01   -1.691E+01   -1.687E+01   -1.684E+01   -1.680E+01
    -1.676E+01   -1.672E+01   -1.669E+01   -1.665E+01   -1.661E+01   -1.658E+01   -1.654E+01   -1.651E+01   -1.647E+01   -1.644E+01
    -1.640E+01   -1.637E+01   -1.633E+01   -1.630E+01   -1.626E+01   -1.622E+01   -1.619E+01   -1.615E+01   -1.612E+01   -1.608E+01
    -1.604E+01   -1.600E+01   -1.597E+01   -1.593E+01   -1.589E+01   -1.585E+01   -1.581E+01   -1.577E+01   -1.572E+01   -1.568E+01
    -1.564E+01   -1.559E+01   -1.555E+01   -1.550E+01   -1.545E+01   -1.540E+01   -1.535E+01   -1.530E+01   -1.525E+01   -1.519E+01
    -1.514E+01   -1.508E+01   -1.502E+01   -1.496E+01   -1.490E+01   -1.484E+01   -1.478E+01   -1.471E+01   -1.464E+01   -1.457E+01
    -1.450E+01   -1.443E+01   -1.435E+01   -1.427E+01   -1.419E+01   -1.411E+01   -1.403E+01   -1.395E+01   -1.386E+01   -1.378E+01
    -1.369E+01   -1.360E+01   -1.351E+01   -1.342E+01   -1.332E+01   -1.323E+01   -1.314E+01   -1.304E+01   -1.295E+01   -1.285E+01
    -1.275E+01   -1.266E+01   -1.256E+01   -1.246E+01   -1.236E+01   -1.226E+01   -1.216E+01   -1.207E+01   -1.197E+01   -1.187E+01
    -1.177E+01   -1.167E+01   -1.157E+01   -1.148E+01   -1.138E+01   -1.128E+01   -1.119E+01   -1.109E+01   -1.100E+01   -1.090E+01
    -1.081E+01   -1.072E+01   -1.063E+01   -1.054E+01   -1.045E+01   -1.037E+01   -1.028E+01   -1.020E+01   -1.012E+01   -1.004E+01
    -9.956E+00   -9.878E+00   -9.802E+00   -9.727E+00   -9.654E+00   -9.582E+00   -9.511E+00   -9.443E+00   -9.375E+00   -9.309E+00
    -9.245E+00   -9.182E+00   -9.121E+00   -9.061E+00   -9.003E+00   -8.946E+00   -8.891E+00   -8.838E+00   -8.786E+00   -8.736E+00
    -8.687E+00   -8.639E+00   -8.594E+00   -8.550E+00   -8.507E+00   -8.467E+00   -8.427E+00   -8.390E+00   -8.354E+00   -8.319E+00
    -8.287E+00   -8.256E+00   -8.226E+00   -8.198E+00   -8.172E+00   -8.148E+00   -8.125E+00   -8.104E+00   -8.084E+00   -8.066E+00
    -8.050E+00   -8.036E+00   -8.023E+00   -8.012E+00   -8.002E+00   -7.994E+00   -7.988E+00   -7.984E+00   -7.980E+00   -7.979E+00
    -7.979E+00   -7.980E+00   -7.983E+00   -7.987E+00   -7.993E+00   -8.000E+00   -8.008E+00   -8.018E+00   -8.029E+00   -8.042E+00
    -8.055E+00   -8.070E+00   -8.086E+00   -8.103E+00   -8.122E+00   -8.141E+00   -8.162E+00   -8.184E+00   -8.207E+00   -8.231E+00
    -8.256E+00   -8.281E+00   -8.308E+00   -8.336E+00   -8.365E+00   -8.394E+00   -8.425E+00   -8.456E+00   -8.489E+00   -8.522E+00
    -8.555E+00   -8.590E+00   -8.625E+00   -8.661E+00   -8.698E+00   -8.735E+00   -8.773E+00   -8.812E+00   -8.851E+00   -8.890E+00
    -8.930E+00   -8.971E+00   -9.012E+00   -9.054E+00   -9.095E+00   -9.137E+00   -9.180E+00   -9.222E+00   -9.265E+00   -9.308E+00
    -9.351E+00   -9.394E+00   -9.437E+00   -9.480E+00   -9.523E+00   -9.566E+00   -9.609E+00   -9.652E+00   -9.694E+00   -9.736E+00
    -9.778E+00   -9.820E+00   -9.861E+00   -9.902E+00   -9.942E+00   -9.982E+00   -1.002E+01   -1.006E+01   -1.010E+01   -1.014E+01
    -1.017E+01   -1.021E+01   -1.025E+01   -1.028E+01   -1.031E+01   -1.035E+01   -1.038E+01   -1.041E+01   -1.044E+01   -1.047E+01
    -1.050E+01   -1.053E+01   -1.055E+01   -1.058E+01   -1.060E+01   -1.062E+01   -1.064E+01   -1.066E+01   -1.068E+01   -1.070E+01
    -1.072E+01   -1.073E+01   -1.074E+01   -1.076E+01   -1.077E+01   -1.078E+01   -1.078E+01   -1.079E+01   -1.079E+01   -1.080E+01
    -1.080E+01   -1.080E+01   -1.080E+01   -1.080E+01   -1.079E+01   -1.078E+01   -1.078E+01   -1.077E+01   -1.076E+01   -1.074E+01
    -1.073E+01   -1.071E+01   -1.070E+01   -1.068E+01   -1.065E+01   -1.063E+01   -1.060E+01   -1.058E+01   -1.055E+01   -1.052E+01
    -1.048E+01   -1.045E+01   -1.041E+01   -1.037E+01   -1.033E+01   -1.029E+01   -1.025E+01   -1.020E+01   -1.015E+01   -1.010E+01
    -1.005E+01   -9.990E+00   -9.933E+00   -9.875E+00   -9.814E+00   -9.752E+00   -9.688E+00   -9.623E+00   -9.556E+00   -9.487E+00
    -9.417E+00   -9.346E+00   -9.273E+00   -9.199E+00   -9.123E+00   -9.047E+00   -8.969E+00   -8.890E+00   -8.810E+00   -8.729E+00
    -8.647E+00   -8.564E+00   -8.480E+00   -8.396E+00   -8.310E+00   -8.224E+00   -8.137E+00   -8.050E+00   -7.962E+00   -7.874E+00
    -7.785E+00   -7.696E+00   -7.606E+00   -7.516E+00   -7.426E+00   -7.335E+00   -7.245E+00   -7.154E+00   -7.063E+00   -6.972E+00
    -6.881E+00   -6.791E+00   -6.700E+00   -6.610E+00   -6.520E+00   -6.430E+00   -6.340E+00   -6.250E+00   -6.161E+00   -6.071E+00
    -5.982E+00   -5.893E+00   -5.804E+00   -5.715E+00   -5.627E+00   -5.538E+00   -5.450E+00   -5.361E+00   -5.273E+00   -5.185E+00
    -5.097E+00   -5.009E+00   -4.921E+00   -4.834E+00   -4.746E+00   -4.658E+00   -4.571E+00   -4.484E+00   -4.396E+00   -4.309E+00
    -4.222E+00   -4.135E+00   -4.047E+00   -3.960E+00   -3.873E+00   -3.786E+00   -3.699E+00   -3.613E+00   -3.526E+00   -3.439E+00
    -3.352E+00   -3.265E+00   -3.178E+00   -3.091E+00   -3.004E+00   -2.918E+00   -2.831E+00   -2.744E+00
 Ala      Conc. = 1.06E+02
