 LCModel (Version 6.3-1L) Copyright: S.W. Provencher.          Ref.: Magn. Reson. Med. 30:672-679 (1993).                
 Slice#2 Row#3 Col#9  PD_05_press_1_raw_act
 36 lines in following concentration table = NCONC+1
    Conc.  %SD /Cr+PCr  Metabolite                                         
  211.586  86%   0.124 Ala                                                 
    0.000 999%   0.000 Asp                                                 
    0.000 999%   0.000 Cr                                                  
 1.70E+03   3%   1.000 PCr                                                 
    0.000 999%   0.000 GABA                                                
    0.000 999%   0.000 Glc                                                 
  493.803  90%   0.290 Gln                                                 
  749.693  68%   0.440 Glu                                                 
  729.646   3%   0.428 GPC                                                 
    0.000 999%   0.000 PCh                                                 
  408.327  23%   0.240 GSH                                                 
 1.34E+03  22%   0.784 Ins                                                 
    0.000 999%   0.000 Lac                                                 
 2.62E+03   3%   1.535 NAA                                                 
    0.000 999%   0.000 NAAG                                                
  244.426  14%   0.143 Scyllo                                              
    0.000 999%   0.000 Tau                                                 
  704.661  16%   0.414 -CrCH2                                              
  729.646   3%   0.428 GPC+PCh                                             
 2.62E+03   3%   1.535 NAA+NAAG                                            
 1.70E+03   3%   1.000 Cr+PCr                                              
 1.24E+03  69%   0.730 Glu+Gln                                             
    0.000 999%   0.000 Lip13a                                              
    0.000 999%   0.000 Lip13b                                              
    0.000 999%   0.000 Lip09                                               
 1.95E+03   9%   1.143 MM09                                                
    0.475 999% 2.8E-04 Lip20                                               
 4.45E+03   9%   2.611 MM20                                                
  227.910  69%   0.134 MM12                                                
  628.313  35%   0.369 MM14                                                
 1.94E+03  16%   1.136 MM17                                                
    0.000 999%   0.000 Lip13a+Lip13b                                       
  856.223  31%   0.503 MM14+Lip13a+Lip13b+MM12                             
 1.95E+03   9%   1.143 MM09+Lip09                                          
 4.45E+03   9%   2.612 MM20+Lip20                                          
   6 lines in following misc. output table
  FWHM = 0.099 ppm    S/N =  13                                            
  Data shift = 0.031 ppm                                                   
  Ph: -60 deg     -26.8 deg/ppm                                            
  alphaB,S = 3.8E+00,   5.1E+01                                            
   14 spline knots.   Ns =11(1)                                            
  (16) 9 infls.   (11) 3 extrs.                                            
  498 points on ppm-axis = NY
      4.000000     3.992357     3.984714     3.977070     3.969427     3.961784     3.954141     3.946497     3.938854     3.931211
      3.923568     3.915925     3.908281     3.900638     3.892995     3.885352     3.877708     3.870065     3.862422     3.854779
      3.847136     3.839492     3.831849     3.824206     3.816563     3.808919     3.801276     3.793633     3.785990     3.778347
      3.770703     3.763060     3.755417     3.747774     3.740130     3.732487     3.724844     3.717201     3.709558     3.701914
      3.694271     3.686628     3.678985     3.671341     3.663698     3.656055     3.648412     3.640769     3.633125     3.625482
      3.617839     3.610196     3.602552     3.594909     3.587266     3.579623     3.571980     3.564336     3.556693     3.549050
      3.541407     3.533763     3.526120     3.518477     3.510834     3.503191     3.495547     3.487904     3.480261     3.472618
      3.464974     3.457331     3.449688     3.442045     3.434402     3.426758     3.419115     3.411472     3.403829     3.396185
      3.388542     3.380899     3.373256     3.365613     3.357969     3.350326     3.342683     3.335040     3.327396     3.319753
      3.312110     3.304467     3.296824     3.289180     3.281537     3.273894     3.266251     3.258607     3.250964     3.243321
      3.235678     3.228034     3.220391     3.212748     3.205105     3.197462     3.189818     3.182175     3.174532     3.166889
      3.159245     3.151602     3.143959     3.136316     3.128673     3.121029     3.113386     3.105743     3.098100     3.090456
      3.082813     3.075170     3.067527     3.059884     3.052240     3.044597     3.036954     3.029311     3.021667     3.014024
      3.006381     2.998738     2.991095     2.983451     2.975808     2.968165     2.960522     2.952878     2.945235     2.937592
      2.929949     2.922306     2.914662     2.907019     2.899376     2.891733     2.884089     2.876446     2.868803     2.861160
      2.853517     2.845873     2.838230     2.830587     2.822944     2.815300     2.807657     2.800014     2.792371     2.784728
      2.777084     2.769441     2.761798     2.754155     2.746511     2.738868     2.731225     2.723582     2.715939     2.708295
      2.700652     2.693009     2.685366     2.677722     2.670079     2.662436     2.654793     2.647150     2.639506     2.631863
      2.624220     2.616577     2.608933     2.601290     2.593647     2.586004     2.578361     2.570717     2.563074     2.555431
      2.547788     2.540144     2.532501     2.524858     2.517215     2.509572     2.501928     2.494285     2.486642     2.478999
      2.471355     2.463712     2.456069     2.448426     2.440783     2.433139     2.425496     2.417853     2.410210     2.402566
      2.394923     2.387280     2.379637     2.371994     2.364350     2.356707     2.349064     2.341421     2.333777     2.326134
      2.318491     2.310848     2.303205     2.295561     2.287918     2.280275     2.272632     2.264988     2.257345     2.249702
      2.242059     2.234416     2.226772     2.219129     2.211486     2.203843     2.196199     2.188556     2.180913     2.173270
      2.165627     2.157983     2.150340     2.142697     2.135054     2.127410     2.119767     2.112124     2.104481     2.096838
      2.089194     2.081551     2.073908     2.066265     2.058621     2.050978     2.043335     2.035692     2.028049     2.020405
      2.012762     2.005119     1.997476     1.989833     1.982190     1.974546     1.966903     1.959260     1.951617     1.943974
      1.936331     1.928688     1.921045     1.913402     1.905759     1.898115     1.890472     1.882829     1.875186     1.867543
      1.859900     1.852257     1.844614     1.836971     1.829327     1.821684     1.814041     1.806398     1.798755     1.791112
      1.783469     1.775826     1.768183     1.760540     1.752896     1.745253     1.737610     1.729967     1.722324     1.714681
      1.707038     1.699395     1.691752     1.684108     1.676465     1.668822     1.661179     1.653536     1.645893     1.638250
      1.630607     1.622964     1.615321     1.607677     1.600034     1.592391     1.584748     1.577105     1.569462     1.561819
      1.554176     1.546533     1.538890     1.531246     1.523603     1.515960     1.508317     1.500674     1.493031     1.485388
      1.477745     1.470102     1.462458     1.454815     1.447172     1.439529     1.431886     1.424243     1.416600     1.408957
      1.401314     1.393671     1.386027     1.378384     1.370741     1.363098     1.355455     1.347812     1.340169     1.332526
      1.324883     1.317240     1.309596     1.301953     1.294310     1.286667     1.279024     1.271381     1.263738     1.256095
      1.248452     1.240808     1.233165     1.225522     1.217879     1.210236     1.202593     1.194950     1.187307     1.179664
      1.172021     1.164377     1.156734     1.149091     1.141448     1.133805     1.126162     1.118519     1.110876     1.103233
      1.095590     1.087946     1.080303     1.072660     1.065017     1.057374     1.049731     1.042088     1.034445     1.026802
      1.019158     1.011515     1.003872     0.996229     0.988586     0.980943     0.973300     0.965657     0.958014     0.950371
      0.942727     0.935084     0.927441     0.919798     0.912155     0.904512     0.896869     0.889226     0.881583     0.873940
      0.866296     0.858653     0.851010     0.843367     0.835724     0.828081     0.820438     0.812795     0.805152     0.797508
      0.789865     0.782222     0.774579     0.766936     0.759293     0.751650     0.744007     0.736364     0.728721     0.721077
      0.713434     0.705791     0.698148     0.690505     0.682862     0.675219     0.667576     0.659933     0.652290     0.644646
      0.637003     0.629360     0.621717     0.614074     0.606431     0.598788     0.591145     0.583502     0.575858     0.568215
      0.560572     0.552929     0.545286     0.537643     0.530000     0.522357     0.514714     0.507071     0.499427     0.491784
      0.484141     0.476498     0.468855     0.461212     0.453569     0.445925     0.438282     0.430639     0.422996     0.415353
      0.407710     0.400067     0.392424     0.384780     0.377137     0.369494     0.361851     0.354208     0.346565     0.338922
      0.331278     0.323635     0.315992     0.308349     0.300706     0.293063     0.285420     0.277777     0.270133     0.262490
      0.254847     0.247204     0.239561     0.231918     0.224275     0.216631     0.208988     0.201345
 NY phased data points follow
  -1.41626E+01 -1.21430E+01 -1.10586E+01 -7.85445E+00 -3.54399E+00 -2.73666E-01  1.37623E+00 -7.59670E-02  5.10420E+00  2.41508E+00
  -3.50036E-02 -1.90571E+00 -3.98514E+00 -5.11118E+00 -7.96430E+00 -1.03203E+01 -1.12452E+01 -1.21403E+01 -1.59012E+01 -1.48317E+01
  -1.38927E+01 -1.18981E+01 -1.45290E+01 -1.05484E+01 -9.13189E+00 -1.03968E+01 -8.05784E+00 -6.34215E+00 -4.66041E+00 -9.35491E+00
  -7.99134E+00 -7.47217E+00 -1.09178E+01 -7.27539E+00 -9.84773E+00 -5.66585E+00 -8.19753E+00 -8.25632E+00 -8.97331E+00 -8.10399E+00
  -6.62588E+00  1.31570E+00 -3.64592E+00 -1.31009E+00 -2.42040E+00 -1.55425E+00 -2.73590E+00 -1.91887E+00 -5.35486E+00 -4.40249E+00
  -5.26387E+00 -4.04185E+00 -4.18246E+00 -4.45112E+00 -8.27722E+00 -7.94952E+00 -6.44455E+00 -8.49386E+00 -1.10031E+01 -1.25226E+01
  -1.14649E+01 -1.82211E+01 -1.00347E+01 -1.20265E+01 -1.37334E+01 -1.27674E+01 -1.49830E+01 -1.82942E+01 -1.32407E+01 -1.24208E+01
  -9.60856E+00 -9.32125E+00 -6.51131E+00 -8.67182E+00 -7.01564E+00 -6.31135E+00 -1.13806E+01 -5.49370E+00 -9.85152E+00 -6.76942E+00
  -7.39824E+00 -5.40762E+00 -3.34044E+00 -5.82613E+00 -4.81806E+00 -4.25381E+00 -3.06768E+00 -5.18125E+00 -3.03092E+00  9.74738E-01
   5.09434E+00  2.92255E+00  4.71116E+00  8.15726E+00  8.60628E+00  1.58442E+01  2.03685E+01  2.30822E+01  2.53621E+01  2.79041E+01
   3.11138E+01  3.16552E+01  3.19669E+01  3.18596E+01  2.71343E+01  2.58007E+01  1.92821E+01  1.71590E+01  8.44724E+00  4.77414E+00
   1.09524E+00  1.18764E-01  1.36811E+00 -1.42467E+00 -2.44712E-01  2.51454E+00  3.24580E+00  2.72085E+00  7.14992E+00  1.03934E+01
   1.32626E+01  2.08943E+01  2.49333E+01  2.72402E+01  2.86520E+01  3.35559E+01  3.17340E+01  2.90402E+01  2.73527E+01  2.21353E+01
   2.17355E+01  1.90717E+01  1.39015E+01  7.82597E+00  5.46234E+00  5.43839E+00  2.76322E+00 -1.72959E+00  4.32058E-01 -4.18875E+00
  -3.02315E+00 -1.81683E+00 -2.68696E+00  4.25152E-01 -5.27250E+00 -3.22689E+00 -9.52695E-01 -2.32533E+00 -3.09088E+00 -2.99068E+00
  -4.23789E+00  8.04650E-01 -4.35635E+00 -3.13738E+00 -2.42432E+00 -6.58886E+00 -5.19684E+00 -3.81228E+00 -2.77147E+00 -5.52493E+00
  -4.35917E+00 -3.81779E+00 -3.04907E+00 -4.86439E+00 -2.70749E+00 -4.24068E+00 -2.32803E+00 -2.27397E+00 -1.97937E+00 -9.10216E+00
  -4.51629E+00 -5.88518E+00 -8.33993E+00 -8.15980E+00 -1.04538E+01 -9.53875E+00 -8.95961E+00 -6.57629E+00 -1.14672E+01 -1.08958E+01
  -1.13864E+01 -8.81173E+00 -8.41991E+00 -8.02340E+00 -7.72007E+00 -4.56224E+00 -1.63198E+00 -1.23242E+00  8.59965E-02  2.38406E+00
   2.41347E+00  2.47409E+00  9.45230E-01  4.23393E+00  3.28832E+00  3.01480E+00  4.02213E+00  4.99679E+00  3.59024E+00  1.88051E+00
   1.26017E+00  2.71101E+00 -5.88691E-01  5.68838E+00  1.68692E+00  1.44075E+00 -7.36661E-01  1.48889E+00  4.45358E+00  9.16336E-01
   5.73338E+00  4.02732E+00  6.90226E+00  1.99627E+00  8.50620E+00  7.13435E+00  5.49411E+00  7.38160E+00  5.38796E+00  3.79571E+00
   7.41613E+00  2.67727E+00  7.56316E+00  7.69637E+00  4.31145E+00  8.04218E+00  5.92010E+00  8.88345E+00  7.34560E+00  9.14332E+00
   6.78377E+00  8.51292E+00  1.11654E+01  1.12417E+01  6.76044E+00  8.38361E+00  1.15242E+01  1.01752E+01  1.35514E+01  5.94630E+00
   9.94128E+00  8.14031E+00  1.47601E+01  1.35020E+01  1.49543E+01  1.32275E+01  1.62057E+01  1.57136E+01  1.89711E+01  2.26641E+01
   2.62543E+01  2.94978E+01  3.41385E+01  3.87276E+01  4.59860E+01  5.11285E+01  5.86504E+01  6.57621E+01  6.73923E+01  6.89307E+01
   6.98757E+01  6.00737E+01  6.22423E+01  5.91679E+01  5.36318E+01  4.90998E+01  3.94539E+01  3.62705E+01  2.55456E+01  2.39955E+01
   2.36633E+01  2.01283E+01  1.41185E+01  1.64529E+01  1.50374E+01  1.18662E+01  1.45353E+01  1.41274E+01  1.07397E+01  1.18811E+01
   1.37373E+01  1.05668E+01  1.00004E+01  1.38605E+01  1.12861E+01  1.13481E+01  1.29547E+01  1.22080E+01  1.02719E+01  9.58422E+00
   9.38968E+00  1.50805E+01  1.25656E+01  8.26103E+00  1.25161E+01  1.21865E+01  1.39919E+01  1.42773E+01  1.47022E+01  8.40085E+00
   1.47377E+01  1.30716E+01  1.10157E+01  1.47821E+01  1.00927E+01  1.38968E+01  1.24218E+01  1.09961E+01  1.33005E+01  1.46562E+01
   1.71865E+01  1.18403E+01  1.57320E+01  1.69233E+01  1.64019E+01  1.62127E+01  1.40892E+01  1.33044E+01  1.35909E+01  1.34537E+01
   1.36011E+01  1.54543E+01  1.39769E+01  1.38130E+01  1.10218E+01  1.14440E+01  9.12435E+00  8.47756E+00  1.29328E+01  9.52333E+00
   1.25812E+01  1.04151E+01  1.25184E+01  1.24374E+01  1.33402E+01  9.16533E+00  1.14205E+01  1.17835E+01  1.20743E+01  1.08984E+01
   1.19299E+01  1.38284E+01  7.29093E+00  1.24017E+01  9.42730E+00  1.06490E+01  1.23854E+01  1.04555E+01  8.76504E+00  9.64181E+00
   9.20648E+00  7.71506E+00  7.38390E+00  7.02880E+00  7.22856E+00  8.90180E+00  9.44332E+00  8.03061E+00  6.55333E+00  7.25913E+00
   8.10728E+00  7.51772E+00  8.03935E+00  8.48051E+00  8.27627E+00  7.91367E+00  9.60550E+00  1.09659E+01  1.17641E+01  1.33299E+01
   9.58604E+00  1.16886E+01  1.11277E+01  1.39562E+01  1.40861E+01  1.02595E+01  1.41230E+01  1.38282E+01  1.49424E+01  1.48579E+01
   1.51705E+01  1.09616E+01  1.23191E+01  1.19391E+01  1.41106E+01  1.51812E+01  1.35054E+01  1.51326E+01  1.25168E+01  1.12594E+01
   1.22333E+01  1.97153E+01  1.53870E+01  1.30604E+01  1.64696E+01  1.74165E+01  1.76585E+01  1.78745E+01  2.02621E+01  2.10522E+01
   2.05908E+01  1.82793E+01  1.83786E+01  2.32423E+01  1.94019E+01  2.42783E+01  2.17299E+01  2.05863E+01  2.27532E+01  2.00264E+01
   1.97802E+01  2.23546E+01  2.04349E+01  1.77538E+01  1.80246E+01  1.59418E+01  2.03048E+01  1.67112E+01  1.60333E+01  1.88077E+01
   1.64408E+01  1.58449E+01  1.59295E+01  1.43934E+01  1.45387E+01  1.47723E+01  1.54411E+01  1.23085E+01  1.38431E+01  1.11389E+01
   1.24559E+01  1.27335E+01  1.34857E+01  1.32292E+01  1.40591E+01  1.23981E+01  1.35221E+01  1.12171E+01  1.10696E+01  1.08595E+01
   8.06863E+00  1.30311E+01  1.41707E+01  9.98497E+00  1.20037E+01  1.30095E+01  1.19740E+01  1.03009E+01  1.23900E+01  1.12844E+01
   1.01543E+01  1.17208E+01  1.36071E+01  1.32992E+01  1.02288E+01  9.90121E+00  8.68560E+00  7.30975E+00  9.03590E+00  1.23476E+01
   8.09701E+00  1.08721E+01  1.02844E+01  7.80465E+00  1.09070E+01  1.32452E+01  8.06110E+00  9.63143E+00  1.07775E+01  8.12544E+00
   9.66972E+00  1.04957E+01  9.69737E+00  1.41624E+01  6.73965E+00  9.98844E+00  1.29865E+01  1.17508E+01  1.11662E+01  1.30735E+01
   9.85094E+00  7.78507E+00  7.90170E+00  1.12918E+01  1.08414E+01  1.00158E+01  1.02431E+01  9.58731E+00  1.08644E+01  1.03779E+01
   1.17559E+01  1.30891E+01  1.17026E+01  1.14942E+01  1.23610E+01  1.17619E+01  1.57305E+01  1.29306E+01
 NY points of the fit to the data follow
  -1.04993E+01 -8.63629E+00 -6.76985E+00 -4.82993E+00 -2.91932E+00 -1.53122E+00 -4.69755E-01  1.61323E-01 -1.86429E-01 -6.24627E-01
  -9.48037E-01 -1.75924E+00 -2.98321E+00 -4.50642E+00 -6.45250E+00 -8.60508E+00 -9.75166E+00 -1.00614E+01 -1.06705E+01 -1.12855E+01
  -1.18029E+01 -1.20579E+01 -1.19232E+01 -1.14928E+01 -1.08695E+01 -1.01376E+01 -9.24094E+00 -8.35512E+00 -7.68599E+00 -7.15921E+00
  -6.80195E+00 -6.53292E+00 -6.48364E+00 -6.56987E+00 -6.67331E+00 -6.85837E+00 -7.03660E+00 -7.33243E+00 -7.53661E+00 -7.35652E+00
  -6.89679E+00 -6.48791E+00 -6.09910E+00 -5.57230E+00 -5.15786E+00 -4.96011E+00 -4.88206E+00 -5.00967E+00 -5.34916E+00 -5.77997E+00
  -6.12347E+00 -6.54780E+00 -7.18403E+00 -7.89511E+00 -8.52164E+00 -8.90665E+00 -9.01303E+00 -9.02876E+00 -9.16410E+00 -9.47367E+00
  -9.68455E+00 -9.76727E+00 -9.82181E+00 -9.85005E+00 -9.84984E+00 -9.86488E+00 -9.91901E+00 -9.92178E+00 -9.83973E+00 -9.71294E+00
  -9.58015E+00 -9.52238E+00 -9.52112E+00 -9.52414E+00 -9.50206E+00 -9.24743E+00 -8.39081E+00 -7.96652E+00 -7.79257E+00 -7.25989E+00
  -6.39848E+00 -5.48785E+00 -4.55645E+00 -3.74881E+00 -3.22645E+00 -2.79870E+00 -2.65049E+00 -2.95407E+00 -3.17947E+00 -2.99244E+00
  -1.06538E+00  2.69427E+00  4.25061E+00  5.54379E+00  8.59967E+00  1.32623E+01  1.85015E+01  2.36493E+01  2.77615E+01  3.05678E+01
   3.26655E+01  3.30594E+01  3.14544E+01  2.97325E+01  2.76299E+01  2.44691E+01  2.04233E+01  1.55061E+01  9.68655E+00  4.56321E+00
   2.20242E+00  1.19788E+00 -5.98667E-01 -2.78715E+00 -3.44118E+00 -3.64773E-01  2.12290E+00  3.59296E+00  6.44793E+00  1.06343E+01
   1.51427E+01  1.98390E+01  2.42435E+01  2.74895E+01  2.98142E+01  3.10065E+01  3.01827E+01  2.88192E+01  2.74265E+01  2.52100E+01
   2.21010E+01  1.83245E+01  1.36048E+01  8.61585E+00  5.66343E+00  4.76053E+00  3.59175E+00  1.62766E+00 -1.55189E-01 -1.01837E+00
  -1.33407E+00 -1.47461E+00 -1.49422E+00 -1.47239E+00 -1.52987E+00 -1.66224E+00 -1.83119E+00 -2.01411E+00 -2.18675E+00 -2.35749E+00
  -2.59442E+00 -2.83366E+00 -2.99258E+00 -3.13685E+00 -3.23966E+00 -3.38733E+00 -3.64032E+00 -3.83509E+00 -3.93475E+00 -4.01592E+00
  -4.10748E+00 -4.16415E+00 -4.24622E+00 -4.40868E+00 -4.63228E+00 -4.96084E+00 -5.30130E+00 -5.40869E+00 -5.50610E+00 -5.77174E+00
  -6.23191E+00 -6.69211E+00 -6.94650E+00 -7.02021E+00 -7.04451E+00 -7.14401E+00 -7.29813E+00 -7.34588E+00 -7.19600E+00 -6.98612E+00
  -6.73297E+00 -6.35632E+00 -5.87640E+00 -5.36729E+00 -4.78975E+00 -4.21043E+00 -3.53452E+00 -2.79405E+00 -2.02181E+00 -1.38784E+00
  -9.40493E-01 -5.61308E-01 -1.35574E-01  4.22092E-01  8.98664E-01  1.16528E+00  1.31736E+00  1.51386E+00  1.79634E+00  2.00496E+00
   2.28899E+00  2.45963E+00  2.34285E+00  2.14563E+00  2.01763E+00  1.99405E+00  1.87339E+00  1.64067E+00  1.50631E+00  1.55625E+00
   1.73479E+00  1.79326E+00  1.88492E+00  2.25442E+00  2.70928E+00  2.96332E+00  3.09223E+00  3.24587E+00  3.38005E+00  3.55174E+00
   3.82016E+00  4.06258E+00  4.32384E+00  4.65492E+00  5.07451E+00  5.59857E+00  6.25025E+00  6.87649E+00  7.42364E+00  8.02924E+00
   8.64495E+00  9.09311E+00  9.45597E+00  9.92112E+00  1.04192E+01  1.08693E+01  1.12191E+01  1.15038E+01  1.17956E+01  1.21459E+01
   1.24962E+01  1.28554E+01  1.33577E+01  1.39365E+01  1.44587E+01  1.49940E+01  1.57090E+01  1.65841E+01  1.79090E+01  2.17009E+01
   2.78537E+01  3.10812E+01  3.42430E+01  3.95440E+01  4.59936E+01  5.24647E+01  5.88145E+01  6.38428E+01  6.70014E+01  6.89072E+01
   6.84133E+01  6.53894E+01  6.23328E+01  5.87702E+01  5.38729E+01  4.79850E+01  4.11384E+01  3.32795E+01  2.64966E+01  2.33006E+01
   2.16866E+01  1.89671E+01  1.56863E+01  1.32968E+01  1.22724E+01  1.17719E+01  1.14236E+01  1.11513E+01  1.09262E+01  1.07342E+01
   1.05706E+01  1.04372E+01  1.03445E+01  1.02965E+01  1.02859E+01  1.03070E+01  1.03631E+01  1.04581E+01  1.05897E+01  1.07512E+01
   1.09409E+01  1.11593E+01  1.14031E+01  1.16661E+01  1.19423E+01  1.22278E+01  1.25174E+01  1.28048E+01  1.30844E+01  1.33504E+01
   1.35969E+01  1.38184E+01  1.40106E+01  1.41698E+01  1.42929E+01  1.43781E+01  1.44252E+01  1.44349E+01  1.44094E+01  1.43520E+01
   1.42672E+01  1.41612E+01  1.40417E+01  1.39189E+01  1.38082E+01  1.37418E+01  1.37384E+01  1.36057E+01  1.34163E+01  1.33116E+01
   1.32204E+01  1.30647E+01  1.28346E+01  1.25191E+01  1.22586E+01  1.20403E+01  1.16986E+01  1.13188E+01  1.10746E+01  1.09490E+01
   1.08763E+01  1.08744E+01  1.09089E+01  1.09698E+01  1.11119E+01  1.13147E+01  1.14887E+01  1.15758E+01  1.15872E+01  1.15765E+01
   1.15582E+01  1.14568E+01  1.12173E+01  1.09501E+01  1.07821E+01  1.06601E+01  1.04992E+01  1.03054E+01  1.01348E+01  1.00118E+01
   9.92027E+00  9.85168E+00  9.80241E+00  9.77008E+00  9.75302E+00  9.74954E+00  9.75823E+00  9.77751E+00  9.80601E+00  9.84218E+00
   9.88469E+00  9.93219E+00  9.98364E+00  1.00380E+01  1.00947E+01  1.01531E+01  1.02129E+01  1.02741E+01  1.03371E+01  1.04023E+01
   1.04706E+01  1.05429E+01  1.06204E+01  1.07045E+01  1.07969E+01  1.08992E+01  1.10133E+01  1.11411E+01  1.12847E+01  1.14460E+01
   1.16273E+01  1.18305E+01  1.20580E+01  1.23114E+01  1.25927E+01  1.29035E+01  1.32452E+01  1.36184E+01  1.40237E+01  1.44604E+01
   1.49275E+01  1.54227E+01  1.59428E+01  1.64833E+01  1.70387E+01  1.76019E+01  1.81650E+01  1.87189E+01  1.92539E+01  1.97593E+01
   2.02248E+01  2.06398E+01  2.09947E+01  2.12807E+01  2.14906E+01  2.16188E+01  2.16619E+01  2.16186E+01  2.14902E+01  2.12798E+01
   2.09931E+01  2.06372E+01  2.02212E+01  1.97548E+01  1.92490E+01  1.87145E+01  1.81621E+01  1.76021E+01  1.70439E+01  1.64958E+01
   1.59651E+01  1.54574E+01  1.49773E+01  1.45279E+01  1.41113E+01  1.37283E+01  1.33791E+01  1.30630E+01  1.27787E+01  1.25244E+01
   1.22983E+01  1.20982E+01  1.19220E+01  1.17674E+01  1.16323E+01  1.15146E+01  1.14127E+01  1.13246E+01  1.12489E+01  1.11841E+01
   1.11291E+01  1.10826E+01  1.10438E+01  1.10117E+01  1.09856E+01  1.09648E+01  1.09489E+01  1.09371E+01  1.09292E+01  1.09247E+01
   1.09233E+01  1.09246E+01  1.09285E+01  1.09346E+01  1.09428E+01  1.09528E+01  1.09646E+01  1.09778E+01  1.09926E+01  1.10086E+01
   1.10259E+01  1.10442E+01  1.10636E+01  1.10839E+01  1.11051E+01  1.11271E+01  1.11499E+01  1.11734E+01  1.11975E+01  1.12222E+01
   1.12476E+01  1.12735E+01  1.12999E+01  1.13267E+01  1.13540E+01  1.13817E+01  1.14099E+01  1.14385E+01  1.14674E+01  1.14967E+01
   1.15264E+01  1.15563E+01  1.15867E+01  1.16173E+01  1.16482E+01  1.16795E+01  1.17111E+01  1.17429E+01  1.17752E+01  1.18076E+01
   1.18405E+01  1.18736E+01  1.19072E+01  1.19410E+01  1.19753E+01  1.20100E+01  1.20452E+01  1.20808E+01
 NY background values follow
    -1.863E+01   -1.855E+01   -1.846E+01   -1.837E+01   -1.828E+01   -1.819E+01   -1.811E+01   -1.802E+01   -1.793E+01   -1.784E+01
    -1.775E+01   -1.767E+01   -1.758E+01   -1.749E+01   -1.740E+01   -1.731E+01   -1.723E+01   -1.714E+01   -1.705E+01   -1.696E+01
    -1.687E+01   -1.678E+01   -1.670E+01   -1.661E+01   -1.652E+01   -1.643E+01   -1.634E+01   -1.625E+01   -1.617E+01   -1.608E+01
    -1.599E+01   -1.590E+01   -1.581E+01   -1.573E+01   -1.564E+01   -1.555E+01   -1.546E+01   -1.537E+01   -1.528E+01   -1.520E+01
    -1.511E+01   -1.502E+01   -1.493E+01   -1.484E+01   -1.476E+01   -1.467E+01   -1.458E+01   -1.449E+01   -1.440E+01   -1.431E+01
    -1.423E+01   -1.414E+01   -1.405E+01   -1.396E+01   -1.387E+01   -1.379E+01   -1.370E+01   -1.361E+01   -1.352E+01   -1.343E+01
    -1.335E+01   -1.326E+01   -1.317E+01   -1.308E+01   -1.299E+01   -1.291E+01   -1.282E+01   -1.273E+01   -1.264E+01   -1.256E+01
    -1.247E+01   -1.238E+01   -1.229E+01   -1.221E+01   -1.212E+01   -1.203E+01   -1.194E+01   -1.186E+01   -1.177E+01   -1.168E+01
    -1.160E+01   -1.151E+01   -1.142E+01   -1.133E+01   -1.125E+01   -1.116E+01   -1.107E+01   -1.099E+01   -1.090E+01   -1.081E+01
    -1.073E+01   -1.064E+01   -1.055E+01   -1.047E+01   -1.038E+01   -1.029E+01   -1.021E+01   -1.012E+01   -1.004E+01   -9.949E+00
    -9.863E+00   -9.777E+00   -9.691E+00   -9.605E+00   -9.520E+00   -9.434E+00   -9.348E+00   -9.263E+00   -9.177E+00   -9.092E+00
    -9.007E+00   -8.922E+00   -8.836E+00   -8.751E+00   -8.666E+00   -8.582E+00   -8.497E+00   -8.412E+00   -8.327E+00   -8.243E+00
    -8.158E+00   -8.074E+00   -7.990E+00   -7.906E+00   -7.821E+00   -7.737E+00   -7.653E+00   -7.570E+00   -7.486E+00   -7.402E+00
    -7.319E+00   -7.235E+00   -7.152E+00   -7.069E+00   -6.986E+00   -6.903E+00   -6.820E+00   -6.737E+00   -6.654E+00   -6.572E+00
    -6.489E+00   -6.407E+00   -6.324E+00   -6.242E+00   -6.160E+00   -6.078E+00   -5.996E+00   -5.915E+00   -5.833E+00   -5.752E+00
    -5.671E+00   -5.589E+00   -5.508E+00   -5.427E+00   -5.347E+00   -5.266E+00   -5.185E+00   -5.105E+00   -5.025E+00   -4.945E+00
    -4.865E+00   -4.785E+00   -4.705E+00   -4.626E+00   -4.546E+00   -4.467E+00   -4.388E+00   -4.309E+00   -4.230E+00   -4.152E+00
    -4.073E+00   -3.995E+00   -3.917E+00   -3.839E+00   -3.761E+00   -3.683E+00   -3.606E+00   -3.529E+00   -3.452E+00   -3.375E+00
    -3.298E+00   -3.221E+00   -3.145E+00   -3.069E+00   -2.992E+00   -2.917E+00   -2.841E+00   -2.765E+00   -2.690E+00   -2.615E+00
    -2.540E+00   -2.465E+00   -2.390E+00   -2.316E+00   -2.242E+00   -2.168E+00   -2.094E+00   -2.020E+00   -1.947E+00   -1.873E+00
    -1.800E+00   -1.728E+00   -1.655E+00   -1.582E+00   -1.510E+00   -1.438E+00   -1.366E+00   -1.294E+00   -1.223E+00   -1.152E+00
    -1.081E+00   -1.010E+00   -9.391E-01   -8.687E-01   -7.984E-01   -7.284E-01   -6.586E-01   -5.890E-01   -5.196E-01   -4.504E-01
    -3.814E-01   -3.127E-01   -2.442E-01   -1.759E-01   -1.078E-01   -3.991E-02    2.774E-02    9.517E-02    1.624E-01    2.294E-01
     2.961E-01    3.627E-01    4.290E-01    4.951E-01    5.610E-01    6.266E-01    6.921E-01    7.573E-01    8.223E-01    8.871E-01
     9.517E-01    1.016E+00    1.080E+00    1.144E+00    1.208E+00    1.271E+00    1.335E+00    1.398E+00    1.461E+00    1.523E+00
     1.586E+00    1.648E+00    1.710E+00    1.772E+00    1.833E+00    1.895E+00    1.956E+00    2.017E+00    2.077E+00    2.138E+00
     2.198E+00    2.258E+00    2.318E+00    2.378E+00    2.438E+00    2.497E+00    2.556E+00    2.615E+00    2.673E+00    2.732E+00
     2.790E+00    2.848E+00    2.906E+00    2.964E+00    3.021E+00    3.078E+00    3.136E+00    3.192E+00    3.249E+00    3.305E+00
     3.362E+00    3.418E+00    3.474E+00    3.529E+00    3.585E+00    3.640E+00    3.695E+00    3.750E+00    3.805E+00    3.859E+00
     3.914E+00    3.968E+00    4.022E+00    4.076E+00    4.129E+00    4.183E+00    4.236E+00    4.289E+00    4.342E+00    4.394E+00
     4.447E+00    4.499E+00    4.551E+00    4.603E+00    4.655E+00    4.707E+00    4.758E+00    4.809E+00    4.861E+00    4.912E+00
     4.962E+00    5.013E+00    5.063E+00    5.114E+00    5.164E+00    5.214E+00    5.263E+00    5.313E+00    5.362E+00    5.412E+00
     5.461E+00    5.510E+00    5.558E+00    5.607E+00    5.656E+00    5.704E+00    5.752E+00    5.800E+00    5.848E+00    5.896E+00
     5.943E+00    5.991E+00    6.038E+00    6.085E+00    6.132E+00    6.179E+00    6.225E+00    6.272E+00    6.318E+00    6.365E+00
     6.411E+00    6.457E+00    6.503E+00    6.548E+00    6.594E+00    6.639E+00    6.685E+00    6.730E+00    6.775E+00    6.820E+00
     6.864E+00    6.909E+00    6.954E+00    6.998E+00    7.042E+00    7.086E+00    7.130E+00    7.174E+00    7.218E+00    7.262E+00
     7.305E+00    7.349E+00    7.392E+00    7.435E+00    7.478E+00    7.521E+00    7.564E+00    7.607E+00    7.650E+00    7.692E+00
     7.734E+00    7.777E+00    7.819E+00    7.861E+00    7.903E+00    7.945E+00    7.987E+00    8.028E+00    8.070E+00    8.111E+00
     8.153E+00    8.194E+00    8.235E+00    8.276E+00    8.317E+00    8.358E+00    8.398E+00    8.439E+00    8.479E+00    8.520E+00
     8.560E+00    8.600E+00    8.640E+00    8.680E+00    8.720E+00    8.760E+00    8.800E+00    8.839E+00    8.879E+00    8.918E+00
     8.957E+00    8.997E+00    9.036E+00    9.075E+00    9.114E+00    9.152E+00    9.191E+00    9.230E+00    9.268E+00    9.307E+00
     9.345E+00    9.383E+00    9.422E+00    9.460E+00    9.498E+00    9.536E+00    9.573E+00    9.611E+00    9.649E+00    9.686E+00
     9.724E+00    9.761E+00    9.799E+00    9.836E+00    9.873E+00    9.910E+00    9.948E+00    9.985E+00    1.002E+01    1.006E+01
     1.010E+01    1.013E+01    1.017E+01    1.021E+01    1.024E+01    1.028E+01    1.031E+01    1.035E+01    1.039E+01    1.042E+01
     1.046E+01    1.050E+01    1.053E+01    1.057E+01    1.060E+01    1.064E+01    1.068E+01    1.071E+01    1.075E+01    1.078E+01
     1.082E+01    1.086E+01    1.089E+01    1.093E+01    1.096E+01    1.100E+01    1.103E+01    1.107E+01    1.110E+01    1.114E+01
     1.117E+01    1.121E+01    1.125E+01    1.128E+01    1.132E+01    1.135E+01    1.139E+01    1.142E+01    1.146E+01    1.149E+01
     1.153E+01    1.156E+01    1.160E+01    1.163E+01    1.167E+01    1.170E+01    1.174E+01    1.177E+01    1.181E+01    1.184E+01
     1.188E+01    1.191E+01    1.195E+01    1.198E+01    1.202E+01    1.205E+01    1.209E+01    1.212E+01    1.216E+01    1.219E+01
     1.223E+01    1.226E+01    1.230E+01    1.233E+01    1.237E+01    1.240E+01    1.243E+01    1.247E+01
 Ala      Conc. = 2.12E+02
