 LCModel (Version 6.3-1L) Copyright: S.W. Provencher.          Ref.: Magn. Reson. Med. 30:672-679 (1993).                
 Slice#1 Row#13 Col#10  PD_05_press_1_raw_act
 36 lines in following concentration table = NCONC+1
    Conc.  %SD /Cr+PCr  Metabolite                                         
    0.000 999%   0.000 Ala                                                 
   16.730  68%   0.644 Asp                                                 
   16.494 194%   0.635 Cr                                                  
    9.468 345%   0.365 PCr                                                 
    9.035  75%   0.348 GABA                                                
    8.180  84%   0.315 Glc                                                 
    0.000 999%   0.000 Gln                                                 
   92.913  57%   3.579 Glu                                                 
    0.000 999%   0.000 GPC                                                 
   13.421  37%   0.517 PCh                                                 
    0.000 999%   0.000 GSH                                                 
    0.000 999%   0.000 Ins                                                 
 6.05E-02 999% 2.3E-03 Lac                                                 
  153.757  13%   5.922 NAA                                                 
   56.232  33%   2.166 NAAG                                                
    3.549  62%   0.137 Scyllo                                              
   13.255  85%   0.511 Tau                                                 
    6.509 114%   0.251 -CrCH2                                              
   13.421  37%   0.517 GPC+PCh                                             
  209.989  11%   8.088 NAA+NAAG                                            
   25.962  51%   1.000 Cr+PCr                                              
   92.913  71%   3.579 Glu+Gln                                             
    0.000 999%   0.000 Lip13a                                              
   53.186  59%   2.049 Lip13b                                              
    0.000 999%   0.000 Lip09                                               
  156.035  26%   6.010 MM09                                                
   20.457  91%   0.788 Lip20                                               
  261.043  24%  10.055 MM20                                                
   46.622  29%   1.796 MM12                                                
  106.606  35%   4.106 MM14                                                
   63.545  35%   2.448 MM17                                                
   53.186  59%   2.049 Lip13a+Lip13b                                       
  206.414  27%   7.951 MM14+Lip13a+Lip13b+MM12                             
  156.035  26%   6.010 MM09+Lip09                                          
  281.500  23%  10.843 MM20+Lip20                                          
   6 lines in following misc. output table
  FWHM = 0.038 ppm    S/N =   3                                            
  Data shift = 0.023 ppm                                                   
  Ph:-103 deg     -27.8 deg/ppm                                            
  alphaB,S = 8.5E+01,   1.2E+01                                            
   14 spline knots.   Ns = 5(1)                                            
   2 inflections.     1 extrema                                            
  498 points on ppm-axis = NY
      4.000000     3.992357     3.984714     3.977070     3.969427     3.961784     3.954141     3.946497     3.938854     3.931211
      3.923568     3.915925     3.908281     3.900638     3.892995     3.885352     3.877708     3.870065     3.862422     3.854779
      3.847136     3.839492     3.831849     3.824206     3.816563     3.808919     3.801276     3.793633     3.785990     3.778347
      3.770703     3.763060     3.755417     3.747774     3.740130     3.732487     3.724844     3.717201     3.709558     3.701914
      3.694271     3.686628     3.678985     3.671341     3.663698     3.656055     3.648412     3.640769     3.633125     3.625482
      3.617839     3.610196     3.602552     3.594909     3.587266     3.579623     3.571980     3.564336     3.556693     3.549050
      3.541407     3.533763     3.526120     3.518477     3.510834     3.503191     3.495547     3.487904     3.480261     3.472618
      3.464974     3.457331     3.449688     3.442045     3.434402     3.426758     3.419115     3.411472     3.403829     3.396185
      3.388542     3.380899     3.373256     3.365613     3.357969     3.350326     3.342683     3.335040     3.327396     3.319753
      3.312110     3.304467     3.296824     3.289180     3.281537     3.273894     3.266251     3.258607     3.250964     3.243321
      3.235678     3.228034     3.220391     3.212748     3.205105     3.197462     3.189818     3.182175     3.174532     3.166889
      3.159245     3.151602     3.143959     3.136316     3.128673     3.121029     3.113386     3.105743     3.098100     3.090456
      3.082813     3.075170     3.067527     3.059884     3.052240     3.044597     3.036954     3.029311     3.021667     3.014024
      3.006381     2.998738     2.991095     2.983451     2.975808     2.968165     2.960522     2.952878     2.945235     2.937592
      2.929949     2.922306     2.914662     2.907019     2.899376     2.891733     2.884089     2.876446     2.868803     2.861160
      2.853517     2.845873     2.838230     2.830587     2.822944     2.815300     2.807657     2.800014     2.792371     2.784728
      2.777084     2.769441     2.761798     2.754155     2.746511     2.738868     2.731225     2.723582     2.715939     2.708295
      2.700652     2.693009     2.685366     2.677722     2.670079     2.662436     2.654793     2.647150     2.639506     2.631863
      2.624220     2.616577     2.608933     2.601290     2.593647     2.586004     2.578361     2.570717     2.563074     2.555431
      2.547788     2.540144     2.532501     2.524858     2.517215     2.509572     2.501928     2.494285     2.486642     2.478999
      2.471355     2.463712     2.456069     2.448426     2.440783     2.433139     2.425496     2.417853     2.410210     2.402566
      2.394923     2.387280     2.379637     2.371994     2.364350     2.356707     2.349064     2.341421     2.333777     2.326134
      2.318491     2.310848     2.303205     2.295561     2.287918     2.280275     2.272632     2.264988     2.257345     2.249702
      2.242059     2.234416     2.226772     2.219129     2.211486     2.203843     2.196199     2.188556     2.180913     2.173270
      2.165627     2.157983     2.150340     2.142697     2.135054     2.127410     2.119767     2.112124     2.104481     2.096838
      2.089194     2.081551     2.073908     2.066265     2.058621     2.050978     2.043335     2.035692     2.028049     2.020405
      2.012762     2.005119     1.997476     1.989833     1.982190     1.974546     1.966903     1.959260     1.951617     1.943974
      1.936331     1.928688     1.921045     1.913402     1.905759     1.898115     1.890472     1.882829     1.875186     1.867543
      1.859900     1.852257     1.844614     1.836971     1.829327     1.821684     1.814041     1.806398     1.798755     1.791112
      1.783469     1.775826     1.768183     1.760540     1.752896     1.745253     1.737610     1.729967     1.722324     1.714681
      1.707038     1.699395     1.691752     1.684108     1.676465     1.668822     1.661179     1.653536     1.645893     1.638250
      1.630607     1.622964     1.615321     1.607677     1.600034     1.592391     1.584748     1.577105     1.569462     1.561819
      1.554176     1.546533     1.538890     1.531246     1.523603     1.515960     1.508317     1.500674     1.493031     1.485388
      1.477745     1.470102     1.462458     1.454815     1.447172     1.439529     1.431886     1.424243     1.416600     1.408957
      1.401314     1.393671     1.386027     1.378384     1.370741     1.363098     1.355455     1.347812     1.340169     1.332526
      1.324883     1.317240     1.309596     1.301953     1.294310     1.286667     1.279024     1.271381     1.263738     1.256095
      1.248452     1.240808     1.233165     1.225522     1.217879     1.210236     1.202593     1.194950     1.187307     1.179664
      1.172021     1.164377     1.156734     1.149091     1.141448     1.133805     1.126162     1.118519     1.110876     1.103233
      1.095590     1.087946     1.080303     1.072660     1.065017     1.057374     1.049731     1.042088     1.034445     1.026802
      1.019158     1.011515     1.003872     0.996229     0.988586     0.980943     0.973300     0.965657     0.958014     0.950371
      0.942727     0.935084     0.927441     0.919798     0.912155     0.904512     0.896869     0.889226     0.881583     0.873940
      0.866296     0.858653     0.851010     0.843367     0.835724     0.828081     0.820438     0.812795     0.805152     0.797508
      0.789865     0.782222     0.774579     0.766936     0.759293     0.751650     0.744007     0.736364     0.728721     0.721077
      0.713434     0.705791     0.698148     0.690505     0.682862     0.675219     0.667576     0.659933     0.652290     0.644646
      0.637003     0.629360     0.621717     0.614074     0.606431     0.598788     0.591145     0.583502     0.575858     0.568215
      0.560572     0.552929     0.545286     0.537643     0.530000     0.522357     0.514714     0.507071     0.499427     0.491784
      0.484141     0.476498     0.468855     0.461212     0.453569     0.445925     0.438282     0.430639     0.422996     0.415353
      0.407710     0.400067     0.392424     0.384780     0.377137     0.369494     0.361851     0.354208     0.346565     0.338922
      0.331278     0.323635     0.315992     0.308349     0.300706     0.293063     0.285420     0.277777     0.270133     0.262490
      0.254847     0.247204     0.239561     0.231918     0.224275     0.216631     0.208988     0.201345
 NY phased data points follow
  -3.47652E+00 -2.06597E+00 -2.41410E+00 -3.25716E+00 -3.92167E+00 -2.40128E+00 -3.31596E+00 -2.46951E+00 -3.79300E+00 -1.90642E+00
  -2.35772E+00 -1.22138E+00 -4.88657E+00 -2.59936E+00 -3.12032E+00 -2.38307E+00 -4.62246E+00 -2.93534E+00 -3.63331E+00 -4.21480E+00
  -2.45225E+00 -2.32981E+00 -2.80627E+00 -2.11407E+00 -2.17364E+00 -2.45424E+00 -3.17922E+00 -3.17454E+00 -3.30063E+00 -2.32111E+00
  -3.45662E+00 -3.41588E+00 -3.77670E+00 -3.84412E+00 -4.78760E+00 -2.39635E+00 -4.01908E+00 -2.93629E+00 -3.89656E+00 -2.83452E+00
  -3.34174E+00 -3.20958E+00 -4.23472E+00 -1.09493E+00 -1.16932E+00 -1.98711E+00 -8.10727E-01 -8.22797E-01 -1.72132E+00 -5.77134E-01
  -2.70899E+00 -1.61320E+00 -2.81908E+00 -4.39908E+00 -1.20699E+00 -2.75466E+00 -1.55980E+00 -3.58098E+00 -1.49043E+00 -3.00839E+00
  -2.57607E+00 -1.61076E+00 -3.54726E+00 -1.85561E+00 -1.76449E+00 -2.09330E+00 -4.11163E+00 -1.11022E+00 -1.31682E+00 -4.25203E+00
  -2.03831E+00 -2.75139E+00 -3.43764E+00 -2.14754E+00 -1.62611E+00  4.64762E-01 -1.52705E+00  1.12015E+00  4.80784E-01 -3.02637E-01
  -2.37283E+00 -3.71455E+00 -1.92821E+00 -1.19829E+00 -2.20945E+00 -1.76585E+00  3.66474E-01  5.37296E-02 -1.17052E+00 -1.38160E+00
  -2.40085E+00 -4.48197E-02 -4.66855E-01  6.36025E-02 -8.09542E-01 -3.75698E+00 -3.74716E+00 -5.35140E-01 -1.02404E+00 -9.79156E-01
  -7.45961E-01  1.03296E-02 -1.36614E+00  1.83493E+00 -1.76266E-01 -2.56067E+00 -1.54596E+00 -4.15127E-01 -2.08451E+00 -9.42728E-01
  -3.10211E+00 -3.05434E+00 -1.35258E+00 -5.85427E-01 -1.02070E+00  1.94490E-01 -9.45332E-01 -1.97955E+00 -1.39573E+00 -9.14272E-01
  -1.61795E+00 -1.19107E+00  5.77330E-01 -2.08857E-01 -2.75314E+00  6.32437E-01  1.73577E+00  2.11805E-01 -8.00690E-01 -1.53234E+00
  -2.57692E+00 -1.91445E+00 -2.79687E+00  4.20397E-01 -1.55273E+00 -1.11320E+00 -1.64767E+00 -8.33324E-01 -1.70716E+00 -1.44765E+00
  -2.62443E+00 -2.51502E+00 -1.67561E+00 -1.54746E+00 -1.90711E-01 -4.09583E-01 -1.06166E+00 -3.59442E+00 -1.98621E+00 -2.90583E+00
  -6.38712E-01 -2.19172E+00 -3.67505E+00 -1.41768E+00 -1.94175E+00 -3.76110E+00 -2.15451E+00 -5.11841E-01 -2.71682E+00 -9.08614E-01
  -2.57963E+00 -2.25229E+00 -9.07185E-01 -3.71308E+00 -1.63529E+00 -2.63772E+00 -2.26076E+00 -3.65983E+00 -2.72026E+00 -1.09189E+00
  -1.16704E+00 -2.95141E+00 -9.31143E-01 -4.43461E-01 -1.81398E+00 -2.19801E+00 -2.22082E+00 -2.15927E+00 -1.81457E+00 -1.38558E+00
  -2.06973E+00 -1.16730E+00  1.07580E+00 -1.23610E+00 -1.71995E+00 -1.24411E+00 -2.64275E+00 -3.15973E+00 -2.40281E+00  1.93052E-01
  -7.69376E-01 -2.76750E+00 -1.73436E+00 -2.44474E+00 -9.69003E-01 -1.89327E+00 -1.24451E+00 -9.20484E-01 -2.13478E+00 -1.18446E+00
  -6.06309E-01 -1.66538E+00 -2.57277E+00 -1.04773E+00 -7.30368E-01 -1.68906E+00 -1.27144E+00 -2.06897E+00 -1.97970E+00 -6.98101E-01
  -2.35257E+00 -1.70118E+00  6.83151E-01  1.25375E+00 -9.48581E-01  1.06026E+00  9.22424E-01  1.03057E+00  1.12007E+00 -1.68664E+00
  -2.38951E+00  6.20094E-01 -2.45811E+00 -3.92150E-01 -1.01841E+00  7.39941E-01  2.19535E+00  2.74530E-01 -1.32409E+00  3.30510E-01
  -1.27234E-01  2.08683E+00  1.70585E+00 -5.02077E-01  6.14705E-01  1.44280E+00  1.64421E+00  7.52358E-01  5.16190E-01  6.84384E-01
   1.65273E+00  1.26114E+00  1.74551E+00  1.25598E+00  8.31526E-01  4.00345E+00  7.16482E-01  2.51759E+00  2.79639E+00  9.32762E-01
   1.49497E+00  2.78768E+00  3.43034E+00  3.36784E+00  2.41775E+00  2.95962E+00  2.32209E+00  6.48242E+00  7.85466E+00  6.34936E+00
   8.64273E+00  5.55335E+00  3.64147E+00  3.87243E-02  1.36329E+00  1.25375E+00 -3.35162E-01 -1.44227E+00 -1.64030E+00  1.32316E+00
  -1.76333E+00 -9.59114E-01 -8.96592E-01  1.58160E+00 -8.08912E-01  9.68279E-01 -8.66063E-01  4.04928E-01 -3.42443E-01 -3.99613E-02
  -5.50324E-01 -1.39929E+00 -1.59754E+00 -2.79329E+00 -1.81400E+00 -1.46787E+00 -1.35249E+00 -6.76076E-01 -1.58494E+00 -1.14314E+00
  -1.30443E+00 -1.08903E+00 -5.97682E-02  7.83033E-01 -1.72511E+00 -1.08946E-01 -8.47311E-02 -1.66127E+00 -1.42349E-01  4.35658E-01
   7.90779E-01 -1.24417E+00 -7.66282E-01 -1.04829E+00  1.03703E-01 -7.13275E-01 -9.10487E-01 -8.31177E-02  3.38376E-01 -1.03180E-01
   1.21168E+00  1.44453E+00  1.44473E+00 -2.46840E-01  3.50898E-01  1.53582E-03  1.24122E+00  9.40661E-01  2.60058E+00  2.75199E-01
   1.44678E+00  1.61764E+00 -4.02972E-01 -1.24317E+00 -9.04750E-01  2.34812E+00 -3.64882E-01 -9.22014E-01  4.20691E-01 -5.45160E-01
   5.04780E-01  8.10282E-01  3.69747E-02 -1.96131E-01 -1.30998E+00  9.83746E-01 -7.06578E-01 -1.17306E+00 -8.06371E-01 -1.56120E+00
   1.15685E-01  1.85988E-01 -5.79525E-01 -6.07357E-01 -2.55842E+00  3.73657E-01  3.06524E-01  5.72832E-01 -8.11986E-01 -1.09653E+00
  -8.15537E-01 -7.44836E-01  1.34005E+00  1.63343E-01  7.39799E-01 -1.18246E+00  1.62746E+00  8.97937E-02  1.35216E+00  8.60654E-02
   1.78063E+00  1.98103E+00  5.50919E-01  6.39428E-01  1.99144E+00  1.24153E+00  3.59234E-01  2.17719E-01  1.72346E+00  1.92611E+00
  -1.78780E+00 -1.21323E+00  2.70079E-01  1.88304E+00 -1.63257E+00  5.86774E-01  1.43520E+00 -9.31214E-01  7.32669E-01 -4.70779E-01
   1.42780E+00  2.25079E-02 -4.22679E-01 -2.27106E+00  1.61702E+00 -1.31299E+00 -1.16202E+00 -2.84907E-01 -2.08166E+00  1.13345E+00
   1.10719E-01 -1.18319E+00 -4.08858E-01 -1.46591E-01 -2.09017E+00  1.20898E-01 -5.03421E-01 -2.98692E-01  1.19055E+00  9.06393E-01
   1.53632E+00  6.79204E-01  3.92204E-01  1.00770E+00  2.93095E+00  1.17688E+00  3.79526E-02 -5.00661E-01  1.49013E-01 -5.86548E-01
  -1.72327E+00 -3.72666E-01 -9.51593E-02  7.52551E-01 -8.07779E-01  2.21318E+00  1.79589E+00  2.33243E-01  2.76405E+00 -1.38895E-01
   1.12266E+00 -4.34282E-01 -5.82413E-01 -8.63937E-01 -7.84115E-01 -1.38264E-01 -1.22423E+00  1.60249E+00 -3.30341E-01  1.02256E+00
  -2.83655E+00 -2.25675E+00 -1.21197E+00  1.35730E+00  3.93627E-01  1.87623E+00 -1.77184E+00 -1.11433E+00 -7.35885E-01  9.88413E-01
  -1.09820E-01 -6.51966E-01  1.66786E+00 -1.60986E+00  5.25382E-01 -1.61936E-01 -1.78949E+00  1.32108E+00 -1.43666E-01  1.66567E+00
  -1.50126E-01  1.36199E+00  4.34511E-01  5.54687E-01  5.45952E-01  1.24466E+00  1.73687E-01 -4.78375E-01  8.57145E-01  1.05408E+00
  -9.95422E-01 -9.42738E-01  6.61699E-01  5.72015E-01  3.38010E+00 -1.54775E-01  2.34824E+00  2.82178E+00  2.40747E-01  3.77653E-01
   1.19699E+00  7.18556E-01  6.94686E-01  9.11902E-02  6.30545E-01  9.37636E-01  8.48432E-01 -7.83565E-01  9.80076E-01  2.47077E+00
   1.62997E-01  1.04426E+00  1.28223E+00 -1.05126E+00 -3.33309E-01  6.58392E-02 -3.84924E-01  2.90466E-01  8.67584E-02  3.75741E-01
   3.50201E-01 -1.49716E-02  3.13915E+00 -3.26264E-01 -1.34834E+00 -3.93542E-01  2.37540E+00  7.83693E-01
 NY points of the fit to the data follow
  -2.45564E+00 -2.44148E+00 -2.42396E+00 -2.40837E+00 -2.39623E+00 -2.37107E+00 -2.30080E+00 -2.15914E+00 -1.98687E+00 -1.86730E+00
  -1.83368E+00 -1.90073E+00 -2.05417E+00 -2.21924E+00 -2.31951E+00 -2.34945E+00 -2.36938E+00 -2.38830E+00 -2.38159E+00 -2.34924E+00
  -2.29614E+00 -2.23284E+00 -2.17039E+00 -2.13598E+00 -2.16483E+00 -2.24488E+00 -2.34299E+00 -2.43191E+00 -2.44719E+00 -2.33606E+00
  -2.13405E+00 -1.95154E+00 -1.87502E+00 -1.91805E+00 -2.07055E+00 -2.27164E+00 -2.40305E+00 -2.41079E+00 -2.33361E+00 -2.22616E+00
  -2.13615E+00 -2.09953E+00 -2.12192E+00 -2.15601E+00 -2.16766E+00 -2.16841E+00 -2.16831E+00 -2.16759E+00 -2.16329E+00 -2.15374E+00
  -2.14090E+00 -2.12711E+00 -2.11433E+00 -2.10670E+00 -2.10789E+00 -2.11360E+00 -2.11568E+00 -2.11355E+00 -2.10851E+00 -2.09977E+00
  -2.08888E+00 -2.07758E+00 -2.06366E+00 -2.04768E+00 -2.03481E+00 -2.02626E+00 -2.02565E+00 -2.03469E+00 -2.04319E+00 -2.04395E+00
  -2.03271E+00 -2.00003E+00 -1.94757E+00 -1.90084E+00 -1.87972E+00 -1.88549E+00 -1.92028E+00 -1.97013E+00 -2.00077E+00 -1.99335E+00
  -1.96053E+00 -1.90265E+00 -1.80354E+00 -1.69279E+00 -1.62089E+00 -1.59530E+00 -1.61905E+00 -1.69691E+00 -1.79075E+00 -1.85114E+00
  -1.87379E+00 -1.89369E+00 -1.91927E+00 -1.93160E+00 -1.91242E+00 -1.85482E+00 -1.78009E+00 -1.69346E+00 -1.50915E+00 -1.09496E+00
  -5.32222E-01 -9.63736E-02  9.63738E-02 -1.02342E-02 -4.65304E-01 -1.06385E+00 -1.48010E+00 -1.60277E+00 -1.62679E+00 -1.66930E+00
  -1.68624E+00 -1.68599E+00 -1.67791E+00 -1.66787E+00 -1.65609E+00 -1.64442E+00 -1.63479E+00 -1.62447E+00 -1.61160E+00 -1.59708E+00
  -1.57326E+00 -1.51024E+00 -1.32349E+00 -9.60873E-01 -5.67686E-01 -3.11129E-01 -2.33434E-01 -3.89043E-01 -7.48398E-01 -1.12246E+00
  -1.32432E+00 -1.37963E+00 -1.42206E+00 -1.45802E+00 -1.46959E+00 -1.46581E+00 -1.45647E+00 -1.45073E+00 -1.45290E+00 -1.45931E+00
  -1.46522E+00 -1.46818E+00 -1.46056E+00 -1.44503E+00 -1.43424E+00 -1.43555E+00 -1.44977E+00 -1.46885E+00 -1.48365E+00 -1.49429E+00
  -1.50975E+00 -1.53042E+00 -1.54387E+00 -1.54160E+00 -1.51781E+00 -1.48225E+00 -1.47375E+00 -1.52464E+00 -1.61678E+00 -1.70096E+00
  -1.73635E+00 -1.69443E+00 -1.59764E+00 -1.51568E+00 -1.49628E+00 -1.54965E+00 -1.63992E+00 -1.70599E+00 -1.71674E+00 -1.69021E+00
  -1.66645E+00 -1.67415E+00 -1.73070E+00 -1.80905E+00 -1.84110E+00 -1.80596E+00 -1.73682E+00 -1.67386E+00 -1.65547E+00 -1.67748E+00
  -1.69638E+00 -1.66276E+00 -1.57931E+00 -1.50277E+00 -1.45619E+00 -1.42195E+00 -1.37028E+00 -1.27384E+00 -1.14876E+00 -1.06321E+00
  -1.05364E+00 -1.08645E+00 -1.10156E+00 -1.08082E+00 -1.05201E+00 -1.02992E+00 -1.02540E+00 -1.05599E+00 -1.10369E+00 -1.11646E+00
  -1.06020E+00 -9.68718E-01 -8.91066E-01 -8.48746E-01 -8.77164E-01 -9.84450E-01 -1.13647E+00 -1.27454E+00 -1.36950E+00 -1.42944E+00
  -1.41279E+00 -1.26499E+00 -9.81793E-01 -6.63319E-01 -4.43466E-01 -3.82482E-01 -5.30100E-01 -8.74030E-01 -1.29029E+00 -1.61774E+00
  -1.74463E+00 -1.67941E+00 -1.45806E+00 -1.10834E+00 -7.34845E-01 -4.84776E-01 -4.17166E-01 -4.59590E-01 -5.12919E-01 -5.49907E-01
  -5.62826E-01 -5.21724E-01 -4.32919E-01 -3.36948E-01 -2.71232E-01 -2.44196E-01 -2.53801E-01 -2.96604E-01 -3.47906E-01 -3.81402E-01
  -3.68636E-01 -2.86187E-01 -1.42266E-01  3.13186E-02  1.87016E-01  2.82981E-01  2.96259E-01  2.56613E-01  2.27881E-01  2.53764E-01
   4.20938E-01  9.31513E-01  1.81209E+00  2.65347E+00  3.18003E+00  3.63110E+00  4.51548E+00  5.89601E+00  7.05984E+00  7.67864E+00
   7.43130E+00  5.75737E+00  3.28425E+00  1.33546E+00  5.85858E-01  3.74380E-01  9.78130E-02 -7.03821E-02 -1.54386E-01 -2.06918E-01
  -2.27398E-01 -2.20745E-01 -2.13978E-01 -2.22377E-01 -2.49050E-01 -2.92994E-01 -3.48236E-01 -3.98701E-01 -4.31804E-01 -4.49197E-01
  -4.59816E-01 -4.65154E-01 -4.63605E-01 -4.61634E-01 -4.66195E-01 -4.75395E-01 -4.83934E-01 -4.88711E-01 -4.86124E-01 -4.74151E-01
  -4.55028E-01 -4.32402E-01 -4.10537E-01 -3.93493E-01 -3.81682E-01 -3.70634E-01 -3.56167E-01 -3.38188E-01 -3.16403E-01 -2.89226E-01
  -2.57720E-01 -2.25719E-01 -1.96680E-01 -1.70691E-01 -1.46802E-01 -1.25603E-01 -1.06987E-01 -9.07585E-02 -7.70393E-02 -6.59575E-02
  -5.74979E-02 -5.14394E-02 -4.74119E-02 -4.49910E-02 -4.36892E-02 -4.29619E-02 -4.22901E-02 -4.12274E-02 -3.93562E-02 -3.63322E-02
  -3.19448E-02 -2.60525E-02 -1.85699E-02 -9.50050E-03  1.02534E-03  1.27495E-02  2.53306E-02  3.84107E-02  5.16418E-02  6.46641E-02
   7.70764E-02  8.84724E-02  9.84976E-02  1.06885E-01  1.13455E-01  1.18091E-01  1.20720E-01  1.21353E-01  1.20138E-01  1.17392E-01
   1.13603E-01  1.09462E-01  1.05952E-01  1.04368E-01  1.06275E-01  1.13719E-01  1.29291E-01  1.55670E-01  1.95244E-01  2.49688E-01
   3.19214E-01  4.01837E-01  4.92951E-01  5.85743E-01  6.71952E-01  7.42780E-01  7.90406E-01  8.09518E-01  7.98292E-01  7.58494E-01
   6.95038E-01  6.15262E-01  5.27578E-01  4.39969E-01  3.58904E-01  2.88721E-01  2.31539E-01  1.87557E-01  1.55581E-01  1.33628E-01
   1.19471E-01  1.11062E-01  1.06760E-01  1.05400E-01  1.06235E-01  1.08854E-01  1.13101E-01  1.19020E-01  1.26792E-01  1.36669E-01
   1.48915E-01  1.63796E-01  1.81584E-01  2.02566E-01  2.27022E-01  2.55199E-01  2.87275E-01  3.23365E-01  3.63524E-01  4.07734E-01
   4.55867E-01  5.07653E-01  5.62653E-01  6.20276E-01  6.79789E-01  7.40321E-01  8.00850E-01  8.60219E-01  9.17177E-01  9.70445E-01
   1.01877E+00  1.06099E+00  1.09602E+00  1.12297E+00  1.14113E+00  1.15010E+00  1.14975E+00  1.14023E+00  1.12196E+00  1.09561E+00
   1.06205E+00  1.02235E+00  9.77712E-01  9.29374E-01  8.78569E-01  8.26480E-01  7.74216E-01  7.22779E-01  6.73024E-01  6.25635E-01
   5.81119E-01  5.39835E-01  5.02011E-01  4.67762E-01  4.37084E-01  4.09872E-01  3.85948E-01  3.65100E-01  3.47103E-01  3.31722E-01
   3.18703E-01  3.07787E-01  2.98726E-01  2.91308E-01  2.85347E-01  2.80674E-01  2.77124E-01  2.74542E-01  2.72800E-01  2.71802E-01
   2.71470E-01  2.71726E-01  2.72491E-01  2.73691E-01  2.75278E-01  2.77221E-01  2.79491E-01  2.82050E-01  2.84856E-01  2.87876E-01
   2.91096E-01  2.94510E-01  2.98105E-01  3.01856E-01  3.05737E-01  3.09736E-01  3.13853E-01  3.18090E-01  3.22434E-01  3.26866E-01
   3.31370E-01  3.35947E-01  3.40602E-01  3.45338E-01  3.50140E-01  3.54992E-01  3.59886E-01  3.64831E-01  3.69834E-01  3.74892E-01
   3.79989E-01  3.85115E-01  3.90271E-01  3.95467E-01  4.00707E-01  4.05984E-01  4.11284E-01  4.16600E-01  4.21939E-01  4.27312E-01
   4.32720E-01  4.38150E-01  4.43591E-01  4.49044E-01  4.54519E-01  4.60024E-01  4.65554E-01  4.71096E-01  4.76643E-01  4.82201E-01
   4.87782E-01  4.93390E-01  4.99013E-01  5.04641E-01  5.10273E-01  5.15920E-01  5.21591E-01  5.27284E-01
 NY background values follow
    -2.495E+00   -2.489E+00   -2.483E+00   -2.477E+00   -2.471E+00   -2.465E+00   -2.459E+00   -2.453E+00   -2.447E+00   -2.441E+00
    -2.435E+00   -2.429E+00   -2.423E+00   -2.417E+00   -2.411E+00   -2.405E+00   -2.399E+00   -2.393E+00   -2.386E+00   -2.380E+00
    -2.374E+00   -2.368E+00   -2.362E+00   -2.356E+00   -2.350E+00   -2.344E+00   -2.338E+00   -2.332E+00   -2.326E+00   -2.320E+00
    -2.314E+00   -2.308E+00   -2.302E+00   -2.296E+00   -2.290E+00   -2.284E+00   -2.278E+00   -2.272E+00   -2.266E+00   -2.260E+00
    -2.254E+00   -2.248E+00   -2.242E+00   -2.236E+00   -2.230E+00   -2.224E+00   -2.217E+00   -2.211E+00   -2.205E+00   -2.199E+00
    -2.193E+00   -2.187E+00   -2.181E+00   -2.175E+00   -2.169E+00   -2.163E+00   -2.157E+00   -2.151E+00   -2.145E+00   -2.139E+00
    -2.133E+00   -2.127E+00   -2.121E+00   -2.115E+00   -2.109E+00   -2.103E+00   -2.097E+00   -2.091E+00   -2.085E+00   -2.079E+00
    -2.073E+00   -2.067E+00   -2.061E+00   -2.054E+00   -2.048E+00   -2.042E+00   -2.036E+00   -2.030E+00   -2.024E+00   -2.018E+00
    -2.012E+00   -2.006E+00   -2.000E+00   -1.994E+00   -1.988E+00   -1.982E+00   -1.976E+00   -1.970E+00   -1.964E+00   -1.958E+00
    -1.952E+00   -1.946E+00   -1.940E+00   -1.934E+00   -1.928E+00   -1.922E+00   -1.916E+00   -1.910E+00   -1.904E+00   -1.898E+00
    -1.892E+00   -1.885E+00   -1.879E+00   -1.873E+00   -1.867E+00   -1.861E+00   -1.855E+00   -1.849E+00   -1.843E+00   -1.837E+00
    -1.831E+00   -1.825E+00   -1.819E+00   -1.813E+00   -1.807E+00   -1.801E+00   -1.795E+00   -1.789E+00   -1.783E+00   -1.777E+00
    -1.771E+00   -1.765E+00   -1.759E+00   -1.753E+00   -1.747E+00   -1.741E+00   -1.735E+00   -1.729E+00   -1.723E+00   -1.716E+00
    -1.710E+00   -1.704E+00   -1.698E+00   -1.692E+00   -1.686E+00   -1.680E+00   -1.674E+00   -1.668E+00   -1.662E+00   -1.656E+00
    -1.650E+00   -1.644E+00   -1.638E+00   -1.632E+00   -1.626E+00   -1.620E+00   -1.614E+00   -1.608E+00   -1.602E+00   -1.596E+00
    -1.590E+00   -1.584E+00   -1.578E+00   -1.572E+00   -1.566E+00   -1.560E+00   -1.553E+00   -1.547E+00   -1.541E+00   -1.535E+00
    -1.529E+00   -1.523E+00   -1.517E+00   -1.511E+00   -1.505E+00   -1.499E+00   -1.493E+00   -1.487E+00   -1.481E+00   -1.475E+00
    -1.469E+00   -1.463E+00   -1.457E+00   -1.451E+00   -1.445E+00   -1.439E+00   -1.433E+00   -1.427E+00   -1.421E+00   -1.415E+00
    -1.409E+00   -1.403E+00   -1.397E+00   -1.391E+00   -1.384E+00   -1.378E+00   -1.372E+00   -1.366E+00   -1.360E+00   -1.354E+00
    -1.348E+00   -1.342E+00   -1.336E+00   -1.330E+00   -1.324E+00   -1.318E+00   -1.312E+00   -1.306E+00   -1.300E+00   -1.294E+00
    -1.288E+00   -1.282E+00   -1.276E+00   -1.270E+00   -1.264E+00   -1.258E+00   -1.252E+00   -1.246E+00   -1.240E+00   -1.234E+00
    -1.228E+00   -1.222E+00   -1.215E+00   -1.209E+00   -1.203E+00   -1.197E+00   -1.191E+00   -1.185E+00   -1.179E+00   -1.173E+00
    -1.167E+00   -1.161E+00   -1.155E+00   -1.149E+00   -1.143E+00   -1.137E+00   -1.131E+00   -1.125E+00   -1.119E+00   -1.113E+00
    -1.107E+00   -1.101E+00   -1.095E+00   -1.089E+00   -1.083E+00   -1.077E+00   -1.071E+00   -1.065E+00   -1.059E+00   -1.053E+00
    -1.046E+00   -1.040E+00   -1.034E+00   -1.028E+00   -1.022E+00   -1.016E+00   -1.010E+00   -1.004E+00   -9.982E-01   -9.922E-01
    -9.861E-01   -9.801E-01   -9.741E-01   -9.680E-01   -9.620E-01   -9.560E-01   -9.499E-01   -9.439E-01   -9.379E-01   -9.318E-01
    -9.258E-01   -9.198E-01   -9.137E-01   -9.077E-01   -9.017E-01   -8.956E-01   -8.896E-01   -8.835E-01   -8.775E-01   -8.715E-01
    -8.654E-01   -8.594E-01   -8.534E-01   -8.473E-01   -8.413E-01   -8.353E-01   -8.292E-01   -8.232E-01   -8.172E-01   -8.111E-01
    -8.051E-01   -7.991E-01   -7.930E-01   -7.870E-01   -7.809E-01   -7.749E-01   -7.689E-01   -7.628E-01   -7.568E-01   -7.508E-01
    -7.447E-01   -7.387E-01   -7.327E-01   -7.266E-01   -7.206E-01   -7.146E-01   -7.085E-01   -7.025E-01   -6.965E-01   -6.904E-01
    -6.844E-01   -6.784E-01   -6.723E-01   -6.663E-01   -6.602E-01   -6.542E-01   -6.482E-01   -6.421E-01   -6.361E-01   -6.301E-01
    -6.240E-01   -6.180E-01   -6.120E-01   -6.059E-01   -5.999E-01   -5.939E-01   -5.878E-01   -5.818E-01   -5.758E-01   -5.697E-01
    -5.637E-01   -5.577E-01   -5.516E-01   -5.456E-01   -5.395E-01   -5.335E-01   -5.275E-01   -5.214E-01   -5.154E-01   -5.094E-01
    -5.033E-01   -4.973E-01   -4.913E-01   -4.852E-01   -4.792E-01   -4.732E-01   -4.671E-01   -4.611E-01   -4.551E-01   -4.490E-01
    -4.430E-01   -4.370E-01   -4.309E-01   -4.249E-01   -4.188E-01   -4.128E-01   -4.068E-01   -4.007E-01   -3.947E-01   -3.887E-01
    -3.826E-01   -3.766E-01   -3.706E-01   -3.645E-01   -3.585E-01   -3.525E-01   -3.464E-01   -3.404E-01   -3.344E-01   -3.283E-01
    -3.223E-01   -3.163E-01   -3.102E-01   -3.042E-01   -2.982E-01   -2.921E-01   -2.861E-01   -2.800E-01   -2.740E-01   -2.680E-01
    -2.619E-01   -2.559E-01   -2.499E-01   -2.438E-01   -2.378E-01   -2.318E-01   -2.257E-01   -2.197E-01   -2.137E-01   -2.076E-01
    -2.016E-01   -1.956E-01   -1.895E-01   -1.835E-01   -1.775E-01   -1.714E-01   -1.654E-01   -1.594E-01   -1.533E-01   -1.473E-01
    -1.412E-01   -1.352E-01   -1.292E-01   -1.231E-01   -1.171E-01   -1.111E-01   -1.050E-01   -9.900E-02   -9.297E-02   -8.693E-02
    -8.090E-02   -7.486E-02   -6.883E-02   -6.279E-02   -5.676E-02   -5.072E-02   -4.469E-02   -3.865E-02   -3.262E-02   -2.658E-02
    -2.055E-02   -1.451E-02   -8.480E-03   -2.445E-03    3.590E-03    9.625E-03    1.566E-02    2.169E-02    2.773E-02    3.376E-02
     3.980E-02    4.583E-02    5.187E-02    5.790E-02    6.394E-02    6.997E-02    7.601E-02    8.204E-02    8.808E-02    9.411E-02
     1.001E-01    1.062E-01    1.122E-01    1.183E-01    1.243E-01    1.303E-01    1.364E-01    1.424E-01    1.484E-01    1.545E-01
     1.605E-01    1.665E-01    1.726E-01    1.786E-01    1.846E-01    1.907E-01    1.967E-01    2.027E-01    2.088E-01    2.148E-01
     2.208E-01    2.269E-01    2.329E-01    2.389E-01    2.450E-01    2.510E-01    2.571E-01    2.631E-01    2.691E-01    2.752E-01
     2.812E-01    2.872E-01    2.933E-01    2.993E-01    3.053E-01    3.114E-01    3.174E-01    3.234E-01    3.295E-01    3.355E-01
     3.415E-01    3.476E-01    3.536E-01    3.596E-01    3.657E-01    3.717E-01    3.778E-01    3.838E-01    3.898E-01    3.959E-01
     4.019E-01    4.079E-01    4.140E-01    4.200E-01    4.260E-01    4.321E-01    4.381E-01    4.441E-01    4.502E-01    4.562E-01
     4.622E-01    4.683E-01    4.743E-01    4.803E-01    4.864E-01    4.924E-01    4.984E-01    5.045E-01
 Asp      Conc. = 1.67E+01
