 LCModel (Version 6.3-1L) Copyright: S.W. Provencher.          Ref.: Magn. Reson. Med. 30:672-679 (1993).                
 Slice#2 Row#8 Col#4  PD_05_press_1_raw_act
 36 lines in following concentration table = NCONC+1
    Conc.  %SD /Cr+PCr  Metabolite                                         
  122.557  66% 9.5E-02 Ala                                                 
    0.000 999%   0.000 Asp                                                 
  435.434  39%   0.338 Cr                                                  
  853.370  21%   0.662 PCr                                                 
   50.926 259% 4.0E-02 GABA                                                
    0.000 999%   0.000 Glc                                                 
  624.927  28%   0.485 Gln                                                 
 1.80E+03  12%   1.393 Glu                                                 
  431.812   4%   0.335 GPC                                                 
    0.000 999%   0.000 PCh                                                 
  363.404  15%   0.282 GSH                                                 
  705.761  27%   0.548 Ins                                                 
    0.000 999%   0.000 Lac                                                 
 2.23E+03   5%   1.728 NAA                                                 
  402.841  26%   0.313 NAAG                                                
   68.059  30% 5.3E-02 Scyllo                                              
    0.000 999%   0.000 Tau                                                 
   13.626 627% 1.1E-02 -CrCH2                                              
  431.812   4%   0.335 GPC+PCh                                             
 2.63E+03   3%   2.040 NAA+NAAG                                            
 1.29E+03   3%   1.000 Cr+PCr                                              
 2.42E+03  12%   1.878 Glu+Gln                                             
    0.000 999%   0.000 Lip13a                                              
  108.405  70% 8.4E-02 Lip13b                                              
    0.000 999%   0.000 Lip09                                               
 1.00E+03  17%   0.776 MM09                                                
   27.141 194% 2.1E-02 Lip20                                               
 2.44E+03  12%   1.890 MM20                                                
  295.483  32%   0.229 MM12                                                
 1.26E+03  19%   0.981 MM14                                                
  739.829  24%   0.574 MM17                                                
  108.405  70% 8.4E-02 Lip13a+Lip13b                                       
 1.67E+03  17%   1.295 MM14+Lip13a+Lip13b+MM12                             
 1.00E+03  17%   0.776 MM09+Lip09                                          
 2.46E+03  12%   1.911 MM20+Lip20                                          
   6 lines in following misc. output table
  FWHM = 0.054 ppm    S/N =  17                                            
  Data shift = 0.015 ppm                                                   
  Ph: -35 deg     -10.1 deg/ppm                                            
  alphaB,S = 8.6E-01,   1.7E+02                                            
   14 spline knots.   Ns = 7(1)                                            
  (10) 4 infls.   ( 5) 1 extrs.                                            
  498 points on ppm-axis = NY
      4.000000     3.992357     3.984714     3.977070     3.969427     3.961784     3.954141     3.946497     3.938854     3.931211
      3.923568     3.915925     3.908281     3.900638     3.892995     3.885352     3.877708     3.870065     3.862422     3.854779
      3.847136     3.839492     3.831849     3.824206     3.816563     3.808919     3.801276     3.793633     3.785990     3.778347
      3.770703     3.763060     3.755417     3.747774     3.740130     3.732487     3.724844     3.717201     3.709558     3.701914
      3.694271     3.686628     3.678985     3.671341     3.663698     3.656055     3.648412     3.640769     3.633125     3.625482
      3.617839     3.610196     3.602552     3.594909     3.587266     3.579623     3.571980     3.564336     3.556693     3.549050
      3.541407     3.533763     3.526120     3.518477     3.510834     3.503191     3.495547     3.487904     3.480261     3.472618
      3.464974     3.457331     3.449688     3.442045     3.434402     3.426758     3.419115     3.411472     3.403829     3.396185
      3.388542     3.380899     3.373256     3.365613     3.357969     3.350326     3.342683     3.335040     3.327396     3.319753
      3.312110     3.304467     3.296824     3.289180     3.281537     3.273894     3.266251     3.258607     3.250964     3.243321
      3.235678     3.228034     3.220391     3.212748     3.205105     3.197462     3.189818     3.182175     3.174532     3.166889
      3.159245     3.151602     3.143959     3.136316     3.128673     3.121029     3.113386     3.105743     3.098100     3.090456
      3.082813     3.075170     3.067527     3.059884     3.052240     3.044597     3.036954     3.029311     3.021667     3.014024
      3.006381     2.998738     2.991095     2.983451     2.975808     2.968165     2.960522     2.952878     2.945235     2.937592
      2.929949     2.922306     2.914662     2.907019     2.899376     2.891733     2.884089     2.876446     2.868803     2.861160
      2.853517     2.845873     2.838230     2.830587     2.822944     2.815300     2.807657     2.800014     2.792371     2.784728
      2.777084     2.769441     2.761798     2.754155     2.746511     2.738868     2.731225     2.723582     2.715939     2.708295
      2.700652     2.693009     2.685366     2.677722     2.670079     2.662436     2.654793     2.647150     2.639506     2.631863
      2.624220     2.616577     2.608933     2.601290     2.593647     2.586004     2.578361     2.570717     2.563074     2.555431
      2.547788     2.540144     2.532501     2.524858     2.517215     2.509572     2.501928     2.494285     2.486642     2.478999
      2.471355     2.463712     2.456069     2.448426     2.440783     2.433139     2.425496     2.417853     2.410210     2.402566
      2.394923     2.387280     2.379637     2.371994     2.364350     2.356707     2.349064     2.341421     2.333777     2.326134
      2.318491     2.310848     2.303205     2.295561     2.287918     2.280275     2.272632     2.264988     2.257345     2.249702
      2.242059     2.234416     2.226772     2.219129     2.211486     2.203843     2.196199     2.188556     2.180913     2.173270
      2.165627     2.157983     2.150340     2.142697     2.135054     2.127410     2.119767     2.112124     2.104481     2.096838
      2.089194     2.081551     2.073908     2.066265     2.058621     2.050978     2.043335     2.035692     2.028049     2.020405
      2.012762     2.005119     1.997476     1.989833     1.982190     1.974546     1.966903     1.959260     1.951617     1.943974
      1.936331     1.928688     1.921045     1.913402     1.905759     1.898115     1.890472     1.882829     1.875186     1.867543
      1.859900     1.852257     1.844614     1.836971     1.829327     1.821684     1.814041     1.806398     1.798755     1.791112
      1.783469     1.775826     1.768183     1.760540     1.752896     1.745253     1.737610     1.729967     1.722324     1.714681
      1.707038     1.699395     1.691752     1.684108     1.676465     1.668822     1.661179     1.653536     1.645893     1.638250
      1.630607     1.622964     1.615321     1.607677     1.600034     1.592391     1.584748     1.577105     1.569462     1.561819
      1.554176     1.546533     1.538890     1.531246     1.523603     1.515960     1.508317     1.500674     1.493031     1.485388
      1.477745     1.470102     1.462458     1.454815     1.447172     1.439529     1.431886     1.424243     1.416600     1.408957
      1.401314     1.393671     1.386027     1.378384     1.370741     1.363098     1.355455     1.347812     1.340169     1.332526
      1.324883     1.317240     1.309596     1.301953     1.294310     1.286667     1.279024     1.271381     1.263738     1.256095
      1.248452     1.240808     1.233165     1.225522     1.217879     1.210236     1.202593     1.194950     1.187307     1.179664
      1.172021     1.164377     1.156734     1.149091     1.141448     1.133805     1.126162     1.118519     1.110876     1.103233
      1.095590     1.087946     1.080303     1.072660     1.065017     1.057374     1.049731     1.042088     1.034445     1.026802
      1.019158     1.011515     1.003872     0.996229     0.988586     0.980943     0.973300     0.965657     0.958014     0.950371
      0.942727     0.935084     0.927441     0.919798     0.912155     0.904512     0.896869     0.889226     0.881583     0.873940
      0.866296     0.858653     0.851010     0.843367     0.835724     0.828081     0.820438     0.812795     0.805152     0.797508
      0.789865     0.782222     0.774579     0.766936     0.759293     0.751650     0.744007     0.736364     0.728721     0.721077
      0.713434     0.705791     0.698148     0.690505     0.682862     0.675219     0.667576     0.659933     0.652290     0.644646
      0.637003     0.629360     0.621717     0.614074     0.606431     0.598788     0.591145     0.583502     0.575858     0.568215
      0.560572     0.552929     0.545286     0.537643     0.530000     0.522357     0.514714     0.507071     0.499427     0.491784
      0.484141     0.476498     0.468855     0.461212     0.453569     0.445925     0.438282     0.430639     0.422996     0.415353
      0.407710     0.400067     0.392424     0.384780     0.377137     0.369494     0.361851     0.354208     0.346565     0.338922
      0.331278     0.323635     0.315992     0.308349     0.300706     0.293063     0.285420     0.277777     0.270133     0.262490
      0.254847     0.247204     0.239561     0.231918     0.224275     0.216631     0.208988     0.201345
 NY phased data points follow
   7.05417E-01  4.21816E+00  3.68171E+00  6.56168E+00  1.10778E+01  1.52956E+01  1.41803E+01  1.99245E+01  2.49181E+01  2.95486E+01
   2.99885E+01  2.97739E+01  2.76672E+01  2.16835E+01  1.92707E+01  1.47788E+01  8.37818E+00  9.50321E+00  8.97866E+00  2.51680E+00
   1.95935E+00  6.81977E+00  8.15008E+00  7.13408E+00  8.18406E+00  1.07493E+01  7.93021E+00  5.88228E+00  6.38307E+00  9.68850E+00
   1.19057E+01  1.00956E+01  1.22134E+01  9.50365E+00  6.12858E+00  3.28904E+00  7.35395E+00  7.54286E+00  5.43200E+00  4.20049E+00
   2.06320E+00  6.86147E+00  6.77194E+00  5.46495E+00  9.30169E+00  9.89712E+00  1.34190E+01  1.25500E+01  9.31445E+00  1.10220E+01
   4.85124E+00  5.87467E+00  1.24599E+00  5.81261E+00  2.29624E+00  3.73708E+00  5.18163E+00  4.98768E+00  5.97374E+00  5.23234E+00
   2.68295E+00  3.74087E-01  6.42457E-01 -1.93022E+00 -1.50133E+00 -3.22476E+00 -2.38256E-01 -2.60450E+00 -5.10645E-01  6.88281E-01
  -3.34199E+00 -7.55397E-01  1.63103E-01  1.50799E+00  8.53466E-01 -2.20258E+00  3.48474E-01 -5.40371E-01 -3.22950E-01 -4.12897E-01
  -1.05682E+00  7.52769E-01  2.21374E+00  1.78394E+00  6.19349E-01  2.42620E+00  3.81437E+00  5.28014E+00  3.17821E+00  1.84359E-01
   2.82391E+00  3.46164E+00  3.94148E+00  2.99221E+00  4.91486E+00  6.02889E+00  7.24683E+00  8.91299E+00  1.34576E+01  2.03315E+01
   2.59756E+01  3.28361E+01  3.56473E+01  3.65039E+01  3.57352E+01  3.19244E+01  2.31365E+01  1.58771E+01  1.42290E+01  1.24254E+01
   1.02423E+01  6.19075E+00  7.27754E+00  2.53862E+00  3.48708E+00  4.73582E+00  3.00342E+00  5.52580E+00  6.25992E+00  5.74970E+00
   8.16479E+00  8.45629E+00  1.13417E+01  1.55999E+01  2.57225E+01  3.21106E+01  3.84644E+01  4.29342E+01  4.29047E+01  3.66357E+01
   3.23034E+01  2.44816E+01  1.55496E+01  1.38423E+01  9.76856E+00  3.82925E+00 -4.31250E-01  1.67569E+00  2.62271E+00 -1.35440E+00
  -1.29394E+00  3.67978E+00  1.91401E+00  8.85415E-01  3.25965E+00  2.99775E+00  1.72386E+00  4.50514E+00  4.23115E+00 -2.30510E+00
   8.21161E-01  1.57292E+00 -1.11684E+00  2.40226E+00  1.05014E+00  1.77711E+00  2.03556E+00 -1.11900E-02 -1.28327E+00  5.18367E-01
  -9.66339E-01 -3.28622E+00 -5.99391E+00 -1.54936E+00 -8.19604E-01 -4.33404E-01 -2.43329E+00 -6.75415E-01 -1.32680E+00 -6.89021E+00
  -6.53426E+00 -5.46791E+00 -8.14458E+00 -8.20411E+00 -9.52726E+00 -1.02982E+01 -1.15018E+01 -1.30816E+01 -5.11360E+00 -7.24827E+00
  -9.55723E+00 -9.98266E+00 -1.13161E+01 -8.35980E+00 -4.87161E+00 -6.28329E+00 -4.80020E+00 -2.44412E+00  1.46978E+00  3.58964E+00
   2.42460E+00  4.52796E+00  2.71677E+00  3.86733E+00  6.57124E+00  4.86288E+00  2.22668E+00  4.40520E+00 -1.50450E-01 -3.73619E+00
   2.14160E+00  3.36514E+00  1.71724E+00  6.96619E+00  5.13714E+00  4.19357E+00  2.51371E+00  1.21777E+00 -1.81491E+00 -2.46729E+00
  -1.94592E+00  5.17048E-02  4.21869E+00  9.55479E+00  9.80187E+00  1.02842E+01  1.51982E+01  9.86003E+00  9.71340E+00  2.40132E+00
   1.70922E+00  1.11789E-01 -3.86677E+00  1.28233E+00 -6.13507E-01  6.17192E+00  6.60363E+00  9.69058E+00  7.31734E+00  1.11538E+01
   9.21809E+00  8.67143E+00  1.16890E+01  9.58101E+00  8.51926E+00  7.45234E+00  1.04770E+01  1.04430E+01  1.04908E+01  8.27735E+00
   8.50425E+00  9.61653E+00  6.16204E+00  1.07209E+01  9.56369E+00  1.06238E+01  1.37651E+01  1.65255E+01  1.26883E+01  1.33085E+01
   2.07987E+01  2.08916E+01  2.43522E+01  3.25341E+01  3.56528E+01  4.46487E+01  4.91030E+01  6.01296E+01  7.08377E+01  8.45399E+01
   9.48228E+01  9.02805E+01  7.72840E+01  6.00444E+01  4.72882E+01  3.75638E+01  3.02603E+01  2.38644E+01  1.27011E+01  1.38684E+01
   1.33005E+01  1.34853E+01  1.38492E+01  1.37076E+01  1.10021E+01  9.19474E+00  1.05381E+01  8.46335E+00  1.02991E+01  1.12999E+01
   6.62630E+00  8.54521E+00  1.14164E+01  5.18766E+00  8.37039E+00  8.19301E+00  6.55459E+00  5.51866E+00  9.17457E+00  6.11413E+00
   7.77620E+00  8.21249E+00  8.46714E+00  7.80822E+00  7.99538E+00  7.24240E+00  7.88793E+00  7.22564E+00  1.06921E+01  8.13192E+00
   9.59563E+00  8.52435E+00  9.44841E+00  9.72857E+00  7.02325E+00  1.05248E+01  9.44563E+00  8.68822E+00  1.09561E+01  1.04427E+01
   1.18137E+01  1.16682E+01  1.29131E+01  1.27804E+01  8.78012E+00  1.14104E+01  1.28120E+01  1.16041E+01  1.43670E+01  1.26289E+01
   1.03963E+01  8.57714E+00  1.10798E+01  1.00992E+01  9.33336E+00  1.34218E+01  1.00168E+01  1.55579E+01  1.06931E+01  8.90744E+00
   8.18838E+00  7.89827E+00  1.38910E+01  1.13441E+01  1.19430E+01  1.14431E+01  1.11966E+01  1.24867E+01  1.23938E+01  1.31544E+01
   1.13483E+01  8.19219E+00  9.86834E+00  9.56005E+00  1.27765E+01  7.60264E+00  1.13729E+01  9.14408E+00  1.16233E+01  8.52538E+00
   1.15854E+01  1.19234E+01  7.31674E+00  9.16611E+00  1.25320E+01  7.42077E+00  7.19263E+00  8.41440E+00  8.58500E+00  8.32221E+00
   1.13020E+01  5.99737E+00  4.84077E+00  3.27679E+00  5.16271E+00  5.27207E+00  7.45843E+00  6.76768E+00  6.29850E+00  9.76928E+00
   7.11730E+00  8.46995E+00  7.26489E+00  8.40183E+00  8.30947E+00  4.40091E+00  6.81708E+00  3.45729E+00  6.62203E+00  4.02619E+00
   6.84983E+00  4.71061E+00  7.85658E+00  5.33870E+00  5.48952E+00  6.59937E+00  6.74899E+00  7.26368E+00  9.85754E+00  5.98188E+00
   6.04320E+00  8.96776E+00  7.64063E+00  7.32625E+00  9.53303E+00  8.70257E+00  8.58591E+00  7.18679E+00  1.08835E+01  7.14922E+00
   8.91787E+00  6.46686E+00  7.91129E+00  1.23037E+01  1.01726E+01  7.27176E+00  8.54417E+00  9.65196E+00  8.46623E+00  8.14982E+00
   7.06032E+00  9.18344E+00  6.02997E+00  9.25153E+00  5.05613E+00  7.61440E+00  8.22342E+00  3.91009E+00  9.63038E+00  3.68178E+00
   5.24728E+00  3.86325E+00  2.79087E+00  5.83341E+00  5.76075E+00  5.02680E+00  3.35534E+00  5.79272E+00  5.81895E+00  4.54037E+00
   4.55910E+00  8.35748E+00  4.68156E+00  4.46204E+00  5.02287E+00  3.43477E+00  5.34451E+00  6.41943E-01  4.80652E+00  5.22638E+00
   2.52377E+00  2.79878E+00  5.57309E+00  9.25255E-01  1.53947E+00  3.50400E+00  3.07150E+00  3.46947E+00  3.72201E+00  3.36544E+00
   5.95352E+00  4.14050E+00  4.79493E+00  1.57751E+00  4.88516E+00  4.40629E+00  4.83949E+00  5.08275E+00  1.63897E+00  3.19693E+00
   3.56554E+00  3.48072E+00  4.99195E+00  5.18529E+00  4.22252E+00  1.45196E+00  1.27392E+00  4.65328E+00  2.73631E+00  2.62349E+00
   3.60129E+00  2.65091E+00  2.84203E+00  3.80563E+00  2.95134E+00  3.80808E+00  4.28148E+00  3.24683E+00  3.71449E+00  2.52674E+00
   2.51076E+00  3.77303E+00  5.15568E+00  1.61119E+00  4.99949E+00  5.46672E+00  3.59814E+00  3.52798E+00  3.37366E+00  7.88702E+00
   8.01425E+00  3.46443E+00  6.20540E+00  5.35563E+00  2.73110E+00  3.83648E+00  4.16064E+00  3.71709E+00
 NY points of the fit to the data follow
   3.66789E+00  3.84147E+00  4.70643E+00  6.46914E+00  8.94724E+00  1.22035E+01  1.61936E+01  2.08049E+01  2.54748E+01  2.91131E+01
   3.05960E+01  2.94632E+01  2.62333E+01  2.20605E+01  1.80264E+01  1.46109E+01  1.17102E+01  9.17486E+00  7.25952E+00  6.10781E+00
   5.49762E+00  5.14963E+00  4.95067E+00  5.01102E+00  5.10196E+00  5.30850E+00  5.86700E+00  6.94676E+00  8.53415E+00  1.03099E+01
   1.18226E+01  1.26182E+01  1.24582E+01  1.14566E+01  9.84326E+00  7.90157E+00  5.96450E+00  4.29926E+00  3.32532E+00  3.26237E+00
   3.79607E+00  4.60589E+00  5.47895E+00  6.40717E+00  7.38540E+00  8.28401E+00  8.87737E+00  8.87334E+00  8.19419E+00  7.06817E+00
   5.79094E+00  4.66658E+00  3.86524E+00  3.29544E+00  2.86935E+00  2.64677E+00  2.68009E+00  2.87725E+00  3.08436E+00  3.19097E+00
   3.11491E+00  2.81934E+00  2.36579E+00  1.88273E+00  1.52940E+00  1.37430E+00  1.36527E+00  1.45014E+00  1.60739E+00  1.79977E+00
   1.98565E+00  2.11089E+00  2.13159E+00  2.04557E+00  1.88689E+00  1.71037E+00  1.56285E+00  1.45434E+00  1.38458E+00  1.39420E+00
   1.56497E+00  1.79030E+00  2.05128E+00  2.40244E+00  2.82660E+00  3.20476E+00  3.36816E+00  3.20433E+00  2.76503E+00  2.26341E+00
   1.88807E+00  1.71692E+00  1.70550E+00  1.76936E+00  1.96238E+00  2.85025E+00  5.35788E+00  8.84988E+00  1.30224E+01  1.84157E+01
   2.51439E+01  3.21941E+01  3.75692E+01  3.92386E+01  3.65488E+01  3.07392E+01  2.39839E+01  1.80211E+01  1.33285E+01  9.38188E+00
   5.75365E+00  2.97115E+00  1.74842E+00  1.41784E+00  1.33660E+00  1.35281E+00  1.42436E+00  1.55819E+00  1.81527E+00  2.47507E+00
   4.57730E+00  8.22580E+00  1.25481E+01  1.78801E+01  2.46864E+01  3.24439E+01  3.94235E+01  4.32498E+01  4.23683E+01  3.73394E+01
   3.03242E+01  2.35091E+01  1.79080E+01  1.31500E+01  8.55413E+00  4.40486E+00  1.93243E+00  1.21669E+00  1.25527E+00  1.60079E+00
   1.98176E+00  2.24307E+00  2.35240E+00  2.30480E+00  2.12292E+00  1.87982E+00  1.60689E+00  1.29568E+00  9.73479E-01  6.65421E-01
   4.00060E-01  1.85825E-01  1.79826E-02 -1.11292E-01 -2.50944E-01 -3.73934E-01 -4.71370E-01 -6.07939E-01 -8.21387E-01 -1.17310E+00
  -1.57159E+00 -1.79477E+00 -1.74331E+00 -1.53774E+00 -1.39984E+00 -1.53035E+00 -1.95656E+00 -2.50425E+00 -2.98254E+00 -3.35976E+00
  -3.70531E+00 -4.01050E+00 -4.35273E+00 -4.74544E+00 -5.11732E+00 -5.34753E+00 -5.28737E+00 -4.96682E+00 -4.62741E+00 -4.47317E+00
  -4.53382E+00 -4.57214E+00 -4.34035E+00 -3.85443E+00 -3.26656E+00 -2.65385E+00 -1.90712E+00 -8.20858E-01  5.81150E-01  1.97417E+00
   2.95439E+00  3.29489E+00  3.12809E+00  2.69774E+00  2.23080E+00  1.86335E+00  1.67487E+00  1.84751E+00  2.44553E+00  3.39220E+00
   4.53321E+00  5.66025E+00  6.50402E+00  6.71632E+00  6.26976E+00  5.13605E+00  3.30257E+00  1.13212E+00 -7.34386E-01 -1.62383E+00
  -1.36999E+00 -1.28288E-01  1.99508E+00  4.73511E+00  7.45860E+00  9.26260E+00  9.46120E+00  8.04004E+00  5.42567E+00  2.16793E+00
  -8.13107E-01 -2.80107E+00 -3.42603E+00 -2.53189E+00 -3.76588E-01  2.46976E+00  5.16349E+00  7.10473E+00  8.25223E+00  8.84166E+00
   9.16736E+00  9.28433E+00  9.29558E+00  9.47347E+00  9.90262E+00  1.03781E+01  1.06896E+01  1.08241E+01  1.07729E+01  1.04645E+01
   9.89044E+00  9.33674E+00  9.16377E+00  9.52269E+00  1.03024E+01  1.12668E+01  1.22517E+01  1.31175E+01  1.40519E+01  1.54022E+01
   1.70623E+01  1.91107E+01  2.20568E+01  2.77377E+01  3.62251E+01  4.48035E+01  5.34018E+01  6.32432E+01  7.43868E+01  8.46160E+01
   9.00709E+01  8.76055E+01  7.75025E+01  6.34190E+01  4.98790E+01  3.92999E+01  3.09983E+01  2.33712E+01  1.63903E+01  1.20280E+01
   1.05255E+01  9.89917E+00  9.58903E+00  9.46369E+00  9.37575E+00  9.21894E+00  8.99826E+00  8.72733E+00  8.43851E+00  8.16502E+00
   7.92191E+00  7.70657E+00  7.53300E+00  7.41367E+00  7.33621E+00  7.27841E+00  7.23090E+00  7.20097E+00  7.19981E+00  7.23042E+00
   7.29130E+00  7.38515E+00  7.50652E+00  7.64383E+00  7.78956E+00  7.94352E+00  8.10855E+00  8.28742E+00  8.48166E+00  8.69130E+00
   8.91665E+00  9.15459E+00  9.39550E+00  9.62886E+00  9.84739E+00  1.00469E+01  1.02238E+01  1.03736E+01  1.04942E+01  1.05875E+01
   1.06549E+01  1.06985E+01  1.07219E+01  1.07298E+01  1.07280E+01  1.07229E+01  1.07216E+01  1.07321E+01  1.07650E+01  1.08387E+01
   1.09809E+01  1.11509E+01  1.13051E+01  1.14612E+01  1.16047E+01  1.16674E+01  1.15610E+01  1.12343E+01  1.07742E+01  1.03503E+01
   1.00557E+01  9.94877E+00  1.00494E+01  1.03358E+01  1.07589E+01  1.12452E+01  1.16824E+01  1.19262E+01  1.19276E+01  1.17655E+01
   1.15317E+01  1.12690E+01  1.09661E+01  1.06156E+01  1.02761E+01  1.00021E+01  9.78085E+00  9.60497E+00  9.47281E+00  9.38129E+00
   9.32338E+00  9.28755E+00  9.25865E+00  9.21970E+00  9.15434E+00  9.04964E+00  8.89854E+00  8.70134E+00  8.46545E+00  8.20365E+00
   7.93128E+00  7.66349E+00  7.41299E+00  7.18867E+00  6.99509E+00  6.83272E+00  6.69883E+00  6.58896E+00  6.49820E+00  6.42227E+00
   6.35782E+00  6.30254E+00  6.25503E+00  6.21487E+00  6.18248E+00  6.15896E+00  6.14570E+00  6.14409E+00  6.15551E+00  6.18141E+00
   6.22335E+00  6.28280E+00  6.36100E+00  6.45877E+00  6.57660E+00  6.71478E+00  6.87331E+00  7.05170E+00  7.24875E+00  7.46254E+00
   7.69056E+00  7.92977E+00  8.17658E+00  8.42667E+00  8.67506E+00  8.91627E+00  9.14468E+00  9.35469E+00  9.54086E+00  9.69794E+00
   9.82113E+00  9.90639E+00  9.95079E+00  9.95256E+00  9.91104E+00  9.82664E+00  9.70086E+00  9.53638E+00  9.33698E+00  9.10721E+00
   8.85210E+00  8.57691E+00  8.28704E+00  7.98790E+00  7.68477E+00  7.38245E+00  7.08510E+00  6.79617E+00  6.51850E+00  6.25443E+00
   6.00569E+00  5.77335E+00  5.55783E+00  5.35909E+00  5.17684E+00  5.01060E+00  4.85967E+00  4.72309E+00  4.59975E+00  4.48851E+00
   4.38839E+00  4.29847E+00  4.21783E+00  4.14551E+00  4.08055E+00  4.02217E+00  3.96979E+00  3.92287E+00  3.88087E+00  3.84320E+00
   3.80935E+00  3.77896E+00  3.75182E+00  3.72769E+00  3.70623E+00  3.68712E+00  3.67011E+00  3.65509E+00  3.64200E+00  3.63070E+00
   3.62097E+00  3.61262E+00  3.60555E+00  3.59976E+00  3.59525E+00  3.59189E+00  3.58952E+00  3.58802E+00  3.58739E+00  3.58767E+00
   3.58883E+00  3.59075E+00  3.59331E+00  3.59647E+00  3.60027E+00  3.60475E+00  3.60987E+00  3.61549E+00  3.62153E+00  3.62800E+00
   3.63499E+00  3.64250E+00  3.65045E+00  3.65873E+00  3.66731E+00  3.67625E+00  3.68560E+00  3.69534E+00  3.70537E+00  3.71560E+00
   3.72605E+00  3.73680E+00  3.74788E+00  3.75923E+00  3.77074E+00  3.78238E+00  3.79421E+00  3.80629E+00  3.81863E+00  3.83113E+00
   3.84371E+00  3.85638E+00  3.86922E+00  3.88228E+00  3.89551E+00  3.90883E+00  3.92219E+00  3.93565E+00
 NY background values follow
     6.169E-01    6.030E-01    5.889E-01    5.748E-01    5.605E-01    5.462E-01    5.319E-01    5.175E-01    5.030E-01    4.884E-01
     4.738E-01    4.592E-01    4.445E-01    4.299E-01    4.151E-01    4.004E-01    3.856E-01    3.709E-01    3.561E-01    3.413E-01
     3.266E-01    3.118E-01    2.971E-01    2.824E-01    2.677E-01    2.530E-01    2.384E-01    2.238E-01    2.093E-01    1.949E-01
     1.804E-01    1.661E-01    1.518E-01    1.376E-01    1.235E-01    1.095E-01    9.553E-02    8.169E-02    6.794E-02    5.431E-02
     4.079E-02    2.738E-02    1.410E-02    9.469E-04   -1.207E-02   -2.495E-02   -3.769E-02   -5.028E-02   -6.273E-02   -7.503E-02
    -8.720E-02   -9.922E-02   -1.111E-01   -1.229E-01   -1.345E-01   -1.459E-01   -1.573E-01   -1.685E-01   -1.795E-01   -1.905E-01
    -2.013E-01   -2.120E-01   -2.225E-01   -2.329E-01   -2.432E-01   -2.534E-01   -2.634E-01   -2.733E-01   -2.831E-01   -2.928E-01
    -3.024E-01   -3.118E-01   -3.211E-01   -3.303E-01   -3.394E-01   -3.483E-01   -3.572E-01   -3.659E-01   -3.746E-01   -3.831E-01
    -3.915E-01   -3.998E-01   -4.079E-01   -4.160E-01   -4.240E-01   -4.319E-01   -4.396E-01   -4.473E-01   -4.548E-01   -4.623E-01
    -4.696E-01   -4.769E-01   -4.840E-01   -4.911E-01   -4.981E-01   -5.049E-01   -5.117E-01   -5.183E-01   -5.249E-01   -5.313E-01
    -5.377E-01   -5.439E-01   -5.501E-01   -5.561E-01   -5.621E-01   -5.679E-01   -5.736E-01   -5.792E-01   -5.848E-01   -5.902E-01
    -5.955E-01   -6.007E-01   -6.058E-01   -6.108E-01   -6.156E-01   -6.204E-01   -6.251E-01   -6.296E-01   -6.340E-01   -6.384E-01
    -6.426E-01   -6.467E-01   -6.507E-01   -6.546E-01   -6.584E-01   -6.620E-01   -6.656E-01   -6.690E-01   -6.723E-01   -6.755E-01
    -6.786E-01   -6.816E-01   -6.845E-01   -6.872E-01   -6.898E-01   -6.924E-01   -6.947E-01   -6.970E-01   -6.991E-01   -7.011E-01
    -7.028E-01   -7.043E-01   -7.055E-01   -7.065E-01   -7.071E-01   -7.074E-01   -7.073E-01   -7.069E-01   -7.060E-01   -7.047E-01
    -7.030E-01   -7.007E-01   -6.980E-01   -6.946E-01   -6.908E-01   -6.863E-01   -6.812E-01   -6.755E-01   -6.691E-01   -6.619E-01
    -6.541E-01   -6.455E-01   -6.362E-01   -6.260E-01   -6.150E-01   -6.032E-01   -5.905E-01   -5.769E-01   -5.623E-01   -5.468E-01
    -5.304E-01   -5.129E-01   -4.944E-01   -4.748E-01   -4.541E-01   -4.323E-01   -4.094E-01   -3.854E-01   -3.601E-01   -3.336E-01
    -3.059E-01   -2.769E-01   -2.467E-01   -2.152E-01   -1.825E-01   -1.486E-01   -1.136E-01   -7.750E-02   -4.032E-02   -2.115E-03
     3.709E-02    7.726E-02    1.184E-01    1.604E-01    2.032E-01    2.469E-01    2.914E-01    3.366E-01    3.825E-01    4.292E-01
     4.765E-01    5.244E-01    5.728E-01    6.219E-01    6.714E-01    7.215E-01    7.719E-01    8.228E-01    8.741E-01    9.257E-01
     9.776E-01    1.030E+00    1.082E+00    1.135E+00    1.188E+00    1.241E+00    1.294E+00    1.347E+00    1.400E+00    1.453E+00
     1.506E+00    1.559E+00    1.612E+00    1.665E+00    1.717E+00    1.770E+00    1.822E+00    1.874E+00    1.925E+00    1.976E+00
     2.027E+00    2.078E+00    2.128E+00    2.178E+00    2.228E+00    2.277E+00    2.326E+00    2.374E+00    2.422E+00    2.470E+00
     2.517E+00    2.564E+00    2.610E+00    2.656E+00    2.701E+00    2.746E+00    2.791E+00    2.835E+00    2.878E+00    2.921E+00
     2.963E+00    3.005E+00    3.046E+00    3.087E+00    3.127E+00    3.167E+00    3.206E+00    3.244E+00    3.282E+00    3.319E+00
     3.355E+00    3.391E+00    3.426E+00    3.460E+00    3.494E+00    3.527E+00    3.559E+00    3.591E+00    3.622E+00    3.652E+00
     3.681E+00    3.710E+00    3.738E+00    3.765E+00    3.791E+00    3.817E+00    3.841E+00    3.865E+00    3.889E+00    3.911E+00
     3.933E+00    3.954E+00    3.974E+00    3.993E+00    4.012E+00    4.030E+00    4.047E+00    4.064E+00    4.079E+00    4.095E+00
     4.109E+00    4.122E+00    4.135E+00    4.148E+00    4.159E+00    4.170E+00    4.180E+00    4.189E+00    4.198E+00    4.206E+00
     4.213E+00    4.220E+00    4.226E+00    4.231E+00    4.235E+00    4.239E+00    4.242E+00    4.245E+00    4.247E+00    4.248E+00
     4.248E+00    4.248E+00    4.247E+00    4.246E+00    4.244E+00    4.241E+00    4.238E+00    4.234E+00    4.229E+00    4.224E+00
     4.218E+00    4.211E+00    4.204E+00    4.197E+00    4.189E+00    4.180E+00    4.171E+00    4.161E+00    4.151E+00    4.140E+00
     4.129E+00    4.118E+00    4.105E+00    4.093E+00    4.080E+00    4.067E+00    4.053E+00    4.039E+00    4.025E+00    4.010E+00
     3.995E+00    3.979E+00    3.964E+00    3.948E+00    3.931E+00    3.915E+00    3.898E+00    3.881E+00    3.864E+00    3.846E+00
     3.829E+00    3.811E+00    3.793E+00    3.775E+00    3.756E+00    3.738E+00    3.719E+00    3.700E+00    3.682E+00    3.663E+00
     3.644E+00    3.625E+00    3.606E+00    3.587E+00    3.568E+00    3.549E+00    3.530E+00    3.511E+00    3.492E+00    3.473E+00
     3.454E+00    3.435E+00    3.416E+00    3.398E+00    3.379E+00    3.361E+00    3.343E+00    3.324E+00    3.307E+00    3.289E+00
     3.271E+00    3.254E+00    3.237E+00    3.220E+00    3.203E+00    3.187E+00    3.171E+00    3.155E+00    3.139E+00    3.124E+00
     3.109E+00    3.094E+00    3.080E+00    3.066E+00    3.053E+00    3.039E+00    3.027E+00    3.014E+00    3.002E+00    2.991E+00
     2.980E+00    2.969E+00    2.959E+00    2.949E+00    2.940E+00    2.931E+00    2.923E+00    2.915E+00    2.908E+00    2.902E+00
     2.896E+00    2.890E+00    2.885E+00    2.880E+00    2.876E+00    2.873E+00    2.870E+00    2.867E+00    2.865E+00    2.863E+00
     2.862E+00    2.862E+00    2.861E+00    2.862E+00    2.862E+00    2.863E+00    2.865E+00    2.867E+00    2.869E+00    2.872E+00
     2.875E+00    2.879E+00    2.883E+00    2.887E+00    2.892E+00    2.897E+00    2.902E+00    2.908E+00    2.914E+00    2.921E+00
     2.928E+00    2.935E+00    2.942E+00    2.950E+00    2.959E+00    2.967E+00    2.976E+00    2.985E+00    2.995E+00    3.004E+00
     3.014E+00    3.025E+00    3.035E+00    3.046E+00    3.057E+00    3.069E+00    3.080E+00    3.092E+00    3.104E+00    3.117E+00
     3.129E+00    3.142E+00    3.155E+00    3.168E+00    3.182E+00    3.195E+00    3.209E+00    3.223E+00    3.237E+00    3.251E+00
     3.266E+00    3.280E+00    3.295E+00    3.310E+00    3.325E+00    3.340E+00    3.356E+00    3.371E+00    3.386E+00    3.402E+00
     3.418E+00    3.434E+00    3.449E+00    3.465E+00    3.482E+00    3.498E+00    3.514E+00    3.530E+00    3.546E+00    3.563E+00
     3.579E+00    3.595E+00    3.612E+00    3.628E+00    3.644E+00    3.661E+00    3.677E+00    3.694E+00
 Ala      Conc. = 1.23E+02
