 LCModel (Version 6.3-1L) Copyright: S.W. Provencher.          Ref.: Magn. Reson. Med. 30:672-679 (1993).                
 Slice#2 Row#2 Col#1  PD_05_press_1_raw_act
 36 lines in following concentration table = NCONC+1
    Conc.  %SD /Cr+PCr  Metabolite                                         
    3.966 438%   0.144 Ala                                                 
    3.614  87%   0.131 Asp                                                 
    0.000 999%   0.000 Cr                                                  
   27.524  38%   1.000 PCr                                                 
    1.973  95% 7.2E-02 GABA                                                
    2.096  90% 7.6E-02 Glc                                                 
   56.602  63%   2.056 Gln                                                 
    0.000 999%   0.000 Glu                                                 
    5.567  69%   0.202 GPC                                                 
    0.000 999%   0.000 PCh                                                 
    0.000 999%   0.000 GSH                                                 
   92.153  48%   3.348 Ins                                                 
   15.616 122%   0.567 Lac                                                 
   26.078  45%   0.947 NAA                                                 
    0.000 999%   0.000 NAAG                                                
    0.690  91% 2.5E-02 Scyllo                                              
    3.393  92%   0.123 Tau                                                 
    0.000 999%   0.000 -CrCH2                                              
    5.567  69%   0.202 GPC+PCh                                             
   26.078  45%   0.947 NAA+NAAG                                            
   27.524  38%   1.000 Cr+PCr                                              
   56.602  63%   2.056 Glu+Gln                                             
   54.914 121%   1.995 Lip13a                                              
    0.000 999%   0.000 Lip13b                                              
   13.451 137%   0.489 Lip09                                               
   92.809  37%   3.372 MM09                                                
    8.631 123%   0.314 Lip20                                               
  146.180  36%   5.311 MM20                                                
   27.871  41%   1.013 MM12                                                
   85.444  39%   3.104 MM14                                                
   33.001  56%   1.199 MM17                                                
   54.914 121%   1.995 Lip13a+Lip13b                                       
  168.228  34%   6.112 MM14+Lip13a+Lip13b+MM12                             
  106.260  28%   3.861 MM09+Lip09                                          
  154.811  31%   5.625 MM20+Lip20                                          
   6 lines in following misc. output table
  FWHM = 0.038 ppm    S/N =   1                                            
  Data shift =-0.038 ppm                                                   
  Ph:  66 deg     -15.4 deg/ppm                                            
  alphaB,S = 8.5E+01,   1.3E+01                                            
   14 spline knots.   Ns = 5(1)                                            
   2 inflections.     1 extrema                                            
  498 points on ppm-axis = NY
      4.000000     3.992357     3.984714     3.977070     3.969427     3.961784     3.954141     3.946497     3.938854     3.931211
      3.923568     3.915925     3.908281     3.900638     3.892995     3.885352     3.877708     3.870065     3.862422     3.854779
      3.847136     3.839492     3.831849     3.824206     3.816563     3.808919     3.801276     3.793633     3.785990     3.778347
      3.770703     3.763060     3.755417     3.747774     3.740130     3.732487     3.724844     3.717201     3.709558     3.701914
      3.694271     3.686628     3.678985     3.671341     3.663698     3.656055     3.648412     3.640769     3.633125     3.625482
      3.617839     3.610196     3.602552     3.594909     3.587266     3.579623     3.571980     3.564336     3.556693     3.549050
      3.541407     3.533763     3.526120     3.518477     3.510834     3.503191     3.495547     3.487904     3.480261     3.472618
      3.464974     3.457331     3.449688     3.442045     3.434402     3.426758     3.419115     3.411472     3.403829     3.396185
      3.388542     3.380899     3.373256     3.365613     3.357969     3.350326     3.342683     3.335040     3.327396     3.319753
      3.312110     3.304467     3.296824     3.289180     3.281537     3.273894     3.266251     3.258607     3.250964     3.243321
      3.235678     3.228034     3.220391     3.212748     3.205105     3.197462     3.189818     3.182175     3.174532     3.166889
      3.159245     3.151602     3.143959     3.136316     3.128673     3.121029     3.113386     3.105743     3.098100     3.090456
      3.082813     3.075170     3.067527     3.059884     3.052240     3.044597     3.036954     3.029311     3.021667     3.014024
      3.006381     2.998738     2.991095     2.983451     2.975808     2.968165     2.960522     2.952878     2.945235     2.937592
      2.929949     2.922306     2.914662     2.907019     2.899376     2.891733     2.884089     2.876446     2.868803     2.861160
      2.853517     2.845873     2.838230     2.830587     2.822944     2.815300     2.807657     2.800014     2.792371     2.784728
      2.777084     2.769441     2.761798     2.754155     2.746511     2.738868     2.731225     2.723582     2.715939     2.708295
      2.700652     2.693009     2.685366     2.677722     2.670079     2.662436     2.654793     2.647150     2.639506     2.631863
      2.624220     2.616577     2.608933     2.601290     2.593647     2.586004     2.578361     2.570717     2.563074     2.555431
      2.547788     2.540144     2.532501     2.524858     2.517215     2.509572     2.501928     2.494285     2.486642     2.478999
      2.471355     2.463712     2.456069     2.448426     2.440783     2.433139     2.425496     2.417853     2.410210     2.402566
      2.394923     2.387280     2.379637     2.371994     2.364350     2.356707     2.349064     2.341421     2.333777     2.326134
      2.318491     2.310848     2.303205     2.295561     2.287918     2.280275     2.272632     2.264988     2.257345     2.249702
      2.242059     2.234416     2.226772     2.219129     2.211486     2.203843     2.196199     2.188556     2.180913     2.173270
      2.165627     2.157983     2.150340     2.142697     2.135054     2.127410     2.119767     2.112124     2.104481     2.096838
      2.089194     2.081551     2.073908     2.066265     2.058621     2.050978     2.043335     2.035692     2.028049     2.020405
      2.012762     2.005119     1.997476     1.989833     1.982190     1.974546     1.966903     1.959260     1.951617     1.943974
      1.936331     1.928688     1.921045     1.913402     1.905759     1.898115     1.890472     1.882829     1.875186     1.867543
      1.859900     1.852257     1.844614     1.836971     1.829327     1.821684     1.814041     1.806398     1.798755     1.791112
      1.783469     1.775826     1.768183     1.760540     1.752896     1.745253     1.737610     1.729967     1.722324     1.714681
      1.707038     1.699395     1.691752     1.684108     1.676465     1.668822     1.661179     1.653536     1.645893     1.638250
      1.630607     1.622964     1.615321     1.607677     1.600034     1.592391     1.584748     1.577105     1.569462     1.561819
      1.554176     1.546533     1.538890     1.531246     1.523603     1.515960     1.508317     1.500674     1.493031     1.485388
      1.477745     1.470102     1.462458     1.454815     1.447172     1.439529     1.431886     1.424243     1.416600     1.408957
      1.401314     1.393671     1.386027     1.378384     1.370741     1.363098     1.355455     1.347812     1.340169     1.332526
      1.324883     1.317240     1.309596     1.301953     1.294310     1.286667     1.279024     1.271381     1.263738     1.256095
      1.248452     1.240808     1.233165     1.225522     1.217879     1.210236     1.202593     1.194950     1.187307     1.179664
      1.172021     1.164377     1.156734     1.149091     1.141448     1.133805     1.126162     1.118519     1.110876     1.103233
      1.095590     1.087946     1.080303     1.072660     1.065017     1.057374     1.049731     1.042088     1.034445     1.026802
      1.019158     1.011515     1.003872     0.996229     0.988586     0.980943     0.973300     0.965657     0.958014     0.950371
      0.942727     0.935084     0.927441     0.919798     0.912155     0.904512     0.896869     0.889226     0.881583     0.873940
      0.866296     0.858653     0.851010     0.843367     0.835724     0.828081     0.820438     0.812795     0.805152     0.797508
      0.789865     0.782222     0.774579     0.766936     0.759293     0.751650     0.744007     0.736364     0.728721     0.721077
      0.713434     0.705791     0.698148     0.690505     0.682862     0.675219     0.667576     0.659933     0.652290     0.644646
      0.637003     0.629360     0.621717     0.614074     0.606431     0.598788     0.591145     0.583502     0.575858     0.568215
      0.560572     0.552929     0.545286     0.537643     0.530000     0.522357     0.514714     0.507071     0.499427     0.491784
      0.484141     0.476498     0.468855     0.461212     0.453569     0.445925     0.438282     0.430639     0.422996     0.415353
      0.407710     0.400067     0.392424     0.384780     0.377137     0.369494     0.361851     0.354208     0.346565     0.338922
      0.331278     0.323635     0.315992     0.308349     0.300706     0.293063     0.285420     0.277777     0.270133     0.262490
      0.254847     0.247204     0.239561     0.231918     0.224275     0.216631     0.208988     0.201345
 NY phased data points follow
   5.17755E-01 -1.83484E-01  1.44958E+00  9.58513E-01  9.02801E-01  4.62026E-01  1.28060E+00  6.93787E-01  7.80335E-01  1.04680E+00
   2.24525E+00  2.56672E+00  1.86055E+00  4.79971E-01  1.57185E+00  1.88154E-01 -1.37873E+00  1.82518E+00  1.78421E+00  8.22358E-01
   1.23184E+00  6.94435E-01  1.37036E+00 -6.74480E-01 -4.91567E-01  1.83279E+00  1.53707E+00  1.91371E-01 -5.44842E-01  4.02791E-01
  -5.25038E-01 -8.14988E-01  2.72541E+00  7.32965E-01  7.26335E-01  8.17798E-01  1.24644E+00  9.94348E-01 -6.07278E-01  1.03130E+00
   5.82474E-01  2.43028E-02  1.51235E+00  2.05259E+00  1.11593E+00  1.21356E+00 -5.83518E-01  1.25463E+00  1.44983E+00  2.37271E+00
   6.44401E-01  3.30777E+00  2.15389E-01  1.50475E+00  3.55880E-01  6.47224E-01 -5.08461E-01  1.85749E+00  1.97160E-02 -9.63345E-01
   1.03011E+00  2.36140E-01  5.19287E-01 -9.47730E-01  1.20297E+00  6.01004E-01 -4.63714E-01 -1.26276E-02 -2.14419E-01 -4.89926E-01
   9.56079E-01  2.53890E-01  2.12982E+00  9.39080E-01  1.01059E+00 -7.82494E-01  9.86241E-01  9.20065E-01  8.35641E-01  7.31057E-01
   1.10583E+00  2.09838E+00  1.03712E+00  2.12738E+00 -3.44465E-01  1.50637E+00  2.31799E+00  1.46212E+00 -9.35606E-01 -4.35508E-01
  -2.91093E-01  8.60307E-01  4.18303E-01  6.40336E-01 -7.55924E-01  4.05765E-01 -5.13779E-02  9.82887E-01  8.40300E-01  8.42537E-01
   3.93264E-01  7.99695E-01  1.30079E+00  1.11660E+00  1.77594E+00  7.91816E-01  5.42298E-01  6.67215E-01  1.13455E+00 -1.22724E+00
   5.10055E-01  1.29376E+00  7.96237E-01  4.27923E-01  1.37276E+00 -7.41543E-01  6.59923E-01 -2.34518E-01  4.71855E-01  1.40849E-01
  -2.80721E-01  1.26202E+00  7.34893E-01  1.11150E+00 -5.10258E-01  3.85199E-01 -4.36686E-01  1.05903E+00  1.87600E+00  2.24982E+00
   3.04214E+00 -1.51387E-01 -9.38312E-01  1.10702E+00  3.46161E-01  2.87976E-01 -8.59635E-01  2.69491E+00  1.15811E+00 -4.79705E-01
   1.72243E+00  4.88111E-01 -6.39204E-01  1.56350E+00  1.09433E+00  1.30546E+00  8.56890E-01  1.16347E+00  1.24037E+00 -5.25710E-02
   2.51473E-01  1.17209E+00  1.38382E+00  4.03671E-02 -8.20776E-02  5.48105E-01 -4.91973E-01  1.90447E-01  2.20720E-01  1.02379E+00
  -1.48440E-01  1.41091E-01 -6.26394E-01 -1.98954E-01 -6.17734E-01  8.33658E-01  5.82451E-01  7.36502E-01  7.01009E-01  1.30124E+00
   1.28696E+00 -1.62106E-01 -6.89994E-02  1.66345E+00  1.89460E-01  4.28422E-01 -3.98366E-01  8.33407E-01  2.54849E+00  1.18509E+00
   5.34721E-01  1.61003E+00  7.11147E-01  2.40492E+00  2.25766E-01  9.16769E-01  1.80587E+00  1.35185E+00  9.52028E-01 -1.83719E-01
   9.14982E-01 -3.70860E-01  5.11500E-01 -2.78116E-01  4.38623E-01  1.80626E+00  1.00595E+00  1.75087E+00  7.24629E-01 -2.09705E+00
   1.40352E+00  2.77976E+00  3.03688E-01  1.69228E+00  1.33601E+00  7.44013E-01  1.76813E-01  1.04684E+00  5.62455E-01  1.21895E+00
   3.98785E-01  1.43839E+00  6.38013E-01 -3.95138E-01  1.31110E+00  4.98418E-01  1.56001E-01 -8.41874E-02  1.75762E+00  8.04035E-01
   2.50277E+00 -1.05676E-01  3.08377E+00  2.38259E+00  6.00733E-01  1.81741E-01  6.27061E-01  1.30523E+00  2.98116E+00 -4.53366E-01
   1.67349E+00  7.64829E-01  6.92434E-01  2.85180E+00  1.65073E+00  7.18158E-01  1.40649E+00  2.39214E-01  1.16465E+00  3.17934E-01
  -1.95057E-01 -1.23628E+00  8.81404E-01  1.93417E+00  3.28693E+00 -2.18823E-01  1.22277E+00  4.08528E-01  9.93369E-01  8.44291E-01
  -4.84396E-01  9.78252E-01  1.66287E+00  9.28816E-01  7.04754E-01  2.45719E+00  6.83554E-01 -5.21938E-01  2.71210E-01  1.98861E+00
   2.77170E+00  1.59604E+00  2.08463E+00  2.37327E+00  8.33312E-01  1.74202E+00  1.88673E+00  2.09445E+00  1.78243E+00  2.27463E+00
   8.64221E-01  8.32206E-01  2.34485E+00  2.05013E+00  2.24040E+00  1.26868E+00  2.21792E+00  1.54245E+00  1.07965E+00  6.72037E-01
   1.86838E+00  1.06910E+00  1.91650E+00  1.44382E+00  8.92612E-01  2.37169E-01  3.65614E-01  1.34555E+00  6.27066E-01  1.96238E-01
   7.99907E-01 -1.79707E-01 -1.63745E+00  1.25376E+00  1.64522E+00  9.37337E-01  7.92172E-01  9.07814E-01  1.46623E+00 -1.69873E-01
  -1.26212E-01  1.70068E+00  1.03618E+00  9.76378E-01  4.13413E-01 -1.13517E+00  7.43963E-01 -2.24295E-01  1.58715E+00  5.00231E-02
   1.43153E-02  5.54099E-01 -4.41134E-01  2.11033E+00  1.79106E+00  1.66569E-01  1.62923E+00 -9.31371E-02 -5.05055E-01 -1.35841E+00
   2.01405E+00  2.62048E-01  1.83486E+00  3.80476E-01  1.49150E-01  1.12779E+00  1.13392E+00  3.59581E-01  2.85917E-01  1.68549E+00
   3.75566E-01  1.82190E+00  8.90592E-01  9.44937E-01  1.87704E+00  1.21651E+00  1.29708E+00  1.86414E+00  2.03267E+00  2.98957E+00
   6.36599E-01  2.63337E+00  1.27655E+00  1.27374E+00  1.56498E+00  7.67462E-01  2.25591E+00  1.81676E+00  1.02577E+00  1.75113E+00
   1.60831E+00  2.15175E+00  1.12012E+00  2.22032E-03  8.08177E-01  1.74031E-01  6.90206E-01  2.75699E+00 -8.28337E-02  1.82273E-01
   5.73089E-01  6.33112E-01  7.63518E-02 -9.73261E-01  3.95139E-01  1.41756E+00  2.89719E-01  5.90907E-01  1.11078E+00  5.49554E-01
  -5.72321E-01  1.52970E+00  1.37054E+00  3.66062E-01  2.12763E+00  1.98660E+00  1.34289E+00  7.56511E-01  1.18889E+00  1.00443E+00
   1.74697E+00  1.00213E+00  4.37948E-01  2.08309E+00  1.93822E-01  1.89832E+00  2.46024E+00  1.24203E+00  4.92108E-01  5.86370E-01
  -4.23097E-01  7.16881E-01  1.28570E+00  2.54706E+00  8.18370E-01  1.07550E+00 -2.26728E-02  3.85348E-01 -1.09047E+00  5.40716E-01
  -1.27396E+00  4.04800E+00  1.27174E+00  1.17405E+00  1.28469E+00 -8.39474E-01 -7.38134E-01 -3.64280E-01  1.24154E+00  1.40678E+00
   7.82815E-01  1.07923E+00 -6.80583E-01  1.59181E+00  8.76196E-01  1.42421E+00 -4.20889E-02  5.73339E-01  1.49680E+00  1.94236E+00
   1.05980E+00  1.59512E+00  1.35008E+00 -8.54263E-01 -1.38251E+00 -4.48750E-01  1.36356E+00  9.10641E-01  3.12226E+00  1.62792E+00
   6.73858E-01  1.06202E+00  1.14505E+00  3.99788E-02  1.62422E+00 -4.70992E-01  1.76475E+00  9.51550E-01 -3.50631E-01 -1.04171E+00
  -4.38600E-01 -8.37240E-01 -1.78694E-01  6.27862E-01  2.94145E+00 -5.18250E-01  9.56012E-01  5.13352E-01  5.85258E-01 -4.66640E-01
   1.17563E-01  1.65620E+00  5.63463E-01  1.43703E+00  6.34654E-01  1.27306E+00  2.01808E+00 -3.26781E-01  1.16697E+00 -3.20801E-01
   7.44885E-01  5.99057E-01  2.33216E+00 -9.43463E-02 -3.68982E-01 -5.77596E-01  5.91788E-01  1.07780E+00  2.00479E-01  6.13758E-01
  -9.46511E-01  1.57919E+00  1.57065E+00  3.93319E-01  1.22945E+00  7.77449E-01  3.83063E-01  2.69175E-02 -1.20781E-01  1.07423E+00
   3.42124E-01  6.98729E-01  5.37625E-01 -1.39946E-01  3.57416E-01  2.19489E-01 -4.83742E-01 -9.34549E-01 -1.88006E-01  5.30756E-02
  -7.27428E-01  2.05974E+00 -1.51989E+00  1.64359E+00  1.20991E+00  9.69956E-01 -1.47228E+00 -9.08503E-01
 NY points of the fit to the data follow
   8.23524E-01  7.26335E-01  6.56931E-01  6.35967E-01  6.56274E-01  6.31716E-01  5.89103E-01  6.54111E-01  8.77078E-01  1.18365E+00
   1.44011E+00  1.53215E+00  1.42164E+00  1.17422E+00  9.08198E-01  7.18373E-01  6.45999E-01  6.29076E-01  6.19308E-01  6.09928E-01
   6.02637E-01  5.93873E-01  5.91673E-01  6.19904E-01  6.67147E-01  6.93543E-01  6.72833E-01  6.13159E-01  5.22194E-01  4.22165E-01
   3.87538E-01  4.68057E-01  6.39198E-01  8.20810E-01  9.32335E-01  9.35453E-01  8.54452E-01  7.53258E-01  6.77412E-01  6.38387E-01
   6.18137E-01  5.96386E-01  5.84914E-01  5.77117E-01  5.41136E-01  5.24499E-01  6.45842E-01  9.45433E-01  1.32135E+00  1.59925E+00
   1.64184E+00  1.42722E+00  1.05788E+00  6.91011E-01  4.63671E-01  4.05596E-01  4.32247E-01  4.78807E-01  5.38229E-01  6.33676E-01
   7.67887E-01  9.07092E-01  9.98443E-01  9.98669E-01  9.03506E-01  7.50652E-01  6.09124E-01  5.40561E-01  5.40006E-01  5.82757E-01
   6.48437E-01  7.24224E-01  7.93769E-01  8.42374E-01  8.64258E-01  8.56025E-01  8.23087E-01  7.78741E-01  7.33803E-01  7.01299E-01
   6.79779E-01  6.65221E-01  6.49248E-01  6.39841E-01  6.46879E-01  6.61951E-01  6.52154E-01  5.89043E-01  4.76467E-01  3.52511E-01
   2.64398E-01  2.46561E-01  3.00626E-01  3.95494E-01  4.97434E-01  5.85771E-01  6.47780E-01  6.84282E-01  6.85916E-01  5.97315E-01
   4.90540E-01  5.04329E-01  6.78237E-01  9.36996E-01  1.15430E+00  1.22490E+00  1.12705E+00  9.28205E-01  7.26599E-01  5.94544E-01
   5.54063E-01  5.47811E-01  5.49002E-01  5.55262E-01  5.62731E-01  5.69812E-01  5.75285E-01  5.78657E-01  5.79495E-01  5.79637E-01
   5.83745E-01  6.10884E-01  6.57274E-01  6.14130E-01  5.61635E-01  6.92943E-01  1.06341E+00  1.53977E+00  1.91179E+00  2.01461E+00
   1.81323E+00  1.42757E+00  1.03322E+00  7.62910E-01  6.61415E-01  6.29665E-01  6.12722E-01  6.01671E-01  5.95036E-01  5.91614E-01
   5.89030E-01  5.85168E-01  5.78716E-01  5.71012E-01  5.64849E-01  5.61910E-01  5.61509E-01  5.60923E-01  5.57836E-01  5.51470E-01
   5.43394E-01  5.36038E-01  5.30622E-01  5.27211E-01  5.24626E-01  5.21568E-01  5.17935E-01  5.16649E-01  5.16979E-01  5.13296E-01
   5.02233E-01  4.83575E-01  4.65845E-01  4.59861E-01  4.68524E-01  4.85426E-01  5.00403E-01  5.05896E-01  4.99953E-01  4.88055E-01
   4.76545E-01  4.67872E-01  4.64527E-01  4.64861E-01  4.61295E-01  4.50706E-01  4.37205E-01  4.30765E-01  4.36045E-01  4.47509E-01
   4.56365E-01  4.56788E-01  4.51389E-01  4.49627E-01  4.55252E-01  4.62964E-01  4.66520E-01  4.66647E-01  4.67305E-01  4.73113E-01
   4.88682E-01  5.07541E-01  5.17042E-01  5.12322E-01  4.90914E-01  4.57084E-01  4.21342E-01  3.90778E-01  3.63427E-01  3.47455E-01
   3.72987E-01  4.52371E-01  5.69526E-01  6.98428E-01  8.03953E-01  8.51759E-01  8.53478E-01  8.15809E-01  6.79762E-01  4.38887E-01
   1.76023E-01 -3.42167E-03 -2.68854E-02  1.08202E-01  3.32447E-01  5.51581E-01  7.00534E-01  7.59494E-01  7.64966E-01  7.63397E-01
   7.58664E-01  7.52816E-01  7.52944E-01  7.59726E-01  7.69804E-01  7.79111E-01  7.84825E-01  7.86216E-01  7.84988E-01  7.83601E-01
   7.79239E-01  7.67766E-01  7.73444E-01  8.02881E-01  8.13600E-01  7.75900E-01  7.07339E-01  6.47343E-01  6.35332E-01  7.31226E-01
   9.28100E-01  1.14061E+00  1.27689E+00  1.28364E+00  1.17376E+00  1.00857E+00  8.57617E-01  7.62227E-01  7.32853E-01  7.64290E-01
   8.34751E-01  9.34889E-01  1.04443E+00  1.14067E+00  1.20651E+00  1.25712E+00  1.24316E+00  1.12030E+00  1.05324E+00  1.20551E+00
   1.56157E+00  1.95714E+00  2.19877E+00  2.16726E+00  1.88339E+00  1.49207E+00  1.14586E+00  9.46384E-01  8.75318E-01  8.38433E-01
   8.09243E-01  7.84181E-01  7.62818E-01  7.44510E-01  7.28895E-01  7.15994E-01  7.04951E-01  6.94634E-01  6.84543E-01  6.74258E-01
   6.63785E-01  6.53577E-01  6.44075E-01  6.36026E-01  6.30246E-01  6.26988E-01  6.26087E-01  6.27339E-01  6.30287E-01  6.34285E-01
   6.39004E-01  6.44327E-01  6.50215E-01  6.56574E-01  6.63239E-01  6.70136E-01  6.77283E-01  6.84653E-01  6.92063E-01  6.99282E-01
   7.06100E-01  7.12229E-01  7.17463E-01  7.21678E-01  7.24853E-01  7.27043E-01  7.28341E-01  7.28856E-01  7.28716E-01  7.28087E-01
   7.27190E-01  7.26290E-01  7.25680E-01  7.25671E-01  7.26559E-01  7.28625E-01  7.32140E-01  7.37339E-01  7.44423E-01  7.53572E-01
   7.65007E-01  7.79167E-01  7.96074E-01  8.10849E-01  8.27561E-01  8.57112E-01  8.97409E-01  9.34168E-01  9.53515E-01  9.51114E-01
   9.36502E-01  9.19963E-01  9.04722E-01  9.00147E-01  9.17643E-01  9.56497E-01  1.00851E+00  1.06285E+00  1.10555E+00  1.12786E+00
   1.13170E+00  1.12681E+00  1.12600E+00  1.11689E+00  1.10448E+00  1.13536E+00  1.21220E+00  1.28255E+00  1.28726E+00  1.20365E+00
   1.06421E+00  8.98100E-01  7.34901E-01  6.32430E-01  6.39169E-01  7.43048E-01  8.94587E-01  1.04502E+00  1.14261E+00  1.16260E+00
   1.11905E+00  1.04669E+00  9.87611E-01  9.50883E-01  9.24101E-01  9.01928E-01  8.82313E-01  8.64335E-01  8.47567E-01  8.31829E-01
   8.17061E-01  8.03277E-01  7.90545E-01  7.78973E-01  7.68695E-01  7.59852E-01  7.52581E-01  7.47024E-01  7.43327E-01  7.41646E-01
   7.42134E-01  7.44936E-01  7.50185E-01  7.58005E-01  7.68511E-01  7.81797E-01  7.97925E-01  8.16907E-01  8.38701E-01  8.63204E-01
   8.90240E-01  9.19549E-01  9.50772E-01  9.83451E-01  1.01703E+00  1.05088E+00  1.08429E+00  1.11649E+00  1.14668E+00  1.17405E+00
   1.19784E+00  1.21735E+00  1.23198E+00  1.24124E+00  1.24482E+00  1.24255E+00  1.23445E+00  1.22071E+00  1.20169E+00  1.17787E+00
   1.14988E+00  1.11840E+00  1.08419E+00  1.04803E+00  1.01067E+00  9.72818E-01  9.35138E-01  8.98197E-01  8.62479E-01  8.28366E-01
   7.96146E-01  7.66011E-01  7.38071E-01  7.12367E-01  6.88879E-01  6.67539E-01  6.48238E-01  6.30847E-01  6.15219E-01  6.01205E-01
   5.88651E-01  5.77409E-01  5.67337E-01  5.58303E-01  5.50188E-01  5.42884E-01  5.36297E-01  5.30339E-01  5.24933E-01  5.20015E-01
   5.15527E-01  5.11421E-01  5.07652E-01  5.04182E-01  5.00978E-01  4.98012E-01  4.95259E-01  4.92700E-01  4.90313E-01  4.88080E-01
   4.85988E-01  4.84024E-01  4.82177E-01  4.80437E-01  4.78794E-01  4.77240E-01  4.75767E-01  4.74371E-01  4.73045E-01  4.71783E-01
   4.70580E-01  4.69432E-01  4.68334E-01  4.67285E-01  4.66281E-01  4.65319E-01  4.64396E-01  4.63509E-01  4.62657E-01  4.61837E-01
   4.61046E-01  4.60283E-01  4.59546E-01  4.58835E-01  4.58147E-01  4.57482E-01  4.56838E-01  4.56213E-01  4.55607E-01  4.55020E-01
   4.54450E-01  4.53895E-01  4.53355E-01  4.52831E-01  4.52320E-01  4.51824E-01  4.51339E-01  4.50866E-01  4.50405E-01  4.49956E-01
   4.49518E-01  4.49090E-01  4.48672E-01  4.48262E-01  4.47863E-01  4.47473E-01  4.47093E-01  4.46721E-01
 NY background values follow
     4.953E-01    4.951E-01    4.950E-01    4.949E-01    4.947E-01    4.946E-01    4.945E-01    4.944E-01    4.942E-01    4.941E-01
     4.940E-01    4.939E-01    4.937E-01    4.936E-01    4.935E-01    4.934E-01    4.932E-01    4.931E-01    4.930E-01    4.928E-01
     4.927E-01    4.926E-01    4.925E-01    4.923E-01    4.922E-01    4.921E-01    4.920E-01    4.918E-01    4.917E-01    4.916E-01
     4.915E-01    4.913E-01    4.912E-01    4.911E-01    4.909E-01    4.908E-01    4.907E-01    4.906E-01    4.904E-01    4.903E-01
     4.902E-01    4.901E-01    4.899E-01    4.898E-01    4.897E-01    4.896E-01    4.894E-01    4.893E-01    4.892E-01    4.890E-01
     4.889E-01    4.888E-01    4.887E-01    4.885E-01    4.884E-01    4.883E-01    4.882E-01    4.880E-01    4.879E-01    4.878E-01
     4.876E-01    4.875E-01    4.874E-01    4.873E-01    4.871E-01    4.870E-01    4.869E-01    4.868E-01    4.866E-01    4.865E-01
     4.864E-01    4.863E-01    4.861E-01    4.860E-01    4.859E-01    4.857E-01    4.856E-01    4.855E-01    4.854E-01    4.852E-01
     4.851E-01    4.850E-01    4.849E-01    4.847E-01    4.846E-01    4.845E-01    4.844E-01    4.842E-01    4.841E-01    4.840E-01
     4.838E-01    4.837E-01    4.836E-01    4.835E-01    4.833E-01    4.832E-01    4.831E-01    4.830E-01    4.828E-01    4.827E-01
     4.826E-01    4.824E-01    4.823E-01    4.822E-01    4.821E-01    4.819E-01    4.818E-01    4.817E-01    4.816E-01    4.814E-01
     4.813E-01    4.812E-01    4.811E-01    4.809E-01    4.808E-01    4.807E-01    4.805E-01    4.804E-01    4.803E-01    4.802E-01
     4.800E-01    4.799E-01    4.798E-01    4.797E-01    4.795E-01    4.794E-01    4.793E-01    4.792E-01    4.790E-01    4.789E-01
     4.788E-01    4.786E-01    4.785E-01    4.784E-01    4.783E-01    4.781E-01    4.780E-01    4.779E-01    4.778E-01    4.776E-01
     4.775E-01    4.774E-01    4.772E-01    4.771E-01    4.770E-01    4.769E-01    4.767E-01    4.766E-01    4.765E-01    4.764E-01
     4.762E-01    4.761E-01    4.760E-01    4.759E-01    4.757E-01    4.756E-01    4.755E-01    4.753E-01    4.752E-01    4.751E-01
     4.750E-01    4.748E-01    4.747E-01    4.746E-01    4.745E-01    4.743E-01    4.742E-01    4.741E-01    4.740E-01    4.738E-01
     4.737E-01    4.736E-01    4.734E-01    4.733E-01    4.732E-01    4.731E-01    4.729E-01    4.728E-01    4.727E-01    4.726E-01
     4.724E-01    4.723E-01    4.722E-01    4.720E-01    4.719E-01    4.718E-01    4.717E-01    4.715E-01    4.714E-01    4.713E-01
     4.712E-01    4.710E-01    4.709E-01    4.708E-01    4.707E-01    4.705E-01    4.704E-01    4.703E-01    4.701E-01    4.700E-01
     4.699E-01    4.698E-01    4.696E-01    4.695E-01    4.694E-01    4.693E-01    4.691E-01    4.690E-01    4.689E-01    4.687E-01
     4.686E-01    4.685E-01    4.684E-01    4.682E-01    4.681E-01    4.680E-01    4.679E-01    4.677E-01    4.676E-01    4.675E-01
     4.674E-01    4.672E-01    4.671E-01    4.670E-01    4.668E-01    4.667E-01    4.666E-01    4.665E-01    4.663E-01    4.662E-01
     4.661E-01    4.660E-01    4.658E-01    4.657E-01    4.656E-01    4.654E-01    4.653E-01    4.652E-01    4.651E-01    4.649E-01
     4.648E-01    4.647E-01    4.646E-01    4.644E-01    4.643E-01    4.642E-01    4.641E-01    4.639E-01    4.638E-01    4.637E-01
     4.635E-01    4.634E-01    4.633E-01    4.632E-01    4.630E-01    4.629E-01    4.628E-01    4.627E-01    4.625E-01    4.624E-01
     4.623E-01    4.621E-01    4.620E-01    4.619E-01    4.618E-01    4.616E-01    4.615E-01    4.614E-01    4.613E-01    4.611E-01
     4.610E-01    4.609E-01    4.607E-01    4.606E-01    4.605E-01    4.604E-01    4.602E-01    4.601E-01    4.600E-01    4.599E-01
     4.597E-01    4.596E-01    4.595E-01    4.594E-01    4.592E-01    4.591E-01    4.590E-01    4.588E-01    4.587E-01    4.586E-01
     4.585E-01    4.583E-01    4.582E-01    4.581E-01    4.580E-01    4.578E-01    4.577E-01    4.576E-01    4.574E-01    4.573E-01
     4.572E-01    4.571E-01    4.569E-01    4.568E-01    4.567E-01    4.566E-01    4.564E-01    4.563E-01    4.562E-01    4.560E-01
     4.559E-01    4.558E-01    4.557E-01    4.555E-01    4.554E-01    4.553E-01    4.552E-01    4.550E-01    4.549E-01    4.548E-01
     4.546E-01    4.545E-01    4.544E-01    4.543E-01    4.541E-01    4.540E-01    4.539E-01    4.538E-01    4.536E-01    4.535E-01
     4.534E-01    4.532E-01    4.531E-01    4.530E-01    4.529E-01    4.527E-01    4.526E-01    4.525E-01    4.524E-01    4.522E-01
     4.521E-01    4.520E-01    4.518E-01    4.517E-01    4.516E-01    4.515E-01    4.513E-01    4.512E-01    4.511E-01    4.510E-01
     4.508E-01    4.507E-01    4.506E-01    4.505E-01    4.503E-01    4.502E-01    4.501E-01    4.499E-01    4.498E-01    4.497E-01
     4.496E-01    4.494E-01    4.493E-01    4.492E-01    4.491E-01    4.489E-01    4.488E-01    4.487E-01    4.485E-01    4.484E-01
     4.483E-01    4.482E-01    4.480E-01    4.479E-01    4.478E-01    4.477E-01    4.475E-01    4.474E-01    4.473E-01    4.471E-01
     4.470E-01    4.469E-01    4.468E-01    4.466E-01    4.465E-01    4.464E-01    4.463E-01    4.461E-01    4.460E-01    4.459E-01
     4.457E-01    4.456E-01    4.455E-01    4.454E-01    4.452E-01    4.451E-01    4.450E-01    4.449E-01    4.447E-01    4.446E-01
     4.445E-01    4.443E-01    4.442E-01    4.441E-01    4.440E-01    4.438E-01    4.437E-01    4.436E-01    4.435E-01    4.433E-01
     4.432E-01    4.431E-01    4.429E-01    4.428E-01    4.427E-01    4.426E-01    4.424E-01    4.423E-01    4.422E-01    4.421E-01
     4.419E-01    4.418E-01    4.417E-01    4.415E-01    4.414E-01    4.413E-01    4.412E-01    4.410E-01    4.409E-01    4.408E-01
     4.407E-01    4.405E-01    4.404E-01    4.403E-01    4.401E-01    4.400E-01    4.399E-01    4.398E-01    4.396E-01    4.395E-01
     4.394E-01    4.393E-01    4.391E-01    4.390E-01    4.389E-01    4.387E-01    4.386E-01    4.385E-01    4.384E-01    4.382E-01
     4.381E-01    4.380E-01    4.379E-01    4.377E-01    4.376E-01    4.375E-01    4.373E-01    4.372E-01    4.371E-01    4.370E-01
     4.368E-01    4.367E-01    4.366E-01    4.365E-01    4.363E-01    4.362E-01    4.361E-01    4.359E-01    4.358E-01    4.357E-01
     4.356E-01    4.354E-01    4.353E-01    4.352E-01    4.351E-01    4.349E-01    4.348E-01    4.347E-01    4.345E-01    4.344E-01
     4.343E-01    4.342E-01    4.340E-01    4.339E-01    4.338E-01    4.337E-01    4.335E-01    4.334E-01    4.333E-01    4.331E-01
     4.330E-01    4.329E-01    4.328E-01    4.326E-01    4.325E-01    4.324E-01    4.323E-01    4.321E-01
 Ala      Conc. = 3.97E+00
