 LCModel (Version 6.3-1L) Copyright: S.W. Provencher.          Ref.: Magn. Reson. Med. 30:672-679 (1993).                
 Slice#2 Row#2 Col#2  PD_05_press_1_raw_act
 36 lines in following concentration table = NCONC+1
    Conc.  %SD /Cr+PCr  Metabolite                                         
    0.000 999%   0.000 Ala                                                 
   16.513  80%   0.221 Asp                                                 
   74.708  32%   1.000 Cr                                                  
    0.000 999%   0.000 PCr                                                 
   10.122  78%   0.135 GABA                                                
   10.298  77%   0.138 Glc                                                 
 1.48E+03  15%  19.817 Gln                                                 
 1.59E+03  16%  21.264 Glu                                                 
   27.964  36%   0.374 GPC                                                 
    0.000 999%   0.000 PCh                                                 
    0.000 999%   0.000 GSH                                                 
  313.545  45%   4.197 Ins                                                 
  101.351 116%   1.357 Lac                                                 
    0.000 999%   0.000 NAA                                                 
  158.817  19%   2.126 NAAG                                                
    4.869  54% 6.5E-02 Scyllo                                              
   20.156  65%   0.270 Tau                                                 
    0.000 999%   0.000 -CrCH2                                              
   27.964  36%   0.374 GPC+PCh                                             
  158.817  19%   2.126 NAA+NAAG                                            
   74.708  32%   1.000 Cr+PCr                                              
 3.07E+03  13%  41.081 Glu+Gln                                             
  379.752  28%   5.083 Lip13a                                              
    0.000 999%   0.000 Lip13b                                              
    0.000 999%   0.000 Lip09                                               
    3.257 999% 4.4E-02 MM09                                                
  106.023  64%   1.419 Lip20                                               
   33.231 183%   0.445 MM20                                                
    1.508 917% 2.0E-02 MM12                                                
    0.000 999%   0.000 MM14                                                
   40.147  71%   0.537 MM17                                                
  379.752  28%   5.083 Lip13a+Lip13b                                       
  381.259  28%   5.103 MM14+Lip13a+Lip13b+MM12                             
    3.257 999% 4.4E-02 MM09+Lip09                                          
  139.254  63%   1.864 MM20+Lip20                                          
   6 lines in following misc. output table
  FWHM = 0.161 ppm    S/N =   1                                            
  Data shift =-0.046 ppm                                                   
  Ph: 168 deg      29.2 deg/ppm                                            
  alphaB,S = 3.7E-01,   6.4E+00                                            
   14 spline knots.   Ns =10(1)                                            
  (15)13 infls.   (17)13 extrs.                                            
  498 points on ppm-axis = NY
      4.000000     3.992357     3.984714     3.977070     3.969427     3.961784     3.954141     3.946497     3.938854     3.931211
      3.923568     3.915925     3.908281     3.900638     3.892995     3.885352     3.877708     3.870065     3.862422     3.854779
      3.847136     3.839492     3.831849     3.824206     3.816563     3.808919     3.801276     3.793633     3.785990     3.778347
      3.770703     3.763060     3.755417     3.747774     3.740130     3.732487     3.724844     3.717201     3.709558     3.701914
      3.694271     3.686628     3.678985     3.671341     3.663698     3.656055     3.648412     3.640769     3.633125     3.625482
      3.617839     3.610196     3.602552     3.594909     3.587266     3.579623     3.571980     3.564336     3.556693     3.549050
      3.541407     3.533763     3.526120     3.518477     3.510834     3.503191     3.495547     3.487904     3.480261     3.472618
      3.464974     3.457331     3.449688     3.442045     3.434402     3.426758     3.419115     3.411472     3.403829     3.396185
      3.388542     3.380899     3.373256     3.365613     3.357969     3.350326     3.342683     3.335040     3.327396     3.319753
      3.312110     3.304467     3.296824     3.289180     3.281537     3.273894     3.266251     3.258607     3.250964     3.243321
      3.235678     3.228034     3.220391     3.212748     3.205105     3.197462     3.189818     3.182175     3.174532     3.166889
      3.159245     3.151602     3.143959     3.136316     3.128673     3.121029     3.113386     3.105743     3.098100     3.090456
      3.082813     3.075170     3.067527     3.059884     3.052240     3.044597     3.036954     3.029311     3.021667     3.014024
      3.006381     2.998738     2.991095     2.983451     2.975808     2.968165     2.960522     2.952878     2.945235     2.937592
      2.929949     2.922306     2.914662     2.907019     2.899376     2.891733     2.884089     2.876446     2.868803     2.861160
      2.853517     2.845873     2.838230     2.830587     2.822944     2.815300     2.807657     2.800014     2.792371     2.784728
      2.777084     2.769441     2.761798     2.754155     2.746511     2.738868     2.731225     2.723582     2.715939     2.708295
      2.700652     2.693009     2.685366     2.677722     2.670079     2.662436     2.654793     2.647150     2.639506     2.631863
      2.624220     2.616577     2.608933     2.601290     2.593647     2.586004     2.578361     2.570717     2.563074     2.555431
      2.547788     2.540144     2.532501     2.524858     2.517215     2.509572     2.501928     2.494285     2.486642     2.478999
      2.471355     2.463712     2.456069     2.448426     2.440783     2.433139     2.425496     2.417853     2.410210     2.402566
      2.394923     2.387280     2.379637     2.371994     2.364350     2.356707     2.349064     2.341421     2.333777     2.326134
      2.318491     2.310848     2.303205     2.295561     2.287918     2.280275     2.272632     2.264988     2.257345     2.249702
      2.242059     2.234416     2.226772     2.219129     2.211486     2.203843     2.196199     2.188556     2.180913     2.173270
      2.165627     2.157983     2.150340     2.142697     2.135054     2.127410     2.119767     2.112124     2.104481     2.096838
      2.089194     2.081551     2.073908     2.066265     2.058621     2.050978     2.043335     2.035692     2.028049     2.020405
      2.012762     2.005119     1.997476     1.989833     1.982190     1.974546     1.966903     1.959260     1.951617     1.943974
      1.936331     1.928688     1.921045     1.913402     1.905759     1.898115     1.890472     1.882829     1.875186     1.867543
      1.859900     1.852257     1.844614     1.836971     1.829327     1.821684     1.814041     1.806398     1.798755     1.791112
      1.783469     1.775826     1.768183     1.760540     1.752896     1.745253     1.737610     1.729967     1.722324     1.714681
      1.707038     1.699395     1.691752     1.684108     1.676465     1.668822     1.661179     1.653536     1.645893     1.638250
      1.630607     1.622964     1.615321     1.607677     1.600034     1.592391     1.584748     1.577105     1.569462     1.561819
      1.554176     1.546533     1.538890     1.531246     1.523603     1.515960     1.508317     1.500674     1.493031     1.485388
      1.477745     1.470102     1.462458     1.454815     1.447172     1.439529     1.431886     1.424243     1.416600     1.408957
      1.401314     1.393671     1.386027     1.378384     1.370741     1.363098     1.355455     1.347812     1.340169     1.332526
      1.324883     1.317240     1.309596     1.301953     1.294310     1.286667     1.279024     1.271381     1.263738     1.256095
      1.248452     1.240808     1.233165     1.225522     1.217879     1.210236     1.202593     1.194950     1.187307     1.179664
      1.172021     1.164377     1.156734     1.149091     1.141448     1.133805     1.126162     1.118519     1.110876     1.103233
      1.095590     1.087946     1.080303     1.072660     1.065017     1.057374     1.049731     1.042088     1.034445     1.026802
      1.019158     1.011515     1.003872     0.996229     0.988586     0.980943     0.973300     0.965657     0.958014     0.950371
      0.942727     0.935084     0.927441     0.919798     0.912155     0.904512     0.896869     0.889226     0.881583     0.873940
      0.866296     0.858653     0.851010     0.843367     0.835724     0.828081     0.820438     0.812795     0.805152     0.797508
      0.789865     0.782222     0.774579     0.766936     0.759293     0.751650     0.744007     0.736364     0.728721     0.721077
      0.713434     0.705791     0.698148     0.690505     0.682862     0.675219     0.667576     0.659933     0.652290     0.644646
      0.637003     0.629360     0.621717     0.614074     0.606431     0.598788     0.591145     0.583502     0.575858     0.568215
      0.560572     0.552929     0.545286     0.537643     0.530000     0.522357     0.514714     0.507071     0.499427     0.491784
      0.484141     0.476498     0.468855     0.461212     0.453569     0.445925     0.438282     0.430639     0.422996     0.415353
      0.407710     0.400067     0.392424     0.384780     0.377137     0.369494     0.361851     0.354208     0.346565     0.338922
      0.331278     0.323635     0.315992     0.308349     0.300706     0.293063     0.285420     0.277777     0.270133     0.262490
      0.254847     0.247204     0.239561     0.231918     0.224275     0.216631     0.208988     0.201345
 NY phased data points follow
   4.77120E+00  4.19456E+00  5.16832E+00  6.07766E+00  3.95189E+00  4.70310E+00  4.51335E+00  5.25650E+00  3.83458E+00  4.71594E+00
   4.31261E+00  5.51006E+00  5.62723E+00  3.65263E+00  6.17702E+00  4.39078E+00  2.89479E+00  4.49962E+00  5.16018E+00  3.24268E+00
   4.82515E+00  6.37402E+00  4.82510E+00  5.21337E+00  2.08390E+00  4.58531E+00  3.72261E+00  3.64475E+00  3.27395E+00  2.33192E+00
   1.95120E+00  1.45830E+00  3.62908E+00  1.80366E+00  3.03132E+00  2.90874E+00  2.15549E+00  2.45010E+00  2.59600E+00  2.87327E+00
   1.83576E+00  2.58884E+00  2.80198E+00  3.23014E+00  4.34704E+00  3.35520E+00  4.18213E+00  1.52061E+00  4.19084E+00  2.89487E+00
   3.48710E+00  3.96526E+00  2.99562E+00  4.23750E+00  3.48467E+00  2.18838E+00  2.56998E+00  2.98944E+00  2.23249E+00  9.31431E-01
   2.04350E+00  2.44524E+00  2.29094E+00  1.07153E+00  3.84580E+00  3.68741E-01  2.73577E+00  4.08492E+00  9.27244E-01  1.24782E+00
   2.76933E+00  1.22654E+00  2.28209E+00  2.99482E+00  2.38130E+00  2.55888E+00  1.80876E+00  2.55870E+00  1.57721E+00  1.86799E+00
   3.05070E+00  1.73929E+00  3.19379E+00  4.07652E+00  6.15042E-02  1.84734E+00  1.23133E+00  2.33456E+00  2.68042E+00  9.82499E-01
   2.64281E+00  8.92739E-01  2.05740E+00  1.48223E+00  3.66554E-01  9.27966E-01  1.25307E+00  2.53095E+00  2.62614E+00  1.59043E+00
   3.47040E+00  2.85142E-01 -2.47463E-02  4.03635E-01  2.13847E+00  1.85184E+00  2.70159E+00  1.31057E+00  2.51559E+00  8.13196E-01
   6.04267E-01  7.50957E-01  1.25551E+00  8.18060E-01  3.21191E+00  5.45807E-01  7.37579E-01  8.63143E-01  2.01062E+00 -6.77831E-01
   7.06378E-01  8.02441E-01  8.47339E-02  2.02813E+00  1.46661E+00  2.77667E+00 -9.24328E-02  7.92435E-02  7.79944E-01  1.37601E+00
   1.28227E+00  1.92029E+00  1.46563E+00  2.90946E+00  3.68541E-01  1.81489E-01  2.82833E-01  1.42594E+00  4.53667E-01  2.04951E+00
   2.30396E+00  6.85809E-01 -9.92874E-01  1.30699E+00 -3.61959E-01 -2.11719E-01  2.47757E-01 -5.00695E-01  9.48168E-01  1.63068E+00
   1.91208E+00  1.37608E-01  9.51003E-01 -2.11598E-01  6.30437E-01 -9.71497E-01  6.05489E-01  3.77350E-01 -6.57806E-01 -9.90779E-03
  -8.27918E-03  1.83214E+00  1.23496E+00  1.21522E+00 -1.16943E+00 -2.09657E-01  1.30142E+00  1.15697E+00  1.53617E+00  4.30232E-01
   1.95858E+00  1.10368E-01  1.32187E-01  1.12637E-01  7.18852E-01  3.64660E-01 -1.01307E+00  2.97102E-02 -7.65627E-02 -6.51215E-01
   2.13627E+00  7.75700E-01  7.42918E-01  1.47217E+00 -6.54328E-01  3.23158E-01  8.80152E-01  1.71909E-01  1.11214E+00  4.39840E-01
   4.43215E-01  5.15067E-02  1.55740E+00 -6.98380E-01 -1.29982E-01  1.49447E-01  1.42019E+00  2.33285E+00  6.27154E-01  2.51281E-02
   3.45221E-01  9.27806E-01  2.61469E+00  1.18670E+00  1.57775E+00  1.90660E+00  1.81557E+00  2.27371E-01  2.25072E+00  5.10578E-01
   2.03209E+00  3.11767E+00  2.30207E+00 -1.57081E-01  2.74458E+00  1.11956E+00  3.39092E+00  2.70018E+00  1.28240E+00  1.86209E+00
   3.74195E+00 -5.27070E-02  4.44858E+00  3.95485E+00  2.05813E+00  2.49215E+00  2.57860E+00  3.58746E+00  5.20426E+00  2.96055E+00
   2.11782E+00  2.07950E+00  3.07944E+00  4.46823E+00  3.71543E+00  4.90367E+00  3.52675E+00  4.24264E+00  2.07017E+00  3.38162E+00
   4.37115E+00  3.09007E+00  2.41380E+00  4.72092E+00  6.16066E+00  4.69728E+00  3.90251E+00  4.21811E+00  4.82877E+00  3.95900E+00
   3.51207E+00  5.97297E+00  4.57907E+00  3.27589E+00  5.87208E+00  5.93748E+00  4.66548E+00  4.72266E+00  5.41228E+00  4.42117E+00
   4.20781E+00  5.53087E+00  5.11164E+00  5.83925E+00  6.16487E+00  4.96395E+00  2.79800E+00  5.22858E+00  5.07240E+00  7.27086E+00
   4.07127E+00  4.14565E+00  4.18732E+00  6.00612E+00  4.28145E+00  4.27375E+00  4.83711E+00  4.06885E+00  2.75722E+00  5.16840E+00
   4.84103E+00  5.91583E+00  6.48304E+00  2.45236E+00  4.04532E+00  4.67020E+00  2.93837E+00  2.21903E+00  2.42915E+00  4.01513E+00
   4.69936E+00  2.09318E+00  2.16771E+00  5.85535E+00  3.68088E+00  3.61315E+00  4.90851E+00  4.44505E+00  7.88396E+00  3.40221E+00
   4.25656E+00  4.58294E+00  4.32465E+00  3.97051E+00  2.26452E+00  2.25137E+00  4.37050E+00  3.57736E+00  3.83017E+00  3.26182E+00
   5.55052E+00  1.89487E+00  3.91607E+00  3.44863E+00  3.08493E+00  2.43465E+00  4.67254E+00  2.38063E+00  1.69219E+00  2.68672E+00
   3.03444E+00  2.66244E+00  6.07940E+00  2.80187E+00  4.17513E+00  3.95901E+00  1.60648E+00  1.72197E+00  2.31198E+00  2.08827E-01
   1.85106E+00  3.63082E+00  1.01569E+00  2.97654E+00  3.10049E+00  3.46854E+00  2.06078E+00  2.74794E+00  3.06073E+00  4.56429E+00
   1.52682E+00  3.63727E+00  1.46632E+00  2.07914E+00  2.74229E+00  2.55523E+00  4.33809E+00  1.52425E+00  4.16552E+00  1.91674E+00
   3.90399E+00  3.02243E+00  4.48560E+00  3.16170E+00  3.61542E+00  2.90859E+00  2.54394E+00  5.26797E+00  3.22248E+00  4.47468E+00
   4.65848E+00  5.95581E+00  5.60291E+00  4.77985E+00  4.57218E+00  5.33991E+00  4.05050E+00  4.42002E+00  4.04627E+00  4.54403E+00
   3.58390E+00  4.03071E+00  2.48568E+00  4.15667E+00  2.74153E+00  9.96985E-01  6.94276E-01  2.86527E+00  2.18620E+00  1.84674E+00
   3.56475E+00  1.83895E+00  2.19794E+00  4.13306E-01  3.62984E+00  3.51529E+00  3.74792E+00  2.26392E+00  1.76045E+00 -1.21216E-01
   4.82450E-01  2.29832E+00  2.39017E+00  1.66605E+00  4.33861E-01  1.68576E+00  2.44008E-01  4.88746E-01 -1.38278E-01  1.98389E+00
   1.38533E+00  2.19832E+00 -4.38478E-01  3.48816E+00  7.37575E-01 -1.48483E+00  1.06576E+00 -9.88573E-01  7.76206E-02  1.83918E+00
   3.76312E-01  5.26642E-01 -4.02462E-01  2.77849E+00  2.37649E-01  1.08511E+00  7.57301E-02 -4.96151E-01  3.24257E-03  1.32692E-01
   1.61410E+00  8.46746E-01  9.37927E-01  3.93249E-01 -2.02974E-03  1.18709E+00  1.89892E-02  6.20791E-01  1.32764E+00 -4.70380E-01
  -6.55724E-01 -1.62291E-02 -1.28763E+00 -9.99632E-02 -7.01679E-01  1.42577E-01 -2.40263E-01 -1.24169E-01 -4.66219E-01 -6.46842E-01
  -2.12265E+00 -2.16147E+00  5.65064E-01  1.54290E+00  1.04740E+00 -1.66175E-01  3.02376E+00  1.41387E-01  1.39433E-02 -4.02833E-01
   2.31589E+00  1.53476E-01  1.72475E+00  1.76687E+00 -2.76697E-01  2.31340E+00 -3.81381E-01  5.31016E-02 -8.36745E-01  1.72549E-01
  -3.68283E-01  8.86164E-01  3.05147E-01  7.21253E-01 -1.30479E+00 -4.50928E-01  8.57188E-01  5.55402E-01  6.97632E-01  8.08864E-01
   2.37395E-01  3.52043E-01  3.61021E-03  7.95920E-01  5.76512E-01 -4.00188E-01 -1.11439E+00 -1.34943E-02 -5.78020E-01  3.75748E-01
  -8.62336E-01 -2.67270E-01 -5.30708E-01  6.24486E-01  4.14467E-01 -8.76481E-01 -9.73790E-01  3.37956E-01  6.19591E-02 -2.51486E-01
   5.44012E-01  1.31616E+00  3.93495E-01  9.02110E-01 -2.26240E+00  4.40215E-01  6.18355E-02 -4.14339E-01
 NY points of the fit to the data follow
   3.82597E+00  3.95500E+00  3.94935E+00  3.68063E+00  3.59560E+00  3.79179E+00  3.95089E+00  3.90371E+00  3.91174E+00  4.00735E+00
   4.05953E+00  4.22826E+00  4.25897E+00  4.37354E+00  4.65628E+00  4.43887E+00  3.78892E+00  3.93839E+00  3.99832E+00  3.37040E+00
   3.62228E+00  4.56083E+00  5.15772E+00  4.11571E+00  3.49757E+00  4.05986E+00  3.97265E+00  3.89502E+00  3.86325E+00  4.29636E+00
   4.47281E+00  3.95355E+00  3.99577E+00  3.65335E+00  4.21320E+00  4.33283E+00  3.24089E+00  4.06096E+00  4.29486E+00  3.39596E+00
   3.31231E+00  3.95684E+00  4.35903E+00  3.64147E+00  3.34394E+00  3.05946E+00  2.83299E+00  2.68774E+00  2.95818E+00  3.15363E+00
   3.30281E+00  3.36044E+00  2.80088E+00  2.46887E+00  2.32250E+00  2.18790E+00  2.01464E+00  1.98894E+00  2.00776E+00  1.87308E+00
   1.64273E+00  1.54634E+00  1.74641E+00  1.83308E+00  1.73679E+00  1.79445E+00  1.83059E+00  1.83967E+00  1.76664E+00  1.78347E+00
   1.81664E+00  1.75957E+00  1.74784E+00  1.66826E+00  1.62064E+00  1.69385E+00  1.65953E+00  1.55714E+00  1.46490E+00  1.44787E+00
   1.43799E+00  1.37651E+00  1.32188E+00  1.24146E+00  1.15076E+00  1.15300E+00  1.13846E+00  1.11264E+00  1.11617E+00  1.11189E+00
   1.08902E+00  1.22062E+00  1.53255E+00  1.89231E+00  1.58241E+00  1.32254E+00  1.82059E+00  2.04504E+00  1.99378E+00  1.99629E+00
   2.14901E+00  2.05875E+00  2.15837E+00  2.12016E+00  1.94217E+00  2.11021E+00  2.00149E+00  1.54351E+00  1.69106E+00  1.59372E+00
   1.40039E+00  1.23227E+00  1.31167E+00  1.41668E+00  1.05055E+00  9.44819E-01  1.10154E+00  1.49578E+00  1.64206E+00  1.26657E+00
   1.34758E+00  1.77701E+00  1.90077E+00  1.87372E+00  1.94116E+00  1.96743E+00  1.93248E+00  2.03226E+00  1.90146E+00  1.88546E+00
   2.04671E+00  1.70349E+00  1.50926E+00  1.63282E+00  1.46334E+00  1.27086E+00  1.15219E+00  1.27879E+00  1.14527E+00  8.10250E-01
   7.63657E-01  7.86961E-01  8.05129E-01  8.16791E-01  8.07248E-01  8.25661E-01  8.78521E-01  8.83249E-01  8.87933E-01  8.97097E-01
   8.68855E-01  8.70698E-01  9.06390E-01  9.05733E-01  8.88445E-01  8.91869E-01  8.88528E-01  8.68423E-01  8.84636E-01  8.55388E-01
   8.31169E-01  8.86797E-01  9.03912E-01  8.53040E-01  8.39327E-01  8.31171E-01  8.55717E-01  8.82939E-01  8.97313E-01  8.74321E-01
   8.58197E-01  8.75679E-01  8.56783E-01  8.95640E-01  1.00246E+00  9.89254E-01  9.71631E-01  1.01822E+00  1.06504E+00  1.09590E+00
   1.11926E+00  1.19631E+00  1.23378E+00  1.13171E+00  8.97339E-01  9.07001E-01  7.76625E-01  5.83560E-01  7.02346E-01  6.59711E-01
   6.44918E-01  9.90784E-01  1.43815E+00  1.15750E+00  1.16190E+00  1.99361E+00  2.18275E+00  1.91356E+00  1.72434E+00  9.72869E-01
   3.74284E-01  1.24572E+00  2.68811E+00  1.33013E+00  5.64964E-01  1.29038E+00  1.82808E+00  2.58739E+00  2.27524E+00  1.02319E+00
   1.83461E+00  2.84787E+00  1.98078E+00  2.48552E-01  2.00866E+00  2.78744E+00  2.57023E+00  2.07873E+00  1.89015E+00  2.72642E+00
   2.27381E+00  2.27927E+00  3.71008E+00  3.21010E+00  3.08149E+00  2.16333E+00  1.19538E+00  2.91877E+00  3.25871E+00  2.08020E+00
   2.37244E+00  3.56524E+00  3.18722E+00  2.16546E+00  3.25644E+00  4.67578E+00  4.62052E+00  3.99120E+00  3.09332E+00  2.80273E+00
   3.35851E+00  2.68080E+00  2.01167E+00  2.35718E+00  3.09159E+00  2.73485E+00  2.89501E+00  3.43935E+00  3.10331E+00  3.23642E+00
   4.08949E+00  4.95103E+00  4.51920E+00  4.25630E+00  4.53413E+00  5.50217E+00  5.72928E+00  5.67585E+00  6.30327E+00  6.27239E+00
   5.63992E+00  5.75488E+00  5.29691E+00  5.29862E+00  4.94940E+00  5.05664E+00  4.86997E+00  4.29717E+00  3.95097E+00  3.42089E+00
   3.79305E+00  3.96978E+00  3.83464E+00  3.75274E+00  3.76866E+00  3.72890E+00  3.49931E+00  3.54422E+00  3.60776E+00  3.51689E+00
   3.51867E+00  3.54371E+00  3.52769E+00  3.47475E+00  3.47838E+00  3.53234E+00  3.49362E+00  3.40153E+00  3.36709E+00  3.35482E+00
   3.34402E+00  3.31178E+00  3.29061E+00  3.30609E+00  3.30814E+00  3.29882E+00  3.28221E+00  3.27688E+00  3.26900E+00  3.25707E+00
   3.24582E+00  3.23551E+00  3.23003E+00  3.22104E+00  3.20065E+00  3.18222E+00  3.16529E+00  3.14817E+00  3.12427E+00  3.09882E+00
   3.07881E+00  3.05635E+00  3.03084E+00  3.00494E+00  2.97987E+00  2.95390E+00  2.92803E+00  2.90291E+00  2.87908E+00  2.85653E+00
   2.83541E+00  2.81585E+00  2.79808E+00  2.78200E+00  2.76763E+00  2.75537E+00  2.74539E+00  2.73799E+00  2.73355E+00  2.73257E+00
   2.73574E+00  2.74410E+00  2.75923E+00  2.78373E+00  2.82238E+00  2.88638E+00  3.01179E+00  3.22439E+00  3.13340E+00  2.88593E+00
   3.07951E+00  3.30648E+00  3.26658E+00  3.15560E+00  3.17536E+00  3.44785E+00  3.62379E+00  3.45856E+00  3.36751E+00  3.63259E+00
   3.84639E+00  3.65480E+00  3.84289E+00  4.00449E+00  3.99707E+00  4.09403E+00  4.09882E+00  4.32437E+00  4.42139E+00  4.13855E+00
   4.19536E+00  4.31414E+00  4.31910E+00  4.18836E+00  4.05915E+00  4.14058E+00  4.02041E+00  3.76180E+00  3.56142E+00  3.38996E+00
   3.23249E+00  3.08483E+00  2.94577E+00  2.81507E+00  2.69275E+00  2.57888E+00  2.47340E+00  2.37612E+00  2.28671E+00  2.20472E+00
   2.12966E+00  2.06096E+00  1.99803E+00  1.94028E+00  1.88713E+00  1.83805E+00  1.79255E+00  1.75019E+00  1.71057E+00  1.67333E+00
   1.63814E+00  1.60477E+00  1.57297E+00  1.54255E+00  1.51333E+00  1.48512E+00  1.45780E+00  1.43125E+00  1.40536E+00  1.38003E+00
   1.35516E+00  1.33065E+00  1.30644E+00  1.28249E+00  1.25874E+00  1.23514E+00  1.21165E+00  1.18824E+00  1.16493E+00  1.14172E+00
   1.11860E+00  1.09557E+00  1.07263E+00  1.04981E+00  1.02716E+00  1.00466E+00  9.82344E-01  9.60224E-01  9.38294E-01  9.16573E-01
   8.95089E-01  8.73838E-01  8.52804E-01  8.31984E-01  8.11378E-01  7.90985E-01  7.70808E-01  7.50828E-01  7.31026E-01  7.11402E-01
   6.91945E-01  6.72655E-01  6.53523E-01  6.34544E-01  6.15709E-01  5.96993E-01  5.78402E-01  5.59957E-01  5.41637E-01  5.23421E-01
   5.05316E-01  4.87322E-01  4.69434E-01  4.51659E-01  4.33990E-01  4.16412E-01  3.98928E-01  3.81532E-01  3.64238E-01  3.47048E-01
   3.29933E-01  3.12897E-01  2.95952E-01  2.79084E-01  2.62307E-01  2.45616E-01  2.28990E-01  2.12429E-01  1.95933E-01  1.79508E-01
   1.63153E-01  1.46864E-01  1.30621E-01  1.14429E-01  9.82924E-02  8.22064E-02  6.61717E-02  5.01859E-02  3.42295E-02  1.83033E-02
   2.40818E-03 -1.34445E-02 -2.92645E-02 -4.50764E-02 -6.08691E-02 -7.66434E-02 -9.24130E-02 -1.08170E-01 -1.23920E-01 -1.39681E-01
  -1.55459E-01 -1.71252E-01 -1.87057E-01 -2.02886E-01 -2.18753E-01 -2.34663E-01 -2.50627E-01 -2.66651E-01 -2.82742E-01 -2.98911E-01
  -3.15171E-01 -3.31543E-01 -3.48042E-01 -3.64682E-01 -3.81479E-01 -3.98453E-01 -4.15637E-01 -4.33067E-01
 NY background values follow
     1.794E+00    1.789E+00    1.783E+00    1.777E+00    1.771E+00    1.765E+00    1.759E+00    1.754E+00    1.748E+00    1.742E+00
     1.736E+00    1.730E+00    1.724E+00    1.718E+00    1.712E+00    1.706E+00    1.700E+00    1.694E+00    1.688E+00    1.682E+00
     1.676E+00    1.670E+00    1.664E+00    1.658E+00    1.652E+00    1.646E+00    1.640E+00    1.634E+00    1.628E+00    1.622E+00
     1.616E+00    1.610E+00    1.604E+00    1.598E+00    1.592E+00    1.586E+00    1.580E+00    1.574E+00    1.568E+00    1.562E+00
     1.556E+00    1.550E+00    1.544E+00    1.539E+00    1.533E+00    1.527E+00    1.521E+00    1.515E+00    1.510E+00    1.504E+00
     1.498E+00    1.493E+00    1.487E+00    1.482E+00    1.476E+00    1.470E+00    1.465E+00    1.459E+00    1.454E+00    1.449E+00
     1.443E+00    1.438E+00    1.433E+00    1.428E+00    1.422E+00    1.417E+00    1.412E+00    1.407E+00    1.402E+00    1.397E+00
     1.392E+00    1.387E+00    1.382E+00    1.378E+00    1.373E+00    1.368E+00    1.364E+00    1.359E+00    1.355E+00    1.350E+00
     1.346E+00    1.342E+00    1.337E+00    1.333E+00    1.329E+00    1.325E+00    1.321E+00    1.317E+00    1.313E+00    1.309E+00
     1.305E+00    1.302E+00    1.298E+00    1.295E+00    1.291E+00    1.288E+00    1.285E+00    1.281E+00    1.278E+00    1.275E+00
     1.272E+00    1.270E+00    1.267E+00    1.264E+00    1.262E+00    1.259E+00    1.257E+00    1.255E+00    1.253E+00    1.251E+00
     1.249E+00    1.248E+00    1.246E+00    1.245E+00    1.244E+00    1.243E+00    1.242E+00    1.241E+00    1.240E+00    1.240E+00
     1.239E+00    1.239E+00    1.239E+00    1.239E+00    1.240E+00    1.240E+00    1.241E+00    1.242E+00    1.243E+00    1.244E+00
     1.245E+00    1.247E+00    1.249E+00    1.251E+00    1.253E+00    1.256E+00    1.258E+00    1.261E+00    1.264E+00    1.267E+00
     1.271E+00    1.274E+00    1.278E+00    1.282E+00    1.287E+00    1.291E+00    1.296E+00    1.301E+00    1.306E+00    1.311E+00
     1.317E+00    1.322E+00    1.328E+00    1.334E+00    1.340E+00    1.347E+00    1.353E+00    1.360E+00    1.367E+00    1.375E+00
     1.382E+00    1.389E+00    1.397E+00    1.405E+00    1.413E+00    1.422E+00    1.430E+00    1.439E+00    1.448E+00    1.457E+00
     1.466E+00    1.475E+00    1.485E+00    1.494E+00    1.504E+00    1.514E+00    1.524E+00    1.535E+00    1.545E+00    1.556E+00
     1.567E+00    1.578E+00    1.589E+00    1.600E+00    1.612E+00    1.623E+00    1.635E+00    1.647E+00    1.659E+00    1.671E+00
     1.683E+00    1.696E+00    1.708E+00    1.721E+00    1.733E+00    1.746E+00    1.759E+00    1.772E+00    1.785E+00    1.798E+00
     1.811E+00    1.824E+00    1.837E+00    1.850E+00    1.863E+00    1.876E+00    1.890E+00    1.903E+00    1.916E+00    1.929E+00
     1.943E+00    1.956E+00    1.969E+00    1.982E+00    1.995E+00    2.009E+00    2.022E+00    2.035E+00    2.048E+00    2.061E+00
     2.073E+00    2.086E+00    2.099E+00    2.112E+00    2.124E+00    2.137E+00    2.149E+00    2.161E+00    2.173E+00    2.185E+00
     2.197E+00    2.209E+00    2.221E+00    2.232E+00    2.244E+00    2.255E+00    2.266E+00    2.277E+00    2.288E+00    2.298E+00
     2.309E+00    2.319E+00    2.329E+00    2.339E+00    2.349E+00    2.358E+00    2.367E+00    2.377E+00    2.385E+00    2.394E+00
     2.403E+00    2.411E+00    2.419E+00    2.427E+00    2.434E+00    2.442E+00    2.449E+00    2.455E+00    2.462E+00    2.468E+00
     2.474E+00    2.480E+00    2.486E+00    2.491E+00    2.496E+00    2.500E+00    2.505E+00    2.509E+00    2.513E+00    2.516E+00
     2.519E+00    2.522E+00    2.525E+00    2.527E+00    2.529E+00    2.530E+00    2.531E+00    2.532E+00    2.533E+00    2.533E+00
     2.533E+00    2.533E+00    2.532E+00    2.531E+00    2.530E+00    2.529E+00    2.527E+00    2.525E+00    2.522E+00    2.519E+00
     2.516E+00    2.513E+00    2.509E+00    2.505E+00    2.501E+00    2.497E+00    2.492E+00    2.487E+00    2.482E+00    2.476E+00
     2.470E+00    2.464E+00    2.457E+00    2.451E+00    2.444E+00    2.436E+00    2.429E+00    2.421E+00    2.413E+00    2.405E+00
     2.396E+00    2.387E+00    2.378E+00    2.369E+00    2.359E+00    2.349E+00    2.339E+00    2.328E+00    2.318E+00    2.307E+00
     2.296E+00    2.284E+00    2.273E+00    2.261E+00    2.249E+00    2.237E+00    2.224E+00    2.212E+00    2.199E+00    2.185E+00
     2.172E+00    2.159E+00    2.145E+00    2.131E+00    2.117E+00    2.103E+00    2.088E+00    2.073E+00    2.059E+00    2.044E+00
     2.028E+00    2.013E+00    1.998E+00    1.982E+00    1.966E+00    1.950E+00    1.934E+00    1.918E+00    1.901E+00    1.885E+00
     1.868E+00    1.852E+00    1.835E+00    1.818E+00    1.801E+00    1.783E+00    1.766E+00    1.748E+00    1.731E+00    1.713E+00
     1.696E+00    1.678E+00    1.660E+00    1.642E+00    1.624E+00    1.606E+00    1.587E+00    1.569E+00    1.551E+00    1.532E+00
     1.514E+00    1.495E+00    1.477E+00    1.458E+00    1.439E+00    1.421E+00    1.402E+00    1.383E+00    1.364E+00    1.345E+00
     1.327E+00    1.308E+00    1.289E+00    1.270E+00    1.251E+00    1.232E+00    1.213E+00    1.194E+00    1.175E+00    1.156E+00
     1.137E+00    1.118E+00    1.100E+00    1.081E+00    1.062E+00    1.043E+00    1.024E+00    1.005E+00    9.868E-01    9.681E-01
     9.494E-01    9.309E-01    9.123E-01    8.938E-01    8.754E-01    8.570E-01    8.387E-01    8.205E-01    8.023E-01    7.842E-01
     7.662E-01    7.482E-01    7.303E-01    7.125E-01    6.947E-01    6.770E-01    6.594E-01    6.418E-01    6.244E-01    6.069E-01
     5.896E-01    5.723E-01    5.551E-01    5.380E-01    5.209E-01    5.039E-01    4.870E-01    4.701E-01    4.534E-01    4.366E-01
     4.200E-01    4.034E-01    3.869E-01    3.705E-01    3.541E-01    3.378E-01    3.216E-01    3.054E-01    2.894E-01    2.734E-01
     2.574E-01    2.415E-01    2.257E-01    2.100E-01    1.944E-01    1.788E-01    1.633E-01    1.478E-01    1.324E-01    1.171E-01
     1.019E-01    8.674E-02    7.165E-02    5.664E-02    4.169E-02    2.681E-02    1.199E-02   -2.755E-03   -1.744E-02   -3.206E-02
    -4.662E-02   -6.112E-02   -7.556E-02   -8.994E-02   -1.043E-01   -1.185E-01   -1.328E-01   -1.469E-01   -1.610E-01   -1.751E-01
    -1.891E-01   -2.031E-01   -2.170E-01   -2.309E-01   -2.447E-01   -2.585E-01   -2.722E-01   -2.860E-01   -2.996E-01   -3.133E-01
    -3.269E-01   -3.404E-01   -3.540E-01   -3.675E-01   -3.809E-01   -3.944E-01   -4.078E-01   -4.212E-01   -4.345E-01   -4.478E-01
    -4.611E-01   -4.744E-01   -4.877E-01   -5.009E-01   -5.142E-01   -5.274E-01   -5.406E-01   -5.537E-01
 Asp      Conc. = 1.65E+01
