 LCModel (Version 6.3-1L) Copyright: S.W. Provencher.          Ref.: Magn. Reson. Med. 30:672-679 (1993).                
 Slice#1 Row#5 Col#12  PD_05_press_1_raw_act
 36 lines in following concentration table = NCONC+1
    Conc.  %SD /Cr+PCr  Metabolite                                         
    0.000 999%   0.000 Ala                                                 
   56.350  97%   0.774 Asp                                                 
    0.000 999%   0.000 Cr                                                  
   72.764  39%   1.000 PCr                                                 
   32.020 106%   0.440 GABA                                                
   42.682  78%   0.587 Glc                                                 
    0.000 999%   0.000 Gln                                                 
  345.121  71%   4.743 Glu                                                 
    0.000 999%   0.000 GPC                                                 
   22.276  46%   0.306 PCh                                                 
   41.147 109%   0.565 GSH                                                 
    0.000 999%   0.000 Ins                                                 
    0.000 999%   0.000 Lac                                                 
 1.00E+03  16%  13.787 NAA                                                 
    0.221 999% 3.0E-03 NAAG                                                
   19.758  46%   0.272 Scyllo                                              
   87.547  61%   1.203 Tau                                                 
   17.686 136%   0.243 -CrCH2                                              
   22.276  46%   0.306 GPC+PCh                                             
 1.00E+03   7%  13.790 NAA+NAAG                                            
   72.764  39%   1.000 Cr+PCr                                              
  345.121  71%   4.743 Glu+Gln                                             
 2.19E+03  16%  30.150 Lip13a                                              
    0.000 999%   0.000 Lip13b                                              
    0.000 999%   0.000 Lip09                                               
 1.10E+03  11%  15.144 MM09                                                
  334.896  51%   4.603 Lip20                                               
 2.00E+03  12%  27.544 MM20                                                
  390.196  23%   5.363 MM12                                                
  917.959  25%  12.616 MM14                                                
 1.13E+03  15%  15.556 MM17                                                
 2.19E+03  16%  30.150 Lip13a+Lip13b                                       
 3.50E+03   8%  48.129 MM14+Lip13a+Lip13b+MM12                             
 1.10E+03  11%  15.144 MM09+Lip09                                          
 2.34E+03  10%  32.146 MM20+Lip20                                          
   6 lines in following misc. output table
  FWHM = 0.092 ppm    S/N =   9                                            
  Data shift = 0.069 ppm                                                   
  Ph:  14 deg       4.6 deg/ppm                                            
  alphaB,S = 8.5E+01,   5.1E+01                                            
   14 spline knots.   Ns = 6(2)                                            
   2 inflections.     1 extrema                                            
  498 points on ppm-axis = NY
      4.000000     3.992357     3.984714     3.977070     3.969427     3.961784     3.954141     3.946497     3.938854     3.931211
      3.923568     3.915925     3.908281     3.900638     3.892995     3.885352     3.877708     3.870065     3.862422     3.854779
      3.847136     3.839492     3.831849     3.824206     3.816563     3.808919     3.801276     3.793633     3.785990     3.778347
      3.770703     3.763060     3.755417     3.747774     3.740130     3.732487     3.724844     3.717201     3.709558     3.701914
      3.694271     3.686628     3.678985     3.671341     3.663698     3.656055     3.648412     3.640769     3.633125     3.625482
      3.617839     3.610196     3.602552     3.594909     3.587266     3.579623     3.571980     3.564336     3.556693     3.549050
      3.541407     3.533763     3.526120     3.518477     3.510834     3.503191     3.495547     3.487904     3.480261     3.472618
      3.464974     3.457331     3.449688     3.442045     3.434402     3.426758     3.419115     3.411472     3.403829     3.396185
      3.388542     3.380899     3.373256     3.365613     3.357969     3.350326     3.342683     3.335040     3.327396     3.319753
      3.312110     3.304467     3.296824     3.289180     3.281537     3.273894     3.266251     3.258607     3.250964     3.243321
      3.235678     3.228034     3.220391     3.212748     3.205105     3.197462     3.189818     3.182175     3.174532     3.166889
      3.159245     3.151602     3.143959     3.136316     3.128673     3.121029     3.113386     3.105743     3.098100     3.090456
      3.082813     3.075170     3.067527     3.059884     3.052240     3.044597     3.036954     3.029311     3.021667     3.014024
      3.006381     2.998738     2.991095     2.983451     2.975808     2.968165     2.960522     2.952878     2.945235     2.937592
      2.929949     2.922306     2.914662     2.907019     2.899376     2.891733     2.884089     2.876446     2.868803     2.861160
      2.853517     2.845873     2.838230     2.830587     2.822944     2.815300     2.807657     2.800014     2.792371     2.784728
      2.777084     2.769441     2.761798     2.754155     2.746511     2.738868     2.731225     2.723582     2.715939     2.708295
      2.700652     2.693009     2.685366     2.677722     2.670079     2.662436     2.654793     2.647150     2.639506     2.631863
      2.624220     2.616577     2.608933     2.601290     2.593647     2.586004     2.578361     2.570717     2.563074     2.555431
      2.547788     2.540144     2.532501     2.524858     2.517215     2.509572     2.501928     2.494285     2.486642     2.478999
      2.471355     2.463712     2.456069     2.448426     2.440783     2.433139     2.425496     2.417853     2.410210     2.402566
      2.394923     2.387280     2.379637     2.371994     2.364350     2.356707     2.349064     2.341421     2.333777     2.326134
      2.318491     2.310848     2.303205     2.295561     2.287918     2.280275     2.272632     2.264988     2.257345     2.249702
      2.242059     2.234416     2.226772     2.219129     2.211486     2.203843     2.196199     2.188556     2.180913     2.173270
      2.165627     2.157983     2.150340     2.142697     2.135054     2.127410     2.119767     2.112124     2.104481     2.096838
      2.089194     2.081551     2.073908     2.066265     2.058621     2.050978     2.043335     2.035692     2.028049     2.020405
      2.012762     2.005119     1.997476     1.989833     1.982190     1.974546     1.966903     1.959260     1.951617     1.943974
      1.936331     1.928688     1.921045     1.913402     1.905759     1.898115     1.890472     1.882829     1.875186     1.867543
      1.859900     1.852257     1.844614     1.836971     1.829327     1.821684     1.814041     1.806398     1.798755     1.791112
      1.783469     1.775826     1.768183     1.760540     1.752896     1.745253     1.737610     1.729967     1.722324     1.714681
      1.707038     1.699395     1.691752     1.684108     1.676465     1.668822     1.661179     1.653536     1.645893     1.638250
      1.630607     1.622964     1.615321     1.607677     1.600034     1.592391     1.584748     1.577105     1.569462     1.561819
      1.554176     1.546533     1.538890     1.531246     1.523603     1.515960     1.508317     1.500674     1.493031     1.485388
      1.477745     1.470102     1.462458     1.454815     1.447172     1.439529     1.431886     1.424243     1.416600     1.408957
      1.401314     1.393671     1.386027     1.378384     1.370741     1.363098     1.355455     1.347812     1.340169     1.332526
      1.324883     1.317240     1.309596     1.301953     1.294310     1.286667     1.279024     1.271381     1.263738     1.256095
      1.248452     1.240808     1.233165     1.225522     1.217879     1.210236     1.202593     1.194950     1.187307     1.179664
      1.172021     1.164377     1.156734     1.149091     1.141448     1.133805     1.126162     1.118519     1.110876     1.103233
      1.095590     1.087946     1.080303     1.072660     1.065017     1.057374     1.049731     1.042088     1.034445     1.026802
      1.019158     1.011515     1.003872     0.996229     0.988586     0.980943     0.973300     0.965657     0.958014     0.950371
      0.942727     0.935084     0.927441     0.919798     0.912155     0.904512     0.896869     0.889226     0.881583     0.873940
      0.866296     0.858653     0.851010     0.843367     0.835724     0.828081     0.820438     0.812795     0.805152     0.797508
      0.789865     0.782222     0.774579     0.766936     0.759293     0.751650     0.744007     0.736364     0.728721     0.721077
      0.713434     0.705791     0.698148     0.690505     0.682862     0.675219     0.667576     0.659933     0.652290     0.644646
      0.637003     0.629360     0.621717     0.614074     0.606431     0.598788     0.591145     0.583502     0.575858     0.568215
      0.560572     0.552929     0.545286     0.537643     0.530000     0.522357     0.514714     0.507071     0.499427     0.491784
      0.484141     0.476498     0.468855     0.461212     0.453569     0.445925     0.438282     0.430639     0.422996     0.415353
      0.407710     0.400067     0.392424     0.384780     0.377137     0.369494     0.361851     0.354208     0.346565     0.338922
      0.331278     0.323635     0.315992     0.308349     0.300706     0.293063     0.285420     0.277777     0.270133     0.262490
      0.254847     0.247204     0.239561     0.231918     0.224275     0.216631     0.208988     0.201345
 NY phased data points follow
  -1.60618E+00  5.32606E-01 -3.17295E+00 -1.77191E+00 -1.00414E+00 -3.29063E-01  1.80738E+00  2.24280E+00 -1.27068E+00 -7.26555E-01
  -3.71875E+00 -4.70118E+00 -1.66113E+00 -6.84694E-01 -1.95631E+00  2.18371E-01 -9.66098E-01  1.29943E+00 -2.01337E+00  4.73215E-01
   1.39125E+00 -1.13606E+00 -1.21094E+00 -9.97230E-01 -1.46125E+00 -1.51252E-01  9.86107E-01 -6.02924E-02 -3.54861E+00 -6.03690E-01
   1.09865E+00 -1.21496E+00 -1.85312E+00 -7.43046E-02  8.31166E-01  2.11950E+00 -2.54501E+00 -4.21849E-01 -8.89827E-01 -1.65717E+00
  -3.57057E+00 -1.62939E+00 -3.12198E-01 -1.24238E+00 -3.72435E+00 -1.68243E+00 -3.31111E+00 -3.85352E+00 -1.16463E+00  5.12429E-02
  -1.08412E+00 -1.71288E+00 -1.33228E+00 -1.27424E+00  3.90358E+00 -7.22656E-01 -6.50851E-01 -4.27341E-01 -2.39566E+00  5.35758E-02
  -3.58384E-01  3.91634E-01  3.49721E-01 -2.38645E+00  8.84225E-01 -9.15036E-01  9.57744E-02  3.18866E-01 -2.55338E+00 -2.08948E+00
  -1.93110E+00 -4.95943E-01  4.39811E-01 -2.64766E+00  5.31863E-01 -1.78971E+00  9.65071E-01 -1.78299E+00  1.06632E+00  6.84845E-01
   2.54513E+00 -7.67054E-01 -1.36260E+00  1.36071E+00  6.21594E-01 -1.58188E+00  1.08695E+00  9.25473E-02  2.05339E+00 -2.52088E+00
  -2.73783E+00  4.57631E-01  1.63263E-01 -3.92881E-01  1.61979E+00  2.07649E+00  7.78213E-01  3.58066E+00  2.52941E+00  1.38715E+00
   7.37500E-02  1.71877E+00 -7.80294E-01 -8.29010E-01  3.90983E-01 -2.12558E+00 -2.12735E-03 -9.83916E-01  1.03675E+00  3.34137E-01
   7.87199E-01  6.35225E-02 -1.77871E+00  1.70198E-01 -1.22123E+00 -1.15531E+00 -1.41301E+00 -5.32382E-02  3.90701E+00  2.16962E+00
   3.88899E+00  3.63328E+00  1.70120E+00 -9.27874E-01  1.58517E+00  1.25237E+00  2.58313E+00  2.45830E+00  3.14998E+00  2.81700E+00
   3.70702E+00 -4.21980E-01 -9.38871E-01  3.89302E+00  1.09785E+00 -1.31893E+00 -1.32345E+00 -8.95792E-01  5.12426E-01  1.01143E+00
   7.99757E-01 -1.20597E-02 -1.22565E+00  6.49261E-01  1.21477E+00  1.25748E-02  4.86344E-01  4.64132E-01 -2.04743E+00  5.09689E-01
   1.29454E+00 -1.17206E+00 -6.96013E-01 -3.52929E-01  1.50153E+00  2.57654E+00  1.14592E+00 -1.90879E-02 -6.32223E-01  3.31456E-01
  -1.94767E+00  5.36806E-01 -3.33944E+00 -1.36925E+00 -2.57188E+00 -3.02154E-01 -2.17512E-01 -1.13712E+00 -1.82703E+00 -2.81073E+00
  -1.93582E+00 -2.74812E+00 -3.45945E+00 -2.56753E+00 -1.74587E+00 -4.03344E+00 -2.20983E+00 -4.31803E+00 -1.29738E+00 -4.79347E+00
  -2.02969E+00 -2.57699E+00 -2.25800E+00 -1.83560E+00 -1.66424E+00 -1.92942E+00 -2.36044E+00 -1.38567E+00  1.44235E+00 -2.72768E+00
   1.11686E+00  2.84899E-01 -1.21328E+00 -2.37853E+00 -2.12704E+00 -1.61741E+00 -2.42364E+00 -1.86679E+00  5.83123E-01 -1.73703E+00
  -1.04527E+00 -9.36882E-01 -3.25562E+00 -3.89613E-02 -6.20139E-01  7.54795E-01  1.82891E+00  3.16880E+00  2.99334E+00 -8.60369E-01
   3.68637E+00  2.81608E+00  3.30317E+00  3.51835E+00  4.52937E+00 -3.41995E-01  1.70665E+00  9.33746E-01  2.08547E+00  2.17682E+00
   4.79578E+00  1.48597E+00  1.62485E+00 -6.11509E-02  1.69423E+00  8.49252E-01  4.89217E+00  2.24254E+00  1.63984E+00  2.30201E+00
   3.74070E+00  5.88962E+00  1.78742E+00  7.62103E-01  4.92307E+00  2.94688E+00  4.62103E+00  7.35981E+00  5.81482E+00  4.30049E+00
   4.80464E+00  6.24410E+00  6.27540E+00  5.93616E+00  6.57391E+00  8.45061E+00  1.06044E+01  1.00048E+01  6.78826E+00  1.05845E+01
   1.14806E+01  1.21550E+01  1.80472E+01  1.87068E+01  2.25668E+01  2.33585E+01  2.30428E+01  2.69110E+01  3.00579E+01  3.04181E+01
   2.55376E+01  2.62524E+01  2.48509E+01  2.36913E+01  1.96796E+01  1.76762E+01  9.98431E+00  1.30124E+01  9.01804E+00  6.52396E+00
   3.40386E+00  5.79935E+00  2.32042E+00  4.78165E+00  3.34994E+00  1.91852E+00  4.43839E+00  3.22290E+00  2.30560E+00  3.56516E+00
   2.09137E+00  3.95525E+00  4.59899E+00  2.26254E+00  4.12671E+00  1.06198E+00  4.52677E-01  5.30142E-01  3.20734E+00  4.19315E+00
   2.93581E+00  3.57231E+00  2.66237E+00  3.99796E+00  2.14999E+00  1.49672E+00  2.60330E+00  5.40285E+00  5.18108E+00  4.21988E+00
   3.25423E+00  4.78658E+00  8.10502E+00  6.42886E+00  8.60566E+00  7.14277E+00  7.85638E+00  9.11400E+00  6.02962E+00  6.43400E+00
   9.31480E+00  8.78894E+00  8.70933E+00  8.81451E+00  1.04053E+01  9.75803E+00  1.00421E+01  1.05691E+01  8.10598E+00  6.89338E+00
   6.32439E+00  9.24367E+00  7.44997E+00  1.10999E+01  7.60097E+00  5.09890E+00  8.51184E+00  8.36275E+00  6.60727E+00  7.27621E+00
   7.99934E+00  6.38125E+00  7.24066E+00  6.92122E+00  6.48619E+00  5.11014E+00  5.52469E+00  4.59782E+00  6.57966E+00  5.79431E+00
   6.94818E+00  6.48160E+00  7.41012E+00  6.45656E+00  7.64986E+00  7.28422E+00  1.02180E+01  1.16324E+01  8.19782E+00  1.11159E+01
   9.40406E+00  8.88006E+00  9.60834E+00  9.33732E+00  7.51831E+00  7.88269E+00  1.19792E+01  7.37377E+00  8.35205E+00  1.00803E+01
   8.67655E+00  9.35952E+00  1.12460E+01  9.95235E+00  1.17664E+01  6.82795E+00  9.15047E+00  1.03885E+01  7.05375E+00  8.91358E+00
   9.90946E+00  9.78846E+00  8.15111E+00  6.54371E+00  6.42543E+00  9.34835E+00  6.91408E+00  7.30357E+00  4.82136E+00  6.99399E+00
   5.42197E+00  5.87853E+00  3.87100E+00  5.72215E+00  6.44901E+00  4.94119E+00  5.54039E+00  7.51098E+00  3.61820E+00  3.84758E+00
   5.49813E+00  2.75114E+00  4.74867E+00  6.94515E+00  5.01368E+00  6.45351E+00  4.36828E+00  4.83929E+00  7.03515E+00  5.20227E+00
   8.89150E+00  6.03775E+00  5.62434E+00  6.05332E+00  6.65781E+00  7.15478E+00  8.92823E+00  8.48942E+00  3.72527E+00  5.70419E+00
   3.24322E+00  1.42188E+00  4.96175E+00  3.68888E+00  3.78346E+00  5.03660E+00  2.29890E+00  2.66814E+00  2.99260E+00  2.38496E+00
   8.83802E-01  1.52858E+00  1.98531E+00  3.03154E+00  1.85829E+00  1.95227E+00  2.41939E+00  2.88639E+00  1.37572E+00  8.49197E-01
  -2.10908E+00  1.36182E+00  6.87475E-02  1.85451E+00 -4.76442E-03  1.74820E+00  2.11546E-01 -1.48532E+00  3.05106E+00  1.87277E-01
   1.80230E+00  3.23897E+00  2.14404E+00  9.10439E-01  8.97324E-01  7.22072E-01  5.22111E-01 -1.38990E-01 -1.25601E+00 -1.53095E+00
  -8.50062E-01 -7.07638E-01 -1.57795E+00 -1.17588E-01  2.19551E+00  9.74608E-01 -1.28041E-01 -1.06912E+00 -1.15645E+00 -2.27029E+00
   7.33589E-01  1.15967E+00  1.73131E-01 -1.15353E+00 -2.48104E-01 -1.33422E+00 -1.36643E+00 -1.70012E+00  2.89915E-01 -1.23423E+00
  -1.04756E+00 -1.96255E+00 -8.49101E-01  1.21764E-01  1.05550E+00 -5.02538E-01  1.05637E+00 -5.25037E-01 -1.62034E+00 -3.68878E+00
  -2.77858E+00  1.92155E+00 -2.18089E+00  7.82060E-01 -1.14464E+00 -2.50409E+00  3.86436E-01 -1.28406E+00 -3.88626E+00  6.83081E-02
  -3.68885E+00  3.51230E-01 -1.74615E-01 -1.56193E+00 -3.45237E+00 -9.35147E-01 -1.91158E+00 -2.66381E+00
 NY points of the fit to the data follow
  -1.08159E+00 -9.27635E-01 -9.14564E-01 -7.29901E-01 -7.70238E-01 -5.77305E-01 -6.65821E-01 -4.77777E-01 -6.45211E-01 -5.13742E-01
  -7.08847E-01 -6.25768E-01 -8.33853E-01 -7.97128E-01 -9.59859E-01 -9.50555E-01 -1.04703E+00 -1.02738E+00 -1.07792E+00 -1.02148E+00
  -1.02904E+00 -9.21720E-01 -8.73365E-01 -7.16493E-01 -6.39291E-01 -4.75314E-01 -4.44919E-01 -3.19182E-01 -3.20680E-01 -2.61415E-01
  -3.22427E-01 -3.16632E-01 -3.69994E-01 -4.30846E-01 -5.06793E-01 -6.16636E-01 -6.96435E-01 -8.34623E-01 -8.73367E-01 -1.00018E+00
  -1.00645E+00 -1.09715E+00 -1.04779E+00 -1.09798E+00 -1.03883E+00 -1.06586E+00 -1.03211E+00 -1.05202E+00 -1.04244E+00 -1.06061E+00
  -1.06702E+00 -1.07710E+00 -1.08282E+00 -1.08360E+00 -1.08417E+00 -1.07640E+00 -1.07504E+00 -1.05474E+00 -1.05719E+00 -1.02128E+00
  -1.04290E+00 -9.92685E-01 -1.03081E+00 -9.64391E-01 -1.00610E+00 -9.13586E-01 -9.53348E-01 -8.47113E-01 -8.77956E-01 -8.00399E-01
  -8.29841E-01 -7.83238E-01 -8.00769E-01 -7.71938E-01 -7.33215E-01 -7.26865E-01 -6.19046E-01 -6.18011E-01 -4.39066E-01 -4.68823E-01
  -2.79556E-01 -3.35235E-01 -1.63122E-01 -2.32374E-01 -7.32400E-02 -1.82012E-01 -1.18327E-01 -2.46075E-01 -2.33072E-01 -3.51249E-01
  -3.92881E-01 -4.44378E-01 -5.04057E-01 -4.01851E-01 -3.96188E-01 -1.44113E-01 -9.31368E-02  1.96744E-01  2.54939E-01  5.08379E-01
   5.74852E-01  7.71646E-01  7.86615E-01  8.05481E-01  7.74157E-01  6.81831E-01  6.28483E-01  4.32816E-01  3.63745E-01  1.45504E-01
   9.94907E-02 -4.65135E-02 -5.99219E-02 -1.14879E-01 -6.48060E-02 -1.50618E-03  1.56574E-01  3.57912E-01  5.79529E-01  8.95359E-01
   1.06353E+00  1.42472E+00  1.51189E+00  1.88874E+00  1.90156E+00  2.24690E+00  2.08383E+00  2.29797E+00  2.04535E+00  2.14510E+00
   1.81305E+00  1.78652E+00  1.47085E+00  1.35576E+00  1.14539E+00  1.01625E+00  9.14018E-01  8.02321E-01  7.86601E-01  7.03393E-01
   7.14020E-01  6.48248E-01  6.55725E-01  5.92165E-01  5.85630E-01  5.16673E-01  4.88704E-01  4.22537E-01  3.78084E-01  3.03048E-01
   2.37837E-01  1.20470E-01  5.55285E-02 -9.92794E-02 -1.28683E-01 -2.54964E-01 -2.71325E-01 -3.60601E-01 -4.16167E-01 -5.06591E-01
  -5.85278E-01 -6.24005E-01 -7.33329E-01 -7.48679E-01 -9.28055E-01 -9.52323E-01 -1.17240E+00 -1.20050E+00 -1.43291E+00 -1.51775E+00
  -1.66950E+00 -1.83117E+00 -1.87821E+00 -2.09553E+00 -2.04246E+00 -2.25530E+00 -2.07394E+00 -2.29049E+00 -2.05314E+00 -2.25330E+00
  -1.90922E+00 -1.99554E+00 -1.62464E+00 -1.64060E+00 -1.29886E+00 -1.22710E+00 -8.85767E-01 -6.93006E-01 -4.46178E-01 -2.22530E-01
  -9.46438E-02  1.45834E-01  1.66436E-01  4.03529E-01  3.64301E-01  5.66467E-01  5.14245E-01  6.30220E-01  6.10237E-01  6.36032E-01
   6.25280E-01  5.68472E-01  5.90211E-01  4.29046E-01  5.07998E-01  3.05534E-01  5.25469E-01  3.14833E-01  6.22896E-01  3.62177E-01
   6.58577E-01  3.45762E-01  6.32141E-01  3.34945E-01  6.25588E-01  3.50169E-01  6.32086E-01  4.94407E-01  7.38397E-01  7.10006E-01
   8.42665E-01  9.39030E-01  1.07552E+00  1.33386E+00  1.49502E+00  1.86391E+00  2.10838E+00  2.53392E+00  2.80025E+00  3.17270E+00
   3.37939E+00  3.65375E+00  3.81335E+00  4.00483E+00  4.18095E+00  4.35653E+00  4.61629E+00  4.80945E+00  5.15166E+00  5.34799E+00
   5.75066E+00  5.93632E+00  6.36643E+00  6.56950E+00  7.01067E+00  7.24467E+00  7.68628E+00  8.06716E+00  8.94712E+00  9.83458E+00
   1.20114E+01  1.37538E+01  1.69150E+01  1.91962E+01  2.16606E+01  2.38648E+01  2.52735E+01  2.72020E+01  2.76784E+01  2.89451E+01
   2.69573E+01  2.71413E+01  2.39964E+01  2.33229E+01  1.89537E+01  1.75409E+01  1.31423E+01  1.15848E+01  8.49129E+00  7.30710E+00
   5.52714E+00  4.80326E+00  4.10547E+00  3.73949E+00  3.47052E+00  3.24441E+00  3.02938E+00  2.83132E+00  2.65413E+00  2.48172E+00
   2.33561E+00  2.19671E+00  2.08747E+00  1.99114E+00  1.92756E+00  1.88357E+00  1.87063E+00  1.88391E+00  1.92609E+00  1.99841E+00
   2.09887E+00  2.23483E+00  2.40009E+00  2.60512E+00  2.84228E+00  3.12092E+00  3.43220E+00  3.78285E+00  4.16276E+00  4.57395E+00
   5.00580E+00  5.45545E+00  5.91154E+00  6.36733E+00  6.81124E+00  7.23471E+00  7.62673E+00  7.97937E+00  8.28367E+00  8.53432E+00
   8.72602E+00  8.85757E+00  8.92826E+00  8.94146E+00  8.90077E+00  8.81350E+00  8.68641E+00  8.52919E+00  8.34998E+00  8.15879E+00
   7.96317E+00  7.77167E+00  7.58977E+00  7.42350E+00  7.27557E+00  7.14917E+00  7.04430E+00  6.96185E+00  6.89994E+00  6.85808E+00
   6.83350E+00  6.82531E+00  6.83078E+00  6.84944E+00  6.87928E+00  6.92069E+00  6.97251E+00  7.03597E+00  7.11058E+00  7.19812E+00
   7.29840E+00  7.41317E+00  7.54193E+00  7.68583E+00  7.84356E+00  8.01529E+00  8.19855E+00  8.39221E+00  8.59250E+00  8.79702E+00
   9.00086E+00  9.20070E+00  9.39089E+00  9.56762E+00  9.72507E+00  9.85959E+00  9.96590E+00  1.00412E+01  1.00813E+01  1.00848E+01
   1.00492E+01  9.97468E+00  9.86068E+00  9.70938E+00  9.52192E+00  9.30225E+00  9.05307E+00  8.77968E+00  8.48593E+00  8.17794E+00
   7.86009E+00  7.53876E+00  7.21831E+00  6.90488E+00  6.60237E+00  6.31623E+00  6.04951E+00  5.80672E+00  5.58992E+00  5.40259E+00
   5.24571E+00  5.12164E+00  5.03025E+00  4.97283E+00  4.94817E+00  4.95648E+00  4.99543E+00  5.06406E+00  5.15888E+00  5.27778E+00
   5.41614E+00  5.57069E+00  5.73575E+00  5.90710E+00  6.07827E+00  6.24452E+00  6.39912E+00  6.53736E+00  6.65289E+00  6.74177E+00
   6.79880E+00  6.82152E+00  6.80651E+00  6.75329E+00  6.66056E+00  6.53001E+00  6.36250E+00  6.16172E+00  5.93026E+00  5.67325E+00
   5.39437E+00  5.09948E+00  4.79260E+00  4.47954E+00  4.16396E+00  3.85098E+00  3.54336E+00  3.24521E+00  2.95815E+00  2.68513E+00
   2.42659E+00  2.18440E+00  1.95805E+00  1.74853E+00  1.55463E+00  1.37676E+00  1.21324E+00  1.06415E+00  9.27615E-01  8.03597E-01
   6.90178E-01  5.87326E-01  4.93171E-01  4.07780E-01  3.29412E-01  2.58269E-01  1.92734E-01  1.33128E-01  7.79514E-02  2.76566E-02
  -1.91327E-02 -6.18615E-02 -1.01826E-01 -1.38400E-01 -1.72806E-01 -2.04341E-01 -2.34157E-01 -2.61507E-01 -2.87512E-01 -3.11392E-01
  -3.34226E-01 -3.55190E-01 -3.75331E-01 -3.93813E-01 -4.11674E-01 -4.28060E-01 -4.43979E-01 -4.58555E-01 -4.72783E-01 -4.85790E-01
  -4.98567E-01 -5.10229E-01 -5.21742E-01 -5.32211E-01 -5.42602E-01 -5.52026E-01 -5.61447E-01 -5.69960E-01 -5.78512E-01 -5.86198E-01
  -5.93970E-01 -6.00929E-01 -6.08021E-01 -6.14334E-01 -6.20801E-01 -6.26515E-01 -6.32420E-01 -6.37610E-01 -6.43019E-01 -6.47728E-01
  -6.52667E-01 -6.56927E-01 -6.61446E-01 -6.65311E-01 -6.69450E-01 -6.72939E-01 -6.76707E-01 -6.79843E-01 -6.83280E-01 -6.86100E-01
  -6.89221E-01 -6.91723E-01 -6.94530E-01 -6.96731E-01 -6.99249E-01 -7.01161E-01 -7.03379E-01 -7.04979E-01
 NY background values follow
    -1.138E+00   -1.137E+00   -1.137E+00   -1.136E+00   -1.135E+00   -1.134E+00   -1.133E+00   -1.133E+00   -1.132E+00   -1.131E+00
    -1.130E+00   -1.129E+00   -1.128E+00   -1.128E+00   -1.127E+00   -1.126E+00   -1.125E+00   -1.124E+00   -1.124E+00   -1.123E+00
    -1.122E+00   -1.121E+00   -1.120E+00   -1.119E+00   -1.119E+00   -1.118E+00   -1.117E+00   -1.116E+00   -1.115E+00   -1.115E+00
    -1.114E+00   -1.113E+00   -1.112E+00   -1.111E+00   -1.110E+00   -1.110E+00   -1.109E+00   -1.108E+00   -1.107E+00   -1.106E+00
    -1.106E+00   -1.105E+00   -1.104E+00   -1.103E+00   -1.102E+00   -1.101E+00   -1.101E+00   -1.100E+00   -1.099E+00   -1.098E+00
    -1.097E+00   -1.097E+00   -1.096E+00   -1.095E+00   -1.094E+00   -1.093E+00   -1.092E+00   -1.092E+00   -1.091E+00   -1.090E+00
    -1.089E+00   -1.088E+00   -1.087E+00   -1.087E+00   -1.086E+00   -1.085E+00   -1.084E+00   -1.083E+00   -1.082E+00   -1.082E+00
    -1.081E+00   -1.080E+00   -1.079E+00   -1.078E+00   -1.078E+00   -1.077E+00   -1.076E+00   -1.075E+00   -1.074E+00   -1.073E+00
    -1.073E+00   -1.072E+00   -1.071E+00   -1.070E+00   -1.069E+00   -1.068E+00   -1.068E+00   -1.067E+00   -1.066E+00   -1.065E+00
    -1.064E+00   -1.063E+00   -1.063E+00   -1.062E+00   -1.061E+00   -1.060E+00   -1.059E+00   -1.058E+00   -1.058E+00   -1.057E+00
    -1.056E+00   -1.055E+00   -1.054E+00   -1.053E+00   -1.053E+00   -1.052E+00   -1.051E+00   -1.050E+00   -1.049E+00   -1.048E+00
    -1.048E+00   -1.047E+00   -1.046E+00   -1.045E+00   -1.044E+00   -1.043E+00   -1.043E+00   -1.042E+00   -1.041E+00   -1.040E+00
    -1.039E+00   -1.038E+00   -1.038E+00   -1.037E+00   -1.036E+00   -1.035E+00   -1.034E+00   -1.033E+00   -1.032E+00   -1.032E+00
    -1.031E+00   -1.030E+00   -1.029E+00   -1.028E+00   -1.027E+00   -1.027E+00   -1.026E+00   -1.025E+00   -1.024E+00   -1.023E+00
    -1.022E+00   -1.022E+00   -1.021E+00   -1.020E+00   -1.019E+00   -1.018E+00   -1.017E+00   -1.017E+00   -1.016E+00   -1.015E+00
    -1.014E+00   -1.013E+00   -1.012E+00   -1.011E+00   -1.011E+00   -1.010E+00   -1.009E+00   -1.008E+00   -1.007E+00   -1.006E+00
    -1.006E+00   -1.005E+00   -1.004E+00   -1.003E+00   -1.002E+00   -1.001E+00   -1.000E+00   -9.996E-01   -9.988E-01   -9.979E-01
    -9.971E-01   -9.962E-01   -9.954E-01   -9.945E-01   -9.937E-01   -9.929E-01   -9.920E-01   -9.912E-01   -9.903E-01   -9.895E-01
    -9.886E-01   -9.878E-01   -9.869E-01   -9.861E-01   -9.852E-01   -9.844E-01   -9.835E-01   -9.827E-01   -9.818E-01   -9.810E-01
    -9.801E-01   -9.793E-01   -9.784E-01   -9.776E-01   -9.767E-01   -9.759E-01   -9.750E-01   -9.742E-01   -9.733E-01   -9.725E-01
    -9.716E-01   -9.708E-01   -9.699E-01   -9.691E-01   -9.682E-01   -9.673E-01   -9.665E-01   -9.656E-01   -9.648E-01   -9.639E-01
    -9.631E-01   -9.622E-01   -9.614E-01   -9.605E-01   -9.597E-01   -9.588E-01   -9.580E-01   -9.571E-01   -9.562E-01   -9.554E-01
    -9.545E-01   -9.537E-01   -9.528E-01   -9.520E-01   -9.511E-01   -9.503E-01   -9.494E-01   -9.486E-01   -9.477E-01   -9.468E-01
    -9.460E-01   -9.451E-01   -9.443E-01   -9.434E-01   -9.426E-01   -9.417E-01   -9.408E-01   -9.400E-01   -9.391E-01   -9.383E-01
    -9.374E-01   -9.366E-01   -9.357E-01   -9.348E-01   -9.340E-01   -9.331E-01   -9.323E-01   -9.314E-01   -9.305E-01   -9.297E-01
    -9.288E-01   -9.280E-01   -9.271E-01   -9.262E-01   -9.254E-01   -9.245E-01   -9.237E-01   -9.228E-01   -9.219E-01   -9.211E-01
    -9.202E-01   -9.194E-01   -9.185E-01   -9.176E-01   -9.168E-01   -9.159E-01   -9.151E-01   -9.142E-01   -9.133E-01   -9.125E-01
    -9.116E-01   -9.108E-01   -9.099E-01   -9.090E-01   -9.082E-01   -9.073E-01   -9.064E-01   -9.056E-01   -9.047E-01   -9.039E-01
    -9.030E-01   -9.021E-01   -9.013E-01   -9.004E-01   -8.995E-01   -8.987E-01   -8.978E-01   -8.969E-01   -8.961E-01   -8.952E-01
    -8.944E-01   -8.935E-01   -8.926E-01   -8.918E-01   -8.909E-01   -8.900E-01   -8.892E-01   -8.883E-01   -8.874E-01   -8.866E-01
    -8.857E-01   -8.848E-01   -8.840E-01   -8.831E-01   -8.822E-01   -8.814E-01   -8.805E-01   -8.796E-01   -8.788E-01   -8.779E-01
    -8.770E-01   -8.762E-01   -8.753E-01   -8.744E-01   -8.736E-01   -8.727E-01   -8.718E-01   -8.710E-01   -8.701E-01   -8.692E-01
    -8.684E-01   -8.675E-01   -8.666E-01   -8.658E-01   -8.649E-01   -8.640E-01   -8.632E-01   -8.623E-01   -8.614E-01   -8.606E-01
    -8.597E-01   -8.588E-01   -8.580E-01   -8.571E-01   -8.562E-01   -8.553E-01   -8.545E-01   -8.536E-01   -8.527E-01   -8.519E-01
    -8.510E-01   -8.501E-01   -8.493E-01   -8.484E-01   -8.475E-01   -8.467E-01   -8.458E-01   -8.449E-01   -8.440E-01   -8.432E-01
    -8.423E-01   -8.414E-01   -8.406E-01   -8.397E-01   -8.388E-01   -8.379E-01   -8.371E-01   -8.362E-01   -8.353E-01   -8.345E-01
    -8.336E-01   -8.327E-01   -8.318E-01   -8.310E-01   -8.301E-01   -8.292E-01   -8.284E-01   -8.275E-01   -8.266E-01   -8.257E-01
    -8.249E-01   -8.240E-01   -8.231E-01   -8.223E-01   -8.214E-01   -8.205E-01   -8.196E-01   -8.188E-01   -8.179E-01   -8.170E-01
    -8.161E-01   -8.153E-01   -8.144E-01   -8.135E-01   -8.126E-01   -8.118E-01   -8.109E-01   -8.100E-01   -8.092E-01   -8.083E-01
    -8.074E-01   -8.065E-01   -8.057E-01   -8.048E-01   -8.039E-01   -8.030E-01   -8.022E-01   -8.013E-01   -8.004E-01   -7.995E-01
    -7.987E-01   -7.978E-01   -7.969E-01   -7.960E-01   -7.952E-01   -7.943E-01   -7.934E-01   -7.925E-01   -7.917E-01   -7.908E-01
    -7.899E-01   -7.890E-01   -7.882E-01   -7.873E-01   -7.864E-01   -7.855E-01   -7.847E-01   -7.838E-01   -7.829E-01   -7.820E-01
    -7.812E-01   -7.803E-01   -7.794E-01   -7.785E-01   -7.776E-01   -7.768E-01   -7.759E-01   -7.750E-01   -7.741E-01   -7.733E-01
    -7.724E-01   -7.715E-01   -7.706E-01   -7.698E-01   -7.689E-01   -7.680E-01   -7.671E-01   -7.662E-01   -7.654E-01   -7.645E-01
    -7.636E-01   -7.627E-01   -7.619E-01   -7.610E-01   -7.601E-01   -7.592E-01   -7.583E-01   -7.575E-01   -7.566E-01   -7.557E-01
    -7.548E-01   -7.540E-01   -7.531E-01   -7.522E-01   -7.513E-01   -7.504E-01   -7.496E-01   -7.487E-01   -7.478E-01   -7.469E-01
    -7.460E-01   -7.452E-01   -7.443E-01   -7.434E-01   -7.425E-01   -7.416E-01   -7.408E-01   -7.399E-01   -7.390E-01   -7.381E-01
    -7.373E-01   -7.364E-01   -7.355E-01   -7.346E-01   -7.337E-01   -7.329E-01   -7.320E-01   -7.311E-01   -7.302E-01   -7.293E-01
    -7.285E-01   -7.276E-01   -7.267E-01   -7.258E-01   -7.249E-01   -7.241E-01   -7.232E-01   -7.223E-01   -7.214E-01   -7.205E-01
    -7.197E-01   -7.188E-01   -7.179E-01   -7.170E-01   -7.161E-01   -7.152E-01   -7.144E-01   -7.135E-01
 Asp      Conc. = 5.63E+01
