 LCModel (Version 6.3-1L) Copyright: S.W. Provencher.          Ref.: Magn. Reson. Med. 30:672-679 (1993).                
 Slice#1 Row#4 Col#12  PD_05_press_1_raw_act
 36 lines in following concentration table = NCONC+1
    Conc.  %SD /Cr+PCr  Metabolite                                         
   25.843  66%   4.740 Ala                                                 
    3.549 612%   0.651 Asp                                                 
    5.452 157%   1.000 Cr                                                  
    0.000 999%   0.000 PCr                                                 
    0.828 999%   0.152 GABA                                                
    6.774 196%   1.242 Glc                                                 
   34.456 105%   6.320 Gln                                                 
   20.505 186%   3.761 Glu                                                 
    0.000 999%   0.000 GPC                                                 
    5.694  58%   1.044 PCh                                                 
   12.326  98%   2.261 GSH                                                 
   74.628  64%  13.688 Ins                                                 
    9.399 196%   1.724 Lac                                                 
   40.269  37%   7.386 NAA                                                 
   62.344  24%  11.435 NAAG                                                
    2.443 142%   0.448 Scyllo                                              
   25.101  87%   4.604 Tau                                                 
   41.393  34%   7.592 -CrCH2                                              
    5.694  58%   1.044 GPC+PCh                                             
  102.613  18%  18.821 NAA+NAAG                                            
    5.452 157%   1.000 Cr+PCr                                              
   54.962 107%  10.081 Glu+Gln                                             
  452.130  70%  82.929 Lip13a                                              
    0.000 999%   0.000 Lip13b                                              
    0.000 999%   0.000 Lip09                                               
 3.81E+03   5% 699.046 MM09                                                
  189.280  93%  34.717 Lip20                                               
 2.96E+03   8% 543.390 MM20                                                
 2.54E+03  10% 466.513 MM12                                                
 3.67E+03   8% 673.541 MM14                                                
 2.56E+03   8% 469.482 MM17                                                
  452.130  70%  82.929 Lip13a+Lip13b                                       
 6.67E+03   4% 1.2E+03 MM14+Lip13a+Lip13b+MM12                             
 3.81E+03   5% 699.046 MM09+Lip09                                          
 3.15E+03   7% 578.107 MM20+Lip20                                          
   6 lines in following misc. output table
  FWHM = 0.061 ppm    S/N =   6                                            
  Data shift = 0.107 ppm                                                   
  Ph:  84 deg      28.9 deg/ppm                                            
  alphaB,S = 3.7E+00,   2.5E+00                                            
   14 spline knots.   Ns = 7(2)                                            
  ( 9) 8 infls.   ( 8) 4 extrs.                                            
  498 points on ppm-axis = NY
      4.000000     3.992357     3.984714     3.977070     3.969427     3.961784     3.954141     3.946497     3.938854     3.931211
      3.923568     3.915925     3.908281     3.900638     3.892995     3.885352     3.877708     3.870065     3.862422     3.854779
      3.847136     3.839492     3.831849     3.824206     3.816563     3.808919     3.801276     3.793633     3.785990     3.778347
      3.770703     3.763060     3.755417     3.747774     3.740130     3.732487     3.724844     3.717201     3.709558     3.701914
      3.694271     3.686628     3.678985     3.671341     3.663698     3.656055     3.648412     3.640769     3.633125     3.625482
      3.617839     3.610196     3.602552     3.594909     3.587266     3.579623     3.571980     3.564336     3.556693     3.549050
      3.541407     3.533763     3.526120     3.518477     3.510834     3.503191     3.495547     3.487904     3.480261     3.472618
      3.464974     3.457331     3.449688     3.442045     3.434402     3.426758     3.419115     3.411472     3.403829     3.396185
      3.388542     3.380899     3.373256     3.365613     3.357969     3.350326     3.342683     3.335040     3.327396     3.319753
      3.312110     3.304467     3.296824     3.289180     3.281537     3.273894     3.266251     3.258607     3.250964     3.243321
      3.235678     3.228034     3.220391     3.212748     3.205105     3.197462     3.189818     3.182175     3.174532     3.166889
      3.159245     3.151602     3.143959     3.136316     3.128673     3.121029     3.113386     3.105743     3.098100     3.090456
      3.082813     3.075170     3.067527     3.059884     3.052240     3.044597     3.036954     3.029311     3.021667     3.014024
      3.006381     2.998738     2.991095     2.983451     2.975808     2.968165     2.960522     2.952878     2.945235     2.937592
      2.929949     2.922306     2.914662     2.907019     2.899376     2.891733     2.884089     2.876446     2.868803     2.861160
      2.853517     2.845873     2.838230     2.830587     2.822944     2.815300     2.807657     2.800014     2.792371     2.784728
      2.777084     2.769441     2.761798     2.754155     2.746511     2.738868     2.731225     2.723582     2.715939     2.708295
      2.700652     2.693009     2.685366     2.677722     2.670079     2.662436     2.654793     2.647150     2.639506     2.631863
      2.624220     2.616577     2.608933     2.601290     2.593647     2.586004     2.578361     2.570717     2.563074     2.555431
      2.547788     2.540144     2.532501     2.524858     2.517215     2.509572     2.501928     2.494285     2.486642     2.478999
      2.471355     2.463712     2.456069     2.448426     2.440783     2.433139     2.425496     2.417853     2.410210     2.402566
      2.394923     2.387280     2.379637     2.371994     2.364350     2.356707     2.349064     2.341421     2.333777     2.326134
      2.318491     2.310848     2.303205     2.295561     2.287918     2.280275     2.272632     2.264988     2.257345     2.249702
      2.242059     2.234416     2.226772     2.219129     2.211486     2.203843     2.196199     2.188556     2.180913     2.173270
      2.165627     2.157983     2.150340     2.142697     2.135054     2.127410     2.119767     2.112124     2.104481     2.096838
      2.089194     2.081551     2.073908     2.066265     2.058621     2.050978     2.043335     2.035692     2.028049     2.020405
      2.012762     2.005119     1.997476     1.989833     1.982190     1.974546     1.966903     1.959260     1.951617     1.943974
      1.936331     1.928688     1.921045     1.913402     1.905759     1.898115     1.890472     1.882829     1.875186     1.867543
      1.859900     1.852257     1.844614     1.836971     1.829327     1.821684     1.814041     1.806398     1.798755     1.791112
      1.783469     1.775826     1.768183     1.760540     1.752896     1.745253     1.737610     1.729967     1.722324     1.714681
      1.707038     1.699395     1.691752     1.684108     1.676465     1.668822     1.661179     1.653536     1.645893     1.638250
      1.630607     1.622964     1.615321     1.607677     1.600034     1.592391     1.584748     1.577105     1.569462     1.561819
      1.554176     1.546533     1.538890     1.531246     1.523603     1.515960     1.508317     1.500674     1.493031     1.485388
      1.477745     1.470102     1.462458     1.454815     1.447172     1.439529     1.431886     1.424243     1.416600     1.408957
      1.401314     1.393671     1.386027     1.378384     1.370741     1.363098     1.355455     1.347812     1.340169     1.332526
      1.324883     1.317240     1.309596     1.301953     1.294310     1.286667     1.279024     1.271381     1.263738     1.256095
      1.248452     1.240808     1.233165     1.225522     1.217879     1.210236     1.202593     1.194950     1.187307     1.179664
      1.172021     1.164377     1.156734     1.149091     1.141448     1.133805     1.126162     1.118519     1.110876     1.103233
      1.095590     1.087946     1.080303     1.072660     1.065017     1.057374     1.049731     1.042088     1.034445     1.026802
      1.019158     1.011515     1.003872     0.996229     0.988586     0.980943     0.973300     0.965657     0.958014     0.950371
      0.942727     0.935084     0.927441     0.919798     0.912155     0.904512     0.896869     0.889226     0.881583     0.873940
      0.866296     0.858653     0.851010     0.843367     0.835724     0.828081     0.820438     0.812795     0.805152     0.797508
      0.789865     0.782222     0.774579     0.766936     0.759293     0.751650     0.744007     0.736364     0.728721     0.721077
      0.713434     0.705791     0.698148     0.690505     0.682862     0.675219     0.667576     0.659933     0.652290     0.644646
      0.637003     0.629360     0.621717     0.614074     0.606431     0.598788     0.591145     0.583502     0.575858     0.568215
      0.560572     0.552929     0.545286     0.537643     0.530000     0.522357     0.514714     0.507071     0.499427     0.491784
      0.484141     0.476498     0.468855     0.461212     0.453569     0.445925     0.438282     0.430639     0.422996     0.415353
      0.407710     0.400067     0.392424     0.384780     0.377137     0.369494     0.361851     0.354208     0.346565     0.338922
      0.331278     0.323635     0.315992     0.308349     0.300706     0.293063     0.285420     0.277777     0.270133     0.262490
      0.254847     0.247204     0.239561     0.231918     0.224275     0.216631     0.208988     0.201345
 NY phased data points follow
  -4.05573E+00 -3.78939E+00 -2.63076E+00 -2.71388E+00 -6.14578E+00 -3.92298E+00 -5.64761E+00 -8.67720E+00 -4.09091E+00 -4.53318E+00
  -4.78078E+00 -4.00918E+00 -4.05385E+00 -4.34104E+00 -5.72314E+00 -2.89671E+00 -2.91154E+00 -2.98788E+00 -2.23403E+00 -3.78456E+00
  -4.91860E+00 -3.59926E+00 -2.68197E+00 -3.96405E+00 -3.29106E+00 -4.17023E+00 -9.59566E-01 -4.66800E+00 -2.46047E+00 -2.65224E+00
  -1.21231E+00 -1.76923E+00 -2.65739E+00 -2.43603E+00 -2.01135E+00 -2.63763E+00 -4.99314E+00 -2.03570E+00 -4.42277E+00 -3.08847E+00
  -3.75802E+00 -2.26374E+00 -4.95497E+00 -3.72627E+00 -1.23867E+00  4.30642E-03 -8.06517E-01 -4.22860E+00 -5.40174E+00 -4.02929E+00
  -2.08216E+00 -2.12919E+00 -2.63686E+00 -2.46098E+00 -3.82746E+00 -3.01062E+00 -3.81740E+00 -2.99428E+00 -2.33662E+00 -3.17835E+00
  -1.52777E+00 -6.81645E+00 -5.08590E-01 -9.06409E-01 -3.68204E+00 -1.48269E+00 -3.72739E+00 -2.85223E+00 -3.71836E+00 -2.41450E+00
  -4.30870E+00  2.71132E-01 -6.05669E-01  2.67864E+00  1.73475E+00  1.38812E+00 -1.53144E+00 -1.18907E+00 -3.82623E+00 -1.82572E+00
  -3.03561E+00 -6.56658E-01 -3.97453E+00 -1.61168E+00 -3.71978E-01 -1.08199E+00 -4.38110E-01 -2.08879E-01 -1.52935E+00 -2.22891E+00
  -9.76530E-01 -3.92707E+00 -1.84282E+00 -7.34007E-01 -1.87596E+00 -2.91198E+00 -1.84493E+00  1.32572E-02  2.21483E-01 -1.98742E+00
  -3.76393E+00 -1.66013E+00 -1.93082E+00 -7.38645E-02  1.71476E+00 -9.64615E-02 -2.07021E-01  6.14746E-01 -1.00455E+00 -4.37179E-01
  -1.70184E+00 -2.05310E+00 -9.54275E-01 -2.26898E+00  6.07124E-01  7.65312E-01 -1.29030E+00  2.69279E+00 -3.76678E+00  6.06555E-01
  -9.01521E-01 -9.40819E-01 -9.38751E-01  9.04950E-01 -1.66675E+00  2.89277E+00 -6.44401E-01  1.15476E+00  7.77853E-01  2.10795E+00
   2.74671E-01 -8.85846E-01  2.33081E-01  1.40088E+00  1.36758E+00  2.51046E-01 -1.79636E+00 -2.74076E+00 -7.79359E-01 -6.11753E-01
  -3.89571E-01 -7.50200E-01 -1.98886E+00 -4.34665E+00 -4.05260E+00  2.45157E+00 -2.02720E+00 -2.17612E+00  8.17329E-02 -7.08212E-03
   5.25190E-01 -1.39139E+00  5.65274E-02 -1.96489E+00 -3.19776E+00 -2.04804E+00 -3.17396E-01 -2.65922E+00 -1.70054E+00 -1.37414E+00
  -6.20410E-01 -1.55978E+00 -2.78205E+00  2.36612E+00 -2.34142E+00 -2.61623E+00 -9.81897E-01 -2.45501E+00 -2.84770E+00  6.72360E-01
  -3.57770E+00 -2.45763E+00 -3.44727E+00 -1.80099E+00 -3.30744E+00 -1.26556E+00 -2.23625E+00 -6.23483E+00 -1.55884E+00 -4.20862E+00
  -4.06298E+00 -2.83040E+00 -4.42764E+00  1.77921E+00 -2.67720E+00 -3.35342E+00 -7.63071E-01 -6.03382E-01 -1.44568E+00 -3.27791E+00
  -3.30290E+00 -1.54855E+00 -3.02801E+00 -4.00391E+00 -3.53844E+00 -1.19673E+00 -1.75216E-01 -4.30066E+00 -3.12322E+00 -3.33596E+00
  -2.96548E+00 -1.19939E+00 -1.47679E-01 -4.05219E-01 -1.64811E+00 -8.95354E-01 -1.00027E+00 -2.74504E+00 -2.40228E+00 -8.71243E-01
  -2.67364E+00 -2.00022E+00 -9.31870E-01  3.82987E-01 -5.36948E-01  2.43199E+00  2.46871E+00  2.07568E+00  7.95838E-01 -2.65372E-01
   1.09009E-01  3.10013E+00  2.12762E-01  4.08666E-01  5.92546E-01  1.75229E+00  2.60658E+00 -4.00350E-01  1.04115E+00  3.71245E+00
   1.49495E+00  1.66883E+00  4.64562E+00  1.75089E+00  3.68904E-01  1.10449E+00  4.23232E+00  2.21167E+00  2.31728E+00  3.21140E+00
   4.17037E+00  5.72415E+00  5.30998E+00  3.55866E+00  5.33596E+00  2.75406E+00  4.88845E+00  2.83019E+00  7.21586E+00  8.27568E+00
   7.81505E+00  6.80832E+00  9.40498E+00  1.00999E+01  1.17502E+01  1.20829E+01  1.11565E+01  1.57828E+01  1.63916E+01  1.62448E+01
   1.46297E+01  8.73813E+00  1.14804E+01  8.23439E+00  8.43503E+00  2.15601E+00  4.28975E+00  3.05126E+00  5.24691E+00  5.06281E+00
   3.11069E+00  3.00552E+00  3.77349E+00  3.66645E+00  2.53872E+00  2.65926E+00  1.33908E+00  4.38096E+00  1.93598E+00  4.83053E+00
   1.17909E+00  1.04115E+00  1.43686E+00  1.62228E+00  3.56469E+00  5.73518E+00  3.27755E+00  4.08586E+00  5.16097E+00  3.70878E+00
   3.95232E+00  2.90246E+00  4.61548E+00  5.46454E+00  4.98256E+00  6.57055E+00  5.42775E+00  7.87657E+00  7.71668E+00  1.05613E+01
   8.60810E+00  8.42887E+00  8.48751E+00  1.20486E+01  5.45408E+00  9.39831E+00  1.00820E+01  1.07732E+01  1.14347E+01  1.04718E+01
   1.06736E+01  9.34106E+00  1.14453E+01  1.02168E+01  1.07618E+01  9.41499E+00  1.08366E+01  1.28268E+01  1.30045E+01  1.26794E+01
   1.15901E+01  1.07924E+01  1.51570E+01  9.96827E+00  1.14764E+01  1.27488E+01  1.28893E+01  9.74142E+00  1.33678E+01  1.29509E+01
   1.22854E+01  1.60798E+01  1.40790E+01  1.36034E+01  1.57098E+01  1.42368E+01  1.69942E+01  1.62153E+01  1.46927E+01  1.66920E+01
   1.62947E+01  1.52254E+01  1.81204E+01  1.56635E+01  1.32971E+01  1.29225E+01  1.37587E+01  1.22533E+01  1.47563E+01  1.06624E+01
   1.03061E+01  1.30974E+01  1.33760E+01  9.75438E+00  1.12348E+01  1.25478E+01  1.38207E+01  1.11791E+01  1.22413E+01  1.36882E+01
   1.16879E+01  1.36801E+01  1.66701E+01  1.38481E+01  1.43064E+01  1.46618E+01  1.44609E+01  1.81236E+01  1.72754E+01  1.36950E+01
   1.63876E+01  1.42860E+01  1.56012E+01  1.30262E+01  1.19928E+01  1.14800E+01  1.28867E+01  1.27612E+01  1.10791E+01  1.37626E+01
   1.25156E+01  1.04082E+01  1.41202E+01  8.54736E+00  8.66588E+00  1.28728E+01  1.09651E+01  1.08913E+01  1.14027E+01  9.85549E+00
   1.15357E+01  1.27607E+01  1.11255E+01  1.32715E+01  1.27873E+01  1.26185E+01  1.40485E+01  1.25467E+01  1.31178E+01  1.30338E+01
   1.49206E+01  1.20258E+01  1.39928E+01  1.06610E+01  8.21654E+00  1.16607E+01  7.93008E+00  8.57832E+00  8.89490E+00  7.34945E+00
   7.80204E+00  8.57518E+00  7.33516E+00  8.48480E+00  5.46192E+00  6.69058E+00  8.93564E+00  7.89749E+00  7.85505E+00  7.57435E+00
   7.80540E+00  5.34425E+00  3.50984E+00  3.72193E+00  3.24479E+00  1.94768E+00  6.23918E+00  1.80848E+00  3.58046E+00 -1.39003E+00
   4.63526E+00  1.58369E+00 -4.77051E-02  2.80131E+00  4.63677E-01  1.14077E-01  2.22501E+00  1.35083E+00  1.24365E+00  4.22932E-01
  -3.36346E+00 -4.72110E+00 -4.85795E+00 -2.21335E+00 -5.82684E+00 -1.31749E+00 -3.90316E+00 -2.72275E+00 -1.33866E+00 -2.84056E+00
  -3.67930E+00 -1.61407E+00 -1.16342E+00 -3.83316E-01 -8.79774E+00 -2.79560E+00 -2.54682E+00 -7.67236E-01 -5.30630E+00 -3.27050E+00
  -3.74849E+00 -7.95841E+00 -5.77759E+00 -4.82597E+00 -6.72392E+00 -8.01905E+00 -7.88563E+00 -5.69739E+00 -3.77308E+00 -4.14365E+00
  -4.00643E+00 -6.29073E+00 -4.82589E+00 -8.06695E+00 -8.55728E+00 -5.66643E+00 -5.96812E+00 -8.22119E+00 -5.31770E+00 -4.71670E+00
  -6.90332E+00 -5.44652E+00 -4.87916E+00 -6.70840E+00 -8.07351E+00 -8.10974E+00 -6.65020E+00 -7.07629E+00 -6.63983E+00 -7.07301E+00
  -7.09415E+00 -7.32973E+00 -7.17262E+00 -5.19704E+00 -6.36101E+00 -5.82864E+00 -7.69204E+00 -5.01359E+00
 NY points of the fit to the data follow
  -2.25993E+00 -2.45614E+00 -2.71284E+00 -2.64608E+00 -3.24478E+00 -3.45991E+00 -4.06368E+00 -4.49033E+00 -4.28405E+00 -4.50867E+00
  -4.25490E+00 -4.56407E+00 -3.63818E+00 -3.49986E+00 -2.58675E+00 -2.43985E+00 -2.14472E+00 -1.94938E+00 -2.41642E+00 -2.55512E+00
  -3.05484E+00 -3.16367E+00 -2.89362E+00 -2.61538E+00 -2.57718E+00 -2.37922E+00 -2.27589E+00 -2.16020E+00 -1.93173E+00 -1.94070E+00
  -1.73986E+00 -1.77922E+00 -1.64350E+00 -2.05494E+00 -2.15579E+00 -2.41820E+00 -2.57229E+00 -2.70801E+00 -2.98911E+00 -2.91574E+00
  -2.88738E+00 -2.77619E+00 -2.49581E+00 -2.20295E+00 -1.81673E+00 -1.56163E+00 -1.45707E+00 -1.56717E+00 -1.69234E+00 -1.72838E+00
  -1.84722E+00 -2.08194E+00 -2.42138E+00 -2.74585E+00 -2.97343E+00 -3.14597E+00 -3.04082E+00 -2.77997E+00 -2.41080E+00 -2.05882E+00
  -1.87080E+00 -2.03311E+00 -2.18273E+00 -2.36260E+00 -2.40246E+00 -2.44436E+00 -2.48529E+00 -2.43026E+00 -2.46079E+00 -2.34401E+00
  -2.29252E+00 -2.04047E+00 -2.02818E+00 -1.82787E+00 -1.76018E+00 -1.83779E+00 -1.90182E+00 -1.99911E+00 -2.05201E+00 -2.14819E+00
  -2.24076E+00 -2.24564E+00 -2.25344E+00 -2.29151E+00 -2.20614E+00 -2.34596E+00 -2.29359E+00 -2.37847E+00 -2.32371E+00 -2.83036E+00
  -2.95361E+00 -3.15720E+00 -3.15125E+00 -2.99147E+00 -2.77759E+00 -2.41900E+00 -2.26513E+00 -2.04364E+00 -1.96669E+00 -1.62821E+00
  -1.53330E+00 -1.09106E+00 -1.01443E+00 -9.09408E-01 -8.39794E-01 -8.46521E-01 -7.97033E-01 -1.15760E+00 -1.12623E+00 -1.51569E+00
  -1.52306E+00 -1.78016E+00 -1.83887E+00 -1.80222E+00 -1.64950E+00 -1.34024E+00 -1.18867E+00 -1.17029E+00 -1.09850E+00 -1.04697E+00
  -9.48260E-01 -8.23529E-01 -6.63406E-01 -3.98948E-01 -2.35525E-01  1.92954E-02  6.26064E-02  1.36896E-01  1.03450E-01  1.95183E-01
   1.07122E-01  3.81589E-02 -8.99413E-02 -2.89618E-01 -4.19544E-01 -6.00429E-01 -6.45055E-01 -6.99291E-01 -6.90312E-01 -6.69985E-01
  -6.76461E-01 -7.37297E-01 -7.63915E-01 -8.11522E-01 -8.60444E-01 -9.80574E-01 -1.05921E+00 -1.21659E+00 -1.34742E+00 -1.44755E+00
  -1.59909E+00 -1.67298E+00 -1.74685E+00 -1.84293E+00 -1.81441E+00 -1.85710E+00 -1.83568E+00 -1.91826E+00 -1.98156E+00 -2.07973E+00
  -2.11974E+00 -2.10966E+00 -2.13824E+00 -2.19112E+00 -2.28042E+00 -2.37874E+00 -2.49205E+00 -2.53892E+00 -2.55881E+00 -2.48091E+00
  -2.49394E+00 -2.52465E+00 -2.64849E+00 -2.73719E+00 -2.78560E+00 -2.78715E+00 -2.81012E+00 -2.86309E+00 -3.01991E+00 -3.07200E+00
  -3.02378E+00 -3.01278E+00 -2.79633E+00 -2.74267E+00 -2.42624E+00 -2.47617E+00 -2.31179E+00 -2.34163E+00 -2.28463E+00 -2.23869E+00
  -2.20493E+00 -2.18913E+00 -2.28419E+00 -2.27468E+00 -2.35461E+00 -2.18645E+00 -2.11737E+00 -1.97662E+00 -1.90926E+00 -1.79786E+00
  -1.70363E+00 -1.55807E+00 -1.44982E+00 -1.27682E+00 -1.23165E+00 -1.34158E+00 -1.58620E+00 -1.70741E+00 -1.93641E+00 -1.89324E+00
  -1.92099E+00 -1.75416E+00 -1.50818E+00 -1.14737E+00 -6.82274E-01 -3.87663E-01  3.00766E-02  2.59180E-01  5.01329E-01  4.06013E-01
   3.67000E-01  2.87148E-01  3.02393E-01  4.71004E-01  6.85262E-01  9.72571E-01  1.33397E+00  1.61011E+00  2.03884E+00  2.32201E+00
   2.56433E+00  2.81104E+00  2.94696E+00  3.20637E+00  3.31447E+00  3.74820E+00  4.05777E+00  4.60329E+00  4.80331E+00  5.21988E+00
   5.35734E+00  5.21967E+00  4.33720E+00  4.13301E+00  4.12436E+00  4.10851E+00  4.14487E+00  4.48463E+00  5.43257E+00  6.07923E+00
   6.92923E+00  7.83592E+00  9.76237E+00  1.07712E+01  1.23991E+01  1.29854E+01  1.38482E+01  1.41837E+01  1.50120E+01  1.46067E+01
   1.30378E+01  1.18712E+01  9.95749E+00  8.65587E+00  6.30735E+00  5.31043E+00  4.33836E+00  3.95800E+00  4.04126E+00  3.83150E+00
   3.45911E+00  3.34257E+00  3.63581E+00  3.48991E+00  3.07529E+00  2.78195E+00  2.48230E+00  2.29557E+00  2.17379E+00  2.07505E+00
   2.01943E+00  2.01107E+00  2.08375E+00  2.17324E+00  2.36578E+00  2.57468E+00  2.83684E+00  3.07404E+00  3.38712E+00  3.66315E+00
   4.04095E+00  4.42664E+00  4.86530E+00  5.33136E+00  5.83209E+00  6.33892E+00  6.85648E+00  7.34173E+00  7.81857E+00  8.27584E+00
   8.68736E+00  9.07492E+00  9.42254E+00  9.73619E+00  1.00139E+01  1.02460E+01  1.04152E+01  1.05373E+01  1.06014E+01  1.06147E+01
   1.05863E+01  1.05026E+01  1.03519E+01  1.01916E+01  1.03506E+01  1.03625E+01  1.06486E+01  1.07845E+01  1.11149E+01  1.13775E+01
   1.16638E+01  1.16958E+01  1.20347E+01  1.22875E+01  1.25095E+01  1.28831E+01  1.28593E+01  1.32443E+01  1.33020E+01  1.35847E+01
   1.34306E+01  1.37604E+01  1.38160E+01  1.42954E+01  1.46800E+01  1.50919E+01  1.55818E+01  1.60926E+01  1.63787E+01  1.64729E+01
   1.61448E+01  1.55841E+01  1.51616E+01  1.45205E+01  1.40252E+01  1.36068E+01  1.31694E+01  1.30199E+01  1.27891E+01  1.24879E+01
   1.22111E+01  1.19915E+01  1.18876E+01  1.19446E+01  1.20655E+01  1.22698E+01  1.25486E+01  1.29691E+01  1.33175E+01  1.36903E+01
   1.39510E+01  1.41344E+01  1.43658E+01  1.44928E+01  1.46581E+01  1.47925E+01  1.48885E+01  1.50048E+01  1.50063E+01  1.49095E+01
   1.47409E+01  1.44972E+01  1.42040E+01  1.38678E+01  1.34983E+01  1.31074E+01  1.27078E+01  1.23125E+01  1.19338E+01  1.15832E+01
   1.12704E+01  1.10037E+01  1.07893E+01  1.06313E+01  1.05318E+01  1.04910E+01  1.05066E+01  1.05753E+01  1.06916E+01  1.08492E+01
   1.10403E+01  1.12566E+01  1.14888E+01  1.17278E+01  1.19639E+01  1.21879E+01  1.23908E+01  1.25643E+01  1.27006E+01  1.27934E+01
   1.28368E+01  1.28267E+01  1.27599E+01  1.26348E+01  1.24508E+01  1.22090E+01  1.19113E+01  1.15611E+01  1.11623E+01  1.07200E+01
   1.02394E+01  9.72677E+00  9.18796E+00  8.62950E+00  8.05709E+00  7.47694E+00  6.89409E+00  6.31393E+00  5.74051E+00  5.17809E+00
   4.62952E+00  4.09789E+00  3.58488E+00  3.09252E+00  2.62143E+00  2.17271E+00  1.74616E+00  1.34218E+00  9.59993E-01  5.99518E-01
   2.59576E-01 -6.01917E-02 -3.61194E-01 -6.43909E-01 -9.09834E-01 -1.15946E+00 -1.39430E+00 -1.61480E+00 -1.82244E+00 -2.01756E+00
  -2.20155E+00 -2.37465E+00 -2.53817E+00 -2.69227E+00 -2.83815E+00 -2.97583E+00 -3.10647E+00 -3.22999E+00 -3.34747E+00 -3.45876E+00
  -3.56486E+00 -3.66554E+00 -3.76176E+00 -3.85322E+00 -3.94085E+00 -4.02429E+00 -4.10443E+00 -4.18085E+00 -4.25442E+00 -4.32467E+00
  -4.39248E+00 -4.45733E+00 -4.52005E+00 -4.58010E+00 -4.63832E+00 -4.69413E+00 -4.74837E+00 -4.80042E+00 -4.85110E+00 -4.89978E+00
  -4.94728E+00 -4.99296E+00 -5.03764E+00 -5.08062E+00 -5.12274E+00 -5.16329E+00 -5.20312E+00 -5.24149E+00 -5.27924E+00 -5.31563E+00
  -5.35150E+00 -5.38609E+00 -5.42026E+00 -5.45323E+00 -5.48585E+00 -5.51733E+00 -5.54854E+00 -5.57867E+00 -5.60858E+00 -5.63748E+00
  -5.66621E+00 -5.69396E+00 -5.72161E+00 -5.74832E+00 -5.77499E+00 -5.80074E+00 -5.82649E+00 -5.85137E+00
 NY background values follow
    -3.623E+00   -3.625E+00   -3.627E+00   -3.630E+00   -3.632E+00   -3.634E+00   -3.636E+00   -3.639E+00   -3.641E+00   -3.643E+00
    -3.646E+00   -3.648E+00   -3.650E+00   -3.652E+00   -3.655E+00   -3.657E+00   -3.659E+00   -3.662E+00   -3.664E+00   -3.666E+00
    -3.669E+00   -3.671E+00   -3.673E+00   -3.675E+00   -3.678E+00   -3.680E+00   -3.682E+00   -3.685E+00   -3.687E+00   -3.689E+00
    -3.692E+00   -3.694E+00   -3.696E+00   -3.699E+00   -3.701E+00   -3.703E+00   -3.706E+00   -3.708E+00   -3.710E+00   -3.713E+00
    -3.715E+00   -3.717E+00   -3.720E+00   -3.722E+00   -3.725E+00   -3.727E+00   -3.729E+00   -3.732E+00   -3.734E+00   -3.737E+00
    -3.739E+00   -3.741E+00   -3.744E+00   -3.746E+00   -3.749E+00   -3.751E+00   -3.754E+00   -3.756E+00   -3.759E+00   -3.761E+00
    -3.764E+00   -3.766E+00   -3.769E+00   -3.771E+00   -3.774E+00   -3.777E+00   -3.779E+00   -3.782E+00   -3.784E+00   -3.787E+00
    -3.790E+00   -3.792E+00   -3.795E+00   -3.798E+00   -3.801E+00   -3.803E+00   -3.806E+00   -3.809E+00   -3.812E+00   -3.814E+00
    -3.817E+00   -3.820E+00   -3.823E+00   -3.826E+00   -3.829E+00   -3.832E+00   -3.835E+00   -3.838E+00   -3.841E+00   -3.844E+00
    -3.847E+00   -3.850E+00   -3.853E+00   -3.856E+00   -3.859E+00   -3.862E+00   -3.865E+00   -3.869E+00   -3.872E+00   -3.875E+00
    -3.878E+00   -3.882E+00   -3.885E+00   -3.888E+00   -3.892E+00   -3.895E+00   -3.898E+00   -3.902E+00   -3.905E+00   -3.909E+00
    -3.912E+00   -3.916E+00   -3.919E+00   -3.923E+00   -3.927E+00   -3.930E+00   -3.934E+00   -3.938E+00   -3.941E+00   -3.945E+00
    -3.949E+00   -3.953E+00   -3.956E+00   -3.960E+00   -3.964E+00   -3.968E+00   -3.972E+00   -3.976E+00   -3.980E+00   -3.984E+00
    -3.988E+00   -3.992E+00   -3.996E+00   -4.000E+00   -4.004E+00   -4.008E+00   -4.013E+00   -4.017E+00   -4.021E+00   -4.025E+00
    -4.030E+00   -4.034E+00   -4.038E+00   -4.043E+00   -4.047E+00   -4.052E+00   -4.056E+00   -4.061E+00   -4.065E+00   -4.070E+00
    -4.074E+00   -4.079E+00   -4.084E+00   -4.088E+00   -4.093E+00   -4.098E+00   -4.102E+00   -4.107E+00   -4.112E+00   -4.117E+00
    -4.122E+00   -4.127E+00   -4.132E+00   -4.137E+00   -4.141E+00   -4.146E+00   -4.152E+00   -4.157E+00   -4.162E+00   -4.167E+00
    -4.172E+00   -4.177E+00   -4.182E+00   -4.188E+00   -4.193E+00   -4.198E+00   -4.203E+00   -4.209E+00   -4.214E+00   -4.219E+00
    -4.225E+00   -4.230E+00   -4.236E+00   -4.241E+00   -4.247E+00   -4.252E+00   -4.258E+00   -4.263E+00   -4.269E+00   -4.275E+00
    -4.280E+00   -4.286E+00   -4.292E+00   -4.298E+00   -4.303E+00   -4.309E+00   -4.315E+00   -4.321E+00   -4.327E+00   -4.333E+00
    -4.339E+00   -4.345E+00   -4.351E+00   -4.357E+00   -4.363E+00   -4.369E+00   -4.375E+00   -4.381E+00   -4.387E+00   -4.393E+00
    -4.400E+00   -4.406E+00   -4.412E+00   -4.418E+00   -4.425E+00   -4.431E+00   -4.437E+00   -4.444E+00   -4.450E+00   -4.457E+00
    -4.463E+00   -4.469E+00   -4.476E+00   -4.483E+00   -4.489E+00   -4.496E+00   -4.502E+00   -4.509E+00   -4.515E+00   -4.522E+00
    -4.529E+00   -4.536E+00   -4.542E+00   -4.549E+00   -4.556E+00   -4.563E+00   -4.569E+00   -4.576E+00   -4.583E+00   -4.590E+00
    -4.597E+00   -4.604E+00   -4.611E+00   -4.618E+00   -4.625E+00   -4.632E+00   -4.639E+00   -4.646E+00   -4.653E+00   -4.660E+00
    -4.667E+00   -4.675E+00   -4.682E+00   -4.689E+00   -4.696E+00   -4.703E+00   -4.711E+00   -4.718E+00   -4.725E+00   -4.733E+00
    -4.740E+00   -4.748E+00   -4.755E+00   -4.762E+00   -4.770E+00   -4.777E+00   -4.785E+00   -4.792E+00   -4.800E+00   -4.807E+00
    -4.815E+00   -4.823E+00   -4.830E+00   -4.838E+00   -4.846E+00   -4.853E+00   -4.861E+00   -4.869E+00   -4.877E+00   -4.884E+00
    -4.892E+00   -4.900E+00   -4.908E+00   -4.916E+00   -4.924E+00   -4.931E+00   -4.939E+00   -4.947E+00   -4.955E+00   -4.963E+00
    -4.971E+00   -4.979E+00   -4.987E+00   -4.996E+00   -5.004E+00   -5.012E+00   -5.020E+00   -5.028E+00   -5.036E+00   -5.044E+00
    -5.053E+00   -5.061E+00   -5.069E+00   -5.077E+00   -5.086E+00   -5.094E+00   -5.102E+00   -5.111E+00   -5.119E+00   -5.127E+00
    -5.136E+00   -5.144E+00   -5.153E+00   -5.161E+00   -5.170E+00   -5.178E+00   -5.187E+00   -5.195E+00   -5.204E+00   -5.212E+00
    -5.221E+00   -5.230E+00   -5.238E+00   -5.247E+00   -5.256E+00   -5.264E+00   -5.273E+00   -5.282E+00   -5.291E+00   -5.299E+00
    -5.308E+00   -5.317E+00   -5.326E+00   -5.335E+00   -5.344E+00   -5.352E+00   -5.361E+00   -5.370E+00   -5.379E+00   -5.388E+00
    -5.397E+00   -5.406E+00   -5.415E+00   -5.424E+00   -5.433E+00   -5.442E+00   -5.451E+00   -5.460E+00   -5.470E+00   -5.479E+00
    -5.488E+00   -5.497E+00   -5.506E+00   -5.515E+00   -5.525E+00   -5.534E+00   -5.543E+00   -5.552E+00   -5.562E+00   -5.571E+00
    -5.580E+00   -5.589E+00   -5.599E+00   -5.608E+00   -5.618E+00   -5.627E+00   -5.636E+00   -5.646E+00   -5.655E+00   -5.665E+00
    -5.674E+00   -5.684E+00   -5.693E+00   -5.703E+00   -5.712E+00   -5.722E+00   -5.731E+00   -5.741E+00   -5.750E+00   -5.760E+00
    -5.770E+00   -5.779E+00   -5.789E+00   -5.799E+00   -5.808E+00   -5.818E+00   -5.828E+00   -5.837E+00   -5.847E+00   -5.857E+00
    -5.867E+00   -5.876E+00   -5.886E+00   -5.896E+00   -5.906E+00   -5.916E+00   -5.925E+00   -5.935E+00   -5.945E+00   -5.955E+00
    -5.965E+00   -5.975E+00   -5.985E+00   -5.995E+00   -6.005E+00   -6.015E+00   -6.025E+00   -6.035E+00   -6.045E+00   -6.055E+00
    -6.065E+00   -6.075E+00   -6.085E+00   -6.095E+00   -6.105E+00   -6.115E+00   -6.125E+00   -6.135E+00   -6.145E+00   -6.155E+00
    -6.166E+00   -6.176E+00   -6.186E+00   -6.196E+00   -6.206E+00   -6.216E+00   -6.227E+00   -6.237E+00   -6.247E+00   -6.257E+00
    -6.268E+00   -6.278E+00   -6.288E+00   -6.298E+00   -6.309E+00   -6.319E+00   -6.329E+00   -6.340E+00   -6.350E+00   -6.360E+00
    -6.371E+00   -6.381E+00   -6.391E+00   -6.402E+00   -6.412E+00   -6.422E+00   -6.433E+00   -6.443E+00   -6.454E+00   -6.464E+00
    -6.474E+00   -6.485E+00   -6.495E+00   -6.506E+00   -6.516E+00   -6.527E+00   -6.537E+00   -6.548E+00   -6.558E+00   -6.568E+00
    -6.579E+00   -6.589E+00   -6.600E+00   -6.610E+00   -6.621E+00   -6.631E+00   -6.642E+00   -6.652E+00   -6.663E+00   -6.673E+00
    -6.684E+00   -6.694E+00   -6.705E+00   -6.715E+00   -6.726E+00   -6.736E+00   -6.747E+00   -6.757E+00   -6.768E+00   -6.778E+00
    -6.789E+00   -6.799E+00   -6.810E+00   -6.820E+00   -6.831E+00   -6.841E+00   -6.852E+00   -6.862E+00   -6.873E+00   -6.883E+00
    -6.894E+00   -6.904E+00   -6.915E+00   -6.925E+00   -6.936E+00   -6.946E+00   -6.957E+00   -6.967E+00
 Ala      Conc. = 2.58E+01
