 LCModel (Version 6.3-1L) Copyright: S.W. Provencher.          Ref.: Magn. Reson. Med. 30:672-679 (1993).                
 Slice#3 Row#9 Col#14  PD_05_press_1_raw_act
 36 lines in following concentration table = NCONC+1
    Conc.  %SD /Cr+PCr  Metabolite                                         
 3.06E+03  20% 127.898 Ala                                                 
   10.652 101%   0.445 Asp                                                 
    0.000 999%   0.000 Cr                                                  
   23.955 126%   1.000 PCr                                                 
    7.295  89%   0.305 GABA                                                
    7.550  86%   0.315 Glc                                                 
  336.834  61%  14.061 Gln                                                 
 1.53E+03  19%  63.805 Glu                                                 
    0.000 999%   0.000 GPC                                                 
   42.319  25%   1.767 PCh                                                 
    0.000 999%   0.000 GSH                                                 
  132.435  87%   5.528 Ins                                                 
 2.42E+03  26% 100.973 Lac                                                 
   80.346  47%   3.354 NAA                                                 
    0.000 999%   0.000 NAAG                                                
    3.478  62%   0.145 Scyllo                                              
   14.957  72%   0.624 Tau                                                 
    2.342 244% 9.8E-02 -CrCH2                                              
   42.319  25%   1.767 GPC+PCh                                             
   80.346  47%   3.354 NAA+NAAG                                            
   23.955 126%   1.000 Cr+PCr                                              
 1.87E+03  20%  77.866 Glu+Gln                                             
 1.38E+03  34%  57.572 Lip13a                                              
    0.000 999%   0.000 Lip13b                                              
  579.149  24%  24.176 Lip09                                               
 1.20E+03  12%  50.279 MM09                                                
    0.139 999% 5.8E-03 Lip20                                               
  263.556  63%  11.002 MM20                                                
  362.002  35%  15.112 MM12                                                
 3.90E+03  11% 162.701+MM14                                                
 2.29E+03  13%  95.487+MM17                                                
 1.38E+03  34%  57.572 Lip13a+Lip13b                                       
 5.64E+03  11% 235.385 MM14+Lip13a+Lip13b+MM12                             
 1.78E+03   8%  74.455 MM09+Lip09                                          
  263.695  50%  11.008 MM20+Lip20                                          
   6 lines in following misc. output table
  FWHM = 0.168 ppm    S/N =  20                                            
  Data shift = 0.229 ppm                                                   
  Ph:  32 deg      -7.9 deg/ppm                                            
  alphaB,S = 8.5E+01,   5.5E+02                                            
    6 spline knots.   Ns = 9(2)                                            
  ( 3) 2 infls.   ( 1) 1 extrs.                                            
  498 points on ppm-axis = NY
      4.000000     3.992357     3.984714     3.977070     3.969427     3.961784     3.954141     3.946497     3.938854     3.931211
      3.923568     3.915925     3.908281     3.900638     3.892995     3.885352     3.877708     3.870065     3.862422     3.854779
      3.847136     3.839492     3.831849     3.824206     3.816563     3.808919     3.801276     3.793633     3.785990     3.778347
      3.770703     3.763060     3.755417     3.747774     3.740130     3.732487     3.724844     3.717201     3.709558     3.701914
      3.694271     3.686628     3.678985     3.671341     3.663698     3.656055     3.648412     3.640769     3.633125     3.625482
      3.617839     3.610196     3.602552     3.594909     3.587266     3.579623     3.571980     3.564336     3.556693     3.549050
      3.541407     3.533763     3.526120     3.518477     3.510834     3.503191     3.495547     3.487904     3.480261     3.472618
      3.464974     3.457331     3.449688     3.442045     3.434402     3.426758     3.419115     3.411472     3.403829     3.396185
      3.388542     3.380899     3.373256     3.365613     3.357969     3.350326     3.342683     3.335040     3.327396     3.319753
      3.312110     3.304467     3.296824     3.289180     3.281537     3.273894     3.266251     3.258607     3.250964     3.243321
      3.235678     3.228034     3.220391     3.212748     3.205105     3.197462     3.189818     3.182175     3.174532     3.166889
      3.159245     3.151602     3.143959     3.136316     3.128673     3.121029     3.113386     3.105743     3.098100     3.090456
      3.082813     3.075170     3.067527     3.059884     3.052240     3.044597     3.036954     3.029311     3.021667     3.014024
      3.006381     2.998738     2.991095     2.983451     2.975808     2.968165     2.960522     2.952878     2.945235     2.937592
      2.929949     2.922306     2.914662     2.907019     2.899376     2.891733     2.884089     2.876446     2.868803     2.861160
      2.853517     2.845873     2.838230     2.830587     2.822944     2.815300     2.807657     2.800014     2.792371     2.784728
      2.777084     2.769441     2.761798     2.754155     2.746511     2.738868     2.731225     2.723582     2.715939     2.708295
      2.700652     2.693009     2.685366     2.677722     2.670079     2.662436     2.654793     2.647150     2.639506     2.631863
      2.624220     2.616577     2.608933     2.601290     2.593647     2.586004     2.578361     2.570717     2.563074     2.555431
      2.547788     2.540144     2.532501     2.524858     2.517215     2.509572     2.501928     2.494285     2.486642     2.478999
      2.471355     2.463712     2.456069     2.448426     2.440783     2.433139     2.425496     2.417853     2.410210     2.402566
      2.394923     2.387280     2.379637     2.371994     2.364350     2.356707     2.349064     2.341421     2.333777     2.326134
      2.318491     2.310848     2.303205     2.295561     2.287918     2.280275     2.272632     2.264988     2.257345     2.249702
      2.242059     2.234416     2.226772     2.219129     2.211486     2.203843     2.196199     2.188556     2.180913     2.173270
      2.165627     2.157983     2.150340     2.142697     2.135054     2.127410     2.119767     2.112124     2.104481     2.096838
      2.089194     2.081551     2.073908     2.066265     2.058621     2.050978     2.043335     2.035692     2.028049     2.020405
      2.012762     2.005119     1.997476     1.989833     1.982190     1.974546     1.966903     1.959260     1.951617     1.943974
      1.936331     1.928688     1.921045     1.913402     1.905759     1.898115     1.890472     1.882829     1.875186     1.867543
      1.859900     1.852257     1.844614     1.836971     1.829327     1.821684     1.814041     1.806398     1.798755     1.791112
      1.783469     1.775826     1.768183     1.760540     1.752896     1.745253     1.737610     1.729967     1.722324     1.714681
      1.707038     1.699395     1.691752     1.684108     1.676465     1.668822     1.661179     1.653536     1.645893     1.638250
      1.630607     1.622964     1.615321     1.607677     1.600034     1.592391     1.584748     1.577105     1.569462     1.561819
      1.554176     1.546533     1.538890     1.531246     1.523603     1.515960     1.508317     1.500674     1.493031     1.485388
      1.477745     1.470102     1.462458     1.454815     1.447172     1.439529     1.431886     1.424243     1.416600     1.408957
      1.401314     1.393671     1.386027     1.378384     1.370741     1.363098     1.355455     1.347812     1.340169     1.332526
      1.324883     1.317240     1.309596     1.301953     1.294310     1.286667     1.279024     1.271381     1.263738     1.256095
      1.248452     1.240808     1.233165     1.225522     1.217879     1.210236     1.202593     1.194950     1.187307     1.179664
      1.172021     1.164377     1.156734     1.149091     1.141448     1.133805     1.126162     1.118519     1.110876     1.103233
      1.095590     1.087946     1.080303     1.072660     1.065017     1.057374     1.049731     1.042088     1.034445     1.026802
      1.019158     1.011515     1.003872     0.996229     0.988586     0.980943     0.973300     0.965657     0.958014     0.950371
      0.942727     0.935084     0.927441     0.919798     0.912155     0.904512     0.896869     0.889226     0.881583     0.873940
      0.866296     0.858653     0.851010     0.843367     0.835724     0.828081     0.820438     0.812795     0.805152     0.797508
      0.789865     0.782222     0.774579     0.766936     0.759293     0.751650     0.744007     0.736364     0.728721     0.721077
      0.713434     0.705791     0.698148     0.690505     0.682862     0.675219     0.667576     0.659933     0.652290     0.644646
      0.637003     0.629360     0.621717     0.614074     0.606431     0.598788     0.591145     0.583502     0.575858     0.568215
      0.560572     0.552929     0.545286     0.537643     0.530000     0.522357     0.514714     0.507071     0.499427     0.491784
      0.484141     0.476498     0.468855     0.461212     0.453569     0.445925     0.438282     0.430639     0.422996     0.415353
      0.407710     0.400067     0.392424     0.384780     0.377137     0.369494     0.361851     0.354208     0.346565     0.338922
      0.331278     0.323635     0.315992     0.308349     0.300706     0.293063     0.285420     0.277777     0.270133     0.262490
      0.254847     0.247204     0.239561     0.231918     0.224275     0.216631     0.208988     0.201345
 NY phased data points follow
   9.02697E-01  4.08925E-01  8.20207E-01  1.94290E+00  1.22432E+00  1.26684E+00  2.67648E+00  1.11611E+00  1.68649E+00  1.32325E+00
   1.81606E+00  1.03092E+00  2.07426E+00  1.92866E+00  8.43338E-01  1.49642E+00  1.81534E+00  5.37591E-01  1.95633E+00  1.57976E+00
   1.72686E+00  9.06789E-01  8.32773E-01  2.24780E+00  6.74978E-01  1.80351E+00  1.00969E+00  1.51103E+00  1.90983E-01  1.05649E+00
   1.19940E+00  4.66776E-01  1.63819E+00  1.55409E+00  2.33305E+00  1.91938E+00  2.26867E+00  1.38915E+00  1.54480E+00  2.00018E+00
   1.78485E+00  1.63663E+00  1.84731E+00  1.82699E+00  1.19512E+00  1.85435E+00  1.47409E+00  1.83833E+00  5.84096E-01  8.36480E-01
   2.64737E-01  5.12126E-01  7.24135E-01  1.66793E+00  1.83354E+00  1.68623E+00  1.50974E+00  1.66553E+00  8.54042E-01  2.37495E+00
   1.75800E+00  1.96731E+00  1.16938E+00 -3.20912E-02  2.22155E+00  4.77725E-01 -4.11432E-01  1.41768E+00  1.38348E+00  7.90654E-01
   1.28461E+00  1.18068E+00  2.21818E+00  5.87748E-01  1.28139E+00  1.43494E+00  1.69492E+00  2.11385E+00  2.81395E+00  1.17162E+00
   9.28603E-01  2.02980E+00  9.86815E-01  8.76598E-01  9.65128E-01  1.56126E+00  2.72031E+00  9.41290E-01  5.83863E-01  2.92067E+00
   1.87977E+00  1.99799E+00  2.84680E+00  2.71396E+00  2.12248E+00  2.42461E+00  3.83429E-01  1.02403E+00  1.67101E+00  1.84450E+00
   2.21360E+00  1.60718E+00  2.76657E+00  2.10311E+00  2.07039E+00  2.51708E+00  2.46905E+00  2.08765E+00  4.64058E-01  1.02716E+00
   1.46577E+00  4.82515E-01  1.98153E+00  2.06260E+00  2.21819E+00  2.37993E+00  1.49160E+00  9.56439E-01  1.71916E+00  8.98998E-01
   1.98354E+00  1.05228E+00  9.80974E-01  3.39209E-01  1.16725E-01  3.82326E-01  9.12288E-01  6.11002E-01  1.61176E+00  1.64348E+00
   1.18147E+00  1.01632E-01  9.77544E-01  9.98673E-01  2.09461E+00  1.76518E+00  1.05746E+00  1.49763E+00  4.58505E-01  1.85234E+00
   1.53071E+00  1.29107E+00  8.62039E-01  2.21197E+00  6.09625E-01  1.45025E+00  1.64801E+00  6.45650E-01  1.03117E+00  1.12588E+00
   1.92690E-01  5.97519E-01  8.75823E-01 -5.72621E-01  6.19166E-01  1.57011E+00  2.56888E-01  1.10282E+00  1.80471E-01  1.11464E+00
   1.28797E+00  1.44975E+00  1.35270E+00  3.80908E-01  1.03793E+00  7.85865E-01  7.65656E-01  2.91787E-01  1.84377E+00  3.84542E-01
   6.87704E-01  8.53387E-01 -2.42166E-01  4.78203E-01  2.92756E-01  1.07426E+00  1.86885E+00  6.29458E-02  1.38262E+00  5.15993E-01
   7.02216E-02  2.70440E-01  1.78131E+00  1.26000E+00 -8.21584E-02  1.20899E+00  4.37038E-01  2.49184E+00  2.73093E+00  1.10475E+00
   1.75550E+00  8.08619E-01  1.12064E+00  1.32377E+00  5.30664E-01  1.37806E-01  7.24800E-01 -6.96261E-02  6.50222E-01  1.54598E+00
   1.23382E+00  1.55282E+00  9.08382E-01  7.11604E-01 -3.66031E-01  1.54421E+00  2.95684E-01  1.30120E+00  1.19206E+00  5.83025E-01
   3.57889E-01  3.45452E-01  3.29078E-01  8.97515E-01  5.31319E-01  5.75651E-01  1.46011E+00  8.93260E-01  2.17006E-01  1.74906E-01
  -1.47037E-01  1.65202E+00  1.24738E-01  1.08572E+00  1.68095E+00  7.15429E-01 -4.04842E-01  5.80111E-01  1.76994E+00  1.56588E+00
   7.89872E-01  1.06364E+00  1.25342E+00  2.27772E+00  2.55454E+00  4.31634E+00  3.18250E+00  2.90833E+00  3.56817E+00  2.77633E+00
   3.33379E+00  3.37567E+00  2.16010E+00  2.65179E+00  2.84988E+00  3.23752E+00  3.60501E+00  3.75627E+00  2.86527E+00  2.41939E+00
   3.23812E+00  5.10045E+00  5.38718E+00  3.82803E+00  3.38866E+00  5.19351E+00  4.65315E+00  4.27148E+00  4.62825E+00  5.61605E+00
   4.74455E+00  4.78813E+00  4.63711E+00  5.85444E+00  4.86550E+00  6.47670E+00  4.98267E+00  4.72081E+00  6.01124E+00  5.92223E+00
   6.29978E+00  6.19468E+00  5.52686E+00  5.93414E+00  6.60635E+00  7.49157E+00  5.88521E+00  6.70985E+00  7.63898E+00  7.34676E+00
   7.34359E+00  8.75822E+00  8.49082E+00  8.30233E+00  8.38848E+00  9.34246E+00  8.86003E+00  9.03949E+00  9.71991E+00  9.97567E+00
   1.06850E+01  1.08525E+01  1.10143E+01  1.17589E+01  1.19575E+01  1.19850E+01  1.28537E+01  1.36512E+01  1.41478E+01  1.39078E+01
   1.36854E+01  1.53243E+01  1.52007E+01  1.72895E+01  1.63445E+01  1.81137E+01  1.77649E+01  2.01477E+01  2.05683E+01  2.05301E+01
   2.17378E+01  2.16129E+01  2.24675E+01  2.33946E+01  2.56149E+01  2.56897E+01  2.72774E+01  2.86873E+01  2.98980E+01  3.01581E+01
   3.02744E+01  3.15129E+01  3.45597E+01  3.40129E+01  3.62959E+01  3.51799E+01  3.63723E+01  3.52716E+01  3.73297E+01  3.75158E+01
   3.76886E+01  3.76494E+01  3.61271E+01  3.53630E+01  3.66196E+01  3.20453E+01  3.32959E+01  3.17426E+01  3.05713E+01  2.75441E+01
   2.75503E+01  2.67446E+01  2.41831E+01  2.52617E+01  2.33703E+01  2.12535E+01  2.04387E+01  2.08310E+01  2.00154E+01  1.73634E+01
   1.91838E+01  1.76557E+01  1.67674E+01  1.52831E+01  1.54543E+01  1.51633E+01  1.53669E+01  1.45723E+01  1.32503E+01  1.32018E+01
   1.37065E+01  1.29907E+01  1.29874E+01  1.41723E+01  1.26524E+01  1.32111E+01  1.35444E+01  1.34668E+01  1.24196E+01  1.30527E+01
   1.25943E+01  1.37191E+01  1.39963E+01  1.23883E+01  1.32660E+01  1.30257E+01  1.33443E+01  1.32705E+01  1.33709E+01  1.19889E+01
   1.24997E+01  1.17448E+01  1.19972E+01  1.18915E+01  1.12872E+01  1.18646E+01  1.08389E+01  1.20109E+01  1.20081E+01  1.04522E+01
   1.11597E+01  1.00746E+01  9.90991E+00  1.01899E+01  9.09227E+00  8.16961E+00  7.41746E+00  8.44920E+00  7.17502E+00  7.88081E+00
   6.41912E+00  7.11321E+00  6.37897E+00  5.16043E+00  5.26720E+00  5.78121E+00  6.10552E+00  5.39429E+00  4.44081E+00  5.55408E+00
   4.47971E+00  5.08823E+00  4.00204E+00  4.22129E+00  3.34168E+00  3.55980E+00  4.36795E+00  3.45881E+00  3.48454E+00  3.37548E+00
   3.47255E+00  2.35597E+00  3.20733E+00  4.05236E+00  2.99362E+00  2.35666E+00  1.95153E+00  3.44877E+00  2.82492E+00  2.69088E+00
   2.49392E+00  2.35836E+00  2.18311E+00  1.93139E+00  2.15260E+00  2.49519E+00  1.50173E+00  8.38932E-01  1.81436E+00  1.09312E+00
   1.19627E+00  8.77993E-01  6.51493E-01  2.56161E+00  2.08774E+00  3.87021E-01  1.19127E+00  1.21949E+00  1.25933E+00  8.28662E-01
   1.92446E+00  1.15364E+00  7.98536E-01  4.64653E-01  1.06177E+00  1.17751E+00  1.88077E+00  1.46687E+00  2.01333E+00  4.28539E-01
   1.05636E+00  1.31653E+00  6.36993E-01  8.22928E-01  1.20364E+00  1.06136E+00 -6.65228E-01  4.10850E-01  5.63301E-01 -2.19645E-01
  -4.47227E-01 -7.00449E-02  2.99499E-01  6.60197E-01 -2.51755E-01  1.14569E+00 -1.72925E+00  5.83971E-01  6.00379E-01 -1.04490E-01
   5.10647E-02  2.31494E-01 -3.48186E-01 -1.50490E+00 -2.46104E-02 -1.18808E-01  5.79093E-01  2.45506E-01  7.81242E-01 -3.42065E-01
  -2.05039E-01  1.79408E-01  7.27852E-01 -1.80118E-02  3.51171E-01 -4.91592E-01 -7.26701E-01  4.64549E-01
 NY points of the fit to the data follow
   8.32063E-01  1.25064E+00  8.56604E-01  1.23355E+00  9.56288E-01  1.34882E+00  1.17366E+00  1.59209E+00  1.42735E+00  1.73751E+00
   1.48506E+00  1.68456E+00  1.33963E+00  1.53559E+00  1.15870E+00  1.46894E+00  1.20848E+00  1.58239E+00  1.35539E+00  1.71948E+00
   1.45526E+00  1.79077E+00  1.50720E+00  1.76182E+00  1.50105E+00  1.67167E+00  1.47004E+00  1.56330E+00  1.47282E+00  1.52536E+00
   1.57800E+00  1.56932E+00  1.72494E+00  1.62492E+00  1.84166E+00  1.63120E+00  1.88464E+00  1.58329E+00  1.87666E+00  1.52602E+00
   1.83483E+00  1.49222E+00  1.83520E+00  1.51161E+00  1.86385E+00  1.57743E+00  1.91486E+00  1.68728E+00  1.91677E+00  1.65059E+00
   1.75517E+00  1.47671E+00  1.49626E+00  1.26199E+00  1.27415E+00  1.17654E+00  1.25978E+00  1.21908E+00  1.27697E+00  1.24510E+00
   1.26184E+00  1.22753E+00  1.22311E+00  1.17680E+00  1.17361E+00  1.13050E+00  1.13187E+00  1.09501E+00  1.10611E+00  1.07605E+00
   1.09256E+00  1.05863E+00  1.07113E+00  1.03085E+00  1.04108E+00  9.97508E-01  1.00682E+00  9.61324E-01  9.71187E-01  9.25703E-01
   9.35385E-01  8.93260E-01  9.04440E-01  8.68382E-01  8.96519E-01  9.32428E-01  9.82062E-01  1.05009E+00  1.10888E+00  1.20043E+00
   1.26424E+00  1.37059E+00  1.43590E+00  1.55184E+00  1.61614E+00  1.73129E+00  1.78864E+00  1.89561E+00  1.94311E+00  2.03386E+00
   2.06625E+00  2.12557E+00  2.13759E+00  2.15694E+00  2.14699E+00  2.12334E+00  2.09445E+00  2.03764E+00  2.00004E+00  1.92936E+00
   1.88317E+00  1.80289E+00  1.75115E+00  1.66504E+00  1.60918E+00  1.52140E+00  1.46556E+00  1.39016E+00  1.33899E+00  1.28152E+00
   1.23429E+00  1.19269E+00  1.15180E+00  1.13826E+00  1.11203E+00  1.14665E+00  1.12732E+00  1.15769E+00  1.13355E+00  1.15431E+00
   1.12586E+00  1.13680E+00  1.10538E+00  1.10713E+00  1.07442E+00  1.06859E+00  1.03570E+00  1.02279E+00  9.90731E-01  9.71931E-01
   9.42435E-01  9.20894E-01  8.94628E-01  8.71315E-01  8.48746E-01  8.25204E-01  8.07995E-01  7.89423E-01  7.78568E-01  7.70305E-01
   7.61849E-01  7.55343E-01  7.47594E-01  7.42459E-01  7.35098E-01  7.31124E-01  7.23913E-01  7.20885E-01  7.13153E-01  7.10919E-01
   7.04663E-01  7.03539E-01  6.98617E-01  6.96763E-01  6.93440E-01  6.91669E-01  6.91006E-01  6.89489E-01  6.91046E-01  6.88751E-01
   6.93815E-01  6.92623E-01  7.01652E-01  7.02099E-01  7.15065E-01  7.15527E-01  7.27014E-01  7.28752E-01  7.31782E-01  7.36895E-01
   7.33304E-01  7.45394E-01  7.38571E-01  7.71896E-01  7.74228E-01  8.33715E-01  8.45760E-01  9.43732E-01  9.65254E-01  1.07368E+00
   1.07525E+00  1.17903E+00  1.08427E+00  1.20974E+00  1.04549E+00  1.21727E+00  1.02867E+00  1.30288E+00  1.21107E+00  1.55204E+00
   1.46056E+00  1.81682E+00  1.68401E+00  1.98558E+00  1.70995E+00  1.90573E+00  1.58608E+00  1.77277E+00  1.44128E+00  1.64417E+00
   1.33640E+00  1.55570E+00  1.27510E+00  1.47667E+00  1.19486E+00  1.37794E+00  1.08724E+00  1.25242E+00  9.46319E-01  1.14152E+00
   8.76944E-01  1.14012E+00  9.32223E-01  1.26020E+00  1.10346E+00  1.42708E+00  1.31598E+00  1.62443E+00  1.55795E+00  1.80842E+00
   1.78993E+00  1.97928E+00  1.97656E+00  2.10886E+00  2.17019E+00  2.27171E+00  2.43971E+00  2.50632E+00  2.79947E+00  2.78036E+00
   3.06643E+00  2.95438E+00  3.25739E+00  3.09468E+00  3.35842E+00  3.18230E+00  3.48048E+00  3.38095E+00  3.66721E+00  3.65880E+00
   3.91084E+00  3.98027E+00  4.16771E+00  4.30135E+00  4.39671E+00  4.59754E+00  4.60859E+00  4.86915E+00  4.79041E+00  5.10882E+00
   4.95819E+00  5.31766E+00  5.09809E+00  5.45902E+00  5.19802E+00  5.52801E+00  5.26702E+00  5.58289E+00  5.35174E+00  5.64575E+00
   5.46333E+00  5.73178E+00  5.59230E+00  5.83346E+00  5.76124E+00  6.00536E+00  6.02010E+00  6.27288E+00  6.36831E+00  6.63230E+00
   6.80684E+00  7.09991E+00  7.38541E+00  7.73428E+00  8.09272E+00  8.47882E+00  8.89836E+00  9.31355E+00  9.76556E+00  1.02091E+01
   1.06797E+01  1.11334E+01  1.16027E+01  1.20500E+01  1.24996E+01  1.29284E+01  1.33513E+01  1.37505E+01  1.41367E+01  1.45032E+01
   1.48590E+01  1.52078E+01  1.55599E+01  1.59298E+01  1.63365E+01  1.68045E+01  1.73696E+01  1.80882E+01  1.90717E+01  2.03748E+01
   2.13387E+01  2.26470E+01  2.35061E+01  2.47427E+01  2.54294E+01  2.64421E+01  2.68681E+01  2.81386E+01  2.88824E+01  3.02021E+01
   3.11483E+01  3.23148E+01  3.33581E+01  3.41673E+01  3.51642E+01  3.54553E+01  3.64065E+01  3.61734E+01  3.72400E+01  3.68246E+01
   3.76763E+01  3.65965E+01  3.72185E+01  3.54433E+01  3.57621E+01  3.32402E+01  3.32045E+01  3.06906E+01  3.05611E+01  2.81017E+01
   2.79205E+01  2.57046E+01  2.54716E+01  2.35732E+01  2.32623E+01  2.16572E+01  2.13258E+01  2.00886E+01  1.97181E+01  1.89179E+01
   1.82774E+01  1.75980E+01  1.68491E+01  1.62991E+01  1.54671E+01  1.50667E+01  1.42490E+01  1.41664E+01  1.37210E+01  1.37140E+01
   1.34618E+01  1.34952E+01  1.33615E+01  1.34199E+01  1.33627E+01  1.33750E+01  1.34094E+01  1.34255E+01  1.35290E+01  1.36350E+01
   1.35515E+01  1.33601E+01  1.31953E+01  1.28155E+01  1.26107E+01  1.22071E+01  1.20533E+01  1.20285E+01  1.20594E+01  1.21137E+01
   1.21706E+01  1.22151E+01  1.22351E+01  1.22211E+01  1.21657E+01  1.20638E+01  1.19122E+01  1.17105E+01  1.14598E+01  1.11637E+01
   1.08273E+01  1.04570E+01  1.00604E+01  9.64561E+00  9.22080E+00  8.79418E+00  8.37312E+00  7.96432E+00  7.57322E+00  7.20423E+00
   6.86031E+00  6.54337E+00  6.25390E+00  5.99153E+00  5.75481E+00  5.54176E+00  5.34969E+00  5.17577E+00  5.01677E+00  4.86966E+00
   4.73134E+00  4.59914E+00  4.47053E+00  4.34352E+00  4.21633E+00  4.08779E+00  3.95698E+00  3.82354E+00  3.68725E+00  3.54843E+00
   3.40738E+00  3.26487E+00  3.12157E+00  2.97845E+00  2.83632E+00  2.69617E+00  2.55873E+00  2.42489E+00  2.29525E+00  2.17047E+00
   2.05092E+00  1.93704E+00  1.82894E+00  1.72687E+00  1.63075E+00  1.54064E+00  1.45630E+00  1.37766E+00  1.30438E+00  1.23634E+00
   1.17313E+00  1.11459E+00  1.06030E+00  1.01008E+00  9.63537E-01  9.20514E-01  8.80630E-01  8.43756E-01  8.09532E-01  7.77864E-01
   7.48435E-01  7.21185E-01  6.95824E-01  6.72310E-01  6.50378E-01  6.30020E-01  6.11006E-01  5.93345E-01  5.76821E-01  5.61455E-01
   5.47049E-01  5.33648E-01  5.21075E-01  5.09380E-01  4.98393E-01  4.88168E-01  4.78551E-01  4.69613E-01  4.61209E-01  4.53410E-01
   4.46071E-01  4.39268E-01  4.32872E-01  4.26967E-01  4.21428E-01  4.16334E-01  4.11561E-01  4.07197E-01  4.03128E-01  3.99448E-01
   3.96040E-01  3.92996E-01  3.90202E-01  3.87760E-01  3.85565E-01  3.83721E-01  3.82119E-01  3.80866E-01  3.79862E-01  3.79224E-01
   3.78860E-01  3.78893E-01  3.79236E-01  3.80026E-01  3.81195E-01  3.82907E-01  3.85125E-01  3.88053E-01
 NY background values follow
     6.264E-01    6.265E-01    6.266E-01    6.266E-01    6.267E-01    6.268E-01    6.269E-01    6.270E-01    6.271E-01    6.272E-01
     6.273E-01    6.273E-01    6.274E-01    6.275E-01    6.276E-01    6.277E-01    6.277E-01    6.278E-01    6.279E-01    6.280E-01
     6.280E-01    6.281E-01    6.282E-01    6.282E-01    6.283E-01    6.284E-01    6.284E-01    6.285E-01    6.285E-01    6.286E-01
     6.287E-01    6.287E-01    6.288E-01    6.288E-01    6.289E-01    6.290E-01    6.290E-01    6.291E-01    6.291E-01    6.292E-01
     6.292E-01    6.293E-01    6.293E-01    6.294E-01    6.294E-01    6.295E-01    6.295E-01    6.296E-01    6.296E-01    6.296E-01
     6.297E-01    6.297E-01    6.298E-01    6.298E-01    6.299E-01    6.299E-01    6.299E-01    6.300E-01    6.300E-01    6.301E-01
     6.301E-01    6.301E-01    6.302E-01    6.302E-01    6.303E-01    6.303E-01    6.303E-01    6.304E-01    6.304E-01    6.304E-01
     6.305E-01    6.305E-01    6.306E-01    6.306E-01    6.306E-01    6.307E-01    6.307E-01    6.307E-01    6.308E-01    6.308E-01
     6.309E-01    6.309E-01    6.309E-01    6.310E-01    6.310E-01    6.310E-01    6.311E-01    6.311E-01    6.312E-01    6.312E-01
     6.312E-01    6.313E-01    6.313E-01    6.313E-01    6.314E-01    6.314E-01    6.315E-01    6.315E-01    6.315E-01    6.316E-01
     6.316E-01    6.317E-01    6.317E-01    6.318E-01    6.318E-01    6.319E-01    6.319E-01    6.319E-01    6.320E-01    6.320E-01
     6.321E-01    6.321E-01    6.322E-01    6.322E-01    6.323E-01    6.323E-01    6.324E-01    6.325E-01    6.325E-01    6.326E-01
     6.326E-01    6.327E-01    6.327E-01    6.328E-01    6.329E-01    6.329E-01    6.330E-01    6.330E-01    6.331E-01    6.332E-01
     6.332E-01    6.333E-01    6.334E-01    6.334E-01    6.335E-01    6.336E-01    6.337E-01    6.337E-01    6.338E-01    6.339E-01
     6.340E-01    6.341E-01    6.341E-01    6.342E-01    6.343E-01    6.344E-01    6.345E-01    6.346E-01    6.347E-01    6.348E-01
     6.348E-01    6.349E-01    6.350E-01    6.351E-01    6.352E-01    6.353E-01    6.354E-01    6.355E-01    6.357E-01    6.358E-01
     6.359E-01    6.360E-01    6.361E-01    6.362E-01    6.363E-01    6.365E-01    6.366E-01    6.367E-01    6.368E-01    6.370E-01
     6.371E-01    6.372E-01    6.373E-01    6.375E-01    6.376E-01    6.378E-01    6.379E-01    6.380E-01    6.382E-01    6.383E-01
     6.385E-01    6.386E-01    6.388E-01    6.389E-01    6.391E-01    6.392E-01    6.394E-01    6.395E-01    6.397E-01    6.399E-01
     6.400E-01    6.402E-01    6.403E-01    6.405E-01    6.407E-01    6.409E-01    6.410E-01    6.412E-01    6.414E-01    6.415E-01
     6.417E-01    6.419E-01    6.421E-01    6.423E-01    6.424E-01    6.426E-01    6.428E-01    6.430E-01    6.432E-01    6.434E-01
     6.435E-01    6.437E-01    6.439E-01    6.441E-01    6.443E-01    6.445E-01    6.447E-01    6.449E-01    6.451E-01    6.453E-01
     6.455E-01    6.457E-01    6.459E-01    6.461E-01    6.463E-01    6.465E-01    6.467E-01    6.469E-01    6.471E-01    6.473E-01
     6.475E-01    6.477E-01    6.479E-01    6.481E-01    6.484E-01    6.486E-01    6.488E-01    6.490E-01    6.492E-01    6.494E-01
     6.496E-01    6.498E-01    6.501E-01    6.503E-01    6.505E-01    6.507E-01    6.509E-01    6.511E-01    6.514E-01    6.516E-01
     6.518E-01    6.520E-01    6.522E-01    6.525E-01    6.527E-01    6.529E-01    6.531E-01    6.534E-01    6.536E-01    6.538E-01
     6.540E-01    6.542E-01    6.545E-01    6.547E-01    6.549E-01    6.551E-01    6.554E-01    6.556E-01    6.558E-01    6.560E-01
     6.563E-01    6.565E-01    6.567E-01    6.569E-01    6.572E-01    6.574E-01    6.576E-01    6.578E-01    6.580E-01    6.583E-01
     6.585E-01    6.587E-01    6.589E-01    6.592E-01    6.594E-01    6.596E-01    6.598E-01    6.601E-01    6.603E-01    6.605E-01
     6.607E-01    6.610E-01    6.612E-01    6.614E-01    6.616E-01    6.618E-01    6.621E-01    6.623E-01    6.625E-01    6.627E-01
     6.629E-01    6.632E-01    6.634E-01    6.636E-01    6.638E-01    6.640E-01    6.642E-01    6.645E-01    6.647E-01    6.649E-01
     6.651E-01    6.653E-01    6.655E-01    6.657E-01    6.659E-01    6.662E-01    6.664E-01    6.666E-01    6.668E-01    6.670E-01
     6.672E-01    6.674E-01    6.676E-01    6.678E-01    6.680E-01    6.682E-01    6.684E-01    6.686E-01    6.688E-01    6.690E-01
     6.692E-01    6.694E-01    6.696E-01    6.698E-01    6.700E-01    6.702E-01    6.704E-01    6.706E-01    6.707E-01    6.709E-01
     6.711E-01    6.713E-01    6.715E-01    6.717E-01    6.719E-01    6.720E-01    6.722E-01    6.724E-01    6.726E-01    6.728E-01
     6.729E-01    6.731E-01    6.733E-01    6.735E-01    6.736E-01    6.738E-01    6.740E-01    6.741E-01    6.743E-01    6.745E-01
     6.746E-01    6.748E-01    6.750E-01    6.751E-01    6.753E-01    6.755E-01    6.756E-01    6.758E-01    6.759E-01    6.761E-01
     6.762E-01    6.764E-01    6.766E-01    6.767E-01    6.769E-01    6.770E-01    6.772E-01    6.773E-01    6.774E-01    6.776E-01
     6.777E-01    6.779E-01    6.780E-01    6.782E-01    6.783E-01    6.784E-01    6.786E-01    6.787E-01    6.788E-01    6.790E-01
     6.791E-01    6.792E-01    6.794E-01    6.795E-01    6.796E-01    6.798E-01    6.799E-01    6.800E-01    6.801E-01    6.802E-01
     6.804E-01    6.805E-01    6.806E-01    6.807E-01    6.808E-01    6.809E-01    6.811E-01    6.812E-01    6.813E-01    6.814E-01
     6.815E-01    6.816E-01    6.817E-01    6.818E-01    6.819E-01    6.820E-01    6.821E-01    6.822E-01    6.823E-01    6.824E-01
     6.825E-01    6.826E-01    6.827E-01    6.828E-01    6.829E-01    6.830E-01    6.831E-01    6.831E-01    6.832E-01    6.833E-01
     6.834E-01    6.835E-01    6.836E-01    6.836E-01    6.837E-01    6.838E-01    6.839E-01    6.839E-01    6.840E-01    6.841E-01
     6.841E-01    6.842E-01    6.843E-01    6.843E-01    6.844E-01    6.845E-01    6.845E-01    6.846E-01    6.847E-01    6.847E-01
     6.848E-01    6.848E-01    6.849E-01    6.849E-01    6.850E-01    6.850E-01    6.851E-01    6.851E-01    6.852E-01    6.852E-01
     6.853E-01    6.853E-01    6.853E-01    6.854E-01    6.854E-01    6.854E-01    6.855E-01    6.855E-01    6.855E-01    6.856E-01
     6.856E-01    6.856E-01    6.857E-01    6.857E-01    6.857E-01    6.857E-01    6.857E-01    6.858E-01    6.858E-01    6.858E-01
     6.858E-01    6.858E-01    6.858E-01    6.858E-01    6.858E-01    6.859E-01    6.859E-01    6.859E-01    6.859E-01    6.859E-01
     6.859E-01    6.859E-01    6.859E-01    6.859E-01    6.859E-01    6.858E-01    6.858E-01    6.858E-01
 Ala      Conc. = 3.06E+03
