 LCModel (Version 6.3-1L) Copyright: S.W. Provencher.          Ref.: Magn. Reson. Med. 30:672-679 (1993).                
 Slice#2 Row#13 Col#1  PD_05_press_1_raw_act
 36 lines in following concentration table = NCONC+1
    Conc.  %SD /Cr+PCr  Metabolite                                         
  334.936  60%   0.000 Ala                                                 
   10.964  74%   0.000 Asp                                                 
    0.000 999%   0.000 Cr                                                  
    0.000 999%   0.000 PCr                                                 
    7.711  63%   0.000 GABA                                                
    7.028  70%   0.000 Glc                                                 
 2.03E+03  16%   0.000 Gln                                                 
    0.000 999%   0.000 Glu                                                 
    0.000 999%   0.000 GPC                                                 
    0.000 999%   0.000 PCh                                                 
    0.000 999%   0.000 GSH                                                 
  175.668  84%   0.000 Ins                                                 
    0.000 999%   0.000 Lac                                                 
  248.935  39%   0.000 NAA                                                 
    0.000 999%   0.000 NAAG                                                
    2.459  66%   0.000 Scyllo                                              
   11.001  73%   0.000 Tau                                                 
    0.000 999%   0.000 -CrCH2                                              
    0.000 999%   0.000 GPC+PCh                                             
  248.935  18%   0.000 NAA+NAAG                                            
    0.000 999%   0.000 Cr+PCr                                              
 2.03E+03  16%   0.000 Glu+Gln                                             
   61.245 139%   0.000 Lip13a                                              
    0.000 999%   0.000 Lip13b                                              
    0.000 999%   0.000 Lip09                                               
   36.896 129%   0.000 MM09                                                
  153.456  35%   0.000 Lip20                                               
  222.797  47%   0.000 MM20                                                
    8.630 349%   0.000 MM12                                                
   11.148 693%   0.000 MM14                                                
  202.450  30%   0.000 MM17                                                
   61.245 139%   0.000 Lip13a+Lip13b                                       
   81.023 147%   0.000 MM14+Lip13a+Lip13b+MM12                             
   36.896 129%   0.000 MM09+Lip09                                          
  376.254  30%   0.000 MM20+Lip20                                          
   6 lines in following misc. output table
  FWHM = 0.199 ppm    S/N =   2                                            
  Data shift =-0.099 ppm                                                   
  Ph: 166 deg       4.8 deg/ppm                                            
  alphaB,S = 1.5E+00,   1.0E+02                                            
    9 spline knots.   Ns = 9(2)                                            
  (15) 7 infls.   (15) 1 extrs.                                            
  498 points on ppm-axis = NY
      4.000000     3.992357     3.984714     3.977070     3.969427     3.961784     3.954141     3.946497     3.938854     3.931211
      3.923568     3.915925     3.908281     3.900638     3.892995     3.885352     3.877708     3.870065     3.862422     3.854779
      3.847136     3.839492     3.831849     3.824206     3.816563     3.808919     3.801276     3.793633     3.785990     3.778347
      3.770703     3.763060     3.755417     3.747774     3.740130     3.732487     3.724844     3.717201     3.709558     3.701914
      3.694271     3.686628     3.678985     3.671341     3.663698     3.656055     3.648412     3.640769     3.633125     3.625482
      3.617839     3.610196     3.602552     3.594909     3.587266     3.579623     3.571980     3.564336     3.556693     3.549050
      3.541407     3.533763     3.526120     3.518477     3.510834     3.503191     3.495547     3.487904     3.480261     3.472618
      3.464974     3.457331     3.449688     3.442045     3.434402     3.426758     3.419115     3.411472     3.403829     3.396185
      3.388542     3.380899     3.373256     3.365613     3.357969     3.350326     3.342683     3.335040     3.327396     3.319753
      3.312110     3.304467     3.296824     3.289180     3.281537     3.273894     3.266251     3.258607     3.250964     3.243321
      3.235678     3.228034     3.220391     3.212748     3.205105     3.197462     3.189818     3.182175     3.174532     3.166889
      3.159245     3.151602     3.143959     3.136316     3.128673     3.121029     3.113386     3.105743     3.098100     3.090456
      3.082813     3.075170     3.067527     3.059884     3.052240     3.044597     3.036954     3.029311     3.021667     3.014024
      3.006381     2.998738     2.991095     2.983451     2.975808     2.968165     2.960522     2.952878     2.945235     2.937592
      2.929949     2.922306     2.914662     2.907019     2.899376     2.891733     2.884089     2.876446     2.868803     2.861160
      2.853517     2.845873     2.838230     2.830587     2.822944     2.815300     2.807657     2.800014     2.792371     2.784728
      2.777084     2.769441     2.761798     2.754155     2.746511     2.738868     2.731225     2.723582     2.715939     2.708295
      2.700652     2.693009     2.685366     2.677722     2.670079     2.662436     2.654793     2.647150     2.639506     2.631863
      2.624220     2.616577     2.608933     2.601290     2.593647     2.586004     2.578361     2.570717     2.563074     2.555431
      2.547788     2.540144     2.532501     2.524858     2.517215     2.509572     2.501928     2.494285     2.486642     2.478999
      2.471355     2.463712     2.456069     2.448426     2.440783     2.433139     2.425496     2.417853     2.410210     2.402566
      2.394923     2.387280     2.379637     2.371994     2.364350     2.356707     2.349064     2.341421     2.333777     2.326134
      2.318491     2.310848     2.303205     2.295561     2.287918     2.280275     2.272632     2.264988     2.257345     2.249702
      2.242059     2.234416     2.226772     2.219129     2.211486     2.203843     2.196199     2.188556     2.180913     2.173270
      2.165627     2.157983     2.150340     2.142697     2.135054     2.127410     2.119767     2.112124     2.104481     2.096838
      2.089194     2.081551     2.073908     2.066265     2.058621     2.050978     2.043335     2.035692     2.028049     2.020405
      2.012762     2.005119     1.997476     1.989833     1.982190     1.974546     1.966903     1.959260     1.951617     1.943974
      1.936331     1.928688     1.921045     1.913402     1.905759     1.898115     1.890472     1.882829     1.875186     1.867543
      1.859900     1.852257     1.844614     1.836971     1.829327     1.821684     1.814041     1.806398     1.798755     1.791112
      1.783469     1.775826     1.768183     1.760540     1.752896     1.745253     1.737610     1.729967     1.722324     1.714681
      1.707038     1.699395     1.691752     1.684108     1.676465     1.668822     1.661179     1.653536     1.645893     1.638250
      1.630607     1.622964     1.615321     1.607677     1.600034     1.592391     1.584748     1.577105     1.569462     1.561819
      1.554176     1.546533     1.538890     1.531246     1.523603     1.515960     1.508317     1.500674     1.493031     1.485388
      1.477745     1.470102     1.462458     1.454815     1.447172     1.439529     1.431886     1.424243     1.416600     1.408957
      1.401314     1.393671     1.386027     1.378384     1.370741     1.363098     1.355455     1.347812     1.340169     1.332526
      1.324883     1.317240     1.309596     1.301953     1.294310     1.286667     1.279024     1.271381     1.263738     1.256095
      1.248452     1.240808     1.233165     1.225522     1.217879     1.210236     1.202593     1.194950     1.187307     1.179664
      1.172021     1.164377     1.156734     1.149091     1.141448     1.133805     1.126162     1.118519     1.110876     1.103233
      1.095590     1.087946     1.080303     1.072660     1.065017     1.057374     1.049731     1.042088     1.034445     1.026802
      1.019158     1.011515     1.003872     0.996229     0.988586     0.980943     0.973300     0.965657     0.958014     0.950371
      0.942727     0.935084     0.927441     0.919798     0.912155     0.904512     0.896869     0.889226     0.881583     0.873940
      0.866296     0.858653     0.851010     0.843367     0.835724     0.828081     0.820438     0.812795     0.805152     0.797508
      0.789865     0.782222     0.774579     0.766936     0.759293     0.751650     0.744007     0.736364     0.728721     0.721077
      0.713434     0.705791     0.698148     0.690505     0.682862     0.675219     0.667576     0.659933     0.652290     0.644646
      0.637003     0.629360     0.621717     0.614074     0.606431     0.598788     0.591145     0.583502     0.575858     0.568215
      0.560572     0.552929     0.545286     0.537643     0.530000     0.522357     0.514714     0.507071     0.499427     0.491784
      0.484141     0.476498     0.468855     0.461212     0.453569     0.445925     0.438282     0.430639     0.422996     0.415353
      0.407710     0.400067     0.392424     0.384780     0.377137     0.369494     0.361851     0.354208     0.346565     0.338922
      0.331278     0.323635     0.315992     0.308349     0.300706     0.293063     0.285420     0.277777     0.270133     0.262490
      0.254847     0.247204     0.239561     0.231918     0.224275     0.216631     0.208988     0.201345
 NY phased data points follow
   3.01192E+01  2.91392E+01  2.97161E+01  2.79195E+01  2.78585E+01  2.86527E+01  2.74759E+01  2.66481E+01  2.73665E+01  2.77367E+01
   2.55488E+01  2.58539E+01  2.58626E+01  2.54411E+01  2.54744E+01  2.54375E+01  2.72032E+01  2.40339E+01  2.48134E+01  2.44930E+01
   2.42777E+01  2.37248E+01  2.42834E+01  2.40857E+01  2.24329E+01  2.33983E+01  2.09980E+01  2.24413E+01  2.18022E+01  2.26215E+01
   2.15688E+01  2.34279E+01  2.15953E+01  2.13675E+01  2.18971E+01  2.23424E+01  2.18372E+01  2.18600E+01  2.21882E+01  2.05666E+01
   2.02525E+01  1.96937E+01  1.91130E+01  2.10896E+01  1.92838E+01  1.89962E+01  1.89109E+01  1.78501E+01  1.89636E+01  1.85092E+01
   1.89420E+01  1.81551E+01  1.98639E+01  1.81650E+01  1.86927E+01  1.82728E+01  1.82283E+01  1.91576E+01  1.66957E+01  1.77302E+01
   1.71722E+01  1.65600E+01  1.54875E+01  1.61007E+01  1.78042E+01  1.58898E+01  1.76836E+01  1.63704E+01  1.73922E+01  1.61562E+01
   1.59032E+01  1.73533E+01  1.48202E+01  1.53148E+01  1.53130E+01  1.50919E+01  1.40067E+01  1.33594E+01  1.33245E+01  1.47170E+01
   1.47911E+01  1.41961E+01  1.59218E+01  1.37721E+01  1.33172E+01  1.39904E+01  1.43154E+01  1.38317E+01  1.31867E+01  1.39044E+01
   1.27335E+01  1.25573E+01  1.26215E+01  1.30324E+01  1.24830E+01  1.32697E+01  1.32845E+01  1.20537E+01  1.29741E+01  1.11985E+01
   1.20449E+01  1.19524E+01  1.29963E+01  1.07677E+01  1.24801E+01  1.18734E+01  1.05394E+01  1.18586E+01  1.19098E+01  1.20850E+01
   1.09584E+01  1.14097E+01  1.10981E+01  1.05408E+01  9.24130E+00  1.15963E+01  1.13072E+01  1.06497E+01  1.06262E+01  9.32077E+00
   1.13353E+01  9.80462E+00  9.85887E+00  9.90415E+00  8.57697E+00  9.86918E+00  7.49071E+00  1.11467E+01  9.64492E+00  7.89954E+00
   8.69627E+00  1.01076E+01  9.17929E+00  9.38639E+00  7.88957E+00  8.77024E+00  8.50537E+00  8.78718E+00  1.04826E+01  9.29212E+00
   9.33817E+00  9.39214E+00  1.01002E+01  8.95936E+00  1.10614E+01  9.39605E+00  1.05050E+01  9.19810E+00  8.43340E+00  8.96130E+00
   6.77342E+00  1.00392E+01  1.15593E+01  1.03654E+01  1.16074E+01  9.57102E+00  1.09333E+01  8.71173E+00  1.12514E+01  9.08980E+00
   9.21494E+00  9.91642E+00  9.84448E+00  1.14459E+01  9.44454E+00  9.88878E+00  9.50527E+00  9.17172E+00  1.02418E+01  9.05796E+00
   8.46185E+00  9.45381E+00  8.35197E+00  8.74608E+00  9.60616E+00  9.37844E+00  9.60802E+00  9.41209E+00  8.91243E+00  8.81743E+00
   8.20030E+00  9.39613E+00  7.28305E+00  8.12417E+00  7.08979E+00  6.47423E+00  8.00433E+00  8.37792E+00  6.41534E+00  6.75708E+00
   6.57742E+00  6.50561E+00  7.11838E+00  5.95631E+00  7.83678E+00  6.21334E+00  6.51088E+00  6.89787E+00  5.54408E+00  7.05027E+00
   6.86115E+00  6.94437E+00  6.74425E+00  6.39218E+00  7.00825E+00  5.46545E+00  6.84228E+00  5.80793E+00  6.09703E+00  6.34934E+00
   5.33950E+00  6.76542E+00  6.98003E+00  7.13080E+00  8.92186E+00  7.95661E+00  8.42184E+00  8.85212E+00  7.87195E+00  8.78664E+00
   9.12668E+00  9.45339E+00  9.50447E+00  9.52514E+00  9.01338E+00  9.12727E+00  9.74542E+00  9.11485E+00  1.09961E+01  8.83687E+00
   9.11631E+00  9.23855E+00  1.15027E+01  1.11105E+01  1.07669E+01  9.52783E+00  1.05190E+01  1.12563E+01  9.39514E+00  1.04345E+01
   1.05014E+01  9.67304E+00  1.09277E+01  9.59070E+00  1.03429E+01  1.09849E+01  1.09301E+01  9.31422E+00  9.13887E+00  1.00898E+01
   8.91573E+00  1.18616E+01  1.00534E+01  1.09351E+01  1.09625E+01  1.00268E+01  9.57420E+00  1.00294E+01  1.14777E+01  9.93529E+00
   9.80187E+00  9.02854E+00  1.02645E+01  1.10641E+01  1.13068E+01  1.14880E+01  1.17176E+01  1.12586E+01  1.12135E+01  1.10327E+01
   1.26661E+01  1.13391E+01  1.05072E+01  1.16860E+01  1.03667E+01  9.57395E+00  1.12052E+01  1.21977E+01  1.10896E+01  8.92002E+00
   7.73218E+00  1.03629E+01  9.97039E+00  8.98388E+00  9.63955E+00  1.01274E+01  1.00007E+01  9.75478E+00  9.15191E+00  8.68882E+00
   9.39773E+00  9.25752E+00  9.17646E+00  9.90322E+00  9.28909E+00  9.73324E+00  6.79393E+00  8.54359E+00  9.15345E+00  6.98629E+00
   8.67956E+00  7.87647E+00  8.36263E+00  8.19242E+00  8.04906E+00  8.45004E+00  7.23958E+00  8.91862E+00  7.12257E+00  7.52697E+00
   6.28915E+00  7.52888E+00  7.58348E+00  7.05761E+00  7.99009E+00  7.01455E+00  6.81758E+00  7.32471E+00  7.74576E+00  8.11742E+00
   7.35141E+00  8.71750E+00  7.18851E+00  8.05559E+00  7.64997E+00  7.39560E+00  8.14254E+00  7.79134E+00  8.48808E+00  6.86179E+00
   8.48934E+00  7.90756E+00  7.36463E+00  6.89518E+00  5.97083E+00  6.35481E+00  5.56432E+00  7.42888E+00  7.47598E+00  6.83739E+00
   7.18827E+00  6.02011E+00  5.89415E+00  6.99680E+00  7.83571E+00  7.14844E+00  6.49017E+00  5.86100E+00  7.87680E+00  6.02030E+00
   7.78155E+00  7.20931E+00  8.14896E+00  6.92134E+00  6.09214E+00  5.83124E+00  7.01978E+00  7.41014E+00  6.98985E+00  5.36339E+00
   6.01067E+00  6.43084E+00  7.28365E+00  5.97565E+00  6.52951E+00  5.62049E+00  6.63364E+00  7.34734E+00  5.09871E+00  6.47518E+00
   4.63867E+00  7.12364E+00  5.57419E+00  4.87948E+00  6.81466E+00  5.21676E+00  7.69157E+00  5.01682E+00  7.20432E+00  4.23171E+00
   4.83705E+00  5.44254E+00  5.84434E+00  5.08972E+00  4.78301E+00  5.76451E+00  5.53251E+00  5.56029E+00  5.08172E+00  4.65740E+00
   6.19698E+00  5.30251E+00  5.93630E+00  3.38290E+00  6.81215E+00  4.31576E+00  6.55073E+00  4.07549E+00  5.44673E+00  6.00998E+00
   4.48645E+00  6.75480E+00  3.78534E+00  5.20284E+00  5.88375E+00  5.63385E+00  5.33618E+00  4.05161E+00  4.21401E+00  2.57225E+00
   4.66347E+00  4.49049E+00  4.72448E+00  5.44707E+00  4.38400E+00  4.09241E+00  4.22825E+00  3.10722E+00  5.07329E+00  5.19800E+00
   4.02396E+00  4.05790E+00  6.04743E+00  4.53686E+00  3.69173E+00  3.03163E+00  4.37238E+00  4.81125E+00  3.42597E+00  4.41127E+00
   4.53651E+00  5.28988E+00  5.09066E+00  5.16303E+00  4.84246E+00  3.65514E+00  4.43169E+00  4.30741E+00  4.59464E+00  3.98896E+00
   5.10294E+00  3.89610E+00  3.98986E+00  4.94129E+00  3.35604E+00  4.99438E+00  4.65498E+00  3.55024E+00  3.07818E+00  4.10792E+00
   3.62614E+00  4.83779E+00  4.79124E+00  5.32360E+00  5.66283E+00  4.29635E+00  4.87686E+00  2.98363E+00  4.82342E+00  4.07859E+00
   3.74319E+00  2.88693E+00  3.60731E+00  3.94208E+00  4.99733E+00  4.55595E+00  4.18193E+00  3.89330E+00  2.62264E+00  4.35521E+00
   2.95296E+00  4.00504E+00  3.26018E+00  3.98382E+00  3.56716E+00  3.69193E+00  4.05384E+00  3.26658E+00  4.12397E+00  2.85725E+00
   3.28359E+00  3.81497E+00  5.18426E+00  4.70055E+00  4.33261E+00  3.98533E+00  3.85905E+00  2.92967E+00  4.33383E+00  3.32591E+00
   1.92736E+00  3.45171E+00  3.33253E+00  3.75934E+00  4.24352E+00  3.61272E+00  1.78245E+00  2.95990E+00
 NY points of the fit to the data follow
   2.72657E+01  2.71006E+01  2.69254E+01  2.67678E+01  2.65952E+01  2.64433E+01  2.62876E+01  2.61609E+01  2.59956E+01  2.57637E+01
   2.55072E+01  2.52726E+01  2.50216E+01  2.48194E+01  2.46619E+01  2.47296E+01  2.45945E+01  2.45651E+01  2.43533E+01  2.42360E+01
   2.39384E+01  2.38036E+01  2.35851E+01  2.35677E+01  2.33782E+01  2.33616E+01  2.31368E+01  2.31233E+01  2.28789E+01  2.28428E+01
   2.26350E+01  2.26126E+01  2.24208E+01  2.23366E+01  2.21688E+01  2.20441E+01  2.18757E+01  2.16449E+01  2.14834E+01  2.11991E+01
   2.10644E+01  2.08482E+01  2.08111E+01  2.06140E+01  2.05986E+01  2.03338E+01  2.03612E+01  2.00976E+01  2.01982E+01  1.97695E+01
   1.97727E+01  1.91918E+01  1.91084E+01  1.84348E+01  1.84128E+01  1.82221E+01  1.83003E+01  1.81621E+01  1.81529E+01  1.79805E+01
   1.77604E+01  1.75071E+01  1.73203E+01  1.70917E+01  1.69281E+01  1.67085E+01  1.65490E+01  1.63345E+01  1.61908E+01  1.60174E+01
   1.59250E+01  1.57648E+01  1.56695E+01  1.55003E+01  1.53993E+01  1.52263E+01  1.51228E+01  1.49464E+01  1.48413E+01  1.46628E+01
   1.45483E+01  1.43809E+01  1.42759E+01  1.41218E+01  1.40240E+01  1.38680E+01  1.37641E+01  1.36054E+01  1.34979E+01  1.33430E+01
   1.32329E+01  1.30871E+01  1.29749E+01  1.28384E+01  1.27378E+01  1.26112E+01  1.25145E+01  1.23951E+01  1.23015E+01  1.21897E+01
   1.20997E+01  1.19990E+01  1.19140E+01  1.18243E+01  1.17442E+01  1.16658E+01  1.15900E+01  1.15266E+01  1.14583E+01  1.13936E+01
   1.13180E+01  1.12473E+01  1.11740E+01  1.11054E+01  1.10386E+01  1.09737E+01  1.09173E+01  1.08563E+01  1.08129E+01  1.07560E+01
   1.07148E+01  1.06602E+01  1.06171E+01  1.05642E+01  1.05183E+01  1.04645E+01  1.04149E+01  1.03635E+01  1.03145E+01  1.02645E+01
   1.02164E+01  1.01669E+01  1.01196E+01  1.00713E+01  1.00260E+01  9.97947E+00  9.93672E+00  9.89212E+00  9.85148E+00  9.80872E+00
   9.76961E+00  9.72814E+00  9.68687E+00  9.64134E+00  9.60265E+00  9.55873E+00  9.52603E+00  9.48765E+00  9.45167E+00  9.41272E+00
   9.37411E+00  9.33226E+00  9.29481E+00  9.25197E+00  9.21463E+00  9.17146E+00  9.13094E+00  9.08405E+00  9.03600E+00  8.98820E+00
   8.94260E+00  8.89447E+00  8.84574E+00  8.79161E+00  8.73995E+00  8.68636E+00  8.63423E+00  8.58435E+00  8.53109E+00  8.47589E+00
   8.43134E+00  8.37888E+00  8.34120E+00  8.29444E+00  8.26300E+00  8.22247E+00  8.18722E+00  8.10606E+00  8.07655E+00  7.94987E+00
   7.90585E+00  7.79568E+00  7.75887E+00  7.66248E+00  7.72249E+00  7.70384E+00  7.81697E+00  7.74938E+00  7.89682E+00  7.76109E+00
   7.85785E+00  7.64166E+00  7.62964E+00  7.19916E+00  7.34383E+00  7.10049E+00  7.38292E+00  7.19975E+00  7.50963E+00  7.26407E+00
   7.55657E+00  7.19957E+00  7.50150E+00  7.09738E+00  7.44779E+00  7.02172E+00  7.40216E+00  6.98493E+00  7.37049E+00  6.97625E+00
   7.45937E+00  7.22273E+00  7.77015E+00  7.61495E+00  8.19562E+00  8.12230E+00  8.65099E+00  8.52909E+00  8.87105E+00  8.43929E+00
   8.64679E+00  8.24292E+00  8.50810E+00  8.39675E+00  8.88412E+00  9.09005E+00  9.41025E+00  9.60122E+00  9.99347E+00  1.02957E+01
   1.06221E+01  1.08646E+01  1.08000E+01  1.04463E+01  1.03508E+01  1.00954E+01  9.98917E+00  9.79856E+00  9.65484E+00  9.49811E+00
   9.32936E+00  9.29534E+00  9.23628E+00  9.33583E+00  9.19814E+00  9.31505E+00  9.11170E+00  9.28132E+00  9.12009E+00  9.46684E+00
   9.44333E+00  9.94528E+00  9.87456E+00  1.03773E+01  1.01910E+01  1.07225E+01  1.04543E+01  1.10359E+01  1.06316E+01  1.08640E+01
   1.04414E+01  1.07055E+01  1.05069E+01  1.09064E+01  1.10799E+01  1.14078E+01  1.14058E+01  1.16395E+01  1.14938E+01  1.15602E+01
   1.12988E+01  1.12485E+01  1.08145E+01  1.07021E+01  1.03001E+01  1.02188E+01  9.90873E+00  9.83266E+00  9.51857E+00  9.37918E+00
   9.04552E+00  8.98158E+00  8.99666E+00  9.02471E+00  9.05570E+00  9.08451E+00  9.10495E+00  9.12084E+00  9.12626E+00  9.12159E+00
   9.10400E+00  9.07390E+00  9.03025E+00  8.97488E+00  8.90757E+00  8.83109E+00  8.74563E+00  8.65386E+00  8.55764E+00  8.46039E+00
   8.36285E+00  8.26828E+00  8.17728E+00  8.09340E+00  8.01639E+00  7.94986E+00  7.89539E+00  7.86004E+00  7.85802E+00  7.89989E+00
   7.83218E+00  7.81163E+00  7.72577E+00  7.69136E+00  7.61093E+00  7.58320E+00  7.49147E+00  7.58401E+00  7.55885E+00  7.63531E+00
   7.59440E+00  7.62946E+00  7.54400E+00  7.54815E+00  7.43972E+00  7.45995E+00  7.35718E+00  7.35273E+00  7.27685E+00  7.26877E+00
   7.21243E+00  7.17368E+00  7.14329E+00  7.10107E+00  7.13194E+00  7.07971E+00  7.12080E+00  7.04903E+00  7.08097E+00  6.93207E+00
   6.97468E+00  6.77694E+00  6.85720E+00  6.68798E+00  6.80282E+00  6.64449E+00  6.86070E+00  6.72765E+00  7.08168E+00  7.09404E+00
   7.30766E+00  7.24834E+00  7.37894E+00  7.23548E+00  7.23587E+00  6.97833E+00  6.79851E+00  6.68402E+00  6.59677E+00  6.52364E+00
   6.45888E+00  6.39946E+00  6.34365E+00  6.29040E+00  6.23907E+00  6.18926E+00  6.14075E+00  6.09340E+00  6.04718E+00  6.00208E+00
   5.95813E+00  5.91535E+00  5.87379E+00  5.83350E+00  5.79451E+00  5.75688E+00  5.72063E+00  5.68580E+00  5.65241E+00  5.62050E+00
   5.59009E+00  5.56121E+00  5.53389E+00  5.50815E+00  5.48401E+00  5.46147E+00  5.44055E+00  5.42123E+00  5.40347E+00  5.38720E+00
   5.37232E+00  5.35868E+00  5.34612E+00  5.33440E+00  5.32326E+00  5.31239E+00  5.30145E+00  5.29010E+00  5.27797E+00  5.26470E+00
   5.24998E+00  5.23351E+00  5.21505E+00  5.19443E+00  5.17159E+00  5.14648E+00  5.11920E+00  5.08989E+00  5.05876E+00  5.02608E+00
   4.99218E+00  4.95739E+00  4.92204E+00  4.88650E+00  4.85107E+00  4.81604E+00  4.78167E+00  4.74814E+00  4.71562E+00  4.68420E+00
   4.65395E+00  4.62491E+00  4.59706E+00  4.57037E+00  4.54480E+00  4.52027E+00  4.49672E+00  4.47408E+00  4.45225E+00  4.43117E+00
   4.41077E+00  4.39097E+00  4.37172E+00  4.35297E+00  4.33466E+00  4.31675E+00  4.29920E+00  4.28199E+00  4.26508E+00  4.24845E+00
   4.23206E+00  4.21591E+00  4.19998E+00  4.18424E+00  4.16870E+00  4.15332E+00  4.13811E+00  4.12305E+00  4.10813E+00  4.09334E+00
   4.07868E+00  4.06413E+00  4.04970E+00  4.03536E+00  4.02112E+00  4.00696E+00  3.99289E+00  3.97889E+00  3.96496E+00  3.95109E+00
   3.93729E+00  3.92353E+00  3.90982E+00  3.89616E+00  3.88253E+00  3.86893E+00  3.85536E+00  3.84181E+00  3.82828E+00  3.81476E+00
   3.80125E+00  3.78774E+00  3.77423E+00  3.76072E+00  3.74720E+00  3.73366E+00  3.72010E+00  3.70652E+00  3.69291E+00  3.67927E+00
   3.66559E+00  3.65188E+00  3.63811E+00  3.62430E+00  3.61044E+00  3.59652E+00  3.58253E+00  3.56849E+00  3.55437E+00  3.54019E+00
   3.52593E+00  3.51160E+00  3.49719E+00  3.48270E+00  3.46813E+00  3.45348E+00  3.43876E+00  3.42397E+00
 NY background values follow
     2.662E+01    2.644E+01    2.626E+01    2.609E+01    2.591E+01    2.573E+01    2.556E+01    2.538E+01    2.520E+01    2.503E+01
     2.485E+01    2.468E+01    2.450E+01    2.433E+01    2.415E+01    2.398E+01    2.380E+01    2.363E+01    2.346E+01    2.328E+01
     2.311E+01    2.294E+01    2.277E+01    2.260E+01    2.243E+01    2.226E+01    2.209E+01    2.192E+01    2.175E+01    2.159E+01
     2.142E+01    2.125E+01    2.109E+01    2.092E+01    2.076E+01    2.060E+01    2.043E+01    2.027E+01    2.011E+01    1.995E+01
     1.979E+01    1.963E+01    1.947E+01    1.931E+01    1.916E+01    1.900E+01    1.885E+01    1.869E+01    1.854E+01    1.839E+01
     1.824E+01    1.809E+01    1.794E+01    1.779E+01    1.764E+01    1.750E+01    1.735E+01    1.721E+01    1.706E+01    1.692E+01
     1.678E+01    1.664E+01    1.650E+01    1.636E+01    1.623E+01    1.609E+01    1.596E+01    1.583E+01    1.569E+01    1.556E+01
     1.544E+01    1.531E+01    1.518E+01    1.506E+01    1.493E+01    1.481E+01    1.469E+01    1.457E+01    1.445E+01    1.433E+01
     1.422E+01    1.411E+01    1.399E+01    1.388E+01    1.377E+01    1.366E+01    1.356E+01    1.345E+01    1.335E+01    1.325E+01
     1.315E+01    1.305E+01    1.295E+01    1.285E+01    1.276E+01    1.266E+01    1.257E+01    1.248E+01    1.239E+01    1.230E+01
     1.221E+01    1.213E+01    1.204E+01    1.196E+01    1.188E+01    1.180E+01    1.172E+01    1.164E+01    1.156E+01    1.149E+01
     1.141E+01    1.134E+01    1.127E+01    1.120E+01    1.113E+01    1.106E+01    1.099E+01    1.093E+01    1.086E+01    1.080E+01
     1.073E+01    1.067E+01    1.061E+01    1.055E+01    1.049E+01    1.044E+01    1.038E+01    1.032E+01    1.027E+01    1.022E+01
     1.016E+01    1.011E+01    1.006E+01    1.001E+01    9.964E+00    9.917E+00    9.870E+00    9.824E+00    9.780E+00    9.736E+00
     9.693E+00    9.650E+00    9.609E+00    9.569E+00    9.529E+00    9.490E+00    9.452E+00    9.415E+00    9.379E+00    9.343E+00
     9.309E+00    9.275E+00    9.241E+00    9.209E+00    9.177E+00    9.146E+00    9.116E+00    9.086E+00    9.057E+00    9.029E+00
     9.002E+00    8.975E+00    8.949E+00    8.923E+00    8.898E+00    8.874E+00    8.850E+00    8.827E+00    8.804E+00    8.782E+00
     8.761E+00    8.740E+00    8.720E+00    8.700E+00    8.681E+00    8.662E+00    8.644E+00    8.626E+00    8.609E+00    8.592E+00
     8.576E+00    8.560E+00    8.544E+00    8.529E+00    8.515E+00    8.501E+00    8.487E+00    8.474E+00    8.461E+00    8.448E+00
     8.436E+00    8.424E+00    8.412E+00    8.401E+00    8.390E+00    8.380E+00    8.369E+00    8.359E+00    8.350E+00    8.340E+00
     8.331E+00    8.322E+00    8.313E+00    8.305E+00    8.297E+00    8.289E+00    8.281E+00    8.273E+00    8.266E+00    8.258E+00
     8.251E+00    8.244E+00    8.237E+00    8.230E+00    8.224E+00    8.217E+00    8.211E+00    8.204E+00    8.198E+00    8.192E+00
     8.186E+00    8.179E+00    8.173E+00    8.167E+00    8.161E+00    8.155E+00    8.149E+00    8.143E+00    8.137E+00    8.130E+00
     8.124E+00    8.118E+00    8.112E+00    8.105E+00    8.099E+00    8.092E+00    8.085E+00    8.078E+00    8.071E+00    8.064E+00
     8.057E+00    8.049E+00    8.042E+00    8.034E+00    8.026E+00    8.018E+00    8.009E+00    8.001E+00    7.992E+00    7.983E+00
     7.973E+00    7.964E+00    7.954E+00    7.944E+00    7.933E+00    7.923E+00    7.912E+00    7.901E+00    7.889E+00    7.878E+00
     7.866E+00    7.854E+00    7.842E+00    7.829E+00    7.816E+00    7.804E+00    7.790E+00    7.777E+00    7.763E+00    7.750E+00
     7.736E+00    7.721E+00    7.707E+00    7.692E+00    7.678E+00    7.662E+00    7.647E+00    7.632E+00    7.616E+00    7.600E+00
     7.584E+00    7.568E+00    7.552E+00    7.535E+00    7.518E+00    7.501E+00    7.484E+00    7.466E+00    7.449E+00    7.431E+00
     7.413E+00    7.395E+00    7.377E+00    7.358E+00    7.340E+00    7.321E+00    7.302E+00    7.283E+00    7.264E+00    7.244E+00
     7.225E+00    7.205E+00    7.185E+00    7.165E+00    7.145E+00    7.124E+00    7.104E+00    7.083E+00    7.062E+00    7.041E+00
     7.020E+00    6.999E+00    6.978E+00    6.956E+00    6.934E+00    6.913E+00    6.891E+00    6.869E+00    6.847E+00    6.824E+00
     6.802E+00    6.779E+00    6.757E+00    6.734E+00    6.711E+00    6.688E+00    6.665E+00    6.641E+00    6.618E+00    6.595E+00
     6.571E+00    6.547E+00    6.523E+00    6.500E+00    6.476E+00    6.452E+00    6.427E+00    6.403E+00    6.379E+00    6.354E+00
     6.330E+00    6.305E+00    6.281E+00    6.256E+00    6.231E+00    6.206E+00    6.182E+00    6.157E+00    6.132E+00    6.107E+00
     6.082E+00    6.057E+00    6.032E+00    6.007E+00    5.982E+00    5.957E+00    5.931E+00    5.906E+00    5.881E+00    5.856E+00
     5.831E+00    5.806E+00    5.781E+00    5.756E+00    5.731E+00    5.706E+00    5.681E+00    5.656E+00    5.631E+00    5.606E+00
     5.581E+00    5.556E+00    5.531E+00    5.507E+00    5.482E+00    5.458E+00    5.433E+00    5.409E+00    5.384E+00    5.360E+00
     5.336E+00    5.312E+00    5.288E+00    5.264E+00    5.240E+00    5.216E+00    5.193E+00    5.169E+00    5.146E+00    5.123E+00
     5.099E+00    5.076E+00    5.054E+00    5.031E+00    5.008E+00    4.986E+00    4.963E+00    4.941E+00    4.919E+00    4.897E+00
     4.876E+00    4.854E+00    4.833E+00    4.812E+00    4.791E+00    4.770E+00    4.749E+00    4.729E+00    4.709E+00    4.688E+00
     4.669E+00    4.649E+00    4.630E+00    4.610E+00    4.591E+00    4.572E+00    4.554E+00    4.536E+00    4.517E+00    4.499E+00
     4.482E+00    4.464E+00    4.447E+00    4.430E+00    4.413E+00    4.396E+00    4.379E+00    4.363E+00    4.346E+00    4.330E+00
     4.314E+00    4.299E+00    4.283E+00    4.267E+00    4.252E+00    4.237E+00    4.222E+00    4.207E+00    4.192E+00    4.177E+00
     4.163E+00    4.148E+00    4.134E+00    4.120E+00    4.105E+00    4.091E+00    4.077E+00    4.063E+00    4.050E+00    4.036E+00
     4.022E+00    4.009E+00    3.995E+00    3.982E+00    3.968E+00    3.955E+00    3.942E+00    3.929E+00    3.915E+00    3.902E+00
     3.889E+00    3.876E+00    3.863E+00    3.850E+00    3.837E+00    3.824E+00    3.811E+00    3.798E+00    3.785E+00    3.772E+00
     3.759E+00    3.746E+00    3.733E+00    3.720E+00    3.707E+00    3.694E+00    3.681E+00    3.668E+00    3.655E+00    3.641E+00
     3.628E+00    3.615E+00    3.601E+00    3.588E+00    3.575E+00    3.561E+00    3.547E+00    3.534E+00    3.520E+00    3.506E+00
     3.492E+00    3.478E+00    3.464E+00    3.449E+00    3.435E+00    3.421E+00    3.406E+00    3.391E+00
 Ala      Conc. = 3.35E+02
