 LCModel (Version 6.3-1L) Copyright: S.W. Provencher.          Ref.: Magn. Reson. Med. 30:672-679 (1993).                
 Slice#1 Row#2 Col#4  PD_05_press_1_raw_act
 36 lines in following concentration table = NCONC+1
    Conc.  %SD /Cr+PCr  Metabolite                                         
 2.35E+03  12%  19.305 Ala                                                 
   11.259  57% 9.2E-02 Asp                                                 
  121.749  32%   1.000 Cr                                                  
    0.000 999%   0.000 PCr                                                 
    6.854  57% 5.6E-02 GABA                                                
    6.907  56% 5.7E-02 Glc                                                 
    0.000 999%   0.000 Gln                                                 
  715.774  53%   5.879 Glu                                                 
   35.139  41%   0.289 GPC                                                 
    0.000 999%   0.000 PCh                                                 
    0.000 999%   0.000 GSH                                                 
  386.683  37%   3.176 Ins                                                 
  100.240 241%   0.823 Lac                                                 
    0.000 999%   0.000 NAA                                                 
    0.000 999%   0.000 NAAG                                                
    2.352  55% 1.9E-02 Scyllo                                              
   11.773  55% 9.7E-02 Tau                                                 
    2.227 999% 1.8E-02 -CrCH2                                              
   35.139  41%   0.289 GPC+PCh                                             
    0.000 999%   0.000 NAA+NAAG                                            
  121.749  32%   1.000 Cr+PCr                                              
  715.774  53%   5.879 Glu+Gln                                             
    0.000 999%   0.000 Lip13a                                              
    0.000 999%   0.000 Lip13b                                              
    0.000 999%   0.000 Lip09                                               
  233.326  22%   1.916 MM09                                                
    0.000 999%   0.000 Lip20                                               
  332.190  26%   2.728 MM20                                                
   65.979  39%   0.542 MM12                                                
  456.474  15%   3.749 MM14                                                
   24.739 242%   0.203 MM17                                                
    0.000 999%   0.000 Lip13a+Lip13b                                       
  522.453  15%   4.291 MM14+Lip13a+Lip13b+MM12                             
  233.326  22%   1.916 MM09+Lip09                                          
  332.190  26%   2.728 MM20+Lip20                                          
   6 lines in following misc. output table
  FWHM = 0.153 ppm    S/N =   2                                            
  Data shift = 0.222 ppm                                                   
  Ph: -53 deg     -50.4 deg/ppm                                            
  alphaB,S = 8.5E+01,   4.1E+02                                            
    6 spline knots.   Ns = 9(2)                                            
   2 inflections.     1 extrema                                            
  498 points on ppm-axis = NY
      4.000000     3.992357     3.984714     3.977070     3.969427     3.961784     3.954141     3.946497     3.938854     3.931211
      3.923568     3.915925     3.908281     3.900638     3.892995     3.885352     3.877708     3.870065     3.862422     3.854779
      3.847136     3.839492     3.831849     3.824206     3.816563     3.808919     3.801276     3.793633     3.785990     3.778347
      3.770703     3.763060     3.755417     3.747774     3.740130     3.732487     3.724844     3.717201     3.709558     3.701914
      3.694271     3.686628     3.678985     3.671341     3.663698     3.656055     3.648412     3.640769     3.633125     3.625482
      3.617839     3.610196     3.602552     3.594909     3.587266     3.579623     3.571980     3.564336     3.556693     3.549050
      3.541407     3.533763     3.526120     3.518477     3.510834     3.503191     3.495547     3.487904     3.480261     3.472618
      3.464974     3.457331     3.449688     3.442045     3.434402     3.426758     3.419115     3.411472     3.403829     3.396185
      3.388542     3.380899     3.373256     3.365613     3.357969     3.350326     3.342683     3.335040     3.327396     3.319753
      3.312110     3.304467     3.296824     3.289180     3.281537     3.273894     3.266251     3.258607     3.250964     3.243321
      3.235678     3.228034     3.220391     3.212748     3.205105     3.197462     3.189818     3.182175     3.174532     3.166889
      3.159245     3.151602     3.143959     3.136316     3.128673     3.121029     3.113386     3.105743     3.098100     3.090456
      3.082813     3.075170     3.067527     3.059884     3.052240     3.044597     3.036954     3.029311     3.021667     3.014024
      3.006381     2.998738     2.991095     2.983451     2.975808     2.968165     2.960522     2.952878     2.945235     2.937592
      2.929949     2.922306     2.914662     2.907019     2.899376     2.891733     2.884089     2.876446     2.868803     2.861160
      2.853517     2.845873     2.838230     2.830587     2.822944     2.815300     2.807657     2.800014     2.792371     2.784728
      2.777084     2.769441     2.761798     2.754155     2.746511     2.738868     2.731225     2.723582     2.715939     2.708295
      2.700652     2.693009     2.685366     2.677722     2.670079     2.662436     2.654793     2.647150     2.639506     2.631863
      2.624220     2.616577     2.608933     2.601290     2.593647     2.586004     2.578361     2.570717     2.563074     2.555431
      2.547788     2.540144     2.532501     2.524858     2.517215     2.509572     2.501928     2.494285     2.486642     2.478999
      2.471355     2.463712     2.456069     2.448426     2.440783     2.433139     2.425496     2.417853     2.410210     2.402566
      2.394923     2.387280     2.379637     2.371994     2.364350     2.356707     2.349064     2.341421     2.333777     2.326134
      2.318491     2.310848     2.303205     2.295561     2.287918     2.280275     2.272632     2.264988     2.257345     2.249702
      2.242059     2.234416     2.226772     2.219129     2.211486     2.203843     2.196199     2.188556     2.180913     2.173270
      2.165627     2.157983     2.150340     2.142697     2.135054     2.127410     2.119767     2.112124     2.104481     2.096838
      2.089194     2.081551     2.073908     2.066265     2.058621     2.050978     2.043335     2.035692     2.028049     2.020405
      2.012762     2.005119     1.997476     1.989833     1.982190     1.974546     1.966903     1.959260     1.951617     1.943974
      1.936331     1.928688     1.921045     1.913402     1.905759     1.898115     1.890472     1.882829     1.875186     1.867543
      1.859900     1.852257     1.844614     1.836971     1.829327     1.821684     1.814041     1.806398     1.798755     1.791112
      1.783469     1.775826     1.768183     1.760540     1.752896     1.745253     1.737610     1.729967     1.722324     1.714681
      1.707038     1.699395     1.691752     1.684108     1.676465     1.668822     1.661179     1.653536     1.645893     1.638250
      1.630607     1.622964     1.615321     1.607677     1.600034     1.592391     1.584748     1.577105     1.569462     1.561819
      1.554176     1.546533     1.538890     1.531246     1.523603     1.515960     1.508317     1.500674     1.493031     1.485388
      1.477745     1.470102     1.462458     1.454815     1.447172     1.439529     1.431886     1.424243     1.416600     1.408957
      1.401314     1.393671     1.386027     1.378384     1.370741     1.363098     1.355455     1.347812     1.340169     1.332526
      1.324883     1.317240     1.309596     1.301953     1.294310     1.286667     1.279024     1.271381     1.263738     1.256095
      1.248452     1.240808     1.233165     1.225522     1.217879     1.210236     1.202593     1.194950     1.187307     1.179664
      1.172021     1.164377     1.156734     1.149091     1.141448     1.133805     1.126162     1.118519     1.110876     1.103233
      1.095590     1.087946     1.080303     1.072660     1.065017     1.057374     1.049731     1.042088     1.034445     1.026802
      1.019158     1.011515     1.003872     0.996229     0.988586     0.980943     0.973300     0.965657     0.958014     0.950371
      0.942727     0.935084     0.927441     0.919798     0.912155     0.904512     0.896869     0.889226     0.881583     0.873940
      0.866296     0.858653     0.851010     0.843367     0.835724     0.828081     0.820438     0.812795     0.805152     0.797508
      0.789865     0.782222     0.774579     0.766936     0.759293     0.751650     0.744007     0.736364     0.728721     0.721077
      0.713434     0.705791     0.698148     0.690505     0.682862     0.675219     0.667576     0.659933     0.652290     0.644646
      0.637003     0.629360     0.621717     0.614074     0.606431     0.598788     0.591145     0.583502     0.575858     0.568215
      0.560572     0.552929     0.545286     0.537643     0.530000     0.522357     0.514714     0.507071     0.499427     0.491784
      0.484141     0.476498     0.468855     0.461212     0.453569     0.445925     0.438282     0.430639     0.422996     0.415353
      0.407710     0.400067     0.392424     0.384780     0.377137     0.369494     0.361851     0.354208     0.346565     0.338922
      0.331278     0.323635     0.315992     0.308349     0.300706     0.293063     0.285420     0.277777     0.270133     0.262490
      0.254847     0.247204     0.239561     0.231918     0.224275     0.216631     0.208988     0.201345
 NY phased data points follow
  -5.46420E-01  5.18361E-01  1.67227E-02  6.64754E-01 -1.89781E+00 -2.90594E+00 -6.24072E-01 -1.59157E+00 -1.67383E+00 -2.61625E+00
  -1.89462E-01 -2.77775E-01  2.18373E-01  1.10188E+00  2.00037E+00  3.66912E-01 -2.63884E+00  1.05602E+00 -1.29932E+00  1.21147E+00
   2.12795E-01 -3.02518E+00 -1.95853E+00 -5.73772E-02  1.04060E+00 -2.72185E+00 -2.71718E-01 -1.45034E+00 -8.92784E-01 -1.15294E+00
  -2.32047E+00 -3.50777E+00 -3.32366E-01 -4.02123E+00 -1.05606E+00 -2.68890E+00 -1.08538E+00 -3.08358E+00 -1.52038E+00  2.07862E+00
   1.00950E+00  8.32313E-01 -2.59028E+00 -8.18076E-01 -2.32778E+00 -1.19059E+00 -2.24086E+00 -3.98291E+00 -2.58323E+00 -1.47131E+00
  -2.44971E-01 -4.69810E-01 -5.45522E-01 -1.93606E+00 -1.30704E+00 -9.84969E-01 -4.15273E+00 -4.16728E-01  1.93376E-01 -5.38045E-01
  -1.65916E+00 -1.16069E+00  2.78851E-02 -2.45336E+00 -1.17553E+00  1.39367E+00  1.91883E-01 -1.35403E-01  1.18400E+00  1.09565E+00
   8.26401E-01 -2.67593E+00 -7.78466E-01  1.38552E+00 -1.89676E+00 -1.12881E+00  1.27957E+00  1.35580E+00  3.16336E-01 -1.39524E-03
  -2.95014E+00 -1.68039E+00 -1.46006E+00 -1.90498E+00 -1.43091E+00 -4.78637E+00  5.21233E-03 -1.39264E+00 -1.80313E+00 -3.55286E+00
   8.02736E-01  1.08725E+00 -1.65307E+00 -1.52282E+00 -3.88423E-01  5.60109E-01  1.61788E-01 -1.39506E+00 -1.77974E-01  1.29045E+00
   2.83654E-01  1.29453E+00 -1.11906E+00 -1.82950E-01 -6.23104E-01 -7.71915E-01 -2.43456E+00 -2.39102E+00 -9.20632E-01 -3.02084E+00
  -3.80800E+00 -9.85011E-01 -2.22387E+00  2.33887E-01  1.43954E+00  1.70649E+00 -1.04395E+00  6.59692E-01 -1.97358E+00 -1.32832E+00
  -1.68168E+00  7.49049E-02 -1.61860E+00 -8.19093E-01  9.82015E-01 -1.57387E+00  8.57064E-01  3.45715E-02 -9.02777E-01 -1.93062E+00
   1.13782E-01  9.25063E-01 -7.55510E-01  1.69259E+00 -7.36704E-01 -3.66451E-01  4.34891E-01 -1.22840E+00 -2.29891E+00  1.09088E+00
   2.47215E+00 -1.10994E+00 -3.09963E+00 -2.39270E+00 -9.74315E-01 -5.17892E-01  7.28312E-01 -1.31346E+00 -1.03274E-01 -2.64011E+00
  -5.13680E-01 -3.77300E+00 -3.07436E+00 -1.38217E+00 -2.64808E-01 -3.75896E+00 -1.62293E+00 -8.86366E-01 -2.27215E+00 -1.71755E+00
   8.60669E-01 -6.12283E-02  7.67874E-01 -2.44886E+00 -2.57557E+00  5.84972E-01 -6.18549E-01  1.52966E+00 -4.15656E-01 -1.26907E-01
  -1.09480E+00 -2.22295E+00 -3.58688E+00 -8.36631E-01 -1.62672E+00 -2.70465E+00 -2.51689E+00 -1.33703E-01 -1.35766E+00 -2.33024E+00
   1.28827E+00 -2.66282E+00 -1.30512E+00 -3.04454E-01 -1.81437E+00  1.70257E+00 -7.40732E-01 -1.00970E+00 -2.99880E-01  4.66609E-01
  -2.44228E+00  1.35530E+00  4.26790E-01 -5.44683E-01 -3.28096E+00 -9.33051E-01 -7.64349E-01 -2.64154E+00 -4.85227E-01  4.79303E-01
  -2.13192E+00 -1.49701E+00 -3.79567E+00 -1.50891E+00 -5.33520E-01  1.48905E+00 -2.67155E+00  2.16319E+00 -3.17299E+00 -4.03780E+00
  -1.28270E+00 -1.48393E+00 -1.60701E+00 -2.05006E+00 -7.55678E-01 -3.80492E+00 -4.06115E-01  1.43198E-01 -3.39251E+00 -4.68456E+00
   1.24191E+00 -5.19822E+00  1.47217E+00 -1.93831E+00 -3.58196E+00 -1.30263E+00 -3.28268E+00 -1.38872E+00 -1.91762E+00 -2.20253E+00
   1.01391E+00 -1.30894E+00 -3.53677E-01 -3.60687E-01  2.31584E+00  4.56718E-01  6.57881E-01  3.20003E+00  2.21963E-01  5.39355E-01
   3.80337E-01  1.09168E+00 -2.08525E+00  4.43498E-01  2.68861E+00  1.82407E+00  3.04304E+00  2.60013E+00  2.58623E+00  3.27003E+00
   7.13766E-01 -5.51163E-01 -1.23493E+00 -1.88765E+00  3.48548E-01 -3.55445E-01  1.28149E+00  9.25661E-01 -4.83267E-01  2.25650E+00
  -1.98683E+00 -4.58600E-01  5.66579E-01 -2.10704E-01 -6.85416E-01  1.91309E+00  1.49729E-01 -1.92843E-02  1.01419E+00 -2.02514E+00
   4.45141E-01  4.01682E-01 -5.70212E-01 -2.47290E-01  1.14594E+00  1.50582E+00  1.63923E+00  2.17355E+00  1.03810E+00  1.19435E+00
   5.23225E-03  5.41953E-02  1.92311E+00  1.64068E+00  9.49017E-01 -4.05407E-01  2.93616E+00  1.18458E+00 -1.80537E+00 -9.50668E-01
  -1.07196E+00 -4.36695E-01  1.22609E+00 -5.92265E-01  7.04072E-01  4.65932E-02 -9.97845E-02 -8.42671E-01 -6.55339E-01  1.73096E+00
  -4.89041E+00 -1.31966E+00  1.57324E+00  1.08549E+00  4.76833E-01 -1.33701E+00  2.31109E+00  2.25177E+00  3.24014E+00  2.68817E+00
   1.62137E+00 -1.77284E-01  1.64884E+00  5.82354E+00  2.69771E+00  4.36703E+00  6.42218E+00  6.17358E+00  3.28468E+00  6.05412E+00
   7.66706E+00  7.42910E+00  6.78283E+00  5.25984E+00  7.45253E+00  6.58782E+00  9.78299E+00  8.54103E+00  5.96840E+00  7.03432E+00
   6.49939E+00  5.55415E+00  5.37287E+00  6.24604E+00  4.22679E+00  4.56099E+00  2.05106E+00  4.72877E+00  6.62957E+00  6.32949E+00
   6.31069E+00  6.63584E+00  7.13843E+00  5.16261E+00  8.29254E+00  6.56689E+00  4.57022E+00  7.52703E+00  3.84138E+00  5.28962E+00
   4.65323E+00  6.08807E+00  6.35560E+00  4.47600E+00  4.29044E+00  4.30572E-01  1.99562E+00  4.78963E+00  4.11898E+00  2.62803E+00
   3.26861E+00  3.84300E+00  1.26486E+00  2.06294E+00  3.00443E+00  1.50475E+00  2.14142E+00  7.58994E-01  3.88022E+00  1.88110E+00
   4.73681E-01 -1.69408E+00 -5.53598E-01  8.27797E-01  2.64875E+00 -2.02801E+00  1.73659E+00  3.18668E-01  6.15301E-01  3.36513E-01
   2.89753E+00 -7.01467E-02  5.30549E+00 -3.93785E-01  1.81128E+00  7.12798E-01  2.88673E+00  2.96538E+00  9.98981E-01  3.20223E+00
  -1.32346E+00 -5.11770E-01  2.98404E+00  3.03452E+00  1.77866E+00  3.64465E+00  1.87400E+00  2.63950E+00 -2.60758E-01  2.90560E+00
   1.99257E+00 -6.18767E-01  3.53347E+00  4.65723E+00  7.47865E+00 -3.45482E-01  2.67757E+00  4.65337E+00  1.69946E+00  1.69631E+00
   1.82949E+00  2.36384E+00  2.44294E+00  1.83923E+00  3.22275E+00  1.02946E+00  2.35797E+00 -6.54713E-01  2.63970E+00  1.28193E-01
  -1.50100E+00  1.10657E-01  2.62365E+00  3.05823E-01 -3.21657E-01  1.37877E+00  1.07925E+00 -1.19147E+00 -9.95123E-01  2.12007E+00
  -1.08030E+00  5.21869E-01  1.16960E+00 -2.29917E-01  7.73901E-01  3.60126E+00  1.12760E+00  1.44659E+00  8.12445E-01  2.78588E+00
   1.52386E+00  4.23699E+00  2.42390E+00  2.25833E+00  1.71861E+00  1.53241E+00  8.29462E-01  1.85706E+00  2.23128E-01  1.53830E+00
   3.59974E+00  3.30019E+00 -2.64688E-01  3.60069E+00  3.23485E-01  1.64425E-01  2.03815E+00  2.01819E+00 -1.62046E+00 -9.40742E-01
   1.57934E+00  1.65151E+00  1.36067E+00  2.19533E+00  3.34242E+00  1.57075E+00  2.66733E+00  2.00834E+00 -8.58662E-01  3.24623E+00
   9.27130E-01  2.42604E+00  3.11588E+00  7.43437E-01  7.60239E-01 -1.15556E+00  2.08511E+00  1.18673E+00 -1.49279E+00  9.08007E-01
   1.59418E-01  1.33533E+00  4.49148E+00 -3.12357E-02  1.75784E+00  1.96817E+00 -6.80601E-01 -2.48126E-02  2.47627E+00  2.43602E+00
   1.96460E+00 -1.29211E-01  1.46224E+00  1.81512E+00  9.12087E-03  2.65215E+00  1.88431E+00  4.11242E+00
 NY points of the fit to the data follow
  -8.31011E-01 -7.84522E-01 -8.46250E-01 -8.05548E-01 -8.71785E-01 -8.03399E-01 -8.40913E-01 -6.95743E-01 -7.54196E-01 -5.74078E-01
  -6.93433E-01 -4.99845E-01 -7.12495E-01 -5.29415E-01 -8.60023E-01 -6.20306E-01 -1.01892E+00 -7.30673E-01 -1.16140E+00 -8.22772E-01
  -1.26715E+00 -8.85092E-01 -1.33382E+00 -9.56063E-01 -1.39421E+00 -1.07378E+00 -1.49271E+00 -1.26513E+00 -1.62855E+00 -1.48975E+00
  -1.72619E+00 -1.64380E+00 -1.69548E+00 -1.64168E+00 -1.48759E+00 -1.50357E+00 -1.18857E+00 -1.30943E+00 -9.18733E-01 -1.17064E+00
  -7.79378E-01 -1.11252E+00 -7.01889E-01 -1.05452E+00 -6.12441E-01 -9.17034E-01 -4.58710E-01 -7.01571E-01 -3.52673E-01 -6.33540E-01
  -4.11626E-01 -7.04136E-01 -5.94120E-01 -8.55988E-01 -7.96227E-01 -9.38724E-01 -8.41416E-01 -9.37513E-01 -8.46968E-01 -9.16719E-01
  -8.45805E-01 -9.09858E-01 -8.70092E-01 -9.57999E-01 -9.20385E-01 -1.01268E+00 -9.72466E-01 -1.05637E+00 -1.00166E+00 -1.06550E+00
  -9.96351E-01 -1.06553E+00 -1.01024E+00 -1.09583E+00 -1.05401E+00 -1.15405E+00 -1.12418E+00 -1.23384E+00 -1.21157E+00 -1.32265E+00
  -1.30706E+00 -1.41127E+00 -1.39448E+00 -1.49278E+00 -1.46001E+00 -1.52925E+00 -1.49785E+00 -1.52990E+00 -1.50714E+00 -1.48876E+00
  -1.47841E+00 -1.40146E+00 -1.40922E+00 -1.27402E+00 -1.30373E+00 -1.11684E+00 -1.17787E+00 -9.45575E-01 -1.04510E+00 -7.78339E-01
  -9.20059E-01 -6.29673E-01 -8.14410E-01 -5.16058E-01 -7.40014E-01 -4.54709E-01 -7.09740E-01 -4.60768E-01 -7.21893E-01 -4.92262E-01
  -7.37814E-01 -5.35395E-01 -7.42628E-01 -5.57665E-01 -7.14378E-01 -5.39491E-01 -6.46750E-01 -4.84081E-01 -5.51533E-01 -4.07452E-01
  -4.45344E-01 -3.16011E-01 -3.22695E-01 -1.94716E-01 -1.68895E-01 -2.29198E-02 -1.02773E-02  1.11910E-01  1.02023E-01  1.80227E-01
   1.41648E-01  1.60049E-01  9.23097E-02  5.06279E-02 -3.99514E-02 -1.30655E-01 -2.33021E-01 -3.50451E-01 -4.52986E-01 -5.77193E-01
  -6.72717E-01 -7.94828E-01 -8.80690E-01 -9.97184E-01 -1.07088E+00 -1.17482E+00 -1.23055E+00 -1.30258E+00 -1.33084E+00 -1.34432E+00
  -1.35559E+00 -1.36271E+00 -1.37067E+00 -1.37459E+00 -1.38072E+00 -1.38223E+00 -1.38681E+00 -1.38616E+00 -1.38914E+00 -1.38654E+00
  -1.38818E+00 -1.38363E+00 -1.38411E+00 -1.37796E+00 -1.37749E+00 -1.37003E+00 -1.36816E+00 -1.35949E+00 -1.35632E+00 -1.34697E+00
  -1.34292E+00 -1.33322E+00 -1.32840E+00 -1.31865E+00 -1.31327E+00 -1.30380E+00 -1.29772E+00 -1.28857E+00 -1.28158E+00 -1.27247E+00
  -1.26406E+00 -1.25457E+00 -1.24453E+00 -1.23391E+00 -1.22145E+00 -1.20852E+00 -1.19216E+00 -1.17407E+00 -1.15238E+00 -1.13522E+00
  -1.10532E+00 -1.09831E+00 -1.06657E+00 -1.07352E+00 -1.04036E+00 -1.05675E+00 -1.01002E+00 -1.01454E+00 -9.23130E-01 -9.35671E-01
  -7.97734E-01 -8.38929E-01 -6.59089E-01 -7.63197E-01 -5.71758E-01 -7.54213E-01 -5.38909E-01 -7.91781E-01 -5.51349E-01 -8.55195E-01
  -5.84589E-01 -9.20066E-01 -6.19406E-01 -9.73248E-01 -6.46986E-01 -1.01264E+00 -6.79350E-01 -1.05198E+00 -7.31601E-01 -1.10087E+00
  -8.14844E-01 -1.15347E+00 -9.12824E-01 -1.18323E+00 -9.83160E-01 -1.15281E+00 -9.69251E-01 -1.02760E+00 -8.56380E-01 -8.35006E-01
  -6.82690E-01 -6.17733E-01 -5.12003E-01 -4.23079E-01 -3.51328E-01 -2.31117E-01 -1.58541E-01 -8.30714E-03  8.69212E-02  2.09319E-01
   2.83534E-01  3.67068E-01  4.07097E-01  4.48398E-01  4.48896E-01  4.82209E-01  4.98001E-01  5.45743E-01  5.64726E-01  6.26567E-01
   6.36320E-01  7.01934E-01  6.88886E-01  7.48600E-01  7.11086E-01  7.72174E-01  7.17473E-01  7.83173E-01  7.19095E-01  7.86159E-01
   7.14168E-01  7.75119E-01  6.93218E-01  7.40062E-01  6.59410E-01  6.89425E-01  6.26217E-01  6.45124E-01  5.94236E-01  5.97382E-01
   5.56087E-01  5.41481E-01  5.00671E-01  4.74086E-01  4.43682E-01  4.19045E-01  3.99811E-01  3.75714E-01  3.60328E-01  3.35132E-01
   3.15290E-01  2.97294E-01  2.82178E-01  2.75239E-01  2.65479E-01  2.67039E-01  2.65922E-01  2.68971E-01  2.74351E-01  2.82976E-01
   2.93274E-01  3.06333E-01  3.21486E-01  3.40140E-01  3.62294E-01  3.91800E-01  4.25902E-01  4.67250E-01  5.14049E-01  5.69292E-01
   6.31658E-01  7.05224E-01  7.89199E-01  8.90609E-01  1.01127E+00  1.16160E+00  1.35150E+00  1.60784E+00  1.98984E+00  2.54820E+00
   2.92405E+00  3.60387E+00  3.85446E+00  4.56097E+00  4.57337E+00  5.17116E+00  4.80309E+00  5.46545E+00  4.94572E+00  5.67027E+00
   5.09662E+00  5.88551E+00  5.30527E+00  6.10121E+00  5.54624E+00  6.26487E+00  5.71587E+00  6.21446E+00  5.65575E+00  5.86519E+00
   5.36814E+00  5.25974E+00  4.97488E+00  4.65345E+00  4.75251E+00  4.32576E+00  4.90278E+00  4.46434E+00  5.44612E+00  4.95530E+00
   6.10451E+00  5.48314E+00  6.57768E+00  5.79970E+00  6.71489E+00  5.90120E+00  6.65878E+00  6.01318E+00  6.63337E+00  6.22952E+00
   6.39648E+00  5.81935E+00  5.62287E+00  4.96342E+00  4.47354E+00  3.86153E+00  3.24484E+00  3.00128E+00  2.66295E+00  2.56062E+00
   2.33410E+00  2.28362E+00  2.12005E+00  2.08482E+00  1.96295E+00  1.93075E+00  1.84171E+00  1.81376E+00  1.75030E+00  1.72717E+00
   1.66858E+00  1.62981E+00  1.57653E+00  1.52696E+00  1.47987E+00  1.42969E+00  1.39322E+00  1.36615E+00  1.34630E+00  1.33319E+00
   1.32661E+00  1.32687E+00  1.33414E+00  1.34893E+00  1.37149E+00  1.40235E+00  1.44168E+00  1.48982E+00  1.54668E+00  1.61225E+00
   1.68600E+00  1.76737E+00  1.85522E+00  1.94836E+00  2.04499E+00  2.14326E+00  2.24083E+00  2.33541E+00  2.42437E+00  2.50534E+00
   2.57581E+00  2.63379E+00  2.67736E+00  2.70531E+00  2.71669E+00  2.71137E+00  2.68949E+00  2.65204E+00  2.60021E+00  2.53586E+00
   2.46089E+00  2.37766E+00  2.28837E+00  2.19542E+00  2.10087E+00  2.00680E+00  1.91479E+00  1.82640E+00  1.74259E+00  1.66431E+00
   1.59193E+00  1.52586E+00  1.46598E+00  1.41232E+00  1.36446E+00  1.32218E+00  1.28492E+00  1.25236E+00  1.22389E+00  1.19921E+00
   1.17776E+00  1.15928E+00  1.14326E+00  1.12954E+00  1.11768E+00  1.10759E+00  1.09890E+00  1.09157E+00  1.08531E+00  1.08012E+00
   1.07574E+00  1.07221E+00  1.06931E+00  1.06709E+00  1.06537E+00  1.06422E+00  1.06345E+00  1.06316E+00  1.06318E+00  1.06361E+00
   1.06429E+00  1.06532E+00  1.06655E+00  1.06810E+00  1.06980E+00  1.07178E+00  1.07388E+00  1.07624E+00  1.07869E+00  1.08138E+00
   1.08414E+00  1.08711E+00  1.09013E+00  1.09335E+00  1.09661E+00  1.10005E+00  1.10352E+00  1.10715E+00  1.11080E+00  1.11461E+00
   1.11842E+00  1.12238E+00  1.12633E+00  1.13042E+00  1.13450E+00  1.13871E+00  1.14290E+00  1.14721E+00  1.15150E+00  1.15589E+00
   1.16026E+00  1.16473E+00  1.16917E+00  1.17370E+00  1.17819E+00  1.18277E+00  1.18730E+00  1.19192E+00  1.19647E+00  1.20110E+00
   1.20567E+00  1.21029E+00  1.21485E+00  1.21946E+00  1.22398E+00  1.22855E+00  1.23301E+00  1.23751E+00
 NY background values follow
    -2.514E+00   -2.507E+00   -2.499E+00   -2.492E+00   -2.485E+00   -2.478E+00   -2.470E+00   -2.463E+00   -2.456E+00   -2.449E+00
    -2.442E+00   -2.434E+00   -2.427E+00   -2.420E+00   -2.413E+00   -2.405E+00   -2.398E+00   -2.391E+00   -2.384E+00   -2.377E+00
    -2.369E+00   -2.362E+00   -2.355E+00   -2.348E+00   -2.340E+00   -2.333E+00   -2.326E+00   -2.319E+00   -2.312E+00   -2.304E+00
    -2.297E+00   -2.290E+00   -2.283E+00   -2.275E+00   -2.268E+00   -2.261E+00   -2.254E+00   -2.247E+00   -2.239E+00   -2.232E+00
    -2.225E+00   -2.218E+00   -2.210E+00   -2.203E+00   -2.196E+00   -2.189E+00   -2.182E+00   -2.174E+00   -2.167E+00   -2.160E+00
    -2.153E+00   -2.145E+00   -2.138E+00   -2.131E+00   -2.124E+00   -2.117E+00   -2.109E+00   -2.102E+00   -2.095E+00   -2.088E+00
    -2.080E+00   -2.073E+00   -2.066E+00   -2.059E+00   -2.051E+00   -2.044E+00   -2.037E+00   -2.030E+00   -2.023E+00   -2.015E+00
    -2.008E+00   -2.001E+00   -1.994E+00   -1.986E+00   -1.979E+00   -1.972E+00   -1.965E+00   -1.958E+00   -1.950E+00   -1.943E+00
    -1.936E+00   -1.929E+00   -1.921E+00   -1.914E+00   -1.907E+00   -1.900E+00   -1.893E+00   -1.885E+00   -1.878E+00   -1.871E+00
    -1.864E+00   -1.856E+00   -1.849E+00   -1.842E+00   -1.835E+00   -1.828E+00   -1.820E+00   -1.813E+00   -1.806E+00   -1.799E+00
    -1.791E+00   -1.784E+00   -1.777E+00   -1.770E+00   -1.762E+00   -1.755E+00   -1.748E+00   -1.741E+00   -1.734E+00   -1.726E+00
    -1.719E+00   -1.712E+00   -1.705E+00   -1.697E+00   -1.690E+00   -1.683E+00   -1.676E+00   -1.669E+00   -1.661E+00   -1.654E+00
    -1.647E+00   -1.640E+00   -1.632E+00   -1.625E+00   -1.618E+00   -1.611E+00   -1.604E+00   -1.596E+00   -1.589E+00   -1.582E+00
    -1.575E+00   -1.567E+00   -1.560E+00   -1.553E+00   -1.546E+00   -1.539E+00   -1.531E+00   -1.524E+00   -1.517E+00   -1.510E+00
    -1.502E+00   -1.495E+00   -1.488E+00   -1.481E+00   -1.474E+00   -1.466E+00   -1.459E+00   -1.452E+00   -1.445E+00   -1.437E+00
    -1.430E+00   -1.423E+00   -1.416E+00   -1.409E+00   -1.401E+00   -1.394E+00   -1.387E+00   -1.380E+00   -1.372E+00   -1.365E+00
    -1.358E+00   -1.351E+00   -1.343E+00   -1.336E+00   -1.329E+00   -1.322E+00   -1.315E+00   -1.307E+00   -1.300E+00   -1.293E+00
    -1.286E+00   -1.278E+00   -1.271E+00   -1.264E+00   -1.257E+00   -1.250E+00   -1.242E+00   -1.235E+00   -1.228E+00   -1.221E+00
    -1.213E+00   -1.206E+00   -1.199E+00   -1.192E+00   -1.185E+00   -1.177E+00   -1.170E+00   -1.163E+00   -1.156E+00   -1.148E+00
    -1.141E+00   -1.134E+00   -1.127E+00   -1.120E+00   -1.112E+00   -1.105E+00   -1.098E+00   -1.091E+00   -1.083E+00   -1.076E+00
    -1.069E+00   -1.062E+00   -1.055E+00   -1.047E+00   -1.040E+00   -1.033E+00   -1.026E+00   -1.019E+00   -1.011E+00   -1.004E+00
    -9.968E-01   -9.896E-01   -9.824E-01   -9.752E-01   -9.680E-01   -9.607E-01   -9.535E-01   -9.463E-01   -9.391E-01   -9.319E-01
    -9.247E-01   -9.174E-01   -9.102E-01   -9.030E-01   -8.958E-01   -8.886E-01   -8.813E-01   -8.741E-01   -8.669E-01   -8.597E-01
    -8.525E-01   -8.452E-01   -8.380E-01   -8.308E-01   -8.236E-01   -8.164E-01   -8.092E-01   -8.019E-01   -7.947E-01   -7.875E-01
    -7.803E-01   -7.731E-01   -7.659E-01   -7.586E-01   -7.514E-01   -7.442E-01   -7.370E-01   -7.298E-01   -7.226E-01   -7.153E-01
    -7.081E-01   -7.009E-01   -6.937E-01   -6.865E-01   -6.793E-01   -6.720E-01   -6.648E-01   -6.576E-01   -6.504E-01   -6.432E-01
    -6.360E-01   -6.288E-01   -6.215E-01   -6.143E-01   -6.071E-01   -5.999E-01   -5.927E-01   -5.855E-01   -5.783E-01   -5.710E-01
    -5.638E-01   -5.566E-01   -5.494E-01   -5.422E-01   -5.350E-01   -5.278E-01   -5.206E-01   -5.133E-01   -5.061E-01   -4.989E-01
    -4.917E-01   -4.845E-01   -4.773E-01   -4.701E-01   -4.629E-01   -4.556E-01   -4.484E-01   -4.412E-01   -4.340E-01   -4.268E-01
    -4.196E-01   -4.124E-01   -4.052E-01   -3.980E-01   -3.908E-01   -3.835E-01   -3.763E-01   -3.691E-01   -3.619E-01   -3.547E-01
    -3.475E-01   -3.403E-01   -3.331E-01   -3.259E-01   -3.187E-01   -3.115E-01   -3.043E-01   -2.971E-01   -2.898E-01   -2.826E-01
    -2.754E-01   -2.682E-01   -2.610E-01   -2.538E-01   -2.466E-01   -2.394E-01   -2.322E-01   -2.250E-01   -2.178E-01   -2.106E-01
    -2.034E-01   -1.962E-01   -1.890E-01   -1.818E-01   -1.746E-01   -1.674E-01   -1.601E-01   -1.529E-01   -1.457E-01   -1.385E-01
    -1.313E-01   -1.241E-01   -1.169E-01   -1.097E-01   -1.025E-01   -9.533E-02   -8.813E-02   -8.092E-02   -7.372E-02   -6.652E-02
    -5.932E-02   -5.212E-02   -4.492E-02   -3.772E-02   -3.052E-02   -2.332E-02   -1.612E-02   -8.925E-03   -1.726E-03    5.472E-03
     1.267E-02    1.987E-02    2.707E-02    3.426E-02    4.146E-02    4.866E-02    5.585E-02    6.305E-02    7.025E-02    7.744E-02
     8.464E-02    9.183E-02    9.903E-02    1.062E-01    1.134E-01    1.206E-01    1.278E-01    1.350E-01    1.422E-01    1.494E-01
     1.566E-01    1.638E-01    1.710E-01    1.782E-01    1.853E-01    1.925E-01    1.997E-01    2.069E-01    2.141E-01    2.213E-01
     2.285E-01    2.357E-01    2.429E-01    2.501E-01    2.572E-01    2.644E-01    2.716E-01    2.788E-01    2.860E-01    2.932E-01
     3.004E-01    3.076E-01    3.147E-01    3.219E-01    3.291E-01    3.363E-01    3.435E-01    3.507E-01    3.579E-01    3.650E-01
     3.722E-01    3.794E-01    3.866E-01    3.938E-01    4.010E-01    4.081E-01    4.153E-01    4.225E-01    4.297E-01    4.369E-01
     4.440E-01    4.512E-01    4.584E-01    4.656E-01    4.728E-01    4.799E-01    4.871E-01    4.943E-01    5.015E-01    5.086E-01
     5.158E-01    5.230E-01    5.302E-01    5.373E-01    5.445E-01    5.517E-01    5.589E-01    5.660E-01    5.732E-01    5.804E-01
     5.876E-01    5.947E-01    6.019E-01    6.091E-01    6.162E-01    6.234E-01    6.306E-01    6.377E-01    6.449E-01    6.521E-01
     6.593E-01    6.664E-01    6.736E-01    6.808E-01    6.879E-01    6.951E-01    7.022E-01    7.094E-01    7.166E-01    7.237E-01
     7.309E-01    7.381E-01    7.452E-01    7.524E-01    7.596E-01    7.667E-01    7.739E-01    7.810E-01    7.882E-01    7.954E-01
     8.025E-01    8.097E-01    8.168E-01    8.240E-01    8.311E-01    8.383E-01    8.455E-01    8.526E-01    8.598E-01    8.669E-01
     8.741E-01    8.812E-01    8.884E-01    8.955E-01    9.027E-01    9.098E-01    9.170E-01    9.241E-01    9.313E-01    9.384E-01
     9.456E-01    9.527E-01    9.599E-01    9.670E-01    9.742E-01    9.813E-01    9.885E-01    9.956E-01    1.003E+00    1.010E+00
     1.017E+00    1.024E+00    1.031E+00    1.038E+00    1.046E+00    1.053E+00    1.060E+00    1.067E+00
 Ala      Conc. = 2.35E+03
