 LCModel (Version 6.3-1L) Copyright: S.W. Provencher.          Ref.: Magn. Reson. Med. 30:672-679 (1993).                
 Slice#2 Row#10 Col#5  PD_05_press_1_raw_act
 36 lines in following concentration table = NCONC+1
    Conc.  %SD /Cr+PCr  Metabolite                                         
  195.664  44%   0.166 Ala                                                 
    0.000 999%   0.000 Asp                                                 
  674.652  21%   0.571 Cr                                                  
  507.428  28%   0.429 PCr                                                 
    0.000 999%   0.000 GABA                                                
    0.000 999%   0.000 Glc                                                 
  607.518  29%   0.514 Gln                                                 
 1.47E+03  14%   1.244 Glu                                                 
  440.012   4%   0.372 GPC                                                 
    0.000 999%   0.000 PCh                                                 
  434.995  13%   0.368 GSH                                                 
 1.12E+03  17%   0.948 Ins                                                 
  130.849  72%   0.111 Lac                                                 
 2.11E+03   6%   1.786 NAA                                                 
  371.577  32%   0.314 NAAG                                                
   56.767  36% 4.8E-02 Scyllo                                              
    0.000 999%   0.000 Tau                                                 
    0.000 999%   0.000 -CrCH2                                              
  440.012   4%   0.372 GPC+PCh                                             
 2.48E+03   3%   2.100 NAA+NAAG                                            
 1.18E+03   4%   1.000 Cr+PCr                                              
 2.08E+03  14%   1.758 Glu+Gln                                             
 2.33E+03  22%   1.972 Lip13a                                              
    0.000 999%   0.000 Lip13b                                              
  128.548 212%   0.109 Lip09                                               
 1.24E+03  24%   1.046 MM09                                                
  224.670  92%   0.190 Lip20                                               
 2.70E+03  12%   2.284 MM20                                                
  460.217  38%   0.389 MM12                                                
  782.963  42%   0.662 MM14                                                
  865.434  22%   0.732 MM17                                                
 2.33E+03  22%   1.972 Lip13a+Lip13b                                       
 3.57E+03   9%   3.024 MM14+Lip13a+Lip13b+MM12                             
 1.36E+03  11%   1.155 MM09+Lip09                                          
 2.92E+03  10%   2.474 MM20+Lip20                                          
   6 lines in following misc. output table
  FWHM = 0.046 ppm    S/N =  16                                            
  Data shift = 0.000 ppm                                                   
  Ph:  -5 deg      -0.7 deg/ppm                                            
  alphaB,S = 2.9E+00,   2.2E+01                                            
   14 spline knots.   Ns = 7(1)                                            
  (10) 7 infls.   (11) 1 extrs.                                            
  498 points on ppm-axis = NY
      4.000000     3.992357     3.984714     3.977070     3.969427     3.961784     3.954141     3.946497     3.938854     3.931211
      3.923568     3.915925     3.908281     3.900638     3.892995     3.885352     3.877708     3.870065     3.862422     3.854779
      3.847136     3.839492     3.831849     3.824206     3.816563     3.808919     3.801276     3.793633     3.785990     3.778347
      3.770703     3.763060     3.755417     3.747774     3.740130     3.732487     3.724844     3.717201     3.709558     3.701914
      3.694271     3.686628     3.678985     3.671341     3.663698     3.656055     3.648412     3.640769     3.633125     3.625482
      3.617839     3.610196     3.602552     3.594909     3.587266     3.579623     3.571980     3.564336     3.556693     3.549050
      3.541407     3.533763     3.526120     3.518477     3.510834     3.503191     3.495547     3.487904     3.480261     3.472618
      3.464974     3.457331     3.449688     3.442045     3.434402     3.426758     3.419115     3.411472     3.403829     3.396185
      3.388542     3.380899     3.373256     3.365613     3.357969     3.350326     3.342683     3.335040     3.327396     3.319753
      3.312110     3.304467     3.296824     3.289180     3.281537     3.273894     3.266251     3.258607     3.250964     3.243321
      3.235678     3.228034     3.220391     3.212748     3.205105     3.197462     3.189818     3.182175     3.174532     3.166889
      3.159245     3.151602     3.143959     3.136316     3.128673     3.121029     3.113386     3.105743     3.098100     3.090456
      3.082813     3.075170     3.067527     3.059884     3.052240     3.044597     3.036954     3.029311     3.021667     3.014024
      3.006381     2.998738     2.991095     2.983451     2.975808     2.968165     2.960522     2.952878     2.945235     2.937592
      2.929949     2.922306     2.914662     2.907019     2.899376     2.891733     2.884089     2.876446     2.868803     2.861160
      2.853517     2.845873     2.838230     2.830587     2.822944     2.815300     2.807657     2.800014     2.792371     2.784728
      2.777084     2.769441     2.761798     2.754155     2.746511     2.738868     2.731225     2.723582     2.715939     2.708295
      2.700652     2.693009     2.685366     2.677722     2.670079     2.662436     2.654793     2.647150     2.639506     2.631863
      2.624220     2.616577     2.608933     2.601290     2.593647     2.586004     2.578361     2.570717     2.563074     2.555431
      2.547788     2.540144     2.532501     2.524858     2.517215     2.509572     2.501928     2.494285     2.486642     2.478999
      2.471355     2.463712     2.456069     2.448426     2.440783     2.433139     2.425496     2.417853     2.410210     2.402566
      2.394923     2.387280     2.379637     2.371994     2.364350     2.356707     2.349064     2.341421     2.333777     2.326134
      2.318491     2.310848     2.303205     2.295561     2.287918     2.280275     2.272632     2.264988     2.257345     2.249702
      2.242059     2.234416     2.226772     2.219129     2.211486     2.203843     2.196199     2.188556     2.180913     2.173270
      2.165627     2.157983     2.150340     2.142697     2.135054     2.127410     2.119767     2.112124     2.104481     2.096838
      2.089194     2.081551     2.073908     2.066265     2.058621     2.050978     2.043335     2.035692     2.028049     2.020405
      2.012762     2.005119     1.997476     1.989833     1.982190     1.974546     1.966903     1.959260     1.951617     1.943974
      1.936331     1.928688     1.921045     1.913402     1.905759     1.898115     1.890472     1.882829     1.875186     1.867543
      1.859900     1.852257     1.844614     1.836971     1.829327     1.821684     1.814041     1.806398     1.798755     1.791112
      1.783469     1.775826     1.768183     1.760540     1.752896     1.745253     1.737610     1.729967     1.722324     1.714681
      1.707038     1.699395     1.691752     1.684108     1.676465     1.668822     1.661179     1.653536     1.645893     1.638250
      1.630607     1.622964     1.615321     1.607677     1.600034     1.592391     1.584748     1.577105     1.569462     1.561819
      1.554176     1.546533     1.538890     1.531246     1.523603     1.515960     1.508317     1.500674     1.493031     1.485388
      1.477745     1.470102     1.462458     1.454815     1.447172     1.439529     1.431886     1.424243     1.416600     1.408957
      1.401314     1.393671     1.386027     1.378384     1.370741     1.363098     1.355455     1.347812     1.340169     1.332526
      1.324883     1.317240     1.309596     1.301953     1.294310     1.286667     1.279024     1.271381     1.263738     1.256095
      1.248452     1.240808     1.233165     1.225522     1.217879     1.210236     1.202593     1.194950     1.187307     1.179664
      1.172021     1.164377     1.156734     1.149091     1.141448     1.133805     1.126162     1.118519     1.110876     1.103233
      1.095590     1.087946     1.080303     1.072660     1.065017     1.057374     1.049731     1.042088     1.034445     1.026802
      1.019158     1.011515     1.003872     0.996229     0.988586     0.980943     0.973300     0.965657     0.958014     0.950371
      0.942727     0.935084     0.927441     0.919798     0.912155     0.904512     0.896869     0.889226     0.881583     0.873940
      0.866296     0.858653     0.851010     0.843367     0.835724     0.828081     0.820438     0.812795     0.805152     0.797508
      0.789865     0.782222     0.774579     0.766936     0.759293     0.751650     0.744007     0.736364     0.728721     0.721077
      0.713434     0.705791     0.698148     0.690505     0.682862     0.675219     0.667576     0.659933     0.652290     0.644646
      0.637003     0.629360     0.621717     0.614074     0.606431     0.598788     0.591145     0.583502     0.575858     0.568215
      0.560572     0.552929     0.545286     0.537643     0.530000     0.522357     0.514714     0.507071     0.499427     0.491784
      0.484141     0.476498     0.468855     0.461212     0.453569     0.445925     0.438282     0.430639     0.422996     0.415353
      0.407710     0.400067     0.392424     0.384780     0.377137     0.369494     0.361851     0.354208     0.346565     0.338922
      0.331278     0.323635     0.315992     0.308349     0.300706     0.293063     0.285420     0.277777     0.270133     0.262490
      0.254847     0.247204     0.239561     0.231918     0.224275     0.216631     0.208988     0.201345
 NY phased data points follow
   4.01343E+00  1.29933E+01  7.39735E+00  1.12331E+01  1.79256E+01  1.19959E+01  2.34432E+01  2.14042E+01  2.47475E+01  3.27032E+01
   2.94137E+01  3.32638E+01  3.38660E+01  2.69719E+01  2.85275E+01  2.19177E+01  1.72453E+01  1.64442E+01  8.67091E+00  1.37912E+01
   9.40709E+00  1.31604E+01  1.49597E+01  5.78089E+00  1.66293E+01  9.89242E+00  1.13734E+01  1.91015E+01  1.04030E+01  1.49207E+01
   1.58964E+01  1.32322E+01  1.94423E+01  1.40135E+01  1.25126E+01  1.32808E+01  9.14292E+00  1.50098E+01  1.01327E+01  1.25720E+01
   1.37352E+01  9.29699E+00  1.37324E+01  1.21780E+01  1.03014E+01  1.48709E+01  1.27123E+01  1.64570E+01  1.75212E+01  1.46569E+01
   1.68927E+01  1.05089E+01  1.00287E+01  1.09257E+01  7.61006E+00  1.26791E+01  7.76635E+00  4.77498E+00  1.16409E+01  6.13912E+00
   9.01144E+00  6.51280E+00  1.49246E+00  6.20533E+00  3.79369E+00  1.26363E+00  2.78906E+00  1.06699E+00  3.74731E+00 -5.57723E-01
   3.02257E+00  4.03694E+00  1.45076E+00  5.07042E+00  2.62666E+00  2.23539E+00  3.90208E+00  2.13435E+00  4.27868E+00  3.48314E+00
   2.82726E+00  4.07561E+00 -6.45981E-01  6.72414E+00  3.21666E+00  2.60345E+00  5.84944E+00  2.05974E+00  3.91193E+00  5.63326E+00
   4.29799E+00  4.75932E+00  1.79801E+00  3.47310E+00  8.17678E+00  6.21701E+00  1.03966E+01  8.36516E+00  7.20718E+00  1.34654E+01
   1.56176E+01  2.47312E+01  3.50022E+01  4.00435E+01  4.35670E+01  3.54185E+01  3.08939E+01  2.49703E+01  1.83365E+01  1.93916E+01
   1.33996E+01  9.20167E+00  7.22166E+00  2.81795E+00  6.75600E+00  6.17744E+00  4.24961E+00  7.34341E+00  4.00173E+00  9.16185E+00
   5.84375E+00  7.12862E+00  1.20880E+01  1.37719E+01  2.19570E+01  2.72891E+01  3.27885E+01  3.98020E+01  3.97130E+01  3.86967E+01
   3.01098E+01  2.12735E+01  2.02611E+01  1.22007E+01  9.70410E+00  7.60832E+00  3.29095E+00  5.07595E+00  2.09404E+00  2.14206E+00
   4.07267E+00 -3.43854E-01  4.49523E+00  9.11758E-01  1.43255E+00  3.97230E+00  8.71904E-01  3.01448E-01  6.33194E+00  2.13255E-01
   2.42116E+00 -2.01704E+00 -1.06168E+00  3.17032E+00  3.27660E-01 -2.74071E-02 -6.78052E-01 -3.20376E-01  5.82073E-01 -2.56439E+00
   4.29578E+00 -2.37307E+00 -4.70034E+00 -2.96471E+00 -3.15100E+00 -1.90519E+00  9.01742E-01 -4.23320E+00 -1.01446E+00 -6.62316E+00
  -8.17754E+00 -9.09181E+00 -1.01383E+01 -5.16200E+00 -9.01787E+00 -1.48944E+01 -1.16449E+01 -9.63442E+00 -1.10765E+01 -8.34771E+00
  -8.79722E+00 -7.93848E+00 -1.03742E+01 -9.09080E+00 -8.38776E+00 -8.06582E+00 -3.95954E+00 -6.38730E+00 -5.02942E+00 -2.46388E+00
  -3.20423E-01  3.09961E+00 -2.26344E-01  3.52247E+00  2.78111E+00  4.59456E-01  1.18246E+00 -3.04020E+00 -2.75647E+00 -1.96898E+00
  -5.67951E+00 -2.01313E+00 -7.57323E-01 -5.73901E-01  1.41897E+00 -2.09007E-01 -1.90738E+00 -1.93056E+00 -5.14949E+00 -2.34057E+00
  -4.69591E+00 -3.91799E+00 -1.21026E+00  1.07775E+00  4.74253E+00  5.31419E+00  1.03620E+01  7.67990E+00  8.42948E+00  3.56029E+00
   1.56375E+00 -5.21236E-01 -5.91929E+00 -3.60988E+00 -4.66110E+00  1.26914E+00  3.32229E+00  5.23885E+00  6.62358E+00  4.59981E+00
   8.57460E+00  3.05792E+00  3.41365E+00  5.65211E+00  5.10850E+00  4.59016E+00  7.76033E+00  5.27398E+00  5.35735E+00  6.49083E+00
   6.26165E+00  2.72024E+00  3.66942E+00  2.39415E+00  3.43986E+00  5.43425E+00  7.37386E+00  1.08062E+01  1.06561E+01  1.41004E+01
   1.44677E+01  1.62745E+01  1.61628E+01  2.01523E+01  2.52217E+01  3.22408E+01  4.09262E+01  5.21807E+01  6.21444E+01  7.01379E+01
   8.04219E+01  8.52667E+01  8.09236E+01  5.96425E+01  4.07604E+01  3.02759E+01  2.42998E+01  1.90777E+01  1.06640E+01  9.50781E+00
   8.31579E+00  2.00717E+00  5.43388E+00  4.15060E+00  4.80801E+00  3.00095E+00  1.27188E+00  1.25829E+00  3.23674E+00 -4.10783E-01
   7.59217E-01  1.42722E+00  3.25674E+00  4.08513E+00  2.68271E+00  7.45232E-01  2.52060E+00 -1.18567E-02  1.19000E+00  2.36149E+00
  -1.30189E+00  7.22690E-01  3.19334E-01  1.89152E+00  4.54814E+00 -6.09413E-01  1.06285E+00  1.46117E-01  4.59864E-01 -2.33090E+00
   2.42600E+00  1.76222E+00  3.39112E+00  1.09085E+00  2.42585E+00  3.81730E+00  4.84390E+00  5.73659E+00 -1.11082E+00  3.68916E+00
   7.03057E+00  2.74422E+00  4.71820E+00  4.83865E+00  5.82612E+00  7.92400E+00  6.27631E+00  5.54977E+00  1.74694E+00  7.27568E+00
   8.90496E+00  6.40344E+00  4.84746E+00  5.89981E+00  6.39384E-01  4.91553E+00  3.28858E+00  8.63099E+00  3.75523E+00  1.14132E+00
   5.53770E+00  2.76821E+00  1.44853E+00  3.76197E+00  1.21397E+00  6.74430E+00  4.27095E+00  5.46410E+00  7.34468E+00  6.68434E+00
   5.70624E+00  8.19163E+00  8.00570E+00  1.21533E+01  8.11598E+00  9.39702E+00  8.07216E+00  1.00613E+01  1.26501E+01  9.82465E+00
   1.00126E+01  6.22744E+00  7.95480E+00  1.10572E+01  9.38924E+00  1.20017E+01  1.30215E+01  1.03445E+01  1.49631E+01  9.29775E+00
   9.23618E+00  9.88564E+00  1.12139E+01  1.21452E+01  7.22569E+00  7.75710E+00  1.06649E+01  7.78225E+00  1.01555E+01  9.31637E+00
   5.24191E+00  8.15134E+00  6.85135E+00  6.86004E+00  6.84695E+00  5.69172E+00  9.32820E+00  5.32843E+00  6.41144E+00  3.97940E+00
   4.15454E+00  5.03910E+00  3.30790E+00  2.49466E+00  3.92595E+00  4.02903E+00  2.46461E+00  5.19255E+00  3.89686E+00  6.92485E+00
   1.47197E+00  3.47245E+00  4.08629E+00  5.15526E+00  7.91057E+00  3.68603E+00  7.75715E+00  7.35446E+00  7.10299E+00  6.60238E+00
   9.25641E+00  3.39819E+00  6.44934E+00  5.52981E+00  9.05129E+00  7.57791E+00  5.75309E+00  9.10626E+00  6.59782E+00  9.41507E+00
   8.83764E+00  7.98099E+00  6.17774E+00  7.48945E+00  4.56822E+00  7.45893E+00  2.30064E+00  2.24260E+00  5.75003E+00  1.41526E+00
   2.70100E+00  1.21357E+00  2.16480E+00  2.56726E+00  7.12435E-01  1.96272E+00  2.42155E+00  2.69147E+00  4.08319E+00 -2.94787E+00
   2.22483E+00 -1.04178E+00  3.00452E-01  6.19794E-01  1.63001E+00  1.61987E-01  8.25826E-01  1.12229E+00 -1.40986E+00 -7.34210E-01
  -5.41183E-02 -5.97298E-01 -1.90635E+00  3.29845E-01 -1.20714E+00  1.07888E+00  8.50468E-01 -9.57155E-01  5.74230E-01 -3.35317E+00
   1.92834E-01  3.89161E-01 -9.25737E-01 -2.67856E+00 -4.74594E-01 -4.29834E-01 -1.71449E+00  1.61497E+00  1.15788E-01 -2.93664E+00
   5.53436E-02  4.20862E-01 -2.74120E+00  3.48301E+00 -4.24346E-01 -1.66373E+00 -1.84594E+00 -1.43526E-01  3.78980E-01 -2.74967E+00
  -3.71176E+00 -1.24887E+00  3.46693E-01 -2.22108E-01  3.46991E-01 -8.85997E-03  4.79064E-01 -1.37837E+00 -1.15622E+00  1.60869E+00
  -1.81630E+00  5.99427E-01  2.30975E-01 -1.30493E-01  5.87941E-01 -2.47211E+00 -7.20557E-02 -1.73674E+00 -7.27973E-01  1.04319E+00
  -2.22374E+00 -6.98758E-01  9.52357E-01 -4.64192E-01 -1.00892E+00 -9.59978E-01  1.07538E+00 -2.28324E+00
 NY points of the fit to the data follow
   9.89467E+00  9.89477E+00  1.06634E+01  1.13097E+01  1.28454E+01  1.54036E+01  1.81715E+01  2.14015E+01  2.53376E+01  2.92764E+01
   3.15787E+01  3.22169E+01  3.09587E+01  2.84000E+01  2.49027E+01  2.05142E+01  1.71596E+01  1.49453E+01  1.34410E+01  1.19549E+01
   1.04357E+01  9.67179E+00  9.68312E+00  1.00359E+01  9.92562E+00  9.92281E+00  1.03885E+01  1.15558E+01  1.28640E+01  1.47174E+01
   1.69121E+01  1.83639E+01  1.82782E+01  1.66044E+01  1.48103E+01  1.32827E+01  1.15830E+01  9.80554E+00  8.06097E+00  7.58383E+00
   8.04919E+00  8.57043E+00  9.09299E+00  9.91187E+00  1.11579E+01  1.25090E+01  1.37229E+01  1.48050E+01  1.51810E+01  1.42513E+01
   1.20346E+01  9.58809E+00  8.10885E+00  7.47466E+00  6.94745E+00  6.37085E+00  6.10737E+00  6.34454E+00  6.79545E+00  7.23599E+00
   7.56460E+00  7.58423E+00  7.10800E+00  6.21424E+00  5.38467E+00  4.87774E+00  4.70112E+00  4.75584E+00  4.94287E+00  5.25603E+00
   5.50374E+00  5.73890E+00  5.91202E+00  5.91948E+00  5.73666E+00  5.34335E+00  4.98688E+00  4.76398E+00  4.62233E+00  4.56255E+00
   4.49583E+00  4.33431E+00  4.28743E+00  4.36722E+00  4.50017E+00  4.53894E+00  4.54226E+00  4.37020E+00  3.82841E+00  3.13776E+00
   2.56637E+00  2.53496E+00  2.91748E+00  3.29693E+00  3.61317E+00  4.23658E+00  6.54089E+00  9.00146E+00  1.05886E+01  1.36862E+01
   1.89013E+01  2.56647E+01  3.26759E+01  3.96982E+01  4.33956E+01  4.10667E+01  3.30858E+01  2.33813E+01  1.73828E+01  1.42239E+01
   1.11249E+01  7.33669E+00  3.99470E+00  2.92614E+00  2.66287E+00  2.60659E+00  2.63796E+00  2.76239E+00  3.08984E+00  4.20307E+00
   6.63598E+00  8.90985E+00  1.12469E+01  1.52013E+01  2.09542E+01  2.75516E+01  3.43826E+01  4.03081E+01  4.21684E+01  3.84310E+01
   3.03606E+01  2.23186E+01  1.76793E+01  1.46599E+01  1.11219E+01  6.67077E+00  3.14191E+00  1.67408E+00  1.46996E+00  1.90926E+00
   2.46720E+00  2.94266E+00  3.15851E+00  3.12804E+00  2.88140E+00  2.50780E+00  2.21041E+00  1.88752E+00  1.54700E+00  1.21409E+00
   8.70613E-01  5.80280E-01  3.22642E-01  5.61771E-02 -2.61172E-01 -4.06034E-01 -4.65388E-01 -4.95023E-01 -5.94096E-01 -9.70550E-01
  -1.48007E+00 -1.95782E+00 -2.13570E+00 -2.01590E+00 -1.60263E+00 -1.42789E+00 -1.88754E+00 -2.69253E+00 -3.53850E+00 -4.02191E+00
  -4.18053E+00 -4.35168E+00 -4.68931E+00 -5.19044E+00 -5.65890E+00 -5.99942E+00 -6.25054E+00 -6.13636E+00 -5.77975E+00 -5.38317E+00
  -5.44130E+00 -5.76074E+00 -5.89142E+00 -5.56980E+00 -4.90677E+00 -4.30911E+00 -3.99247E+00 -3.39647E+00 -2.17933E+00 -5.26023E-01
   9.02688E-01  1.50480E+00  1.44774E+00  9.72059E-01  2.87916E-01 -4.16151E-01 -8.54225E-01 -9.00765E-01 -7.15220E-01 -8.39058E-02
   9.28481E-01  2.20234E+00  3.13485E+00  3.44033E+00  3.48775E+00  2.76299E+00  1.32447E+00 -6.58999E-01 -2.57391E+00 -3.82743E+00
  -4.45019E+00 -4.05566E+00 -2.64565E+00 -4.52801E-01  1.83241E+00  3.74404E+00  5.45385E+00  5.94141E+00  4.61628E+00  1.55749E+00
  -1.70810E+00 -3.80104E+00 -5.13128E+00 -5.67663E+00 -4.94335E+00 -2.66202E+00  4.60232E-01  2.73806E+00  3.68040E+00  4.15987E+00
   4.70675E+00  4.88222E+00  4.70693E+00  4.65224E+00  5.14195E+00  5.79781E+00  6.31635E+00  6.85889E+00  7.23651E+00  7.10814E+00
   6.25718E+00  5.22078E+00  4.54952E+00  4.40318E+00  4.85033E+00  5.93408E+00  7.44461E+00  8.71102E+00  9.60579E+00  1.07434E+01
   1.16748E+01  1.27566E+01  1.52097E+01  2.20440E+01  2.80498E+01  3.35422E+01  4.15302E+01  5.18654E+01  6.18677E+01  7.10852E+01
   8.07771E+01  8.46925E+01  7.79239E+01  6.07794E+01  4.24447E+01  3.26689E+01  2.70333E+01  2.10921E+01  1.31641E+01  7.39022E+00
   5.55273E+00  4.63459E+00  4.05049E+00  3.66704E+00  3.45538E+00  3.24614E+00  2.97916E+00  2.60689E+00  2.19053E+00  1.84112E+00
   1.57538E+00  1.33482E+00  1.09586E+00  9.09752E-01  7.94862E-01  7.11927E-01  6.05350E-01  4.93373E-01  4.12753E-01  3.79866E-01
   3.72874E-01  4.02005E-01  4.75611E-01  5.98834E-01  7.45522E-01  8.95635E-01  1.05288E+00  1.23549E+00  1.44017E+00  1.66585E+00
   1.91152E+00  2.18547E+00  2.48624E+00  2.79598E+00  3.09776E+00  3.38943E+00  3.66571E+00  3.92230E+00  4.14953E+00  4.34309E+00
   4.50277E+00  4.62683E+00  4.71564E+00  4.77135E+00  4.79714E+00  4.79874E+00  4.78426E+00  4.76449E+00  4.75415E+00  4.78074E+00
   4.89381E+00  4.97081E+00  4.96027E+00  5.07945E+00  5.25348E+00  5.37502E+00  5.31943E+00  5.08276E+00  4.56239E+00  3.82133E+00
   2.89324E+00  2.27130E+00  2.30902E+00  2.79267E+00  3.37945E+00  4.23771E+00  5.41350E+00  6.66497E+00  7.50558E+00  7.80584E+00
   8.02452E+00  8.35385E+00  8.67484E+00  9.01716E+00  9.23420E+00  9.46957E+00  9.65546E+00  9.74134E+00  9.66980E+00  9.34606E+00
   8.91285E+00  8.71765E+00  8.97675E+00  9.42650E+00  9.91922E+00  1.05361E+01  1.12094E+01  1.17592E+01  1.18803E+01  1.16679E+01
   1.14383E+01  1.12200E+01  1.09438E+01  1.05209E+01  1.00268E+01  9.56629E+00  9.11183E+00  8.65237E+00  8.18784E+00  7.72166E+00
   7.25868E+00  6.80443E+00  6.36447E+00  5.94391E+00  5.54725E+00  5.17845E+00  4.84116E+00  4.53866E+00  4.27368E+00  4.04831E+00
   3.86414E+00  3.72246E+00  3.62444E+00  3.57098E+00  3.56255E+00  3.59904E+00  3.67997E+00  3.80449E+00  3.97132E+00  4.17852E+00
   4.42314E+00  4.70128E+00  5.00816E+00  5.33821E+00  5.68496E+00  6.04095E+00  6.39779E+00  6.74647E+00  7.07783E+00  7.38279E+00
   7.65261E+00  7.87901E+00  8.05464E+00  8.17349E+00  8.23129E+00  8.22562E+00  8.15582E+00  8.02300E+00  7.82997E+00  7.58132E+00
   7.28313E+00  6.94259E+00  6.56750E+00  6.16590E+00  5.74594E+00  5.31564E+00  4.88258E+00  4.45354E+00  4.03424E+00  3.62939E+00
   3.24277E+00  2.87727E+00  2.53494E+00  2.21682E+00  1.92316E+00  1.65358E+00  1.40738E+00  1.18358E+00  9.80921E-01  7.97864E-01
   6.32719E-01  4.83864E-01  3.49844E-01  2.29310E-01  1.20906E-01  2.32684E-02 -6.48598E-02 -1.44511E-01 -2.16503E-01 -2.81573E-01
  -3.40492E-01 -3.94025E-01 -4.42802E-01 -4.87256E-01 -5.27712E-01 -5.64527E-01 -5.98131E-01 -6.28932E-01 -6.57200E-01 -6.83070E-01
  -7.06662E-01 -7.28186E-01 -7.47919E-01 -7.66074E-01 -7.82733E-01 -7.97906E-01 -8.11655E-01 -8.24148E-01 -8.35581E-01 -8.46054E-01
  -8.55555E-01 -8.64057E-01 -8.71624E-01 -8.78412E-01 -8.84546E-01 -8.90042E-01 -8.94839E-01 -8.98923E-01 -9.02388E-01 -9.05372E-01
  -9.07937E-01 -9.10034E-01 -9.11595E-01 -9.12639E-01 -9.13278E-01 -9.13617E-01 -9.13655E-01 -9.13315E-01 -9.12556E-01 -9.11440E-01
  -9.10081E-01 -9.08535E-01 -9.06752E-01 -9.04654E-01 -9.02235E-01 -8.99587E-01 -8.96806E-01 -8.93898E-01 -8.90782E-01 -8.87401E-01
  -8.83795E-01 -8.80071E-01 -8.76287E-01 -8.72402E-01 -8.68329E-01 -8.64049E-01 -8.59639E-01 -8.55197E-01
 NY background values follow
     5.484E+00    5.437E+00    5.390E+00    5.343E+00    5.296E+00    5.249E+00    5.202E+00    5.155E+00    5.109E+00    5.062E+00
     5.015E+00    4.968E+00    4.921E+00    4.874E+00    4.827E+00    4.780E+00    4.733E+00    4.686E+00    4.639E+00    4.592E+00
     4.545E+00    4.498E+00    4.451E+00    4.404E+00    4.357E+00    4.310E+00    4.263E+00    4.216E+00    4.169E+00    4.122E+00
     4.075E+00    4.029E+00    3.982E+00    3.935E+00    3.888E+00    3.841E+00    3.795E+00    3.748E+00    3.701E+00    3.655E+00
     3.608E+00    3.561E+00    3.515E+00    3.468E+00    3.422E+00    3.375E+00    3.329E+00    3.282E+00    3.236E+00    3.189E+00
     3.143E+00    3.097E+00    3.051E+00    3.004E+00    2.958E+00    2.912E+00    2.866E+00    2.820E+00    2.774E+00    2.728E+00
     2.683E+00    2.637E+00    2.591E+00    2.545E+00    2.500E+00    2.454E+00    2.409E+00    2.364E+00    2.318E+00    2.273E+00
     2.228E+00    2.183E+00    2.138E+00    2.093E+00    2.049E+00    2.004E+00    1.959E+00    1.915E+00    1.871E+00    1.826E+00
     1.782E+00    1.738E+00    1.694E+00    1.650E+00    1.607E+00    1.563E+00    1.520E+00    1.476E+00    1.433E+00    1.390E+00
     1.347E+00    1.304E+00    1.261E+00    1.218E+00    1.176E+00    1.133E+00    1.091E+00    1.049E+00    1.007E+00    9.653E-01
     9.236E-01    8.820E-01    8.406E-01    7.993E-01    7.582E-01    7.172E-01    6.763E-01    6.356E-01    5.951E-01    5.547E-01
     5.145E-01    4.744E-01    4.345E-01    3.947E-01    3.551E-01    3.156E-01    2.763E-01    2.372E-01    1.982E-01    1.594E-01
     1.208E-01    8.236E-02    4.408E-02    5.962E-03   -3.198E-02   -6.975E-02   -1.073E-01   -1.447E-01   -1.820E-01   -2.190E-01
    -2.559E-01   -2.926E-01   -3.291E-01   -3.654E-01   -4.015E-01   -4.375E-01   -4.732E-01   -5.088E-01   -5.441E-01   -5.793E-01
    -6.142E-01   -6.490E-01   -6.835E-01   -7.179E-01   -7.520E-01   -7.859E-01   -8.196E-01   -8.531E-01   -8.864E-01   -9.194E-01
    -9.523E-01   -9.848E-01   -1.017E+00   -1.049E+00   -1.081E+00   -1.113E+00   -1.144E+00   -1.175E+00   -1.206E+00   -1.237E+00
    -1.268E+00   -1.298E+00   -1.328E+00   -1.357E+00   -1.387E+00   -1.416E+00   -1.445E+00   -1.473E+00   -1.502E+00   -1.530E+00
    -1.558E+00   -1.585E+00   -1.612E+00   -1.639E+00   -1.666E+00   -1.692E+00   -1.719E+00   -1.744E+00   -1.770E+00   -1.795E+00
    -1.820E+00   -1.845E+00   -1.869E+00   -1.893E+00   -1.917E+00   -1.940E+00   -1.963E+00   -1.986E+00   -2.009E+00   -2.031E+00
    -2.053E+00   -2.075E+00   -2.096E+00   -2.117E+00   -2.138E+00   -2.159E+00   -2.179E+00   -2.199E+00   -2.219E+00   -2.238E+00
    -2.258E+00   -2.277E+00   -2.295E+00   -2.314E+00   -2.332E+00   -2.350E+00   -2.368E+00   -2.385E+00   -2.402E+00   -2.419E+00
    -2.436E+00   -2.452E+00   -2.469E+00   -2.485E+00   -2.500E+00   -2.516E+00   -2.531E+00   -2.546E+00   -2.561E+00   -2.575E+00
    -2.590E+00   -2.604E+00   -2.618E+00   -2.631E+00   -2.645E+00   -2.658E+00   -2.671E+00   -2.684E+00   -2.697E+00   -2.709E+00
    -2.721E+00   -2.733E+00   -2.745E+00   -2.756E+00   -2.768E+00   -2.779E+00   -2.790E+00   -2.801E+00   -2.811E+00   -2.822E+00
    -2.832E+00   -2.842E+00   -2.851E+00   -2.861E+00   -2.870E+00   -2.880E+00   -2.889E+00   -2.897E+00   -2.906E+00   -2.914E+00
    -2.923E+00   -2.931E+00   -2.938E+00   -2.946E+00   -2.953E+00   -2.961E+00   -2.968E+00   -2.975E+00   -2.982E+00   -2.988E+00
    -2.994E+00   -3.001E+00   -3.007E+00   -3.012E+00   -3.018E+00   -3.024E+00   -3.029E+00   -3.034E+00   -3.039E+00   -3.044E+00
    -3.049E+00   -3.053E+00   -3.057E+00   -3.061E+00   -3.065E+00   -3.069E+00   -3.073E+00   -3.076E+00   -3.080E+00   -3.083E+00
    -3.086E+00   -3.089E+00   -3.091E+00   -3.094E+00   -3.096E+00   -3.098E+00   -3.100E+00   -3.102E+00   -3.104E+00   -3.106E+00
    -3.107E+00   -3.108E+00   -3.109E+00   -3.110E+00   -3.111E+00   -3.112E+00   -3.113E+00   -3.113E+00   -3.113E+00   -3.113E+00
    -3.113E+00   -3.113E+00   -3.113E+00   -3.113E+00   -3.112E+00   -3.111E+00   -3.111E+00   -3.110E+00   -3.109E+00   -3.107E+00
    -3.106E+00   -3.105E+00   -3.103E+00   -3.101E+00   -3.100E+00   -3.098E+00   -3.096E+00   -3.093E+00   -3.091E+00   -3.089E+00
    -3.086E+00   -3.083E+00   -3.080E+00   -3.078E+00   -3.075E+00   -3.071E+00   -3.068E+00   -3.065E+00   -3.061E+00   -3.058E+00
    -3.054E+00   -3.050E+00   -3.046E+00   -3.042E+00   -3.038E+00   -3.034E+00   -3.030E+00   -3.025E+00   -3.021E+00   -3.016E+00
    -3.011E+00   -3.006E+00   -3.001E+00   -2.996E+00   -2.991E+00   -2.986E+00   -2.981E+00   -2.975E+00   -2.970E+00   -2.964E+00
    -2.958E+00   -2.952E+00   -2.947E+00   -2.941E+00   -2.934E+00   -2.928E+00   -2.922E+00   -2.916E+00   -2.909E+00   -2.903E+00
    -2.896E+00   -2.890E+00   -2.883E+00   -2.876E+00   -2.869E+00   -2.862E+00   -2.855E+00   -2.848E+00   -2.841E+00   -2.833E+00
    -2.826E+00   -2.819E+00   -2.811E+00   -2.804E+00   -2.796E+00   -2.788E+00   -2.780E+00   -2.773E+00   -2.765E+00   -2.757E+00
    -2.748E+00   -2.740E+00   -2.732E+00   -2.724E+00   -2.715E+00   -2.707E+00   -2.698E+00   -2.690E+00   -2.681E+00   -2.673E+00
    -2.664E+00   -2.655E+00   -2.646E+00   -2.637E+00   -2.628E+00   -2.619E+00   -2.610E+00   -2.601E+00   -2.591E+00   -2.582E+00
    -2.573E+00   -2.563E+00   -2.554E+00   -2.544E+00   -2.535E+00   -2.525E+00   -2.515E+00   -2.506E+00   -2.496E+00   -2.486E+00
    -2.476E+00   -2.466E+00   -2.456E+00   -2.446E+00   -2.436E+00   -2.426E+00   -2.415E+00   -2.405E+00   -2.395E+00   -2.384E+00
    -2.374E+00   -2.363E+00   -2.353E+00   -2.342E+00   -2.332E+00   -2.321E+00   -2.311E+00   -2.300E+00   -2.289E+00   -2.278E+00
    -2.268E+00   -2.257E+00   -2.246E+00   -2.235E+00   -2.224E+00   -2.213E+00   -2.202E+00   -2.191E+00   -2.180E+00   -2.169E+00
    -2.158E+00   -2.147E+00   -2.135E+00   -2.124E+00   -2.113E+00   -2.102E+00   -2.090E+00   -2.079E+00   -2.068E+00   -2.057E+00
    -2.045E+00   -2.034E+00   -2.022E+00   -2.011E+00   -2.000E+00   -1.988E+00   -1.977E+00   -1.965E+00   -1.954E+00   -1.942E+00
    -1.931E+00   -1.919E+00   -1.908E+00   -1.896E+00   -1.885E+00   -1.873E+00   -1.861E+00   -1.850E+00   -1.838E+00   -1.827E+00
    -1.815E+00   -1.803E+00   -1.792E+00   -1.780E+00   -1.769E+00   -1.757E+00   -1.745E+00   -1.734E+00   -1.722E+00   -1.710E+00
    -1.699E+00   -1.687E+00   -1.675E+00   -1.663E+00   -1.652E+00   -1.640E+00   -1.628E+00   -1.617E+00   -1.605E+00   -1.593E+00
    -1.582E+00   -1.570E+00   -1.558E+00   -1.547E+00   -1.535E+00   -1.523E+00   -1.511E+00   -1.500E+00
 Ala      Conc. = 1.96E+02
