 LCModel (Version 6.3-1L) Copyright: S.W. Provencher.          Ref.: Magn. Reson. Med. 30:672-679 (1993).                
 Slice#1 Row#8 Col#5  PD_05_press_1_raw_act
 36 lines in following concentration table = NCONC+1
    Conc.  %SD /Cr+PCr  Metabolite                                         
    0.000 999%   0.000 Ala                                                 
    0.000 999%   0.000 Asp                                                 
   49.773 298% 6.9E-02 Cr                                                  
  675.243  23%   0.931 PCr                                                 
    0.000 999%   0.000 GABA                                                
   61.273 162% 8.5E-02 Glc                                                 
  480.714  30%   0.663 Gln                                                 
 1.10E+03  15%   1.514 Glu                                                 
    0.000 999%   0.000 GPC                                                 
  346.476   5%   0.478 PCh                                                 
  220.621  23%   0.304 GSH                                                 
  919.780  19%   1.269 Ins                                                 
    0.000 999%   0.000 Lac                                                 
 1.59E+03   5%   2.188 NAA                                                 
  244.760  32%   0.338 NAAG                                                
   96.583  20%   0.133 Scyllo                                              
  502.406  27%   0.693 Tau                                                 
  364.236  21%   0.502 -CrCH2                                              
  346.476   5%   0.478 GPC+PCh                                             
 1.83E+03   3%   2.525 NAA+NAAG                                            
  725.016   6%   1.000 Cr+PCr                                              
 1.58E+03  14%   2.177 Glu+Gln                                             
 1.87E+03  27%   2.581 Lip13a                                              
    0.000 999%   0.000 Lip13b                                              
  467.216  56%   0.644 Lip09                                               
  797.438  34%   1.100 MM09                                                
  350.223  53%   0.483 Lip20                                               
 1.72E+03  19%   2.371 MM20                                                
  236.826  81%   0.327 MM12                                                
  306.399  93%   0.423 MM14                                                
  163.688 103%   0.226 MM17                                                
 1.87E+03  27%   2.581 Lip13a+Lip13b                                       
 2.41E+03  15%   3.330 MM14+Lip13a+Lip13b+MM12                             
 1.26E+03  13%   1.744 MM09+Lip09                                          
 2.07E+03  15%   2.854 MM20+Lip20                                          
   6 lines in following misc. output table
  FWHM = 0.046 ppm    S/N =  13                                            
  Data shift = 0.008 ppm                                                   
  Ph: -69 deg     -15.8 deg/ppm                                            
  alphaB,S = 1.4E+00,   7.9E+01                                            
   14 spline knots.   Ns = 6(1)                                            
  (10) 4 infls.   ( 7) 1 extrs.                                            
  498 points on ppm-axis = NY
      4.000000     3.992357     3.984714     3.977070     3.969427     3.961784     3.954141     3.946497     3.938854     3.931211
      3.923568     3.915925     3.908281     3.900638     3.892995     3.885352     3.877708     3.870065     3.862422     3.854779
      3.847136     3.839492     3.831849     3.824206     3.816563     3.808919     3.801276     3.793633     3.785990     3.778347
      3.770703     3.763060     3.755417     3.747774     3.740130     3.732487     3.724844     3.717201     3.709558     3.701914
      3.694271     3.686628     3.678985     3.671341     3.663698     3.656055     3.648412     3.640769     3.633125     3.625482
      3.617839     3.610196     3.602552     3.594909     3.587266     3.579623     3.571980     3.564336     3.556693     3.549050
      3.541407     3.533763     3.526120     3.518477     3.510834     3.503191     3.495547     3.487904     3.480261     3.472618
      3.464974     3.457331     3.449688     3.442045     3.434402     3.426758     3.419115     3.411472     3.403829     3.396185
      3.388542     3.380899     3.373256     3.365613     3.357969     3.350326     3.342683     3.335040     3.327396     3.319753
      3.312110     3.304467     3.296824     3.289180     3.281537     3.273894     3.266251     3.258607     3.250964     3.243321
      3.235678     3.228034     3.220391     3.212748     3.205105     3.197462     3.189818     3.182175     3.174532     3.166889
      3.159245     3.151602     3.143959     3.136316     3.128673     3.121029     3.113386     3.105743     3.098100     3.090456
      3.082813     3.075170     3.067527     3.059884     3.052240     3.044597     3.036954     3.029311     3.021667     3.014024
      3.006381     2.998738     2.991095     2.983451     2.975808     2.968165     2.960522     2.952878     2.945235     2.937592
      2.929949     2.922306     2.914662     2.907019     2.899376     2.891733     2.884089     2.876446     2.868803     2.861160
      2.853517     2.845873     2.838230     2.830587     2.822944     2.815300     2.807657     2.800014     2.792371     2.784728
      2.777084     2.769441     2.761798     2.754155     2.746511     2.738868     2.731225     2.723582     2.715939     2.708295
      2.700652     2.693009     2.685366     2.677722     2.670079     2.662436     2.654793     2.647150     2.639506     2.631863
      2.624220     2.616577     2.608933     2.601290     2.593647     2.586004     2.578361     2.570717     2.563074     2.555431
      2.547788     2.540144     2.532501     2.524858     2.517215     2.509572     2.501928     2.494285     2.486642     2.478999
      2.471355     2.463712     2.456069     2.448426     2.440783     2.433139     2.425496     2.417853     2.410210     2.402566
      2.394923     2.387280     2.379637     2.371994     2.364350     2.356707     2.349064     2.341421     2.333777     2.326134
      2.318491     2.310848     2.303205     2.295561     2.287918     2.280275     2.272632     2.264988     2.257345     2.249702
      2.242059     2.234416     2.226772     2.219129     2.211486     2.203843     2.196199     2.188556     2.180913     2.173270
      2.165627     2.157983     2.150340     2.142697     2.135054     2.127410     2.119767     2.112124     2.104481     2.096838
      2.089194     2.081551     2.073908     2.066265     2.058621     2.050978     2.043335     2.035692     2.028049     2.020405
      2.012762     2.005119     1.997476     1.989833     1.982190     1.974546     1.966903     1.959260     1.951617     1.943974
      1.936331     1.928688     1.921045     1.913402     1.905759     1.898115     1.890472     1.882829     1.875186     1.867543
      1.859900     1.852257     1.844614     1.836971     1.829327     1.821684     1.814041     1.806398     1.798755     1.791112
      1.783469     1.775826     1.768183     1.760540     1.752896     1.745253     1.737610     1.729967     1.722324     1.714681
      1.707038     1.699395     1.691752     1.684108     1.676465     1.668822     1.661179     1.653536     1.645893     1.638250
      1.630607     1.622964     1.615321     1.607677     1.600034     1.592391     1.584748     1.577105     1.569462     1.561819
      1.554176     1.546533     1.538890     1.531246     1.523603     1.515960     1.508317     1.500674     1.493031     1.485388
      1.477745     1.470102     1.462458     1.454815     1.447172     1.439529     1.431886     1.424243     1.416600     1.408957
      1.401314     1.393671     1.386027     1.378384     1.370741     1.363098     1.355455     1.347812     1.340169     1.332526
      1.324883     1.317240     1.309596     1.301953     1.294310     1.286667     1.279024     1.271381     1.263738     1.256095
      1.248452     1.240808     1.233165     1.225522     1.217879     1.210236     1.202593     1.194950     1.187307     1.179664
      1.172021     1.164377     1.156734     1.149091     1.141448     1.133805     1.126162     1.118519     1.110876     1.103233
      1.095590     1.087946     1.080303     1.072660     1.065017     1.057374     1.049731     1.042088     1.034445     1.026802
      1.019158     1.011515     1.003872     0.996229     0.988586     0.980943     0.973300     0.965657     0.958014     0.950371
      0.942727     0.935084     0.927441     0.919798     0.912155     0.904512     0.896869     0.889226     0.881583     0.873940
      0.866296     0.858653     0.851010     0.843367     0.835724     0.828081     0.820438     0.812795     0.805152     0.797508
      0.789865     0.782222     0.774579     0.766936     0.759293     0.751650     0.744007     0.736364     0.728721     0.721077
      0.713434     0.705791     0.698148     0.690505     0.682862     0.675219     0.667576     0.659933     0.652290     0.644646
      0.637003     0.629360     0.621717     0.614074     0.606431     0.598788     0.591145     0.583502     0.575858     0.568215
      0.560572     0.552929     0.545286     0.537643     0.530000     0.522357     0.514714     0.507071     0.499427     0.491784
      0.484141     0.476498     0.468855     0.461212     0.453569     0.445925     0.438282     0.430639     0.422996     0.415353
      0.407710     0.400067     0.392424     0.384780     0.377137     0.369494     0.361851     0.354208     0.346565     0.338922
      0.331278     0.323635     0.315992     0.308349     0.300706     0.293063     0.285420     0.277777     0.270133     0.262490
      0.254847     0.247204     0.239561     0.231918     0.224275     0.216631     0.208988     0.201345
 NY phased data points follow
  -3.41651E+01 -3.51654E+01 -3.43838E+01 -3.52631E+01 -2.87933E+01 -2.81040E+01 -1.99214E+01 -2.62113E+01 -1.99228E+01 -2.43948E+01
  -1.71569E+01 -2.10167E+01 -2.16521E+01 -2.29969E+01 -2.78490E+01 -2.84151E+01 -3.04919E+01 -3.04379E+01 -2.80019E+01 -2.80740E+01
  -2.80121E+01 -2.86140E+01 -2.60169E+01 -3.05794E+01 -2.70146E+01 -2.47528E+01 -2.26624E+01 -2.20334E+01 -2.44768E+01 -2.34152E+01
  -1.58615E+01 -1.96825E+01 -1.77258E+01 -2.00927E+01 -2.15348E+01 -2.35093E+01 -2.32251E+01 -2.08707E+01 -2.35941E+01 -2.19655E+01
  -2.12239E+01 -2.08948E+01 -2.17173E+01 -2.10189E+01 -1.93162E+01 -1.35885E+01 -1.48175E+01 -1.41171E+01 -1.35180E+01 -1.90439E+01
  -2.19240E+01 -2.18732E+01 -1.95064E+01 -2.11774E+01 -1.95129E+01 -2.37552E+01 -1.85810E+01 -1.62868E+01 -1.74855E+01 -1.90171E+01
  -1.83066E+01 -2.20020E+01 -1.72534E+01 -1.92010E+01 -2.05288E+01 -1.87816E+01 -2.11211E+01 -1.25325E+01 -1.52128E+01 -2.19756E+01
  -1.82393E+01 -1.77479E+01 -1.76822E+01 -2.13033E+01 -1.15847E+01 -1.87222E+01 -1.43590E+01 -1.53926E+01 -1.43257E+01 -1.73790E+01
  -1.88517E+01 -1.73604E+01 -1.41403E+01 -1.50727E+01 -1.36041E+01 -1.35666E+01 -9.92559E+00 -1.70342E+01 -9.65307E+00 -1.41494E+01
  -1.23868E+01 -9.24800E+00 -1.32543E+01 -1.26884E+01 -1.50726E+01 -1.15597E+01 -1.03069E+01 -1.14621E+01 -6.48826E+00 -3.73174E+00
   9.83340E+00  1.73487E+01  2.61775E+01  2.42946E+01  1.02917E+01  6.51455E+00 -1.93347E-01 -2.40255E+00 -4.94492E+00 -7.91450E+00
  -1.10458E+01 -1.03943E+01 -1.24413E+01 -1.09507E+01 -1.29347E+01 -1.15240E+01 -1.18452E+01 -9.11726E+00 -1.01899E+01 -1.36431E+01
  -1.68063E+01 -1.18630E+01 -1.18727E+01 -8.69948E+00  6.64972E-01  9.72843E+00  1.72218E+01  1.50564E+01  1.68323E+01  5.64353E+00
  -1.02512E+00 -4.84276E+00 -2.55704E+00 -9.24508E+00 -1.01828E+01 -9.19825E+00 -1.40740E+01 -1.21491E+01 -1.27747E+01 -8.55856E+00
  -1.46863E+01 -8.79263E+00 -9.70579E+00 -6.15521E+00 -1.26065E+01 -1.14764E+01 -1.05840E+01 -1.32268E+01 -1.15979E+01 -1.02118E+01
  -1.41835E+01 -1.05253E+01 -1.32972E+01 -7.52739E+00 -9.19239E+00 -1.20361E+01 -6.35458E+00 -9.90217E+00 -1.04812E+01 -9.62715E+00
  -9.28854E+00 -1.52053E+01 -1.07023E+01 -7.72944E+00 -6.11817E+00 -8.47682E+00 -1.02265E+01 -1.23380E+01 -1.24486E+01 -1.54815E+01
  -1.43530E+01 -1.04160E+01 -1.88370E+01 -1.99358E+01 -2.08401E+01 -1.81365E+01 -1.77918E+01 -1.99354E+01 -1.15220E+01 -1.17782E+01
  -1.30904E+01 -1.53594E+01 -2.01523E+01 -1.50639E+01 -1.20687E+01 -8.37957E+00 -1.17223E+01 -6.40150E+00 -9.94833E+00 -1.94851E+00
  -6.34480E+00 -6.99095E+00 -8.52193E+00 -8.45417E+00 -6.79462E+00 -9.03078E+00 -1.05205E+01 -1.18186E+01 -1.15385E+01 -1.39679E+01
  -1.21907E+01 -9.33870E+00 -2.88488E+00 -1.77394E+00 -2.18963E+00 -1.68986E+00 -4.73600E+00 -8.03328E+00 -1.22111E+01 -6.79404E+00
  -1.15627E+01 -6.50985E+00 -9.12379E+00 -4.34781E-01 -4.76042E-01  3.76643E+00  4.58200E+00  4.86072E+00  2.30266E+00 -2.26754E+00
  -4.87614E+00 -8.87248E+00 -9.55161E+00 -1.42381E+01 -5.21299E+00 -6.08641E+00 -1.19335E+00  1.47650E-02  1.07629E+00 -2.73297E+00
  -1.68542E+00 -1.47278E+00  1.68450E-01  1.36038E+00 -1.10484E+00 -1.61997E+00 -3.16032E+00  3.86843E+00  3.90232E+00  3.75721E+00
  -2.21133E-01 -4.68614E+00 -2.71728E+00 -2.19170E+00 -3.52980E+00 -1.32095E+00  2.69009E+00  4.10903E+00  4.92374E+00  3.52130E+00
  -1.94373E+00  5.88624E+00  4.24394E+00  7.29320E+00  1.41252E+01  2.23536E+01  2.55414E+01  3.64475E+01  4.60703E+01  6.11740E+01
   7.03781E+01  6.99241E+01  5.16426E+01  3.41948E+01  2.37990E+01  2.18856E+01  1.00926E+01  5.68345E+00  2.94784E+00  1.32298E+00
   8.00645E-01  5.84157E+00  2.39855E+00  5.02871E-01  2.74274E+00 -1.69750E+00 -4.98424E+00 -4.66275E+00 -4.86542E+00  1.73387E+00
   2.15094E+00  1.42754E+00 -7.92108E-01  1.74202E+00 -1.65276E+00  2.86512E+00  1.54486E+00 -6.04604E+00 -2.49578E+00 -1.91124E+00
   2.73159E+00 -3.29157E-01  1.08067E-02  1.89132E+00  6.28226E-01  1.59326E+00  2.36135E+00  3.45715E-01 -1.24794E+00 -1.16270E+00
  -9.84941E-01 -2.80082E-01 -3.59260E+00 -3.41931E+00 -2.67106E+00 -1.37393E+00  1.67531E+00  5.73017E-01 -3.75133E+00  1.68139E-01
   1.01484E+00  5.48289E-02 -1.80393E+00 -2.27088E+00 -1.09651E+00  1.25284E-02  6.11251E+00  2.71288E+00  8.75234E-01  5.38894E+00
   1.29044E+00 -3.96272E+00 -2.09888E+00 -2.27849E+00 -6.77631E-01 -2.59063E+00  1.55704E+00  8.74074E-01  3.15588E-01  1.99712E+00
  -1.71158E-01 -1.06605E-01  5.34962E+00  1.80522E-01  2.58837E+00  3.27277E+00  3.83062E+00  4.46109E+00  6.00447E+00  8.00137E+00
   3.39486E+00  3.36429E+00  4.21468E+00  7.27029E+00  6.75162E+00  1.04908E+01  7.47599E+00  8.94284E+00  6.87715E+00  1.04277E+01
   1.03698E+01  1.13734E+01  5.08204E+00  9.41670E+00  9.14126E+00  1.18514E+01  5.97709E+00  4.93386E+00  6.25670E+00  6.52704E+00
   3.35922E+00  7.17045E+00  5.69869E+00  1.16303E+01  5.80547E+00  6.11286E+00  7.74166E+00  1.20782E+01  1.05677E+01  8.33843E+00
   6.01792E+00  8.53913E+00  8.71591E+00  5.98956E+00  6.44088E+00  4.90640E+00  1.43672E+00  1.06685E+00  3.47763E+00  5.79191E+00
   3.58586E+00  2.46569E+00  2.32008E+00  2.90177E+00  2.10077E+00  1.84826E+00  3.53569E+00  3.69569E+00  4.71618E+00  1.15388E+00
   4.17949E+00  9.59572E-01  3.35763E+00  4.65505E+00  8.21446E+00  9.23006E+00  9.59248E+00  6.46292E+00  5.20683E+00  9.73822E+00
   4.23887E+00  7.53151E+00  1.00516E+01  1.15239E+01  1.33585E+01  1.04806E+01  8.05437E+00  1.18808E+01  1.33264E+01  1.25641E+01
   8.37865E+00  1.05621E+01  1.10787E+01  6.31508E+00  9.73972E+00  7.33319E+00  4.63879E+00  1.00581E+01  5.95434E+00  8.75266E+00
   7.52098E+00  3.08290E+00  6.28417E+00  7.98035E+00  5.29719E+00  5.94029E+00  4.90696E+00  6.16633E+00  2.96433E+00  5.74213E+00
   3.85709E+00  6.81504E+00  6.14041E+00  3.27148E+00  3.23956E+00  2.78532E+00  2.29046E+00  2.32986E+00  2.07801E+00  4.57495E+00
   6.05237E+00  4.60799E+00  4.06027E+00  4.45774E+00  2.57423E+00  3.15340E+00  6.92983E-01  1.10153E+00  3.37424E+00  3.93215E+00
   1.95419E+00  3.36043E+00 -5.01974E-01  4.08157E+00  1.08682E+00  5.11758E+00  2.20656E+00  8.52286E-01 -2.30904E+00  1.32559E+00
  -1.59883E+00 -1.93358E+00  4.94226E+00 -2.03506E+00  4.18824E+00  4.85572E+00  2.72602E+00  3.43141E+00  3.59285E+00  7.33686E-01
   1.69455E+00  2.27394E+00  1.35474E+00  4.22423E+00  2.00697E+00  2.86978E+00 -2.64957E+00  2.31406E+00  3.57807E+00  1.72636E+00
  -8.99343E-01  1.59557E+00 -1.87186E-01  3.02869E+00  2.13402E+00  1.10805E+00  2.76879E+00  3.71395E+00  1.30888E+00  6.08470E+00
   5.57840E+00  4.40034E+00  1.07940E+00  2.84616E+00  1.95037E+00  3.07763E-02  2.11842E+00  1.82234E+00
 NY points of the fit to the data follow
  -2.92767E+01 -2.94522E+01 -2.95268E+01 -2.93109E+01 -2.86744E+01 -2.75495E+01 -2.57271E+01 -2.33012E+01 -2.08940E+01 -1.94493E+01
  -1.96249E+01 -2.11729E+01 -2.30940E+01 -2.45588E+01 -2.54937E+01 -2.62046E+01 -2.67682E+01 -2.69855E+01 -2.68535E+01 -2.65541E+01
  -2.61818E+01 -2.58163E+01 -2.55454E+01 -2.53993E+01 -2.52471E+01 -2.50386E+01 -2.45956E+01 -2.36388E+01 -2.20570E+01 -2.00550E+01
  -1.82127E+01 -1.71100E+01 -1.69503E+01 -1.75651E+01 -1.87447E+01 -2.03789E+01 -2.23008E+01 -2.40093E+01 -2.49639E+01 -2.51182E+01
  -2.46323E+01 -2.37336E+01 -2.26074E+01 -2.11372E+01 -1.91526E+01 -1.68925E+01 -1.52179E+01 -1.50544E+01 -1.65360E+01 -1.88170E+01
  -2.07727E+01 -2.18359E+01 -2.22244E+01 -2.23391E+01 -2.22438E+01 -2.17556E+01 -2.08791E+01 -1.98122E+01 -1.88072E+01 -1.81290E+01
  -1.79797E+01 -1.83340E+01 -1.89146E+01 -1.93218E+01 -1.93435E+01 -1.90329E+01 -1.85616E+01 -1.81066E+01 -1.77814E+01 -1.75221E+01
  -1.72049E+01 -1.68219E+01 -1.63728E+01 -1.58300E+01 -1.52711E+01 -1.49408E+01 -1.51590E+01 -1.60046E+01 -1.71395E+01 -1.79481E+01
  -1.80097E+01 -1.73426E+01 -1.63124E+01 -1.50872E+01 -1.37416E+01 -1.25741E+01 -1.19874E+01 -1.22679E+01 -1.32885E+01 -1.44006E+01
  -1.50223E+01 -1.52740E+01 -1.56464E+01 -1.62481E+01 -1.67318E+01 -1.65860E+01 -1.52385E+01 -1.21336E+01 -7.27434E+00 -1.62576E-01
   9.01295E+00  1.80993E+01  2.35680E+01  2.26354E+01  1.58233E+01  7.08362E+00  3.07478E-01 -3.85405E+00 -7.05910E+00 -1.01457E+01
  -1.23745E+01 -1.32825E+01 -1.36580E+01 -1.38639E+01 -1.39901E+01 -1.40839E+01 -1.41268E+01 -1.41197E+01 -1.40623E+01 -1.39086E+01
  -1.34552E+01 -1.20788E+01 -9.50209E+00 -5.24948E+00  1.12056E+00  8.64267E+00  1.47355E+01  1.65587E+01  1.32137E+01  6.91082E+00
   1.14116E+00 -2.50302E+00 -4.99796E+00 -7.58247E+00 -1.01204E+01 -1.17220E+01 -1.24309E+01 -1.25561E+01 -1.22248E+01 -1.16630E+01
  -1.11030E+01 -1.06961E+01 -1.05099E+01 -1.05278E+01 -1.06445E+01 -1.07609E+01 -1.08493E+01 -1.09195E+01 -1.09871E+01 -1.10571E+01
  -1.11224E+01 -1.11939E+01 -1.12559E+01 -1.12699E+01 -1.12061E+01 -1.10849E+01 -1.09602E+01 -1.09468E+01 -1.11678E+01 -1.15808E+01
  -1.19856E+01 -1.20960E+01 -1.17521E+01 -1.11530E+01 -1.07422E+01 -1.08282E+01 -1.13327E+01 -1.19077E+01 -1.22743E+01 -1.24310E+01
  -1.25300E+01 -1.26931E+01 -1.29440E+01 -1.32847E+01 -1.36504E+01 -1.38463E+01 -1.36691E+01 -1.31671E+01 -1.26837E+01 -1.25456E+01
  -1.27143E+01 -1.28498E+01 -1.26800E+01 -1.23131E+01 -1.20530E+01 -1.18867E+01 -1.14301E+01 -1.04080E+01 -8.93915E+00 -7.49594E+00
  -6.55613E+00 -6.26774E+00 -6.50555E+00 -7.01020E+00 -7.56862E+00 -8.05402E+00 -8.34294E+00 -8.31852E+00 -7.87543E+00 -6.96864E+00
  -5.71605E+00 -4.38879E+00 -3.30282E+00 -2.68833E+00 -2.80327E+00 -3.77783E+00 -5.55969E+00 -7.81846E+00 -9.95041E+00 -1.13436E+01
  -1.16117E+01 -1.06264E+01 -8.62953E+00 -5.90796E+00 -2.82130E+00 -7.10215E-02  1.32279E+00  6.59125E-01 -1.80739E+00 -5.01321E+00
  -8.04417E+00 -1.04194E+01 -1.16414E+01 -1.11894E+01 -9.03990E+00 -6.01943E+00 -3.39723E+00 -1.74851E+00 -9.23873E-01 -6.31550E-01
  -7.57913E-01 -1.13192E+00 -1.40627E+00 -1.32910E+00 -9.17432E-01 -3.04516E-01  4.02130E-01  1.02221E+00  1.27746E+00  9.52649E-01
   1.28992E-01 -8.13622E-01 -1.43566E+00 -1.42899E+00 -7.51258E-01  3.29362E-01  1.34218E+00  2.00795E+00  2.40984E+00  2.78607E+00
   3.42443E+00  4.49089E+00  6.31442E+00  9.18474E+00  1.35237E+01  1.94058E+01  2.64750E+01  3.61806E+01  4.91599E+01  6.24038E+01
   6.97185E+01  6.60627E+01  5.27373E+01  3.70991E+01  2.55904E+01  1.84235E+01  1.25673E+01  7.02670E+00  3.32355E+00  1.92959E+00
   1.26819E+00  8.54239E-01  6.43334E-01  5.82134E-01  5.50242E-01  4.56313E-01  2.71085E-01  3.19244E-02 -1.96931E-01 -3.88821E-01
  -5.53814E-01 -6.91367E-01 -7.79392E-01 -8.20824E-01 -8.53717E-01 -9.04740E-01 -9.64644E-01 -1.01575E+00 -1.05085E+00 -1.06666E+00
  -1.05351E+00 -1.00652E+00 -9.39599E-01 -8.75108E-01 -8.22936E-01 -7.81185E-01 -7.45113E-01 -7.12213E-01 -6.79454E-01 -6.39966E-01
  -5.87638E-01 -5.26002E-01 -4.63749E-01 -4.06638E-01 -3.55926E-01 -3.11328E-01 -2.73397E-01 -2.41802E-01 -2.13750E-01 -1.87038E-01
  -1.60883E-01 -1.33952E-01 -1.04678E-01 -7.12980E-02 -3.23424E-02  1.36283E-02  6.75820E-02  1.30612E-01  2.03666E-01  2.87870E-01
   3.83800E-01  4.91787E-01  6.11743E-01  7.43966E-01  8.88669E-01  1.04612E+00  1.21601E+00  1.39806E+00  1.59188E+00  1.79754E+00
   2.01506E+00  2.24449E+00  2.48550E+00  2.73795E+00  3.00170E+00  3.27704E+00  3.56397E+00  3.86238E+00  4.17163E+00  4.49110E+00
   4.81988E+00  5.15700E+00  5.50070E+00  5.84869E+00  6.19788E+00  6.54498E+00  6.88618E+00  7.21741E+00  7.53387E+00  7.83060E+00
   8.10235E+00  8.34439E+00  8.55221E+00  8.72191E+00  8.84985E+00  8.93338E+00  8.97063E+00  8.96119E+00  8.90553E+00  8.80523E+00
   8.66254E+00  8.48080E+00  8.26407E+00  8.01737E+00  7.74591E+00  7.45523E+00  7.15065E+00  6.83770E+00  6.52168E+00  6.20781E+00
   5.90059E+00  5.60414E+00  5.32182E+00  5.05682E+00  4.81177E+00  4.58905E+00  4.39030E+00  4.21696E+00  4.07003E+00  3.95069E+00
   3.85987E+00  3.79860E+00  3.76755E+00  3.76765E+00  3.79974E+00  3.86508E+00  3.96476E+00  4.09993E+00  4.27133E+00  4.47969E+00
   4.72528E+00  5.00810E+00  5.32720E+00  5.68080E+00  6.06580E+00  6.47817E+00  6.91252E+00  7.36237E+00  7.81968E+00  8.27541E+00
   8.71941E+00  9.14128E+00  9.53031E+00  9.87622E+00  1.01692E+01  1.04006E+01  1.05635E+01  1.06531E+01  1.06666E+01  1.06040E+01
   1.04669E+01  1.02599E+01  9.98897E+00  9.66234E+00  9.28916E+00  8.87949E+00  8.44341E+00  7.99110E+00  7.53210E+00  7.07535E+00
   6.62842E+00  6.19774E+00  5.78819E+00  5.40360E+00  5.04644E+00  4.71824E+00  4.41929E+00  4.14921E+00  3.90679E+00  3.69067E+00
   3.49901E+00  3.32998E+00  3.18137E+00  3.05115E+00  2.93722E+00  2.83788E+00  2.75139E+00  2.67632E+00  2.61109E+00  2.55453E+00
   2.50547E+00  2.46312E+00  2.42662E+00  2.39535E+00  2.36849E+00  2.34559E+00  2.32612E+00  2.30986E+00  2.29639E+00  2.28545E+00
   2.27661E+00  2.26974E+00  2.26462E+00  2.26123E+00  2.25930E+00  2.25872E+00  2.25924E+00  2.26088E+00  2.26351E+00  2.26718E+00
   2.27166E+00  2.27692E+00  2.28280E+00  2.28939E+00  2.29661E+00  2.30450E+00  2.31287E+00  2.32171E+00  2.33093E+00  2.34065E+00
   2.35079E+00  2.36139E+00  2.37226E+00  2.38345E+00  2.39491E+00  2.40677E+00  2.41893E+00  2.43139E+00  2.44402E+00  2.45689E+00
   2.46996E+00  2.48337E+00  2.49697E+00  2.51080E+00  2.52473E+00  2.53888E+00  2.55321E+00  2.56783E+00  2.58258E+00  2.59751E+00
   2.61251E+00  2.62774E+00  2.64315E+00  2.65881E+00  2.67458E+00  2.69050E+00  2.70652E+00  2.72280E+00
 NY background values follow
    -3.091E+01   -3.077E+01   -3.063E+01   -3.049E+01   -3.035E+01   -3.021E+01   -3.007E+01   -2.993E+01   -2.979E+01   -2.965E+01
    -2.951E+01   -2.937E+01   -2.923E+01   -2.909E+01   -2.895E+01   -2.881E+01   -2.867E+01   -2.853E+01   -2.839E+01   -2.825E+01
    -2.811E+01   -2.797E+01   -2.783E+01   -2.769E+01   -2.755E+01   -2.741E+01   -2.727E+01   -2.713E+01   -2.699E+01   -2.685E+01
    -2.671E+01   -2.657E+01   -2.643E+01   -2.630E+01   -2.616E+01   -2.602E+01   -2.588E+01   -2.574E+01   -2.561E+01   -2.547E+01
    -2.533E+01   -2.520E+01   -2.506E+01   -2.492E+01   -2.479E+01   -2.465E+01   -2.452E+01   -2.438E+01   -2.425E+01   -2.411E+01
    -2.398E+01   -2.384E+01   -2.371E+01   -2.357E+01   -2.344E+01   -2.331E+01   -2.317E+01   -2.304E+01   -2.291E+01   -2.278E+01
    -2.264E+01   -2.251E+01   -2.238E+01   -2.225E+01   -2.212E+01   -2.199E+01   -2.186E+01   -2.173E+01   -2.160E+01   -2.148E+01
    -2.135E+01   -2.122E+01   -2.109E+01   -2.097E+01   -2.084E+01   -2.071E+01   -2.059E+01   -2.046E+01   -2.034E+01   -2.021E+01
    -2.009E+01   -1.997E+01   -1.984E+01   -1.972E+01   -1.960E+01   -1.948E+01   -1.935E+01   -1.923E+01   -1.911E+01   -1.899E+01
    -1.887E+01   -1.876E+01   -1.864E+01   -1.852E+01   -1.840E+01   -1.829E+01   -1.817E+01   -1.805E+01   -1.794E+01   -1.782E+01
    -1.771E+01   -1.759E+01   -1.748E+01   -1.737E+01   -1.726E+01   -1.714E+01   -1.703E+01   -1.692E+01   -1.681E+01   -1.670E+01
    -1.659E+01   -1.648E+01   -1.638E+01   -1.627E+01   -1.616E+01   -1.605E+01   -1.595E+01   -1.584E+01   -1.573E+01   -1.563E+01
    -1.553E+01   -1.542E+01   -1.532E+01   -1.521E+01   -1.511E+01   -1.501E+01   -1.491E+01   -1.481E+01   -1.471E+01   -1.461E+01
    -1.451E+01   -1.441E+01   -1.431E+01   -1.421E+01   -1.411E+01   -1.401E+01   -1.392E+01   -1.382E+01   -1.372E+01   -1.363E+01
    -1.353E+01   -1.344E+01   -1.334E+01   -1.325E+01   -1.316E+01   -1.306E+01   -1.297E+01   -1.288E+01   -1.279E+01   -1.270E+01
    -1.261E+01   -1.252E+01   -1.243E+01   -1.234E+01   -1.225E+01   -1.216E+01   -1.207E+01   -1.198E+01   -1.189E+01   -1.181E+01
    -1.172E+01   -1.163E+01   -1.155E+01   -1.146E+01   -1.138E+01   -1.129E+01   -1.121E+01   -1.112E+01   -1.104E+01   -1.095E+01
    -1.087E+01   -1.079E+01   -1.071E+01   -1.062E+01   -1.054E+01   -1.046E+01   -1.038E+01   -1.030E+01   -1.022E+01   -1.014E+01
    -1.006E+01   -9.977E+00   -9.897E+00   -9.818E+00   -9.739E+00   -9.661E+00   -9.582E+00   -9.504E+00   -9.427E+00   -9.349E+00
    -9.272E+00   -9.195E+00   -9.119E+00   -9.043E+00   -8.967E+00   -8.891E+00   -8.816E+00   -8.741E+00   -8.667E+00   -8.593E+00
    -8.519E+00   -8.445E+00   -8.372E+00   -8.299E+00   -8.227E+00   -8.155E+00   -8.083E+00   -8.012E+00   -7.941E+00   -7.870E+00
    -7.799E+00   -7.729E+00   -7.660E+00   -7.590E+00   -7.521E+00   -7.453E+00   -7.385E+00   -7.317E+00   -7.249E+00   -7.182E+00
    -7.115E+00   -7.049E+00   -6.983E+00   -6.918E+00   -6.852E+00   -6.788E+00   -6.723E+00   -6.659E+00   -6.595E+00   -6.532E+00
    -6.469E+00   -6.407E+00   -6.345E+00   -6.283E+00   -6.221E+00   -6.160E+00   -6.100E+00   -6.040E+00   -5.980E+00   -5.920E+00
    -5.861E+00   -5.802E+00   -5.743E+00   -5.685E+00   -5.628E+00   -5.570E+00   -5.513E+00   -5.456E+00   -5.400E+00   -5.344E+00
    -5.288E+00   -5.233E+00   -5.177E+00   -5.123E+00   -5.068E+00   -5.014E+00   -4.960E+00   -4.907E+00   -4.854E+00   -4.801E+00
    -4.748E+00   -4.696E+00   -4.644E+00   -4.592E+00   -4.541E+00   -4.490E+00   -4.439E+00   -4.389E+00   -4.339E+00   -4.289E+00
    -4.239E+00   -4.190E+00   -4.141E+00   -4.092E+00   -4.044E+00   -3.995E+00   -3.948E+00   -3.900E+00   -3.852E+00   -3.805E+00
    -3.759E+00   -3.712E+00   -3.666E+00   -3.620E+00   -3.574E+00   -3.528E+00   -3.483E+00   -3.438E+00   -3.393E+00   -3.349E+00
    -3.304E+00   -3.260E+00   -3.217E+00   -3.173E+00   -3.130E+00   -3.087E+00   -3.044E+00   -3.001E+00   -2.959E+00   -2.917E+00
    -2.875E+00   -2.833E+00   -2.792E+00   -2.751E+00   -2.710E+00   -2.669E+00   -2.629E+00   -2.589E+00   -2.549E+00   -2.509E+00
    -2.469E+00   -2.430E+00   -2.391E+00   -2.352E+00   -2.313E+00   -2.274E+00   -2.236E+00   -2.198E+00   -2.160E+00   -2.122E+00
    -2.085E+00   -2.047E+00   -2.010E+00   -1.973E+00   -1.937E+00   -1.900E+00   -1.864E+00   -1.828E+00   -1.792E+00   -1.756E+00
    -1.720E+00   -1.685E+00   -1.650E+00   -1.615E+00   -1.580E+00   -1.545E+00   -1.511E+00   -1.476E+00   -1.442E+00   -1.408E+00
    -1.374E+00   -1.341E+00   -1.307E+00   -1.274E+00   -1.241E+00   -1.208E+00   -1.175E+00   -1.142E+00   -1.110E+00   -1.078E+00
    -1.045E+00   -1.013E+00   -9.815E-01   -9.497E-01   -9.181E-01   -8.867E-01   -8.554E-01   -8.242E-01   -7.932E-01   -7.624E-01
    -7.316E-01   -7.010E-01   -6.706E-01   -6.402E-01   -6.100E-01   -5.800E-01   -5.500E-01   -5.202E-01   -4.906E-01   -4.610E-01
    -4.316E-01   -4.023E-01   -3.732E-01   -3.442E-01   -3.153E-01   -2.865E-01   -2.579E-01   -2.294E-01   -2.010E-01   -1.727E-01
    -1.446E-01   -1.166E-01   -8.868E-02   -6.092E-02   -3.327E-02   -5.749E-03    2.165E-02    4.894E-02    7.610E-02    1.031E-01
     1.301E-01    1.569E-01    1.836E-01    2.101E-01    2.366E-01    2.629E-01    2.892E-01    3.153E-01    3.413E-01    3.672E-01
     3.929E-01    4.186E-01    4.441E-01    4.696E-01    4.949E-01    5.201E-01    5.452E-01    5.702E-01    5.951E-01    6.199E-01
     6.446E-01    6.692E-01    6.936E-01    7.180E-01    7.423E-01    7.664E-01    7.905E-01    8.144E-01    8.383E-01    8.621E-01
     8.857E-01    9.093E-01    9.328E-01    9.561E-01    9.794E-01    1.003E+00    1.026E+00    1.049E+00    1.072E+00    1.094E+00
     1.117E+00    1.140E+00    1.162E+00    1.185E+00    1.207E+00    1.230E+00    1.252E+00    1.274E+00    1.296E+00    1.318E+00
     1.340E+00    1.362E+00    1.383E+00    1.405E+00    1.427E+00    1.448E+00    1.470E+00    1.491E+00    1.512E+00    1.533E+00
     1.555E+00    1.576E+00    1.597E+00    1.618E+00    1.638E+00    1.659E+00    1.680E+00    1.701E+00    1.721E+00    1.742E+00
     1.762E+00    1.783E+00    1.803E+00    1.824E+00    1.844E+00    1.864E+00    1.884E+00    1.905E+00    1.925E+00    1.945E+00
     1.965E+00    1.985E+00    2.005E+00    2.025E+00    2.045E+00    2.065E+00    2.085E+00    2.104E+00    2.124E+00    2.144E+00
     2.164E+00    2.184E+00    2.204E+00    2.223E+00    2.243E+00    2.263E+00    2.283E+00    2.303E+00    2.322E+00    2.342E+00
     2.362E+00    2.382E+00    2.402E+00    2.421E+00    2.441E+00    2.461E+00    2.481E+00    2.501E+00
 Cr       Conc. = 4.98E+01
