 LCModel (Version 6.3-1L) Copyright: S.W. Provencher.          Ref.: Magn. Reson. Med. 30:672-679 (1993).                
 Slice#3 Row#11 Col#11  PD_05_press_1_raw_act
 36 lines in following concentration table = NCONC+1
    Conc.  %SD /Cr+PCr  Metabolite                                         
  343.711  30%   0.691 Ala                                                 
    0.000 999%   0.000 Asp                                                 
  260.985  60%   0.524 Cr                                                  
  236.712  68%   0.476 PCr                                                 
    0.000 999%   0.000 GABA                                                
    0.000 999%   0.000 Glc                                                 
  906.413  25%   1.821 Gln                                                 
  662.913  39%   1.332 Glu                                                 
  126.141  10%   0.253 GPC                                                 
    0.000 999%   0.000 PCh                                                 
  145.552  35%   0.292 GSH                                                 
  479.533  37%   0.964 Ins                                                 
    0.000 999%   0.000 Lac                                                 
  930.169   5%   1.869 NAA                                                 
    0.000 999%   0.000 NAAG                                                
   39.768  37% 8.0E-02 Scyllo                                              
    0.000 999%   0.000 Tau                                                 
  114.246  61%   0.230 -CrCH2                                              
  126.141  10%   0.253 GPC+PCh                                             
  930.169   5%   1.869 NAA+NAAG                                            
  497.697   6%   1.000 Cr+PCr                                              
 1.57E+03  28%   3.153 Glu+Gln                                             
    0.000 999%   0.000 Lip13a                                              
    0.000 999%   0.000 Lip13b                                              
    0.000 999%   0.000 Lip09                                               
  764.134  15%   1.535 MM09                                                
 9.29E-03 999% 1.9E-05 Lip20                                               
 1.58E+03  15%   3.178 MM20                                                
    0.000 999%   0.000 MM12                                                
  889.832  20%   1.788 MM14                                                
 1.69E+03  13%   3.400+MM17                                                
    0.000 999%   0.000 Lip13a+Lip13b                                       
  889.832  20%   1.788 MM14+Lip13a+Lip13b+MM12                             
  764.134  15%   1.535 MM09+Lip09                                          
 1.58E+03  15%   3.178 MM20+Lip20                                          
   6 lines in following misc. output table
  FWHM = 0.092 ppm    S/N =   8                                            
  Data shift = 0.031 ppm                                                   
  Ph: -13 deg     -19.4 deg/ppm                                            
  alphaB,S = 3.3E-01,   2.0E+02                                            
   14 spline knots.   Ns =10(1)                                            
  (18) 3 infls.   (13) 1 extrs.                                            
  498 points on ppm-axis = NY
      4.000000     3.992357     3.984714     3.977070     3.969427     3.961784     3.954141     3.946497     3.938854     3.931211
      3.923568     3.915925     3.908281     3.900638     3.892995     3.885352     3.877708     3.870065     3.862422     3.854779
      3.847136     3.839492     3.831849     3.824206     3.816563     3.808919     3.801276     3.793633     3.785990     3.778347
      3.770703     3.763060     3.755417     3.747774     3.740130     3.732487     3.724844     3.717201     3.709558     3.701914
      3.694271     3.686628     3.678985     3.671341     3.663698     3.656055     3.648412     3.640769     3.633125     3.625482
      3.617839     3.610196     3.602552     3.594909     3.587266     3.579623     3.571980     3.564336     3.556693     3.549050
      3.541407     3.533763     3.526120     3.518477     3.510834     3.503191     3.495547     3.487904     3.480261     3.472618
      3.464974     3.457331     3.449688     3.442045     3.434402     3.426758     3.419115     3.411472     3.403829     3.396185
      3.388542     3.380899     3.373256     3.365613     3.357969     3.350326     3.342683     3.335040     3.327396     3.319753
      3.312110     3.304467     3.296824     3.289180     3.281537     3.273894     3.266251     3.258607     3.250964     3.243321
      3.235678     3.228034     3.220391     3.212748     3.205105     3.197462     3.189818     3.182175     3.174532     3.166889
      3.159245     3.151602     3.143959     3.136316     3.128673     3.121029     3.113386     3.105743     3.098100     3.090456
      3.082813     3.075170     3.067527     3.059884     3.052240     3.044597     3.036954     3.029311     3.021667     3.014024
      3.006381     2.998738     2.991095     2.983451     2.975808     2.968165     2.960522     2.952878     2.945235     2.937592
      2.929949     2.922306     2.914662     2.907019     2.899376     2.891733     2.884089     2.876446     2.868803     2.861160
      2.853517     2.845873     2.838230     2.830587     2.822944     2.815300     2.807657     2.800014     2.792371     2.784728
      2.777084     2.769441     2.761798     2.754155     2.746511     2.738868     2.731225     2.723582     2.715939     2.708295
      2.700652     2.693009     2.685366     2.677722     2.670079     2.662436     2.654793     2.647150     2.639506     2.631863
      2.624220     2.616577     2.608933     2.601290     2.593647     2.586004     2.578361     2.570717     2.563074     2.555431
      2.547788     2.540144     2.532501     2.524858     2.517215     2.509572     2.501928     2.494285     2.486642     2.478999
      2.471355     2.463712     2.456069     2.448426     2.440783     2.433139     2.425496     2.417853     2.410210     2.402566
      2.394923     2.387280     2.379637     2.371994     2.364350     2.356707     2.349064     2.341421     2.333777     2.326134
      2.318491     2.310848     2.303205     2.295561     2.287918     2.280275     2.272632     2.264988     2.257345     2.249702
      2.242059     2.234416     2.226772     2.219129     2.211486     2.203843     2.196199     2.188556     2.180913     2.173270
      2.165627     2.157983     2.150340     2.142697     2.135054     2.127410     2.119767     2.112124     2.104481     2.096838
      2.089194     2.081551     2.073908     2.066265     2.058621     2.050978     2.043335     2.035692     2.028049     2.020405
      2.012762     2.005119     1.997476     1.989833     1.982190     1.974546     1.966903     1.959260     1.951617     1.943974
      1.936331     1.928688     1.921045     1.913402     1.905759     1.898115     1.890472     1.882829     1.875186     1.867543
      1.859900     1.852257     1.844614     1.836971     1.829327     1.821684     1.814041     1.806398     1.798755     1.791112
      1.783469     1.775826     1.768183     1.760540     1.752896     1.745253     1.737610     1.729967     1.722324     1.714681
      1.707038     1.699395     1.691752     1.684108     1.676465     1.668822     1.661179     1.653536     1.645893     1.638250
      1.630607     1.622964     1.615321     1.607677     1.600034     1.592391     1.584748     1.577105     1.569462     1.561819
      1.554176     1.546533     1.538890     1.531246     1.523603     1.515960     1.508317     1.500674     1.493031     1.485388
      1.477745     1.470102     1.462458     1.454815     1.447172     1.439529     1.431886     1.424243     1.416600     1.408957
      1.401314     1.393671     1.386027     1.378384     1.370741     1.363098     1.355455     1.347812     1.340169     1.332526
      1.324883     1.317240     1.309596     1.301953     1.294310     1.286667     1.279024     1.271381     1.263738     1.256095
      1.248452     1.240808     1.233165     1.225522     1.217879     1.210236     1.202593     1.194950     1.187307     1.179664
      1.172021     1.164377     1.156734     1.149091     1.141448     1.133805     1.126162     1.118519     1.110876     1.103233
      1.095590     1.087946     1.080303     1.072660     1.065017     1.057374     1.049731     1.042088     1.034445     1.026802
      1.019158     1.011515     1.003872     0.996229     0.988586     0.980943     0.973300     0.965657     0.958014     0.950371
      0.942727     0.935084     0.927441     0.919798     0.912155     0.904512     0.896869     0.889226     0.881583     0.873940
      0.866296     0.858653     0.851010     0.843367     0.835724     0.828081     0.820438     0.812795     0.805152     0.797508
      0.789865     0.782222     0.774579     0.766936     0.759293     0.751650     0.744007     0.736364     0.728721     0.721077
      0.713434     0.705791     0.698148     0.690505     0.682862     0.675219     0.667576     0.659933     0.652290     0.644646
      0.637003     0.629360     0.621717     0.614074     0.606431     0.598788     0.591145     0.583502     0.575858     0.568215
      0.560572     0.552929     0.545286     0.537643     0.530000     0.522357     0.514714     0.507071     0.499427     0.491784
      0.484141     0.476498     0.468855     0.461212     0.453569     0.445925     0.438282     0.430639     0.422996     0.415353
      0.407710     0.400067     0.392424     0.384780     0.377137     0.369494     0.361851     0.354208     0.346565     0.338922
      0.331278     0.323635     0.315992     0.308349     0.300706     0.293063     0.285420     0.277777     0.270133     0.262490
      0.254847     0.247204     0.239561     0.231918     0.224275     0.216631     0.208988     0.201345
 NY phased data points follow
   4.14418E+00  5.09852E+00  3.85443E+00  4.41150E+00  4.96178E+00  6.56564E+00  5.69167E+00  6.33772E+00  7.05360E+00  7.50641E+00
   7.97608E+00  7.98549E+00  8.14149E+00  9.70589E+00  8.72717E+00  9.31106E+00  8.54945E+00  6.88759E+00  5.94844E+00  7.68581E+00
   5.91532E+00  4.99251E+00  3.49683E+00  4.02575E+00  5.74027E+00  6.63919E+00  4.29735E+00  5.04810E+00  6.02530E+00  5.97236E+00
   5.78144E+00  6.70754E+00  4.54259E+00  5.07569E+00  4.79423E+00  5.17782E+00  4.10172E+00  5.10301E+00  5.51171E+00  5.35632E+00
   4.59852E+00  6.41944E+00  4.31468E+00  5.23166E+00  6.41812E+00  4.46959E+00  6.18415E+00  7.01007E+00  6.30308E+00  7.55001E+00
   5.62999E+00  5.75461E+00  7.56520E+00  7.55711E+00  5.08169E+00  6.12172E+00  6.03900E+00  3.92834E+00  3.25194E+00  4.71348E+00
   5.36334E+00  5.55604E+00  4.64641E+00  2.64945E+00  1.76853E+00  1.23715E+00  1.88320E+00  3.17796E+00  2.45028E+00  1.22851E+00
   4.09909E+00  1.61476E+00  2.81908E+00  3.93784E+00  4.20405E+00  2.57822E+00  3.42771E+00  3.47790E+00  3.41591E+00  2.84641E+00
   2.47853E+00  2.16435E+00  2.90352E+00  4.69353E+00  3.63508E+00  4.16436E+00  4.27005E+00  3.57514E+00  4.81863E+00  5.11213E+00
   2.73839E+00  4.15078E+00  3.55315E+00  3.56507E+00  3.98656E+00  5.13312E+00  5.01972E+00  5.90910E+00  6.94583E+00  8.50081E+00
   8.96877E+00  8.91982E+00  1.02651E+01  9.98953E+00  9.41542E+00  9.47370E+00  1.05140E+01  8.84579E+00  8.74296E+00  8.35549E+00
   7.08484E+00  6.20092E+00  3.66650E+00  4.19118E+00  3.55723E+00  3.37755E+00  5.47381E+00  4.57727E+00  5.58290E+00  5.85853E+00
   3.90752E+00  5.04153E+00  5.86185E+00  9.83451E+00  1.31553E+01  1.29026E+01  1.45191E+01  1.50287E+01  1.49769E+01  1.47992E+01
   1.48039E+01  1.58007E+01  1.23550E+01  1.24271E+01  9.48854E+00  8.74340E+00  8.11452E+00  6.54764E+00  5.42560E+00  4.66250E+00
   5.36601E+00  5.26394E+00  4.57601E+00  6.23577E+00  5.39090E+00  4.86244E+00  4.05657E+00  4.70254E+00  4.46362E+00  5.88843E+00
   3.96554E+00  4.54512E+00  3.66445E+00  4.07840E+00  4.64920E+00  6.44049E+00  3.72634E+00  4.18826E+00  3.90045E+00  4.43368E+00
   3.36493E+00  3.72320E+00  4.70511E+00  4.13881E+00  2.50805E+00  2.63165E+00  2.76719E+00  1.62082E+00  2.27151E+00  1.88160E+00
   2.47472E+00  2.05293E+00  1.22730E+00  1.05468E+00  6.30430E-01  9.57511E-01 -3.54026E-01  3.43309E-01  5.73564E-01 -9.37640E-03
   5.56560E-01  1.20702E+00  3.59844E-01  1.36469E+00  1.43633E+00  3.78217E-01  9.93971E-01  1.18646E-01  9.36363E-01  2.46353E+00
   2.61175E+00  1.78389E+00  2.67785E+00  2.48595E+00  1.84227E+00  1.96238E+00  2.45539E+00  2.23167E+00  2.56204E+00  2.31752E+00
   2.58576E+00  3.37473E+00  4.72154E+00  3.63452E+00  4.21647E+00  3.42147E+00  3.33981E+00  2.87540E+00  5.90547E+00  3.76231E+00
   4.45215E+00  3.88921E+00  6.84280E+00  3.78697E+00  5.62442E+00  7.53722E+00  7.51662E+00  6.62005E+00  6.17654E+00  5.29250E+00
   7.75494E+00  5.76348E+00  6.59900E+00  5.62183E+00  5.66370E+00  3.70057E+00  3.49776E+00  5.03894E+00  5.97296E+00  4.84643E+00
   5.66574E+00  4.07895E+00  7.75885E+00  6.49784E+00  4.89141E+00  4.34393E+00  5.31025E+00  4.76805E+00  4.81042E+00  3.93588E+00
   4.59196E+00  4.90832E+00  4.49148E+00  4.02442E+00  4.39527E+00  2.20965E+00  3.65851E+00  5.36868E+00  4.28456E+00  6.01967E+00
   6.67575E+00  7.83518E+00  8.76986E+00  1.07321E+01  1.22827E+01  1.30128E+01  1.54134E+01  1.87110E+01  2.37658E+01  2.55115E+01
   2.68741E+01  2.66435E+01  2.65981E+01  2.51176E+01  2.44554E+01  2.42381E+01  2.07706E+01  1.64432E+01  1.21261E+01  1.11640E+01
   9.38926E+00  8.39413E+00  8.99836E+00  8.29934E+00  7.25908E+00  7.23517E+00  6.52368E+00  7.52446E+00  6.91843E+00  6.80402E+00
   9.19950E+00  5.91710E+00  6.52069E+00  5.70631E+00  7.50890E+00  7.02916E+00  4.04497E+00  4.73845E+00  7.21587E+00  5.77143E+00
   6.40477E+00  6.40083E+00  5.97426E+00  7.32177E+00  6.44622E+00  6.70293E+00  6.08315E+00  5.41628E+00  6.30340E+00  6.22872E+00
   5.41357E+00  7.22334E+00  6.76203E+00  7.22695E+00  4.90721E+00  4.89290E+00  6.73068E+00  5.95644E+00  5.25197E+00  5.54292E+00
   3.24217E+00  5.83699E+00  6.18452E+00  5.44945E+00  4.86094E+00  4.50899E+00  7.39750E+00  4.08393E+00  5.65555E+00  6.65599E+00
   4.53583E+00  4.61975E+00  3.44629E+00  4.28306E+00  2.95593E+00  4.66502E+00  3.79528E+00  2.29218E+00  4.42969E+00  2.85932E+00
   4.33948E+00  3.55394E+00  2.92629E+00  3.56843E+00  5.03095E+00  4.85548E+00  3.70977E+00  3.25745E+00  5.65206E+00  3.99790E+00
   3.23333E+00  5.72503E+00  4.87596E+00  3.98506E+00  5.06285E+00  1.36679E+00  3.16226E+00  1.99191E+00 -1.06763E-01  8.80456E-01
  -1.14219E-01 -1.16743E-01 -1.19655E+00  1.19825E+00 -1.95242E+00 -2.82052E-01 -1.79926E+00 -2.68286E+00 -4.45782E+00 -3.70356E+00
  -4.57612E+00 -5.18086E+00 -7.62392E+00 -7.31587E+00 -5.77736E+00 -7.80299E+00 -8.54043E+00 -8.50328E+00 -8.55087E+00 -5.45577E+00
  -7.64967E+00 -4.17268E+00 -5.41906E+00 -5.57683E+00 -4.50085E+00 -6.86411E+00 -4.71239E+00 -6.04473E+00 -3.44218E+00 -2.85057E+00
  -3.72247E+00 -2.21670E+00 -2.85575E+00 -3.51264E+00 -4.89040E+00 -1.34685E+00 -2.85028E+00 -2.92494E+00 -1.37728E+00 -1.95264E+00
  -2.21757E+00 -1.23674E+00 -3.87823E+00 -1.01064E+00 -1.98252E+00 -1.27554E+00 -3.55017E-01 -1.34315E+00  8.71292E-01  3.50718E-01
  -8.30586E-01  5.48359E-01 -2.52619E-01 -3.23988E-01  1.38671E+00  5.19483E-01 -1.09758E+00  2.92209E-01 -9.87333E-03  1.41709E+00
  -3.93776E-01  1.37896E+00  4.42118E-01  1.12236E+00  3.43143E+00  4.63286E-01  1.39232E+00  5.19088E-01  1.83803E+00  2.53230E-01
   1.22791E+00 -1.33872E-01  9.57679E-01  9.14841E-01  3.75526E-01  1.28074E+00  8.00019E-01  9.94111E-01 -4.00777E-01 -4.14224E-01
   9.81873E-01  1.47164E+00 -1.22606E+00 -5.29311E-01  1.06009E+00  1.81644E+00  1.54293E+00  8.18247E-01  1.29089E+00  1.24026E+00
  -1.71193E+00  2.10912E+00  8.25873E-01  1.66001E+00  5.11135E-01 -2.22873E-01  2.06073E+00 -1.31763E+00 -1.38871E+00 -1.16877E-01
  -2.01038E-01 -8.05946E-01 -8.55750E-01 -8.95257E-01 -5.77367E-01 -3.16805E-01 -8.19585E-01 -7.88880E-01  8.27249E-01  5.26109E-01
   5.49003E-01 -1.06047E+00  1.03541E+00 -1.24150E+00 -3.00732E-01 -7.49732E-01  2.52176E-02 -2.30038E+00 -1.71236E+00 -1.55052E+00
   5.14141E-01  6.84072E-01  1.56318E-01  1.14208E+00  2.53729E-01  1.47178E+00  5.96554E-01 -3.35263E-02  2.44639E-01 -2.00318E-01
  -1.62326E+00  1.83255E+00 -1.04997E+00 -4.39832E-01 -2.34761E-01  9.91823E-01  1.28071E+00  6.06260E-01 -3.64025E-01 -8.41816E-01
  -5.46103E-01  7.07573E-01 -1.56234E-01  2.17471E-02  9.25144E-01  1.15240E+00  6.87949E-01  3.92366E-01
 NY points of the fit to the data follow
   3.83972E+00  3.85064E+00  4.00813E+00  4.25784E+00  4.59146E+00  5.06575E+00  5.70609E+00  6.47254E+00  7.26579E+00  7.96127E+00
   8.47054E+00  8.77428E+00  8.90137E+00  8.89011E+00  8.76001E+00  8.48124E+00  8.00776E+00  7.38397E+00  6.69702E+00  6.05783E+00
   5.56794E+00  5.22800E+00  4.95545E+00  4.73553E+00  4.64655E+00  4.70611E+00  4.91243E+00  5.23242E+00  5.61363E+00  5.96670E+00
   6.21588E+00  6.34970E+00  6.40859E+00  6.43407E+00  6.40854E+00  6.28441E+00  6.05223E+00  5.75090E+00  5.44003E+00  5.15944E+00
   4.91328E+00  4.75766E+00  4.77981E+00  4.98106E+00  5.28486E+00  5.60910E+00  5.87973E+00  6.02688E+00  6.01566E+00  5.89212E+00
   5.73909E+00  5.56893E+00  5.35177E+00  5.06546E+00  4.73963E+00  4.43968E+00  4.21049E+00  4.06154E+00  3.97776E+00  3.93734E+00
   3.92570E+00  3.91712E+00  3.90335E+00  3.88482E+00  3.85826E+00  3.81568E+00  3.75719E+00  3.69721E+00  3.65323E+00  3.63350E+00
   3.63182E+00  3.64280E+00  3.66262E+00  3.68076E+00  3.69248E+00  3.69546E+00  3.71167E+00  3.74801E+00  3.76234E+00  3.74592E+00
   3.73450E+00  3.76680E+00  3.84923E+00  3.94628E+00  4.01438E+00  4.02093E+00  3.96482E+00  3.87404E+00  3.77291E+00  3.67184E+00
   3.55929E+00  3.42683E+00  3.37314E+00  3.58126E+00  3.94145E+00  4.32904E+00  4.77671E+00  5.42369E+00  6.37924E+00  7.56581E+00
   8.72795E+00  9.63103E+00  1.01744E+01  1.03932E+01  1.03982E+01  1.02765E+01  1.00069E+01  9.47718E+00  8.63929E+00  7.60555E+00
   6.56242E+00  5.64208E+00  4.86729E+00  4.23009E+00  3.78540E+00  3.60238E+00  3.59801E+00  3.91390E+00  4.55373E+00  5.27802E+00
   6.02379E+00  6.92875E+00  8.17254E+00  9.77983E+00  1.15319E+01  1.30855E+01  1.41976E+01  1.48190E+01  1.50503E+01  1.50341E+01
   1.48097E+01  1.42616E+01  1.32559E+01  1.18435E+01  1.02754E+01  8.81941E+00  7.59309E+00  6.58382E+00  5.78970E+00  5.31478E+00
   5.10155E+00  4.98177E+00  4.90670E+00  4.85737E+00  4.81829E+00  4.77788E+00  4.72340E+00  4.64264E+00  4.53973E+00  4.42609E+00
   4.30981E+00  4.18912E+00  4.06402E+00  3.95198E+00  3.86241E+00  3.79341E+00  3.72486E+00  3.63033E+00  3.51614E+00  3.41030E+00
   3.33607E+00  3.29349E+00  3.25905E+00  3.20526E+00  3.11916E+00  3.00820E+00  2.88709E+00  2.76450E+00  2.65650E+00  2.55074E+00
   2.42044E+00  2.25014E+00  2.05367E+00  1.87000E+00  1.72798E+00  1.63083E+00  1.56052E+00  1.49604E+00  1.43002E+00  1.38842E+00
   1.39599E+00  1.45449E+00  1.54134E+00  1.62208E+00  1.70042E+00  1.79789E+00  1.93393E+00  2.10399E+00  2.25536E+00  2.34631E+00
   2.40375E+00  2.47096E+00  2.56202E+00  2.66469E+00  2.81543E+00  3.04007E+00  3.33003E+00  3.66024E+00  3.97918E+00  4.20976E+00
   4.37264E+00  4.52737E+00  4.60670E+00  4.48757E+00  4.11628E+00  3.55780E+00  2.99238E+00  2.54347E+00  2.22909E+00  2.04783E+00
   2.00196E+00  2.11913E+00  2.41822E+00  2.88355E+00  3.46508E+00  4.05818E+00  4.53548E+00  4.80498E+00  4.87275E+00  4.79820E+00
   4.61522E+00  4.32916E+00  4.03247E+00  3.84413E+00  3.76471E+00  3.72190E+00  3.74304E+00  3.90938E+00  4.23498E+00  4.61756E+00
   4.94982E+00  5.18628E+00  5.33215E+00  5.44837E+00  5.57333E+00  5.71168E+00  5.84692E+00  5.91725E+00  5.86803E+00  5.73766E+00
   5.60798E+00  5.51203E+00  5.42865E+00  5.33029E+00  5.21952E+00  5.12681E+00  5.07971E+00  5.10691E+00  5.24716E+00  5.54677E+00
   6.24313E+00  7.63917E+00  9.30923E+00  1.08952E+01  1.24831E+01  1.44426E+01  1.70040E+01  1.99748E+01  2.28017E+01  2.49321E+01
   2.61214E+01  2.64649E+01  2.62428E+01  2.56626E+01  2.46585E+01  2.29593E+01  2.04747E+01  1.75196E+01  1.45921E+01  1.20227E+01
   9.84951E+00  8.06069E+00  6.81000E+00  6.21274E+00  5.89927E+00  5.68486E+00  5.53226E+00  5.42453E+00  5.34634E+00  5.29415E+00
   5.26357E+00  5.25343E+00  5.26472E+00  5.29775E+00  5.35133E+00  5.42737E+00  5.52806E+00  5.65098E+00  5.79041E+00  5.94056E+00
   6.09627E+00  6.25246E+00  6.40326E+00  6.54275E+00  6.66665E+00  6.77050E+00  6.84962E+00  6.89988E+00  6.91792E+00  6.90131E+00
   6.84839E+00  6.75852E+00  6.63221E+00  6.47109E+00  6.27788E+00  6.05654E+00  5.81198E+00  5.54992E+00  5.27669E+00  4.99936E+00
   4.72555E+00  4.46355E+00  4.22215E+00  4.01104E+00  3.84166E+00  3.73043E+00  3.70935E+00  3.81092E+00  3.94892E+00  4.06645E+00
   4.19897E+00  4.38981E+00  4.62115E+00  4.79503E+00  4.79696E+00  4.65699E+00  4.44539E+00  4.17464E+00  3.86764E+00  3.57557E+00
   3.35792E+00  3.25203E+00  3.27345E+00  3.42383E+00  3.67758E+00  3.97641E+00  4.26145E+00  4.52007E+00  4.77121E+00  4.98385E+00
   5.01062E+00  4.77751E+00  4.32779E+00  3.74591E+00  3.09688E+00  2.40822E+00  1.70357E+00  1.06086E+00  5.09255E-01  2.10795E-02
  -4.16856E-01 -8.10082E-01 -1.16191E+00 -1.47495E+00 -1.75179E+00 -1.99506E+00 -2.20755E+00 -2.39215E+00 -2.55176E+00 -2.68918E+00
  -2.80708E+00 -2.90785E+00 -2.99372E+00 -3.06666E+00 -3.12844E+00 -3.18053E+00 -3.22417E+00 -3.26033E+00 -3.28986E+00 -3.31339E+00
  -3.33144E+00 -3.34435E+00 -3.35237E+00 -3.35562E+00 -3.35422E+00 -3.34815E+00 -3.33738E+00 -3.32174E+00 -3.30107E+00 -3.27510E+00
  -3.24357E+00 -3.20611E+00 -3.16232E+00 -3.11171E+00 -3.05374E+00 -2.98781E+00 -2.91332E+00 -2.82955E+00 -2.73580E+00 -2.63132E+00
  -2.51538E+00 -2.38732E+00 -2.24656E+00 -2.09262E+00 -1.92523E+00 -1.74429E+00 -1.55008E+00 -1.34317E+00 -1.12458E+00 -8.95720E-01
  -6.58485E-01 -4.15230E-01 -1.68812E-01  7.75230E-02  3.20157E-01  5.55258E-01  7.78822E-01  9.86874E-01  1.17555E+00  1.34133E+00
   1.48113E+00  1.59251E+00  1.67367E+00  1.72366E+00  1.74230E+00  1.73028E+00  1.68905E+00  1.62085E+00  1.52846E+00  1.41515E+00
   1.28454E+00  1.14043E+00  9.86643E-01  8.26925E-01  6.64754E-01  5.03320E-01  3.45393E-01  1.93359E-01  4.91137E-02 -8.58573E-02
  -2.10541E-01 -3.24273E-01 -4.26759E-01 -5.17952E-01 -5.98075E-01 -6.67510E-01 -7.26812E-01 -7.76588E-01 -8.17530E-01 -8.50313E-01
  -8.75653E-01 -8.94222E-01 -9.06696E-01 -9.13674E-01 -9.15734E-01 -9.13378E-01 -9.07101E-01 -8.97325E-01 -8.84463E-01 -8.68845E-01
  -8.50797E-01 -8.30580E-01 -8.08471E-01 -7.84678E-01 -7.59397E-01 -7.32759E-01 -7.04910E-01 -6.75954E-01 -6.46022E-01 -6.15194E-01
  -5.83572E-01 -5.51204E-01 -5.18173E-01 -4.84521E-01 -4.50327E-01 -4.15623E-01 -3.80464E-01 -3.44863E-01 -3.08870E-01 -2.72503E-01
  -2.35813E-01 -1.98805E-01 -1.61512E-01 -1.23929E-01 -8.60933E-02 -4.80086E-02 -9.70932E-03  2.88136E-02  6.75401E-02  1.06481E-01
   1.45607E-01  1.84921E-01  2.24398E-01  2.64059E-01  3.03887E-01  3.43897E-01  3.84061E-01  4.24391E-01  4.64869E-01  5.05520E-01
   5.46333E-01  5.87320E-01  6.28457E-01  6.69761E-01  7.11222E-01  7.52869E-01  7.94689E-01  8.36699E-01
 NY background values follow
     2.638E+00    2.638E+00    2.638E+00    2.638E+00    2.639E+00    2.639E+00    2.639E+00    2.639E+00    2.640E+00    2.640E+00
     2.640E+00    2.641E+00    2.641E+00    2.642E+00    2.642E+00    2.643E+00    2.643E+00    2.644E+00    2.644E+00    2.645E+00
     2.646E+00    2.647E+00    2.647E+00    2.648E+00    2.649E+00    2.650E+00    2.651E+00    2.652E+00    2.653E+00    2.654E+00
     2.656E+00    2.657E+00    2.658E+00    2.660E+00    2.661E+00    2.663E+00    2.664E+00    2.666E+00    2.667E+00    2.669E+00
     2.671E+00    2.673E+00    2.675E+00    2.677E+00    2.679E+00    2.682E+00    2.684E+00    2.686E+00    2.689E+00    2.692E+00
     2.694E+00    2.697E+00    2.700E+00    2.703E+00    2.706E+00    2.709E+00    2.712E+00    2.716E+00    2.719E+00    2.722E+00
     2.726E+00    2.730E+00    2.733E+00    2.737E+00    2.741E+00    2.745E+00    2.749E+00    2.753E+00    2.758E+00    2.762E+00
     2.767E+00    2.771E+00    2.776E+00    2.781E+00    2.785E+00    2.790E+00    2.796E+00    2.801E+00    2.806E+00    2.811E+00
     2.817E+00    2.822E+00    2.828E+00    2.834E+00    2.840E+00    2.845E+00    2.852E+00    2.858E+00    2.864E+00    2.870E+00
     2.877E+00    2.883E+00    2.890E+00    2.897E+00    2.904E+00    2.910E+00    2.917E+00    2.925E+00    2.932E+00    2.939E+00
     2.946E+00    2.953E+00    2.961E+00    2.968E+00    2.975E+00    2.983E+00    2.990E+00    2.998E+00    3.005E+00    3.013E+00
     3.020E+00    3.027E+00    3.035E+00    3.042E+00    3.049E+00    3.057E+00    3.064E+00    3.071E+00    3.078E+00    3.085E+00
     3.092E+00    3.099E+00    3.106E+00    3.113E+00    3.120E+00    3.126E+00    3.133E+00    3.139E+00    3.145E+00    3.151E+00
     3.157E+00    3.163E+00    3.169E+00    3.174E+00    3.180E+00    3.185E+00    3.190E+00    3.195E+00    3.199E+00    3.204E+00
     3.208E+00    3.213E+00    3.217E+00    3.220E+00    3.224E+00    3.228E+00    3.231E+00    3.234E+00    3.237E+00    3.240E+00
     3.242E+00    3.245E+00    3.247E+00    3.249E+00    3.251E+00    3.252E+00    3.254E+00    3.255E+00    3.256E+00    3.257E+00
     3.258E+00    3.258E+00    3.258E+00    3.258E+00    3.258E+00    3.258E+00    3.257E+00    3.257E+00    3.256E+00    3.255E+00
     3.253E+00    3.252E+00    3.250E+00    3.248E+00    3.246E+00    3.243E+00    3.241E+00    3.238E+00    3.235E+00    3.232E+00
     3.228E+00    3.224E+00    3.221E+00    3.216E+00    3.212E+00    3.207E+00    3.202E+00    3.197E+00    3.192E+00    3.186E+00
     3.180E+00    3.173E+00    3.166E+00    3.159E+00    3.151E+00    3.143E+00    3.135E+00    3.126E+00    3.117E+00    3.107E+00
     3.097E+00    3.086E+00    3.075E+00    3.063E+00    3.051E+00    3.038E+00    3.025E+00    3.011E+00    2.997E+00    2.981E+00
     2.966E+00    2.950E+00    2.933E+00    2.915E+00    2.897E+00    2.878E+00    2.859E+00    2.838E+00    2.817E+00    2.796E+00
     2.773E+00    2.750E+00    2.726E+00    2.701E+00    2.676E+00    2.650E+00    2.623E+00    2.595E+00    2.566E+00    2.536E+00
     2.506E+00    2.475E+00    2.443E+00    2.410E+00    2.376E+00    2.342E+00    2.307E+00    2.271E+00    2.234E+00    2.197E+00
     2.159E+00    2.120E+00    2.081E+00    2.041E+00    2.000E+00    1.958E+00    1.916E+00    1.873E+00    1.829E+00    1.785E+00
     1.740E+00    1.695E+00    1.649E+00    1.602E+00    1.555E+00    1.507E+00    1.458E+00    1.409E+00    1.359E+00    1.309E+00
     1.258E+00    1.206E+00    1.154E+00    1.102E+00    1.049E+00    9.950E-01    9.408E-01    8.862E-01    8.310E-01    7.754E-01
     7.193E-01    6.626E-01    6.056E-01    5.480E-01    4.900E-01    4.316E-01    3.728E-01    3.136E-01    2.540E-01    1.940E-01
     1.336E-01    7.296E-02    1.194E-02   -4.940E-02   -1.110E-01   -1.730E-01   -2.352E-01   -2.976E-01   -3.603E-01   -4.233E-01
    -4.864E-01   -5.498E-01   -6.134E-01   -6.771E-01   -7.410E-01   -8.050E-01   -8.692E-01   -9.335E-01   -9.979E-01   -1.062E+00
    -1.127E+00   -1.192E+00   -1.256E+00   -1.321E+00   -1.386E+00   -1.451E+00   -1.515E+00   -1.580E+00   -1.645E+00   -1.709E+00
    -1.774E+00   -1.839E+00   -1.903E+00   -1.967E+00   -2.032E+00   -2.096E+00   -2.160E+00   -2.223E+00   -2.287E+00   -2.350E+00
    -2.413E+00   -2.476E+00   -2.539E+00   -2.601E+00   -2.662E+00   -2.724E+00   -2.784E+00   -2.845E+00   -2.904E+00   -2.964E+00
    -3.022E+00   -3.080E+00   -3.137E+00   -3.194E+00   -3.249E+00   -3.304E+00   -3.358E+00   -3.412E+00   -3.464E+00   -3.515E+00
    -3.566E+00   -3.615E+00   -3.663E+00   -3.711E+00   -3.757E+00   -3.802E+00   -3.846E+00   -3.888E+00   -3.930E+00   -3.970E+00
    -4.008E+00   -4.046E+00   -4.082E+00   -4.116E+00   -4.149E+00   -4.181E+00   -4.211E+00   -4.239E+00   -4.266E+00   -4.291E+00
    -4.315E+00   -4.337E+00   -4.357E+00   -4.375E+00   -4.391E+00   -4.406E+00   -4.419E+00   -4.431E+00   -4.440E+00   -4.449E+00
    -4.455E+00   -4.460E+00   -4.463E+00   -4.465E+00   -4.465E+00   -4.464E+00   -4.461E+00   -4.457E+00   -4.452E+00   -4.445E+00
    -4.436E+00   -4.426E+00   -4.415E+00   -4.403E+00   -4.389E+00   -4.374E+00   -4.357E+00   -4.340E+00   -4.321E+00   -4.301E+00
    -4.279E+00   -4.257E+00   -4.233E+00   -4.209E+00   -4.183E+00   -4.156E+00   -4.128E+00   -4.099E+00   -4.069E+00   -4.038E+00
    -4.006E+00   -3.973E+00   -3.939E+00   -3.904E+00   -3.869E+00   -3.832E+00   -3.795E+00   -3.756E+00   -3.717E+00   -3.678E+00
    -3.637E+00   -3.596E+00   -3.554E+00   -3.511E+00   -3.468E+00   -3.424E+00   -3.379E+00   -3.334E+00   -3.288E+00   -3.242E+00
    -3.195E+00   -3.148E+00   -3.100E+00   -3.052E+00   -3.003E+00   -2.954E+00   -2.904E+00   -2.855E+00   -2.804E+00   -2.754E+00
    -2.703E+00   -2.652E+00   -2.601E+00   -2.550E+00   -2.498E+00   -2.446E+00   -2.394E+00   -2.342E+00   -2.290E+00   -2.238E+00
    -2.186E+00   -2.133E+00   -2.081E+00   -2.029E+00   -1.977E+00   -1.925E+00   -1.873E+00   -1.821E+00   -1.769E+00   -1.717E+00
    -1.666E+00   -1.615E+00   -1.564E+00   -1.513E+00   -1.463E+00   -1.412E+00   -1.362E+00   -1.313E+00   -1.263E+00   -1.214E+00
    -1.165E+00   -1.116E+00   -1.067E+00   -1.019E+00   -9.703E-01   -9.221E-01   -8.741E-01   -8.263E-01   -7.786E-01   -7.310E-01
    -6.836E-01   -6.363E-01   -5.891E-01   -5.421E-01   -4.951E-01   -4.483E-01   -4.015E-01   -3.548E-01   -3.082E-01   -2.617E-01
    -2.152E-01   -1.688E-01   -1.225E-01   -7.617E-02   -2.989E-02    1.636E-02    6.259E-02    1.088E-01    1.550E-01    2.012E-01
     2.474E-01    2.937E-01    3.399E-01    3.862E-01    4.325E-01    4.789E-01    5.253E-01    5.718E-01
 Ala      Conc. = 3.44E+02
