 LCModel (Version 6.3-1L) Copyright: S.W. Provencher.          Ref.: Magn. Reson. Med. 30:672-679 (1993).                
 Slice#1 Row#8 Col#3  PD_05_press_1_raw_act
 36 lines in following concentration table = NCONC+1
    Conc.  %SD /Cr+PCr  Metabolite                                         
  202.823  39%   0.325 Ala                                                 
   67.758 176%   0.109 Asp                                                 
    0.000 999%   0.000 Cr                                                  
  623.604   6%   1.000 PCr                                                 
   16.997 474% 2.7E-02 GABA                                                
   79.169  98%   0.127 Glc                                                 
  588.988  31%   0.944 Gln                                                 
 1.19E+03  18%   1.906 Glu                                                 
  205.849   7%   0.330 GPC                                                 
    0.000 999%   0.000 PCh                                                 
  169.813  30%   0.272 GSH                                                 
  337.900  50%   0.542 Ins                                                 
    0.000 999%   0.000 Lac                                                 
 1.30E+03   7%   2.086 NAA                                                 
   71.867 135%   0.115 NAAG                                                
   78.707  21%   0.126 Scyllo                                              
  371.821  30%   0.596 Tau                                                 
  366.701  18%   0.588 -CrCH2                                              
  205.849   7%   0.330 GPC+PCh                                             
 1.37E+03   4%   2.202 NAA+NAAG                                            
  623.604   6%   1.000 Cr+PCr                                              
 1.78E+03  18%   2.851 Glu+Gln                                             
    0.000 999%   0.000 Lip13a                                              
   76.603  75%   0.123 Lip13b                                              
    0.000 999%   0.000 Lip09                                               
  493.234  20%   0.791 MM09                                                
   25.856 166% 4.1E-02 Lip20                                               
 1.25E+03  15%   2.011 MM20                                                
  144.526  41%   0.232 MM12                                                
  443.080  32%   0.711 MM14                                                
  181.722  60%   0.291 MM17                                                
   76.603  75%   0.123 Lip13a+Lip13b                                       
  664.208  25%   1.065 MM14+Lip13a+Lip13b+MM12                             
  493.234  20%   0.791 MM09+Lip09                                          
 1.28E+03  15%   2.053 MM20+Lip20                                          
   6 lines in following misc. output table
  FWHM = 0.061 ppm    S/N =  10                                            
  Data shift = 0.008 ppm                                                   
  Ph: -89 deg     -28.2 deg/ppm                                            
  alphaB,S = 1.0E+00,   1.6E+02                                            
   14 spline knots.   Ns = 8(1)                                            
  (15) 2 infls.   (11) 1 extrs.                                            
  498 points on ppm-axis = NY
      4.000000     3.992357     3.984714     3.977070     3.969427     3.961784     3.954141     3.946497     3.938854     3.931211
      3.923568     3.915925     3.908281     3.900638     3.892995     3.885352     3.877708     3.870065     3.862422     3.854779
      3.847136     3.839492     3.831849     3.824206     3.816563     3.808919     3.801276     3.793633     3.785990     3.778347
      3.770703     3.763060     3.755417     3.747774     3.740130     3.732487     3.724844     3.717201     3.709558     3.701914
      3.694271     3.686628     3.678985     3.671341     3.663698     3.656055     3.648412     3.640769     3.633125     3.625482
      3.617839     3.610196     3.602552     3.594909     3.587266     3.579623     3.571980     3.564336     3.556693     3.549050
      3.541407     3.533763     3.526120     3.518477     3.510834     3.503191     3.495547     3.487904     3.480261     3.472618
      3.464974     3.457331     3.449688     3.442045     3.434402     3.426758     3.419115     3.411472     3.403829     3.396185
      3.388542     3.380899     3.373256     3.365613     3.357969     3.350326     3.342683     3.335040     3.327396     3.319753
      3.312110     3.304467     3.296824     3.289180     3.281537     3.273894     3.266251     3.258607     3.250964     3.243321
      3.235678     3.228034     3.220391     3.212748     3.205105     3.197462     3.189818     3.182175     3.174532     3.166889
      3.159245     3.151602     3.143959     3.136316     3.128673     3.121029     3.113386     3.105743     3.098100     3.090456
      3.082813     3.075170     3.067527     3.059884     3.052240     3.044597     3.036954     3.029311     3.021667     3.014024
      3.006381     2.998738     2.991095     2.983451     2.975808     2.968165     2.960522     2.952878     2.945235     2.937592
      2.929949     2.922306     2.914662     2.907019     2.899376     2.891733     2.884089     2.876446     2.868803     2.861160
      2.853517     2.845873     2.838230     2.830587     2.822944     2.815300     2.807657     2.800014     2.792371     2.784728
      2.777084     2.769441     2.761798     2.754155     2.746511     2.738868     2.731225     2.723582     2.715939     2.708295
      2.700652     2.693009     2.685366     2.677722     2.670079     2.662436     2.654793     2.647150     2.639506     2.631863
      2.624220     2.616577     2.608933     2.601290     2.593647     2.586004     2.578361     2.570717     2.563074     2.555431
      2.547788     2.540144     2.532501     2.524858     2.517215     2.509572     2.501928     2.494285     2.486642     2.478999
      2.471355     2.463712     2.456069     2.448426     2.440783     2.433139     2.425496     2.417853     2.410210     2.402566
      2.394923     2.387280     2.379637     2.371994     2.364350     2.356707     2.349064     2.341421     2.333777     2.326134
      2.318491     2.310848     2.303205     2.295561     2.287918     2.280275     2.272632     2.264988     2.257345     2.249702
      2.242059     2.234416     2.226772     2.219129     2.211486     2.203843     2.196199     2.188556     2.180913     2.173270
      2.165627     2.157983     2.150340     2.142697     2.135054     2.127410     2.119767     2.112124     2.104481     2.096838
      2.089194     2.081551     2.073908     2.066265     2.058621     2.050978     2.043335     2.035692     2.028049     2.020405
      2.012762     2.005119     1.997476     1.989833     1.982190     1.974546     1.966903     1.959260     1.951617     1.943974
      1.936331     1.928688     1.921045     1.913402     1.905759     1.898115     1.890472     1.882829     1.875186     1.867543
      1.859900     1.852257     1.844614     1.836971     1.829327     1.821684     1.814041     1.806398     1.798755     1.791112
      1.783469     1.775826     1.768183     1.760540     1.752896     1.745253     1.737610     1.729967     1.722324     1.714681
      1.707038     1.699395     1.691752     1.684108     1.676465     1.668822     1.661179     1.653536     1.645893     1.638250
      1.630607     1.622964     1.615321     1.607677     1.600034     1.592391     1.584748     1.577105     1.569462     1.561819
      1.554176     1.546533     1.538890     1.531246     1.523603     1.515960     1.508317     1.500674     1.493031     1.485388
      1.477745     1.470102     1.462458     1.454815     1.447172     1.439529     1.431886     1.424243     1.416600     1.408957
      1.401314     1.393671     1.386027     1.378384     1.370741     1.363098     1.355455     1.347812     1.340169     1.332526
      1.324883     1.317240     1.309596     1.301953     1.294310     1.286667     1.279024     1.271381     1.263738     1.256095
      1.248452     1.240808     1.233165     1.225522     1.217879     1.210236     1.202593     1.194950     1.187307     1.179664
      1.172021     1.164377     1.156734     1.149091     1.141448     1.133805     1.126162     1.118519     1.110876     1.103233
      1.095590     1.087946     1.080303     1.072660     1.065017     1.057374     1.049731     1.042088     1.034445     1.026802
      1.019158     1.011515     1.003872     0.996229     0.988586     0.980943     0.973300     0.965657     0.958014     0.950371
      0.942727     0.935084     0.927441     0.919798     0.912155     0.904512     0.896869     0.889226     0.881583     0.873940
      0.866296     0.858653     0.851010     0.843367     0.835724     0.828081     0.820438     0.812795     0.805152     0.797508
      0.789865     0.782222     0.774579     0.766936     0.759293     0.751650     0.744007     0.736364     0.728721     0.721077
      0.713434     0.705791     0.698148     0.690505     0.682862     0.675219     0.667576     0.659933     0.652290     0.644646
      0.637003     0.629360     0.621717     0.614074     0.606431     0.598788     0.591145     0.583502     0.575858     0.568215
      0.560572     0.552929     0.545286     0.537643     0.530000     0.522357     0.514714     0.507071     0.499427     0.491784
      0.484141     0.476498     0.468855     0.461212     0.453569     0.445925     0.438282     0.430639     0.422996     0.415353
      0.407710     0.400067     0.392424     0.384780     0.377137     0.369494     0.361851     0.354208     0.346565     0.338922
      0.331278     0.323635     0.315992     0.308349     0.300706     0.293063     0.285420     0.277777     0.270133     0.262490
      0.254847     0.247204     0.239561     0.231918     0.224275     0.216631     0.208988     0.201345
 NY phased data points follow
  -2.21684E+01 -2.22320E+01 -2.12524E+01 -2.00596E+01 -1.97193E+01 -1.47218E+01 -1.63729E+01 -1.59987E+01 -1.42880E+01 -1.36841E+01
  -1.36917E+01 -1.40540E+01 -1.60516E+01 -1.52643E+01 -1.94400E+01 -1.97548E+01 -1.98888E+01 -1.83255E+01 -1.83340E+01 -1.95322E+01
  -1.99538E+01 -1.81078E+01 -1.45964E+01 -1.63876E+01 -1.92829E+01 -1.43479E+01 -1.52674E+01 -1.91191E+01 -1.41788E+01 -1.16785E+01
  -1.24315E+01 -1.36010E+01 -1.39716E+01 -1.22621E+01 -1.49434E+01 -1.72509E+01 -1.49850E+01 -1.69980E+01 -9.55815E+00 -1.57689E+01
  -1.31677E+01 -1.52529E+01 -1.42341E+01 -1.49466E+01 -1.21308E+01 -9.16732E+00 -1.13657E+01 -1.09952E+01 -1.21129E+01 -1.23742E+01
  -1.32921E+01 -1.38010E+01 -1.72341E+01 -1.37271E+01 -1.37206E+01 -1.25706E+01 -1.48345E+01 -1.15216E+01 -1.31738E+01 -1.39575E+01
  -1.21126E+01 -1.33145E+01 -1.17626E+01 -1.44565E+01 -1.23499E+01 -1.67065E+01 -1.58389E+01 -1.27110E+01 -1.24173E+01 -1.33797E+01
  -1.20479E+01 -1.44993E+01 -9.84780E+00 -1.18654E+01 -1.17483E+01 -1.03793E+01 -1.08780E+01 -9.03640E+00 -8.49096E+00 -1.16931E+01
  -1.01394E+01 -7.86756E+00 -1.06749E+01 -9.30265E+00 -5.04293E+00 -9.66706E+00 -8.75861E+00 -6.24573E+00 -8.33367E+00 -5.97504E+00
  -9.31280E+00 -8.75644E+00 -6.97955E+00 -4.70831E+00 -5.73288E+00 -5.42327E+00 -4.55260E+00 -3.82704E+00  1.99957E+00  1.77687E+00
   4.98677E+00  9.53575E+00  5.70603E+00  3.62893E+00  4.50567E+00  5.57532E+00  9.60166E-02 -5.86310E+00 -7.90933E+00 -2.54396E+00
  -6.06705E+00 -5.50855E+00 -5.23152E+00 -4.40554E+00 -7.10458E+00 -5.55597E+00 -5.91841E+00 -5.03066E+00 -5.23591E+00 -5.51765E+00
  -4.18712E+00 -1.75659E+00 -5.30767E-01  3.46581E+00  6.64001E+00  6.47160E+00  9.94804E+00  1.05456E+01  8.91912E+00  8.68138E+00
   4.42135E+00  2.92624E+00 -2.75058E+00 -3.24487E+00 -3.70301E+00 -3.50763E+00 -6.46410E+00 -5.85199E+00 -5.50490E+00 -6.92605E+00
  -8.60332E+00 -7.40190E+00 -4.18754E+00 -5.81652E+00 -9.45913E+00 -4.76375E+00 -8.04305E+00 -6.29667E+00 -3.32755E+00 -4.25693E+00
  -6.28102E+00 -6.78123E+00 -5.86458E+00 -3.07846E+00 -3.98426E+00 -7.20627E+00 -7.88543E+00 -6.29612E+00 -5.17308E+00 -6.64738E+00
  -2.79044E+00 -6.55030E+00 -8.55327E+00 -8.17747E+00 -7.90804E+00 -6.26626E+00 -7.89241E+00 -7.99096E+00 -6.30235E+00 -7.32891E+00
  -8.47195E+00 -8.90385E+00 -1.05262E+01 -1.10667E+01 -1.17716E+01 -1.18353E+01 -9.49911E+00 -9.02557E+00 -1.05548E+01 -7.28498E+00
  -8.01084E+00 -8.12239E+00 -1.06488E+01 -3.54850E+00 -6.44335E+00 -3.71536E+00 -7.93699E+00 -6.06318E+00 -4.36495E+00 -2.99710E+00
  -5.38806E+00 -3.77702E+00 -5.95248E+00 -8.27725E+00 -5.85257E+00 -5.07066E+00 -2.61310E+00 -5.55568E+00 -4.97896E+00 -3.79235E+00
  -7.24069E+00 -3.54745E-01  8.04855E-01  4.81874E-01  1.94436E+00  1.22587E+00 -1.24047E+00 -3.16966E+00 -2.67032E+00 -3.30271E+00
  -2.94002E+00  1.98132E+00 -1.47291E+00  3.25503E+00  4.47377E+00  4.52168E+00  2.44210E+00  4.48107E+00  2.37341E+00  4.98212E-01
  -7.24355E-01 -1.98835E+00 -5.36072E+00 -2.81594E+00 -2.52236E+00 -1.85094E+00  4.49657E+00  3.47449E+00  2.00213E+00  3.55909E+00
   5.38692E+00  2.77822E+00  3.26119E+00  8.68457E-01  2.14545E+00  2.07763E+00  4.17468E+00  1.89841E+00  2.73984E+00  1.69658E+00
   4.83690E-01  1.04371E+00  4.81628E+00  1.50850E-01  4.89222E+00  3.08432E+00  4.80585E+00  6.71645E+00  6.21782E+00  4.46744E+00
   7.60641E+00  5.73940E+00  1.17387E+01  1.20594E+01  1.71688E+01  2.20703E+01  2.62291E+01  2.93541E+01  3.51409E+01  3.99666E+01
   4.12434E+01  4.39142E+01  3.85302E+01  3.27626E+01  2.70946E+01  1.84922E+01  1.36106E+01  1.12907E+01  8.31888E+00  7.39346E+00
   6.36151E+00  5.01470E+00  4.22285E+00  5.15454E+00  7.13964E+00  6.95482E+00  3.89915E+00  3.03907E+00  4.73804E+00  5.49752E+00
   4.00810E+00  3.43772E+00  2.44926E+00  2.34539E+00  3.78801E+00  3.63369E+00  2.74708E+00  3.06070E+00  3.35621E+00  4.75240E+00
   6.25057E+00  3.16497E+00  3.95533E+00  2.33354E+00  1.40938E+00  4.01587E+00  1.48983E+00  2.03665E+00  5.27591E+00  3.61039E+00
   2.67454E+00  2.53498E+00  4.84330E+00 -1.37969E+00  5.12767E+00  2.62149E+00  2.75646E+00  1.40366E+00 -7.86037E-01  4.89707E+00
   4.46595E+00  5.36603E+00  5.57476E+00  5.09519E+00  2.17862E+00  3.86794E+00  1.49472E+00  1.63188E+00  6.18371E+00  4.38902E+00
   5.90611E+00  7.26611E+00  2.86065E+00  5.91255E+00  4.44711E+00  5.27378E+00  4.44953E+00  2.58682E+00  5.27626E+00  3.18159E+00
   5.37286E+00  1.30924E+00  3.93373E-01  4.84261E+00  6.74441E+00  3.35541E+00  3.63139E+00  4.39272E+00  6.70318E+00  5.65493E+00
   6.85626E+00  6.20604E+00  5.12295E+00  7.62217E+00  5.88539E+00  7.34528E+00  5.21092E+00  6.99953E+00  7.61320E+00  4.73336E+00
   1.51966E+00  4.66360E+00  9.70981E+00  5.92675E+00  7.70745E+00  9.07633E+00  4.05323E+00  4.82807E+00  3.52025E+00  2.71811E+00
   1.19315E+00  2.46345E+00  3.91672E+00  6.17227E+00  4.03029E+00  1.70913E+00  5.18337E+00  5.95816E+00  4.54052E+00  3.76870E+00
   4.29231E+00  5.19818E+00  3.29180E+00  4.74668E+00  5.39356E+00  5.56080E+00  1.62536E+00  5.13672E+00  5.20235E+00  8.69150E+00
   4.90953E+00  5.59248E+00  7.03157E+00  3.38841E+00  5.83561E+00  4.62600E+00  6.12596E+00  4.41142E+00  6.90880E+00  5.60145E+00
   1.55793E+00  1.04322E+01  6.65992E+00  3.75323E+00  4.46276E+00  4.58512E+00  8.64230E+00  7.25777E+00  5.32849E+00  6.79243E+00
   6.30809E+00  6.13332E+00  4.85305E+00  9.23050E+00  4.30248E+00  9.12388E+00  4.18490E+00  4.98453E+00  4.58641E+00  6.38334E+00
   3.02547E+00  6.47601E+00  4.05459E+00  4.02894E+00  6.47120E+00  5.15605E+00  4.40923E+00  3.54844E+00  6.31259E+00  4.48281E+00
   1.32138E+00  3.57595E+00  3.30395E+00  5.21818E+00  4.01925E+00  6.47274E+00  4.34061E+00  4.56937E+00  4.90623E+00  5.22890E+00
   3.42226E+00  2.81562E+00  2.42349E+00  3.17299E+00  4.96592E+00  4.35200E+00  2.34724E+00  1.81458E+00  1.24145E-01  4.05491E+00
   4.86085E+00  4.12073E+00  3.13660E+00  3.86183E+00  2.35467E+00  4.78221E+00  1.85178E+00  4.16433E+00  3.79559E+00  2.96482E+00
   4.50469E+00  5.91973E+00  4.22001E+00  6.44977E+00  2.40855E+00  3.50004E+00  2.75068E+00  2.90591E+00  8.04158E+00  5.30207E+00
   5.77164E+00  5.92539E+00  4.32932E+00  4.78994E+00  3.58785E+00  4.78865E+00  5.03836E+00  6.50143E+00  4.31386E+00  2.84333E+00
   3.24794E+00  3.81822E+00  4.54397E+00  3.00798E+00  4.91368E+00  5.53951E+00  6.41362E+00  3.04843E+00  7.96887E+00  3.55839E+00
   3.32736E+00  4.01300E+00  4.73204E+00  3.20174E+00  4.36704E+00  4.38154E+00  3.27857E+00  3.69889E+00  6.36086E+00  5.43187E+00
   5.92900E+00  4.75558E+00  1.73532E+00  6.35144E+00  4.56818E+00  5.01447E+00  5.57245E+00  3.60580E+00
 NY points of the fit to the data follow
  -2.04648E+01 -2.00245E+01 -1.93820E+01 -1.86153E+01 -1.77676E+01 -1.68668E+01 -1.59625E+01 -1.51536E+01 -1.45590E+01 -1.42889E+01
  -1.43928E+01 -1.48250E+01 -1.54721E+01 -1.61680E+01 -1.67393E+01 -1.71055E+01 -1.73162E+01 -1.74296E+01 -1.74529E+01 -1.73367E+01
  -1.72189E+01 -1.71140E+01 -1.69212E+01 -1.67112E+01 -1.64874E+01 -1.61980E+01 -1.57885E+01 -1.52278E+01 -1.45529E+01 -1.37994E+01
  -1.30479E+01 -1.24254E+01 -1.20714E+01 -1.21206E+01 -1.25952E+01 -1.33514E+01 -1.41955E+01 -1.49346E+01 -1.54493E+01 -1.56018E+01
  -1.53394E+01 -1.48469E+01 -1.42829E+01 -1.37370E+01 -1.32530E+01 -1.28570E+01 -1.25888E+01 -1.24619E+01 -1.25030E+01 -1.27306E+01
  -1.30966E+01 -1.34933E+01 -1.38177E+01 -1.40193E+01 -1.40967E+01 -1.40737E+01 -1.39874E+01 -1.38547E+01 -1.36771E+01 -1.34662E+01
  -1.32795E+01 -1.31276E+01 -1.30175E+01 -1.29518E+01 -1.28916E+01 -1.28031E+01 -1.26899E+01 -1.25405E+01 -1.23235E+01 -1.20744E+01
  -1.18326E+01 -1.15979E+01 -1.13708E+01 -1.11682E+01 -1.09989E+01 -1.08927E+01 -1.08900E+01 -1.09754E+01 -1.10282E+01 -1.09077E+01
  -1.06500E+01 -1.02488E+01 -9.67270E+00 -8.97968E+00 -8.29843E+00 -7.74628E+00 -7.42730E+00 -7.42905E+00 -7.72744E+00 -8.24265E+00
  -8.86310E+00 -9.40343E+00 -9.71420E+00 -9.60442E+00 -8.66192E+00 -7.05154E+00 -5.04648E+00 -2.67128E+00 -3.19002E-02  2.64736E+00
   5.03608E+00  6.70972E+00  7.30070E+00  6.66046E+00  4.91406E+00  2.39806E+00 -3.83607E-01 -2.85759E+00 -4.66172E+00 -5.89109E+00
  -6.91580E+00 -7.80742E+00 -8.25264E+00 -8.38875E+00 -8.44070E+00 -8.43960E+00 -8.38044E+00 -8.22776E+00 -7.68315E+00 -6.29131E+00
  -4.36047E+00 -2.17149E+00  2.47840E-01  2.88731E+00  5.58623E+00  8.01126E+00  9.69653E+00  1.02143E+01  9.40780E+00  7.42490E+00
   4.64030E+00  1.65510E+00 -8.99576E-01 -2.74499E+00 -4.10447E+00 -5.30497E+00 -6.24744E+00 -6.60553E+00 -6.62747E+00 -6.50348E+00
  -6.31773E+00 -6.14335E+00 -6.02654E+00 -5.96850E+00 -5.95874E+00 -5.99220E+00 -6.04941E+00 -6.11566E+00 -6.18456E+00 -6.24636E+00
  -6.29514E+00 -6.31905E+00 -6.32403E+00 -6.34984E+00 -6.40392E+00 -6.46306E+00 -6.51334E+00 -6.54098E+00 -6.56734E+00 -6.61262E+00
  -6.65786E+00 -6.66977E+00 -6.62863E+00 -6.53997E+00 -6.43495E+00 -6.35958E+00 -6.35728E+00 -6.45352E+00 -6.64261E+00 -6.86922E+00
  -7.04095E+00 -7.15271E+00 -7.24103E+00 -7.34386E+00 -7.44975E+00 -7.48709E+00 -7.43513E+00 -7.31911E+00 -7.17083E+00 -7.03618E+00
  -6.91741E+00 -6.77505E+00 -6.59135E+00 -6.33980E+00 -5.98713E+00 -5.54274E+00 -5.06422E+00 -4.57942E+00 -4.08563E+00 -3.60514E+00
  -3.20859E+00 -2.97178E+00 -2.92107E+00 -2.99060E+00 -3.07143E+00 -3.06006E+00 -2.87585E+00 -2.49785E+00 -1.94437E+00 -1.27689E+00
  -6.04933E-01 -4.56003E-02  1.96852E-01  8.33698E-02 -3.64824E-01 -1.15510E+00 -2.18716E+00 -3.22229E+00 -3.93479E+00 -4.14295E+00
  -3.82647E+00 -2.97177E+00 -1.68238E+00 -2.15731E-01  1.03580E+00  1.70029E+00  1.65368E+00  9.87116E-01 -1.66914E-01 -1.60249E+00
  -3.05669E+00 -4.07501E+00 -4.33256E+00 -3.86903E+00 -2.88924E+00 -1.58238E+00 -1.10616E-01  1.20600E+00  2.04562E+00  2.44456E+00
   2.60987E+00  2.70401E+00  2.75367E+00  2.77246E+00  2.84433E+00  2.96644E+00  3.11300E+00  3.26468E+00  3.37592E+00  3.40171E+00
   3.34602E+00  3.20532E+00  3.02445E+00  2.92872E+00  3.00902E+00  3.27437E+00  3.67417E+00  4.19961E+00  4.82994E+00  5.49419E+00
   6.19584E+00  7.14498E+00  9.13413E+00  1.27095E+01  1.70501E+01  2.16686E+01  2.64956E+01  3.14310E+01  3.61049E+01  3.98557E+01
   4.18294E+01  4.13746E+01  3.83592E+01  3.31844E+01  2.66890E+01  2.01753E+01  1.49234E+01  1.12605E+01  8.52625E+00  6.13178E+00
   4.44620E+00  3.82322E+00  3.60137E+00  3.49751E+00  3.45615E+00  3.43389E+00  3.38461E+00  3.30591E+00  3.20047E+00  3.08315E+00
   2.97432E+00  2.88556E+00  2.81367E+00  2.75949E+00  2.72923E+00  2.72067E+00  2.72458E+00  2.73463E+00  2.75084E+00  2.77604E+00
   2.80956E+00  2.84748E+00  2.89031E+00  2.93807E+00  2.98853E+00  3.03969E+00  3.09078E+00  3.14136E+00  3.19077E+00  3.23858E+00
   3.28432E+00  3.32721E+00  3.36684E+00  3.40284E+00  3.43432E+00  3.46109E+00  3.48362E+00  3.50319E+00  3.52120E+00  3.53923E+00
   3.55923E+00  3.58329E+00  3.61341E+00  3.65220E+00  3.70257E+00  3.76816E+00  3.85403E+00  3.96889E+00  4.13130E+00  4.37772E+00
   4.66943E+00  4.91156E+00  5.08991E+00  5.20367E+00  5.22656E+00  5.10877E+00  4.79848E+00  4.32961E+00  3.83327E+00  3.37908E+00
   3.03893E+00  2.90629E+00  3.06258E+00  3.51342E+00  4.15804E+00  4.84480E+00  5.46452E+00  5.97474E+00  6.30478E+00  6.38661E+00
   6.27555E+00  6.08414E+00  5.90382E+00  5.74669E+00  5.57752E+00  5.41756E+00  5.32923E+00  5.29638E+00  5.30132E+00  5.33442E+00
   5.38621E+00  5.44573E+00  5.50046E+00  5.53788E+00  5.54704E+00  5.52066E+00  5.45620E+00  5.35659E+00  5.22925E+00  5.08493E+00
   4.93538E+00  4.79164E+00  4.66230E+00  4.55292E+00  4.46568E+00  4.40017E+00  4.35395E+00  4.32380E+00  4.30623E+00  4.29832E+00
   4.29771E+00  4.30299E+00  4.31333E+00  4.32864E+00  4.34915E+00  4.37556E+00  4.40859E+00  4.44921E+00  4.49825E+00  4.55666E+00
   4.62521E+00  4.70465E+00  4.79541E+00  4.89784E+00  5.01185E+00  5.13719E+00  5.27309E+00  5.41850E+00  5.57179E+00  5.73098E+00
   5.89355E+00  6.05669E+00  6.21713E+00  6.37146E+00  6.51599E+00  6.64716E+00  6.76142E+00  6.85568E+00  6.92715E+00  6.97377E+00
   6.99400E+00  6.98725E+00  6.95359E+00  6.89403E+00  6.81021E+00  6.70454E+00  6.57984E+00  6.43949E+00  6.28697E+00  6.12600E+00
   5.96006E+00  5.79259E+00  5.62659E+00  5.46480E+00  5.30940E+00  5.16224E+00  5.02455E+00  4.89725E+00  4.78076E+00  4.67527E+00
   4.58055E+00  4.49630E+00  4.42189E+00  4.35669E+00  4.29992E+00  4.25089E+00  4.20876E+00  4.17288E+00  4.14247E+00  4.11695E+00
   4.09568E+00  4.07822E+00  4.06403E+00  4.05276E+00  4.04398E+00  4.03745E+00  4.03285E+00  4.03000E+00  4.02863E+00  4.02864E+00
   4.02980E+00  4.03206E+00  4.03524E+00  4.03931E+00  4.04412E+00  4.04964E+00  4.05576E+00  4.06247E+00  4.06967E+00  4.07739E+00
   4.08550E+00  4.09404E+00  4.10291E+00  4.11215E+00  4.12169E+00  4.13155E+00  4.14165E+00  4.15202E+00  4.16260E+00  4.17343E+00
   4.18444E+00  4.19567E+00  4.20704E+00  4.21861E+00  4.23031E+00  4.24220E+00  4.25420E+00  4.26637E+00  4.27861E+00  4.29102E+00
   4.30350E+00  4.31614E+00  4.32885E+00  4.34169E+00  4.35459E+00  4.36762E+00  4.38071E+00  4.39393E+00  4.40719E+00  4.42057E+00
   4.43398E+00  4.44752E+00  4.46110E+00  4.47480E+00  4.48854E+00  4.50238E+00  4.51627E+00  4.53028E+00  4.54434E+00  4.55852E+00
   4.57274E+00  4.58710E+00  4.60151E+00  4.61608E+00  4.63073E+00  4.64554E+00  4.66044E+00  4.67552E+00
 NY background values follow
    -2.187E+01   -2.176E+01   -2.164E+01   -2.153E+01   -2.142E+01   -2.131E+01   -2.120E+01   -2.109E+01   -2.098E+01   -2.086E+01
    -2.075E+01   -2.064E+01   -2.053E+01   -2.042E+01   -2.031E+01   -2.020E+01   -2.009E+01   -1.997E+01   -1.986E+01   -1.975E+01
    -1.964E+01   -1.953E+01   -1.942E+01   -1.931E+01   -1.920E+01   -1.909E+01   -1.898E+01   -1.886E+01   -1.875E+01   -1.864E+01
    -1.853E+01   -1.842E+01   -1.831E+01   -1.820E+01   -1.809E+01   -1.798E+01   -1.787E+01   -1.776E+01   -1.765E+01   -1.754E+01
    -1.743E+01   -1.732E+01   -1.721E+01   -1.710E+01   -1.699E+01   -1.689E+01   -1.678E+01   -1.667E+01   -1.656E+01   -1.645E+01
    -1.634E+01   -1.623E+01   -1.613E+01   -1.602E+01   -1.591E+01   -1.580E+01   -1.569E+01   -1.559E+01   -1.548E+01   -1.537E+01
    -1.527E+01   -1.516E+01   -1.505E+01   -1.495E+01   -1.484E+01   -1.474E+01   -1.463E+01   -1.453E+01   -1.442E+01   -1.432E+01
    -1.421E+01   -1.411E+01   -1.400E+01   -1.390E+01   -1.380E+01   -1.369E+01   -1.359E+01   -1.349E+01   -1.339E+01   -1.328E+01
    -1.318E+01   -1.308E+01   -1.298E+01   -1.288E+01   -1.278E+01   -1.268E+01   -1.258E+01   -1.248E+01   -1.238E+01   -1.228E+01
    -1.218E+01   -1.209E+01   -1.199E+01   -1.189E+01   -1.179E+01   -1.170E+01   -1.160E+01   -1.150E+01   -1.141E+01   -1.131E+01
    -1.122E+01   -1.112E+01   -1.103E+01   -1.094E+01   -1.084E+01   -1.075E+01   -1.066E+01   -1.056E+01   -1.047E+01   -1.038E+01
    -1.029E+01   -1.020E+01   -1.011E+01   -1.002E+01   -9.927E+00   -9.837E+00   -9.748E+00   -9.659E+00   -9.570E+00   -9.482E+00
    -9.394E+00   -9.307E+00   -9.219E+00   -9.132E+00   -9.046E+00   -8.959E+00   -8.874E+00   -8.788E+00   -8.703E+00   -8.618E+00
    -8.533E+00   -8.449E+00   -8.365E+00   -8.281E+00   -8.198E+00   -8.115E+00   -8.033E+00   -7.950E+00   -7.869E+00   -7.787E+00
    -7.706E+00   -7.625E+00   -7.544E+00   -7.464E+00   -7.384E+00   -7.304E+00   -7.224E+00   -7.145E+00   -7.066E+00   -6.988E+00
    -6.910E+00   -6.832E+00   -6.754E+00   -6.676E+00   -6.599E+00   -6.522E+00   -6.445E+00   -6.369E+00   -6.293E+00   -6.217E+00
    -6.141E+00   -6.066E+00   -5.990E+00   -5.915E+00   -5.841E+00   -5.766E+00   -5.692E+00   -5.618E+00   -5.544E+00   -5.470E+00
    -5.397E+00   -5.323E+00   -5.250E+00   -5.177E+00   -5.105E+00   -5.032E+00   -4.960E+00   -4.887E+00   -4.815E+00   -4.744E+00
    -4.672E+00   -4.600E+00   -4.529E+00   -4.458E+00   -4.387E+00   -4.316E+00   -4.245E+00   -4.175E+00   -4.105E+00   -4.035E+00
    -3.965E+00   -3.895E+00   -3.826E+00   -3.756E+00   -3.687E+00   -3.619E+00   -3.550E+00   -3.482E+00   -3.414E+00   -3.346E+00
    -3.279E+00   -3.211E+00   -3.144E+00   -3.078E+00   -3.011E+00   -2.945E+00   -2.879E+00   -2.814E+00   -2.748E+00   -2.683E+00
    -2.619E+00   -2.555E+00   -2.491E+00   -2.427E+00   -2.364E+00   -2.301E+00   -2.238E+00   -2.176E+00   -2.114E+00   -2.052E+00
    -1.991E+00   -1.930E+00   -1.870E+00   -1.810E+00   -1.750E+00   -1.691E+00   -1.632E+00   -1.574E+00   -1.516E+00   -1.458E+00
    -1.401E+00   -1.344E+00   -1.288E+00   -1.232E+00   -1.176E+00   -1.121E+00   -1.066E+00   -1.012E+00   -9.577E-01   -9.042E-01
    -8.511E-01   -7.984E-01   -7.461E-01   -6.942E-01   -6.427E-01   -5.916E-01   -5.410E-01   -4.908E-01   -4.410E-01   -3.916E-01
    -3.426E-01   -2.940E-01   -2.458E-01   -1.981E-01   -1.508E-01   -1.038E-01   -5.735E-02   -1.128E-02    3.439E-02    7.963E-02
     1.245E-01    1.689E-01    2.129E-01    2.564E-01    2.996E-01    3.423E-01    3.846E-01    4.265E-01    4.680E-01    5.091E-01
     5.497E-01    5.899E-01    6.297E-01    6.691E-01    7.080E-01    7.466E-01    7.847E-01    8.225E-01    8.598E-01    8.967E-01
     9.333E-01    9.694E-01    1.005E+00    1.041E+00    1.076E+00    1.110E+00    1.144E+00    1.178E+00    1.212E+00    1.245E+00
     1.278E+00    1.310E+00    1.342E+00    1.374E+00    1.405E+00    1.436E+00    1.467E+00    1.497E+00    1.527E+00    1.557E+00
     1.586E+00    1.615E+00    1.643E+00    1.672E+00    1.700E+00    1.727E+00    1.755E+00    1.782E+00    1.809E+00    1.835E+00
     1.861E+00    1.887E+00    1.913E+00    1.938E+00    1.963E+00    1.988E+00    2.012E+00    2.036E+00    2.060E+00    2.084E+00
     2.107E+00    2.130E+00    2.153E+00    2.176E+00    2.198E+00    2.220E+00    2.242E+00    2.263E+00    2.285E+00    2.306E+00
     2.327E+00    2.347E+00    2.368E+00    2.388E+00    2.408E+00    2.427E+00    2.447E+00    2.466E+00    2.485E+00    2.504E+00
     2.523E+00    2.541E+00    2.560E+00    2.578E+00    2.596E+00    2.613E+00    2.631E+00    2.648E+00    2.665E+00    2.682E+00
     2.699E+00    2.716E+00    2.732E+00    2.749E+00    2.765E+00    2.781E+00    2.797E+00    2.812E+00    2.828E+00    2.843E+00
     2.858E+00    2.874E+00    2.889E+00    2.903E+00    2.918E+00    2.933E+00    2.947E+00    2.962E+00    2.976E+00    2.990E+00
     3.004E+00    3.018E+00    3.032E+00    3.046E+00    3.059E+00    3.073E+00    3.087E+00    3.100E+00    3.113E+00    3.127E+00
     3.140E+00    3.153E+00    3.166E+00    3.179E+00    3.192E+00    3.205E+00    3.218E+00    3.231E+00    3.243E+00    3.256E+00
     3.269E+00    3.282E+00    3.294E+00    3.307E+00    3.319E+00    3.332E+00    3.345E+00    3.357E+00    3.370E+00    3.382E+00
     3.395E+00    3.408E+00    3.420E+00    3.433E+00    3.445E+00    3.458E+00    3.471E+00    3.484E+00    3.496E+00    3.509E+00
     3.522E+00    3.535E+00    3.548E+00    3.560E+00    3.573E+00    3.586E+00    3.599E+00    3.612E+00    3.625E+00    3.638E+00
     3.652E+00    3.665E+00    3.678E+00    3.691E+00    3.704E+00    3.718E+00    3.731E+00    3.744E+00    3.758E+00    3.771E+00
     3.784E+00    3.798E+00    3.811E+00    3.825E+00    3.838E+00    3.852E+00    3.865E+00    3.879E+00    3.892E+00    3.906E+00
     3.920E+00    3.934E+00    3.947E+00    3.961E+00    3.975E+00    3.989E+00    4.002E+00    4.016E+00    4.030E+00    4.044E+00
     4.058E+00    4.072E+00    4.086E+00    4.100E+00    4.114E+00    4.128E+00    4.142E+00    4.156E+00    4.171E+00    4.185E+00
     4.199E+00    4.213E+00    4.227E+00    4.242E+00    4.256E+00    4.270E+00    4.284E+00    4.299E+00    4.313E+00    4.327E+00
     4.342E+00    4.356E+00    4.370E+00    4.385E+00    4.399E+00    4.413E+00    4.428E+00    4.442E+00    4.457E+00    4.471E+00
     4.485E+00    4.500E+00    4.514E+00    4.529E+00    4.543E+00    4.557E+00    4.572E+00    4.586E+00    4.601E+00    4.615E+00
     4.629E+00    4.644E+00    4.658E+00    4.672E+00    4.687E+00    4.701E+00    4.716E+00    4.730E+00
 Ala      Conc. = 2.03E+02
