 LCModel (Version 6.3-1L) Copyright: S.W. Provencher.          Ref.: Magn. Reson. Med. 30:672-679 (1993).                
 Slice#3 Row#9 Col#12  PD_05_press_1_raw_act
 36 lines in following concentration table = NCONC+1
    Conc.  %SD /Cr+PCr  Metabolite                                         
  182.353  33%   0.702 Ala                                                 
  111.600  63%   0.430 Asp                                                 
    0.000 999%   0.000 Cr                                                  
  259.806   9%   1.000 PCr                                                 
    0.000 999%   0.000 GABA                                                
   39.705 112%   0.153 Glc                                                 
  394.446  30%   1.518 Gln                                                 
  529.449  25%   2.038 Glu                                                 
   53.343  17%   0.205 GPC                                                 
    0.000 999%   0.000 PCh                                                 
    9.382 358% 3.6E-02 GSH                                                 
  320.065  38%   1.232 Ins                                                 
   66.930  94%   0.258 Lac                                                 
  807.036   4%   3.106 NAA                                                 
    0.000 999%   0.000 NAAG                                                
   37.182  28%   0.143 Scyllo                                              
  117.885  60%   0.454 Tau                                                 
  144.064  30%   0.555 -CrCH2                                              
   53.343  17%   0.205 GPC+PCh                                             
  807.036   4%   3.106 NAA+NAAG                                            
  259.806   9%   1.000 Cr+PCr                                              
  923.895  22%   3.556 Glu+Gln                                             
 6.10E+03   9%  23.476 Lip13a                                              
    0.000 999%   0.000 Lip13b                                              
  288.814  46%   1.112-Lip09                                               
   16.251 308% 6.3E-02 MM09                                                
  377.927  43%   1.455 Lip20                                               
    0.000 999%   0.000 MM20                                                
    9.527 279% 3.7E-02 MM12                                                
  332.949  29%   1.282+MM14                                                
  183.335  30%   0.706 MM17                                                
 6.10E+03   9%  23.476 Lip13a+Lip13b                                       
 6.44E+03   8%  24.794 MM14+Lip13a+Lip13b+MM12                             
  305.065  41%   1.174 MM09+Lip09                                          
  377.927  43%   1.455 MM20+Lip20                                          
   6 lines in following misc. output table
  FWHM = 0.061 ppm    S/N =   9                                            
  Data shift = 0.000 ppm                                                   
  Ph: -98 deg     -62.6 deg/ppm                                            
  alphaB,S = 6.4E-01,   1.6E+02                                            
   14 spline knots.   Ns = 9(1)                                            
  (15) 4 infls.   (17) 1 extrs.                                            
  498 points on ppm-axis = NY
      4.000000     3.992357     3.984714     3.977070     3.969427     3.961784     3.954141     3.946497     3.938854     3.931211
      3.923568     3.915925     3.908281     3.900638     3.892995     3.885352     3.877708     3.870065     3.862422     3.854779
      3.847136     3.839492     3.831849     3.824206     3.816563     3.808919     3.801276     3.793633     3.785990     3.778347
      3.770703     3.763060     3.755417     3.747774     3.740130     3.732487     3.724844     3.717201     3.709558     3.701914
      3.694271     3.686628     3.678985     3.671341     3.663698     3.656055     3.648412     3.640769     3.633125     3.625482
      3.617839     3.610196     3.602552     3.594909     3.587266     3.579623     3.571980     3.564336     3.556693     3.549050
      3.541407     3.533763     3.526120     3.518477     3.510834     3.503191     3.495547     3.487904     3.480261     3.472618
      3.464974     3.457331     3.449688     3.442045     3.434402     3.426758     3.419115     3.411472     3.403829     3.396185
      3.388542     3.380899     3.373256     3.365613     3.357969     3.350326     3.342683     3.335040     3.327396     3.319753
      3.312110     3.304467     3.296824     3.289180     3.281537     3.273894     3.266251     3.258607     3.250964     3.243321
      3.235678     3.228034     3.220391     3.212748     3.205105     3.197462     3.189818     3.182175     3.174532     3.166889
      3.159245     3.151602     3.143959     3.136316     3.128673     3.121029     3.113386     3.105743     3.098100     3.090456
      3.082813     3.075170     3.067527     3.059884     3.052240     3.044597     3.036954     3.029311     3.021667     3.014024
      3.006381     2.998738     2.991095     2.983451     2.975808     2.968165     2.960522     2.952878     2.945235     2.937592
      2.929949     2.922306     2.914662     2.907019     2.899376     2.891733     2.884089     2.876446     2.868803     2.861160
      2.853517     2.845873     2.838230     2.830587     2.822944     2.815300     2.807657     2.800014     2.792371     2.784728
      2.777084     2.769441     2.761798     2.754155     2.746511     2.738868     2.731225     2.723582     2.715939     2.708295
      2.700652     2.693009     2.685366     2.677722     2.670079     2.662436     2.654793     2.647150     2.639506     2.631863
      2.624220     2.616577     2.608933     2.601290     2.593647     2.586004     2.578361     2.570717     2.563074     2.555431
      2.547788     2.540144     2.532501     2.524858     2.517215     2.509572     2.501928     2.494285     2.486642     2.478999
      2.471355     2.463712     2.456069     2.448426     2.440783     2.433139     2.425496     2.417853     2.410210     2.402566
      2.394923     2.387280     2.379637     2.371994     2.364350     2.356707     2.349064     2.341421     2.333777     2.326134
      2.318491     2.310848     2.303205     2.295561     2.287918     2.280275     2.272632     2.264988     2.257345     2.249702
      2.242059     2.234416     2.226772     2.219129     2.211486     2.203843     2.196199     2.188556     2.180913     2.173270
      2.165627     2.157983     2.150340     2.142697     2.135054     2.127410     2.119767     2.112124     2.104481     2.096838
      2.089194     2.081551     2.073908     2.066265     2.058621     2.050978     2.043335     2.035692     2.028049     2.020405
      2.012762     2.005119     1.997476     1.989833     1.982190     1.974546     1.966903     1.959260     1.951617     1.943974
      1.936331     1.928688     1.921045     1.913402     1.905759     1.898115     1.890472     1.882829     1.875186     1.867543
      1.859900     1.852257     1.844614     1.836971     1.829327     1.821684     1.814041     1.806398     1.798755     1.791112
      1.783469     1.775826     1.768183     1.760540     1.752896     1.745253     1.737610     1.729967     1.722324     1.714681
      1.707038     1.699395     1.691752     1.684108     1.676465     1.668822     1.661179     1.653536     1.645893     1.638250
      1.630607     1.622964     1.615321     1.607677     1.600034     1.592391     1.584748     1.577105     1.569462     1.561819
      1.554176     1.546533     1.538890     1.531246     1.523603     1.515960     1.508317     1.500674     1.493031     1.485388
      1.477745     1.470102     1.462458     1.454815     1.447172     1.439529     1.431886     1.424243     1.416600     1.408957
      1.401314     1.393671     1.386027     1.378384     1.370741     1.363098     1.355455     1.347812     1.340169     1.332526
      1.324883     1.317240     1.309596     1.301953     1.294310     1.286667     1.279024     1.271381     1.263738     1.256095
      1.248452     1.240808     1.233165     1.225522     1.217879     1.210236     1.202593     1.194950     1.187307     1.179664
      1.172021     1.164377     1.156734     1.149091     1.141448     1.133805     1.126162     1.118519     1.110876     1.103233
      1.095590     1.087946     1.080303     1.072660     1.065017     1.057374     1.049731     1.042088     1.034445     1.026802
      1.019158     1.011515     1.003872     0.996229     0.988586     0.980943     0.973300     0.965657     0.958014     0.950371
      0.942727     0.935084     0.927441     0.919798     0.912155     0.904512     0.896869     0.889226     0.881583     0.873940
      0.866296     0.858653     0.851010     0.843367     0.835724     0.828081     0.820438     0.812795     0.805152     0.797508
      0.789865     0.782222     0.774579     0.766936     0.759293     0.751650     0.744007     0.736364     0.728721     0.721077
      0.713434     0.705791     0.698148     0.690505     0.682862     0.675219     0.667576     0.659933     0.652290     0.644646
      0.637003     0.629360     0.621717     0.614074     0.606431     0.598788     0.591145     0.583502     0.575858     0.568215
      0.560572     0.552929     0.545286     0.537643     0.530000     0.522357     0.514714     0.507071     0.499427     0.491784
      0.484141     0.476498     0.468855     0.461212     0.453569     0.445925     0.438282     0.430639     0.422996     0.415353
      0.407710     0.400067     0.392424     0.384780     0.377137     0.369494     0.361851     0.354208     0.346565     0.338922
      0.331278     0.323635     0.315992     0.308349     0.300706     0.293063     0.285420     0.277777     0.270133     0.262490
      0.254847     0.247204     0.239561     0.231918     0.224275     0.216631     0.208988     0.201345
 NY phased data points follow
   8.54861E+00  6.77955E+00  8.63736E+00  5.90215E+00  9.25175E+00  7.96242E+00  8.99084E+00  7.83199E+00  6.50725E+00  9.01009E+00
   9.25288E+00  8.51103E+00  6.94834E+00  8.08514E+00  6.57086E+00  5.78597E+00  8.67289E+00  6.60554E+00  7.14056E+00  7.06266E+00
   7.20604E+00  8.39506E+00  9.28515E+00  6.48448E+00  7.46289E+00  8.96781E+00  8.24054E+00  7.89952E+00  7.56314E+00  6.65768E+00
   7.82176E+00  7.81058E+00  8.60758E+00  8.93690E+00  8.39220E+00  7.89317E+00  8.36995E+00  6.94744E+00  7.55968E+00  7.56252E+00
   7.51935E+00  9.14504E+00  1.08894E+01  9.33923E+00  8.63416E+00  9.23643E+00  1.14369E+01  9.52198E+00  1.01748E+01  1.19284E+01
   1.02916E+01  9.20804E+00  8.15206E+00  1.01773E+01  9.17098E+00  8.38798E+00  9.48221E+00  1.03702E+01  8.54923E+00  1.07019E+01
   9.96914E+00  8.41154E+00  7.66746E+00  8.88591E+00  9.15240E+00  9.74283E+00  8.96143E+00  1.06060E+01  9.86412E+00  9.56278E+00
   9.69878E+00  1.05676E+01  1.25115E+01  9.64671E+00  1.13876E+01  1.14764E+01  1.07941E+01  1.03817E+01  1.02049E+01  1.24503E+01
   1.14480E+01  1.07214E+01  1.10450E+01  1.19793E+01  9.97380E+00  1.30965E+01  1.18717E+01  1.20264E+01  1.22246E+01  1.11080E+01
   1.27757E+01  1.20377E+01  1.14797E+01  1.29892E+01  1.04818E+01  1.47242E+01  1.34374E+01  1.30104E+01  1.44436E+01  1.19499E+01
   1.38293E+01  1.35267E+01  1.40068E+01  1.55026E+01  1.54319E+01  1.47269E+01  1.34235E+01  1.43157E+01  1.35281E+01  1.23379E+01
   1.19550E+01  1.16520E+01  1.05860E+01  1.09494E+01  1.17790E+01  1.24492E+01  1.09800E+01  1.33675E+01  1.08962E+01  1.52654E+01
   1.38027E+01  1.38211E+01  1.54158E+01  1.57757E+01  1.63742E+01  1.75023E+01  1.86170E+01  1.83839E+01  2.02022E+01  1.95082E+01
   1.77770E+01  1.71792E+01  1.43810E+01  1.42066E+01  1.28722E+01  1.15723E+01  1.22954E+01  1.25639E+01  1.25007E+01  1.17575E+01
   1.30295E+01  1.18014E+01  1.30526E+01  1.29967E+01  1.41350E+01  1.35186E+01  1.31941E+01  1.24258E+01  1.30934E+01  1.51502E+01
   1.45598E+01  1.40435E+01  1.33538E+01  1.27004E+01  1.37214E+01  1.36506E+01  1.53180E+01  1.38974E+01  1.29847E+01  1.46556E+01
   1.40003E+01  1.56909E+01  1.52314E+01  1.30921E+01  1.53148E+01  1.45322E+01  1.51675E+01  1.48294E+01  1.54752E+01  1.37759E+01
   1.58429E+01  1.55795E+01  1.55643E+01  1.39701E+01  1.53390E+01  1.55939E+01  1.29601E+01  1.53446E+01  1.39342E+01  1.53935E+01
   1.61989E+01  1.63285E+01  1.72323E+01  1.78907E+01  1.64621E+01  1.70250E+01  1.72210E+01  1.86372E+01  1.87757E+01  1.81888E+01
   1.85252E+01  1.86505E+01  2.00269E+01  2.01448E+01  2.12644E+01  1.86483E+01  2.05612E+01  2.03905E+01  1.68822E+01  1.79907E+01
   1.96005E+01  2.12225E+01  2.03870E+01  2.19776E+01  2.24927E+01  2.15773E+01  2.08459E+01  2.10706E+01  2.16162E+01  2.07390E+01
   2.22934E+01  2.30376E+01  2.27879E+01  2.28386E+01  2.47212E+01  2.49746E+01  2.56562E+01  2.64128E+01  2.65352E+01  2.54476E+01
   2.47126E+01  2.34556E+01  2.40836E+01  2.18188E+01  2.36294E+01  2.28695E+01  2.68531E+01  2.55345E+01  2.48384E+01  2.68957E+01
   2.64179E+01  2.56947E+01  2.57508E+01  2.52647E+01  2.80840E+01  2.65061E+01  2.46360E+01  2.59856E+01  2.66829E+01  2.62857E+01
   2.66762E+01  2.48156E+01  2.55861E+01  2.42410E+01  2.37482E+01  2.44178E+01  2.54355E+01  2.62680E+01  2.70905E+01  2.66712E+01
   2.70983E+01  2.54884E+01  2.72718E+01  2.83128E+01  3.04895E+01  3.22488E+01  3.13069E+01  3.59994E+01  4.02056E+01  4.28076E+01
   4.73870E+01  5.13313E+01  5.15987E+01  5.12991E+01  4.78072E+01  4.44839E+01  4.02191E+01  3.85311E+01  3.41677E+01  3.39746E+01
   3.32252E+01  3.21190E+01  3.19503E+01  3.16224E+01  2.96053E+01  3.18273E+01  3.20387E+01  2.92231E+01  2.99648E+01  3.03950E+01
   2.93658E+01  3.04791E+01  3.00372E+01  3.00172E+01  2.91628E+01  3.01627E+01  2.71313E+01  2.77142E+01  2.81705E+01  2.72665E+01
   2.78889E+01  2.83495E+01  2.76035E+01  2.87795E+01  2.74547E+01  2.90884E+01  2.95919E+01  2.97530E+01  2.93495E+01  3.18125E+01
   3.15495E+01  3.06176E+01  3.12479E+01  3.26753E+01  3.33409E+01  3.14645E+01  3.18529E+01  3.16472E+01  3.10064E+01  3.21425E+01
   3.44680E+01  3.34541E+01  3.18644E+01  3.45231E+01  3.55968E+01  3.47939E+01  3.54281E+01  3.64302E+01  3.56723E+01  3.59854E+01
   3.57101E+01  3.31377E+01  3.72756E+01  3.61170E+01  3.64580E+01  3.51777E+01  3.74291E+01  3.59564E+01  3.86726E+01  3.61048E+01
   3.59526E+01  3.59122E+01  3.65692E+01  3.82089E+01  3.82456E+01  4.05765E+01  4.21810E+01  4.08475E+01  4.26052E+01  4.24431E+01
   4.31842E+01  4.31277E+01  4.35934E+01  4.43446E+01  4.15797E+01  4.27913E+01  4.38677E+01  4.45535E+01  4.40237E+01  4.36603E+01
   4.59507E+01  4.54944E+01  4.49920E+01  4.54831E+01  4.33455E+01  4.43245E+01  4.39999E+01  4.34629E+01  4.39813E+01  4.36816E+01
   4.34907E+01  4.56459E+01  4.20950E+01  4.42450E+01  4.21199E+01  4.15340E+01  4.21877E+01  3.94409E+01  4.06174E+01  3.86010E+01
   3.85807E+01  3.82928E+01  3.41352E+01  3.51765E+01  3.38479E+01  3.38875E+01  3.29477E+01  3.25434E+01  3.15572E+01  2.97177E+01
   3.01475E+01  2.88571E+01  2.89727E+01  3.10594E+01  2.88714E+01  2.74170E+01  2.73780E+01  2.69298E+01  2.51750E+01  2.60426E+01
   2.57503E+01  2.38007E+01  2.44954E+01  2.49047E+01  2.54837E+01  2.34664E+01  2.40973E+01  2.52592E+01  2.41359E+01  2.31012E+01
   2.40693E+01  2.44308E+01  2.29598E+01  2.30443E+01  2.24759E+01  2.21641E+01  2.25120E+01  2.22866E+01  2.16688E+01  2.21528E+01
   2.30981E+01  2.23681E+01  2.18829E+01  2.27104E+01  2.24441E+01  2.46253E+01  2.11565E+01  2.07466E+01  2.05525E+01  1.98078E+01
   2.02582E+01  2.05862E+01  2.06378E+01  2.10113E+01  2.07816E+01  2.11583E+01  1.93300E+01  1.93224E+01  1.80628E+01  1.78217E+01
   1.63029E+01  1.92811E+01  1.71151E+01  1.87393E+01  1.81828E+01  1.90505E+01  1.71516E+01  1.63944E+01  1.70476E+01  1.69395E+01
   1.64626E+01  1.61126E+01  1.64849E+01  1.66558E+01  1.49431E+01  1.48057E+01  1.70227E+01  1.60095E+01  1.63609E+01  1.37435E+01
   1.56540E+01  1.40362E+01  1.30626E+01  1.30629E+01  1.30214E+01  1.37981E+01  1.41617E+01  1.30596E+01  1.52458E+01  1.36467E+01
   1.21913E+01  1.37615E+01  1.12561E+01  1.29921E+01  1.21962E+01  1.42365E+01  1.21545E+01  1.05297E+01  1.24614E+01  1.22798E+01
   1.12397E+01  1.10908E+01  1.26241E+01  1.25096E+01  1.29407E+01  1.10658E+01  1.23095E+01  1.18699E+01  9.87606E+00  1.05464E+01
   1.03101E+01  9.11254E+00  1.01457E+01  1.00842E+01  1.15615E+01  8.19395E+00  1.05116E+01  9.96087E+00  1.03024E+01  9.32086E+00
   8.47426E+00  9.25021E+00  1.07348E+01  9.47202E+00  9.69324E+00  9.12908E+00  7.84357E+00  7.21596E+00
 NY points of the fit to the data follow
   6.87619E+00  6.90515E+00  6.96168E+00  7.12006E+00  7.43719E+00  7.83639E+00  8.23618E+00  8.58519E+00  8.79798E+00  8.80370E+00
   8.60254E+00  8.26958E+00  7.91489E+00  7.62403E+00  7.42670E+00  7.31955E+00  7.26677E+00  7.20921E+00  7.15807E+00  7.23743E+00
   7.40043E+00  7.54327E+00  7.67046E+00  7.76281E+00  7.77401E+00  7.67688E+00  7.50474E+00  7.34684E+00  7.30591E+00  7.46135E+00
   7.83308E+00  8.34222E+00  8.85141E+00  9.21572E+00  9.34317E+00  9.23673E+00  8.96496E+00  8.63419E+00  8.38739E+00  8.28113E+00
   8.31297E+00  8.43570E+00  8.62399E+00  8.89177E+00  9.23508E+00  9.62725E+00  1.00139E+01  1.03098E+01  1.04464E+01  1.03971E+01
   1.01726E+01  9.84417E+00  9.51100E+00  9.24939E+00  9.09746E+00  9.04996E+00  9.07821E+00  9.15681E+00  9.28820E+00  9.46653E+00
   9.64569E+00  9.77363E+00  9.83034E+00  9.83004E+00  9.80496E+00  9.78581E+00  9.79737E+00  9.85989E+00  9.96455E+00  1.00794E+01
   1.01983E+01  1.03297E+01  1.04715E+01  1.06133E+01  1.07343E+01  1.08118E+01  1.08310E+01  1.08070E+01  1.07773E+01  1.07615E+01
   1.07757E+01  1.08378E+01  1.09850E+01  1.12267E+01  1.15050E+01  1.17484E+01  1.19167E+01  1.19824E+01  1.19220E+01  1.17533E+01
   1.15322E+01  1.13165E+01  1.11488E+01  1.10800E+01  1.11518E+01  1.13228E+01  1.15271E+01  1.18222E+01  1.23089E+01  1.29471E+01
   1.36519E+01  1.43337E+01  1.48818E+01  1.51828E+01  1.51595E+01  1.48166E+01  1.42586E+01  1.36367E+01  1.30652E+01  1.26112E+01
   1.22857E+01  1.20135E+01  1.17448E+01  1.15676E+01  1.15369E+01  1.15557E+01  1.16147E+01  1.17769E+01  1.20897E+01  1.25087E+01
   1.29801E+01  1.35882E+01  1.44555E+01  1.55705E+01  1.68121E+01  1.80030E+01  1.89109E+01  1.93156E+01  1.91134E+01  1.83778E+01
   1.73373E+01  1.62559E+01  1.53199E+01  1.46090E+01  1.40870E+01  1.36310E+01  1.32135E+01  1.30179E+01  1.30224E+01  1.30765E+01
   1.31450E+01  1.32233E+01  1.33127E+01  1.34132E+01  1.35242E+01  1.36424E+01  1.37590E+01  1.38653E+01  1.39584E+01  1.40408E+01
   1.41200E+01  1.42042E+01  1.42954E+01  1.43821E+01  1.44563E+01  1.45219E+01  1.45833E+01  1.46396E+01  1.46782E+01  1.46901E+01
   1.46884E+01  1.47045E+01  1.47678E+01  1.48897E+01  1.50634E+01  1.52613E+01  1.54422E+01  1.55695E+01  1.56253E+01  1.56221E+01
   1.56009E+01  1.55964E+01  1.56029E+01  1.55857E+01  1.55550E+01  1.55382E+01  1.55681E+01  1.56639E+01  1.58031E+01  1.59661E+01
   1.61446E+01  1.63352E+01  1.65341E+01  1.67347E+01  1.69380E+01  1.71566E+01  1.74026E+01  1.76674E+01  1.79297E+01  1.82014E+01
   1.84943E+01  1.87805E+01  1.90317E+01  1.92371E+01  1.94215E+01  1.96244E+01  1.98954E+01  2.02525E+01  2.06539E+01  2.10436E+01
   2.14192E+01  2.17631E+01  2.20503E+01  2.22527E+01  2.23008E+01  2.21277E+01  2.17408E+01  2.12364E+01  2.07646E+01  2.04482E+01
   2.03701E+01  2.06197E+01  2.12184E+01  2.20325E+01  2.28562E+01  2.35631E+01  2.40781E+01  2.42988E+01  2.41752E+01  2.37651E+01
   2.31904E+01  2.26123E+01  2.22585E+01  2.22488E+01  2.25728E+01  2.31251E+01  2.37854E+01  2.44632E+01  2.50428E+01  2.54528E+01
   2.56985E+01  2.58228E+01  2.58825E+01  2.58857E+01  2.58441E+01  2.58455E+01  2.59689E+01  2.61934E+01  2.64489E+01  2.66521E+01
   2.67413E+01  2.66949E+01  2.65295E+01  2.63138E+01  2.61587E+01  2.61354E+01  2.62250E+01  2.63896E+01  2.66204E+01  2.68907E+01
   2.71931E+01  2.75945E+01  2.83186E+01  2.94776E+01  3.08641E+01  3.23129E+01  3.41094E+01  3.66642E+01  3.99749E+01  4.37085E+01
   4.73344E+01  5.01153E+01  5.13242E+01  5.05928E+01  4.81350E+01  4.46688E+01  4.10360E+01  3.78392E+01  3.53572E+01  3.34774E+01
   3.18090E+01  3.02643E+01  2.94297E+01  2.92359E+01  2.92059E+01  2.92317E+01  2.92740E+01  2.93052E+01  2.93273E+01  2.93421E+01
   2.93538E+01  2.93687E+01  2.93896E+01  2.94138E+01  2.94422E+01  2.94783E+01  2.95211E+01  2.95680E+01  2.96175E+01  2.96703E+01
   2.97282E+01  2.97911E+01  2.98583E+01  2.99318E+01  3.00131E+01  3.01034E+01  3.02040E+01  3.03159E+01  3.04401E+01  3.05771E+01
   3.07273E+01  3.08910E+01  3.10679E+01  3.12571E+01  3.14571E+01  3.16660E+01  3.18817E+01  3.21016E+01  3.23236E+01  3.25453E+01
   3.27650E+01  3.29815E+01  3.31942E+01  3.34040E+01  3.36130E+01  3.38255E+01  3.40491E+01  3.42989E+01  3.45846E+01  3.48851E+01
   3.51786E+01  3.54836E+01  3.58256E+01  3.61736E+01  3.64581E+01  3.66238E+01  3.66538E+01  3.65532E+01  3.63397E+01  3.60800E+01
   3.59179E+01  3.59964E+01  3.63761E+01  3.70432E+01  3.79258E+01  3.88994E+01  3.98460E+01  4.07155E+01  4.14680E+01  4.20471E+01
   4.24935E+01  4.28702E+01  4.32383E+01  4.36159E+01  4.39492E+01  4.42085E+01  4.44494E+01  4.46538E+01  4.47884E+01  4.48411E+01
   4.48334E+01  4.48162E+01  4.48324E+01  4.48937E+01  4.49860E+01  4.50725E+01  4.51001E+01  4.50256E+01  4.48390E+01  4.45359E+01
   4.41060E+01  4.35750E+01  4.29741E+01  4.23254E+01  4.16324E+01  4.08897E+01  4.01208E+01  3.93528E+01  3.85839E+01  3.78153E+01
   3.70508E+01  3.62948E+01  3.55517E+01  3.48252E+01  3.41186E+01  3.34346E+01  3.27752E+01  3.21418E+01  3.15354E+01  3.09564E+01
   3.04052E+01  2.98813E+01  2.93845E+01  2.89139E+01  2.84688E+01  2.80483E+01  2.76515E+01  2.72775E+01  2.69252E+01  2.65937E+01
   2.62822E+01  2.59896E+01  2.57152E+01  2.54582E+01  2.52176E+01  2.49925E+01  2.47821E+01  2.45855E+01  2.44014E+01  2.42289E+01
   2.40666E+01  2.39131E+01  2.37670E+01  2.36266E+01  2.34902E+01  2.33561E+01  2.32224E+01  2.30874E+01  2.29493E+01  2.28064E+01
   2.26572E+01  2.25005E+01  2.23351E+01  2.21605E+01  2.19760E+01  2.17818E+01  2.15779E+01  2.13650E+01  2.11439E+01  2.09157E+01
   2.06815E+01  2.04428E+01  2.02010E+01  1.99576E+01  1.97138E+01  1.94710E+01  1.92304E+01  1.89930E+01  1.87596E+01  1.85308E+01
   1.83072E+01  1.80890E+01  1.78765E+01  1.76696E+01  1.74683E+01  1.72723E+01  1.70816E+01  1.68958E+01  1.67145E+01  1.65374E+01
   1.63643E+01  1.61948E+01  1.60286E+01  1.58653E+01  1.57048E+01  1.55467E+01  1.53908E+01  1.52369E+01  1.50848E+01  1.49343E+01
   1.47853E+01  1.46377E+01  1.44913E+01  1.43459E+01  1.42016E+01  1.40582E+01  1.39157E+01  1.37740E+01  1.36330E+01  1.34926E+01
   1.33530E+01  1.32139E+01  1.30753E+01  1.29373E+01  1.27998E+01  1.26627E+01  1.25260E+01  1.23898E+01  1.22540E+01  1.21185E+01
   1.19834E+01  1.18486E+01  1.17142E+01  1.15800E+01  1.14462E+01  1.13126E+01  1.11794E+01  1.10463E+01  1.09136E+01  1.07811E+01
   1.06488E+01  1.05168E+01  1.03850E+01  1.02534E+01  1.01220E+01  9.99085E+00  9.85991E+00  9.72917E+00  9.59865E+00  9.46830E+00
   9.33817E+00  9.20822E+00  9.07847E+00  8.94891E+00  8.81956E+00  8.69037E+00  8.56139E+00  8.43260E+00
 NY background values follow
     5.437E+00    5.480E+00    5.522E+00    5.565E+00    5.607E+00    5.650E+00    5.693E+00    5.736E+00    5.779E+00    5.822E+00
     5.865E+00    5.908E+00    5.951E+00    5.995E+00    6.038E+00    6.082E+00    6.126E+00    6.170E+00    6.214E+00    6.259E+00
     6.303E+00    6.348E+00    6.393E+00    6.438E+00    6.484E+00    6.529E+00    6.575E+00    6.621E+00    6.668E+00    6.714E+00
     6.761E+00    6.808E+00    6.855E+00    6.903E+00    6.951E+00    6.999E+00    7.047E+00    7.096E+00    7.145E+00    7.195E+00
     7.244E+00    7.294E+00    7.345E+00    7.395E+00    7.447E+00    7.498E+00    7.550E+00    7.602E+00    7.654E+00    7.707E+00
     7.760E+00    7.814E+00    7.867E+00    7.921E+00    7.975E+00    8.030E+00    8.084E+00    8.139E+00    8.194E+00    8.249E+00
     8.304E+00    8.359E+00    8.414E+00    8.469E+00    8.525E+00    8.580E+00    8.635E+00    8.691E+00    8.746E+00    8.801E+00
     8.856E+00    8.912E+00    8.967E+00    9.021E+00    9.076E+00    9.131E+00    9.185E+00    9.239E+00    9.293E+00    9.347E+00
     9.400E+00    9.453E+00    9.506E+00    9.558E+00    9.611E+00    9.662E+00    9.714E+00    9.765E+00    9.816E+00    9.866E+00
     9.916E+00    9.965E+00    1.001E+01    1.006E+01    1.011E+01    1.016E+01    1.021E+01    1.025E+01    1.030E+01    1.035E+01
     1.039E+01    1.044E+01    1.049E+01    1.054E+01    1.058E+01    1.063E+01    1.068E+01    1.073E+01    1.077E+01    1.082E+01
     1.087E+01    1.092E+01    1.097E+01    1.102E+01    1.107E+01    1.112E+01    1.117E+01    1.122E+01    1.128E+01    1.133E+01
     1.139E+01    1.144E+01    1.150E+01    1.156E+01    1.162E+01    1.168E+01    1.174E+01    1.180E+01    1.186E+01    1.193E+01
     1.199E+01    1.206E+01    1.213E+01    1.220E+01    1.227E+01    1.234E+01    1.241E+01    1.249E+01    1.257E+01    1.265E+01
     1.273E+01    1.281E+01    1.289E+01    1.298E+01    1.306E+01    1.315E+01    1.324E+01    1.333E+01    1.342E+01    1.352E+01
     1.361E+01    1.371E+01    1.381E+01    1.391E+01    1.401E+01    1.411E+01    1.421E+01    1.432E+01    1.442E+01    1.453E+01
     1.464E+01    1.475E+01    1.486E+01    1.497E+01    1.508E+01    1.520E+01    1.531E+01    1.543E+01    1.555E+01    1.567E+01
     1.579E+01    1.591E+01    1.603E+01    1.616E+01    1.628E+01    1.641E+01    1.653E+01    1.666E+01    1.679E+01    1.692E+01
     1.705E+01    1.719E+01    1.732E+01    1.745E+01    1.759E+01    1.773E+01    1.786E+01    1.800E+01    1.814E+01    1.828E+01
     1.842E+01    1.856E+01    1.870E+01    1.884E+01    1.898E+01    1.912E+01    1.926E+01    1.940E+01    1.954E+01    1.968E+01
     1.983E+01    1.997E+01    2.011E+01    2.025E+01    2.039E+01    2.053E+01    2.067E+01    2.081E+01    2.095E+01    2.109E+01
     2.122E+01    2.136E+01    2.150E+01    2.163E+01    2.177E+01    2.190E+01    2.203E+01    2.217E+01    2.230E+01    2.243E+01
     2.255E+01    2.268E+01    2.281E+01    2.293E+01    2.305E+01    2.317E+01    2.329E+01    2.341E+01    2.353E+01    2.364E+01
     2.376E+01    2.387E+01    2.398E+01    2.409E+01    2.419E+01    2.430E+01    2.440E+01    2.450E+01    2.461E+01    2.471E+01
     2.480E+01    2.490E+01    2.499E+01    2.509E+01    2.518E+01    2.527E+01    2.536E+01    2.545E+01    2.553E+01    2.562E+01
     2.570E+01    2.578E+01    2.586E+01    2.594E+01    2.602E+01    2.610E+01    2.617E+01    2.625E+01    2.632E+01    2.639E+01
     2.646E+01    2.653E+01    2.660E+01    2.666E+01    2.673E+01    2.679E+01    2.685E+01    2.691E+01    2.697E+01    2.703E+01
     2.709E+01    2.714E+01    2.720E+01    2.725E+01    2.730E+01    2.736E+01    2.741E+01    2.745E+01    2.750E+01    2.755E+01
     2.759E+01    2.763E+01    2.768E+01    2.772E+01    2.775E+01    2.779E+01    2.783E+01    2.786E+01    2.789E+01    2.792E+01
     2.795E+01    2.798E+01    2.801E+01    2.803E+01    2.805E+01    2.807E+01    2.809E+01    2.811E+01    2.812E+01    2.814E+01
     2.815E+01    2.816E+01    2.816E+01    2.817E+01    2.817E+01    2.817E+01    2.817E+01    2.817E+01    2.817E+01    2.816E+01
     2.815E+01    2.814E+01    2.813E+01    2.811E+01    2.809E+01    2.807E+01    2.805E+01    2.803E+01    2.800E+01    2.797E+01
     2.794E+01    2.791E+01    2.787E+01    2.783E+01    2.779E+01    2.775E+01    2.771E+01    2.766E+01    2.761E+01    2.756E+01
     2.751E+01    2.746E+01    2.740E+01    2.734E+01    2.728E+01    2.722E+01    2.716E+01    2.709E+01    2.702E+01    2.695E+01
     2.688E+01    2.681E+01    2.673E+01    2.666E+01    2.658E+01    2.650E+01    2.642E+01    2.633E+01    2.625E+01    2.616E+01
     2.607E+01    2.598E+01    2.589E+01    2.580E+01    2.571E+01    2.561E+01    2.551E+01    2.541E+01    2.531E+01    2.521E+01
     2.511E+01    2.501E+01    2.490E+01    2.479E+01    2.469E+01    2.458E+01    2.447E+01    2.436E+01    2.424E+01    2.413E+01
     2.402E+01    2.390E+01    2.378E+01    2.367E+01    2.355E+01    2.343E+01    2.331E+01    2.319E+01    2.307E+01    2.294E+01
     2.282E+01    2.270E+01    2.257E+01    2.245E+01    2.232E+01    2.220E+01    2.207E+01    2.194E+01    2.182E+01    2.169E+01
     2.156E+01    2.143E+01    2.130E+01    2.117E+01    2.104E+01    2.092E+01    2.079E+01    2.066E+01    2.053E+01    2.040E+01
     2.027E+01    2.014E+01    2.001E+01    1.988E+01    1.975E+01    1.962E+01    1.949E+01    1.936E+01    1.923E+01    1.910E+01
     1.897E+01    1.885E+01    1.872E+01    1.859E+01    1.846E+01    1.834E+01    1.821E+01    1.808E+01    1.796E+01    1.783E+01
     1.770E+01    1.758E+01    1.745E+01    1.733E+01    1.720E+01    1.707E+01    1.695E+01    1.682E+01    1.670E+01    1.657E+01
     1.645E+01    1.632E+01    1.620E+01    1.607E+01    1.595E+01    1.582E+01    1.570E+01    1.558E+01    1.545E+01    1.533E+01
     1.520E+01    1.508E+01    1.495E+01    1.483E+01    1.471E+01    1.458E+01    1.446E+01    1.433E+01    1.421E+01    1.408E+01
     1.396E+01    1.383E+01    1.371E+01    1.359E+01    1.346E+01    1.334E+01    1.321E+01    1.309E+01    1.296E+01    1.284E+01
     1.271E+01    1.259E+01    1.246E+01    1.234E+01    1.221E+01    1.209E+01    1.196E+01    1.184E+01    1.172E+01    1.159E+01
     1.147E+01    1.134E+01    1.122E+01    1.109E+01    1.097E+01    1.084E+01    1.072E+01    1.059E+01    1.047E+01    1.034E+01
     1.022E+01    1.009E+01    9.968E+00    9.843E+00    9.718E+00    9.594E+00    9.469E+00    9.344E+00    9.220E+00    9.095E+00
     8.971E+00    8.846E+00    8.722E+00    8.598E+00    8.473E+00    8.349E+00    8.225E+00    8.101E+00
 Ala      Conc. = 1.82E+02
