 LCModel (Version 6.3-1L) Copyright: S.W. Provencher.          Ref.: Magn. Reson. Med. 30:672-679 (1993).                
 Slice#2 Row#12 Col#12  PD_05_press_1_raw_act
 36 lines in following concentration table = NCONC+1
    Conc.  %SD /Cr+PCr  Metabolite                                         
 2.63E+03  15%  19.296 Ala                                                 
   14.401  81%   0.106 Asp                                                 
  136.301 224%   1.000 Cr                                                  
    0.000 999%   0.000 PCr                                                 
    9.703  72% 7.1E-02 GABA                                                
   10.782  65% 7.9E-02 Glc                                                 
  223.635 200%   1.641 Gln                                                 
   24.561 999%   0.180 Glu                                                 
    0.000 999%   0.000 GPC                                                 
   64.809  22%   0.475 PCh                                                 
   95.016  87%   0.697 GSH                                                 
  554.031  35%   4.065 Ins                                                 
 2.17E+03  33%  15.912 Lac                                                 
    0.000 999%   0.000 NAA                                                 
    0.000 999%   0.000 NAAG                                                
    4.470  52% 3.3E-02 Scyllo                                              
   19.838  58%   0.146 Tau                                                 
   26.759 106%   0.196 -CrCH2                                              
   64.809  22%   0.475 GPC+PCh                                             
    0.000 999%   0.000 NAA+NAAG                                            
  136.301  26%   1.000 Cr+PCr                                              
  248.196 390%   1.821 Glu+Gln                                             
 1.88E+03  28%  13.781 Lip13a                                              
    0.000 999%   0.000 Lip13b                                              
  897.383  19%   6.584 Lip09                                               
  656.848  15%   4.819 MM09                                                
    0.000 999%   0.000 Lip20                                               
    0.000 999%   0.000-MM20                                                
  203.668  36%   1.494 MM12                                                
 1.94E+03   5%  14.267+MM14                                                
 1.16E+03  14%   8.525+MM17                                                
 1.88E+03  28%  13.781 Lip13a+Lip13b                                       
 4.03E+03  14%  29.542 MM14+Lip13a+Lip13b+MM12                             
 1.55E+03  11%  11.403 MM09+Lip09                                          
    0.000 999%   0.000 MM20+Lip20                                          
   6 lines in following misc. output table
  FWHM = 0.153 ppm    S/N =   8                                            
  Data shift = 0.229 ppm                                                   
  Ph: -14 deg     -47.5 deg/ppm                                            
  alphaB,S = 1.5E+01,   3.2E+02                                            
    6 spline knots.   Ns = 9(2)                                            
  (12) 2 infls.   ( 7) 1 extrs.                                            
  498 points on ppm-axis = NY
      4.000000     3.992357     3.984714     3.977070     3.969427     3.961784     3.954141     3.946497     3.938854     3.931211
      3.923568     3.915925     3.908281     3.900638     3.892995     3.885352     3.877708     3.870065     3.862422     3.854779
      3.847136     3.839492     3.831849     3.824206     3.816563     3.808919     3.801276     3.793633     3.785990     3.778347
      3.770703     3.763060     3.755417     3.747774     3.740130     3.732487     3.724844     3.717201     3.709558     3.701914
      3.694271     3.686628     3.678985     3.671341     3.663698     3.656055     3.648412     3.640769     3.633125     3.625482
      3.617839     3.610196     3.602552     3.594909     3.587266     3.579623     3.571980     3.564336     3.556693     3.549050
      3.541407     3.533763     3.526120     3.518477     3.510834     3.503191     3.495547     3.487904     3.480261     3.472618
      3.464974     3.457331     3.449688     3.442045     3.434402     3.426758     3.419115     3.411472     3.403829     3.396185
      3.388542     3.380899     3.373256     3.365613     3.357969     3.350326     3.342683     3.335040     3.327396     3.319753
      3.312110     3.304467     3.296824     3.289180     3.281537     3.273894     3.266251     3.258607     3.250964     3.243321
      3.235678     3.228034     3.220391     3.212748     3.205105     3.197462     3.189818     3.182175     3.174532     3.166889
      3.159245     3.151602     3.143959     3.136316     3.128673     3.121029     3.113386     3.105743     3.098100     3.090456
      3.082813     3.075170     3.067527     3.059884     3.052240     3.044597     3.036954     3.029311     3.021667     3.014024
      3.006381     2.998738     2.991095     2.983451     2.975808     2.968165     2.960522     2.952878     2.945235     2.937592
      2.929949     2.922306     2.914662     2.907019     2.899376     2.891733     2.884089     2.876446     2.868803     2.861160
      2.853517     2.845873     2.838230     2.830587     2.822944     2.815300     2.807657     2.800014     2.792371     2.784728
      2.777084     2.769441     2.761798     2.754155     2.746511     2.738868     2.731225     2.723582     2.715939     2.708295
      2.700652     2.693009     2.685366     2.677722     2.670079     2.662436     2.654793     2.647150     2.639506     2.631863
      2.624220     2.616577     2.608933     2.601290     2.593647     2.586004     2.578361     2.570717     2.563074     2.555431
      2.547788     2.540144     2.532501     2.524858     2.517215     2.509572     2.501928     2.494285     2.486642     2.478999
      2.471355     2.463712     2.456069     2.448426     2.440783     2.433139     2.425496     2.417853     2.410210     2.402566
      2.394923     2.387280     2.379637     2.371994     2.364350     2.356707     2.349064     2.341421     2.333777     2.326134
      2.318491     2.310848     2.303205     2.295561     2.287918     2.280275     2.272632     2.264988     2.257345     2.249702
      2.242059     2.234416     2.226772     2.219129     2.211486     2.203843     2.196199     2.188556     2.180913     2.173270
      2.165627     2.157983     2.150340     2.142697     2.135054     2.127410     2.119767     2.112124     2.104481     2.096838
      2.089194     2.081551     2.073908     2.066265     2.058621     2.050978     2.043335     2.035692     2.028049     2.020405
      2.012762     2.005119     1.997476     1.989833     1.982190     1.974546     1.966903     1.959260     1.951617     1.943974
      1.936331     1.928688     1.921045     1.913402     1.905759     1.898115     1.890472     1.882829     1.875186     1.867543
      1.859900     1.852257     1.844614     1.836971     1.829327     1.821684     1.814041     1.806398     1.798755     1.791112
      1.783469     1.775826     1.768183     1.760540     1.752896     1.745253     1.737610     1.729967     1.722324     1.714681
      1.707038     1.699395     1.691752     1.684108     1.676465     1.668822     1.661179     1.653536     1.645893     1.638250
      1.630607     1.622964     1.615321     1.607677     1.600034     1.592391     1.584748     1.577105     1.569462     1.561819
      1.554176     1.546533     1.538890     1.531246     1.523603     1.515960     1.508317     1.500674     1.493031     1.485388
      1.477745     1.470102     1.462458     1.454815     1.447172     1.439529     1.431886     1.424243     1.416600     1.408957
      1.401314     1.393671     1.386027     1.378384     1.370741     1.363098     1.355455     1.347812     1.340169     1.332526
      1.324883     1.317240     1.309596     1.301953     1.294310     1.286667     1.279024     1.271381     1.263738     1.256095
      1.248452     1.240808     1.233165     1.225522     1.217879     1.210236     1.202593     1.194950     1.187307     1.179664
      1.172021     1.164377     1.156734     1.149091     1.141448     1.133805     1.126162     1.118519     1.110876     1.103233
      1.095590     1.087946     1.080303     1.072660     1.065017     1.057374     1.049731     1.042088     1.034445     1.026802
      1.019158     1.011515     1.003872     0.996229     0.988586     0.980943     0.973300     0.965657     0.958014     0.950371
      0.942727     0.935084     0.927441     0.919798     0.912155     0.904512     0.896869     0.889226     0.881583     0.873940
      0.866296     0.858653     0.851010     0.843367     0.835724     0.828081     0.820438     0.812795     0.805152     0.797508
      0.789865     0.782222     0.774579     0.766936     0.759293     0.751650     0.744007     0.736364     0.728721     0.721077
      0.713434     0.705791     0.698148     0.690505     0.682862     0.675219     0.667576     0.659933     0.652290     0.644646
      0.637003     0.629360     0.621717     0.614074     0.606431     0.598788     0.591145     0.583502     0.575858     0.568215
      0.560572     0.552929     0.545286     0.537643     0.530000     0.522357     0.514714     0.507071     0.499427     0.491784
      0.484141     0.476498     0.468855     0.461212     0.453569     0.445925     0.438282     0.430639     0.422996     0.415353
      0.407710     0.400067     0.392424     0.384780     0.377137     0.369494     0.361851     0.354208     0.346565     0.338922
      0.331278     0.323635     0.315992     0.308349     0.300706     0.293063     0.285420     0.277777     0.270133     0.262490
      0.254847     0.247204     0.239561     0.231918     0.224275     0.216631     0.208988     0.201345
 NY phased data points follow
   4.18424E+00  3.97989E+00  2.07314E+00  3.35170E+00  2.77737E+00  3.05126E+00  2.90228E+00  3.37602E+00  1.07186E+00  2.69966E+00
   3.28268E+00  3.83905E+00  1.71199E+00  4.08677E+00  3.84823E+00  2.58317E+00  2.31377E+00  2.44657E+00  2.80767E+00  2.58761E+00
   2.26331E+00  1.28268E+00  3.12843E+00  3.52868E+00  3.11912E+00  2.98068E+00  2.74432E+00  2.62120E+00  3.06653E+00  2.63518E+00
   2.83836E+00  3.21844E+00  3.04957E+00  3.84295E+00  2.62598E+00  2.90408E+00  1.53536E+00  3.26541E+00  3.19393E+00  3.10845E+00
   2.73220E+00  2.27256E+00  3.80912E+00  2.81723E+00  1.46851E+00  3.93176E+00  3.06036E+00  1.66753E+00  3.09318E+00  2.71884E+00
   2.56020E+00  1.84005E+00  2.44549E+00  3.99936E+00  2.38658E+00  4.21487E+00  2.95277E+00  1.20549E+00  2.50122E+00  1.90656E+00
   2.54674E+00  2.10068E+00  3.32353E+00  1.69233E+00  2.38842E+00  1.98428E+00  3.61938E+00  1.79834E+00  3.36950E+00  2.44861E+00
   1.20456E+00  2.59145E+00  4.25233E+00  3.82233E+00  4.73273E+00  2.81687E+00  1.65019E+00  3.53047E+00  1.69275E+00  3.02239E+00
   6.45131E-01  2.91697E+00  1.54582E+00  2.30727E+00  2.30422E+00  2.83114E+00  4.02527E+00  1.20584E+00  4.23473E+00  2.75085E+00
   2.65026E+00  3.09731E+00  3.04894E+00  1.24676E+00  2.67047E+00  4.19661E+00  2.95275E+00  2.20717E+00  3.57722E+00  3.34328E+00
   2.86645E+00  2.87648E+00  3.93201E+00  2.86165E+00  2.55791E+00  1.46840E+00  9.39746E-01  1.83281E+00  1.64623E+00  1.25747E-01
   2.93796E+00  2.38846E+00  2.94386E+00  1.59632E+00  2.38423E+00  2.39692E+00  2.16586E+00  8.84512E-01  2.50872E+00  3.21829E+00
   1.48088E+00  3.68910E+00  2.02060E+00  3.15803E+00  2.28834E+00  2.67039E+00  2.72595E+00  1.24998E+00  3.67294E+00  2.47887E+00
   1.89020E+00  1.12546E+00  1.94328E+00  2.10496E+00  3.38041E+00  2.23786E+00  2.31647E+00  8.39072E-01 -3.30394E-02  2.89733E+00
   2.53409E+00  6.93931E-01  7.30633E-01  2.44206E+00  2.49394E+00  8.79641E-01  5.90465E-01  8.20864E-01  1.39625E+00  5.03153E+00
   1.65053E+00  1.72487E+00  6.21002E-01  1.71476E+00  4.23686E-01  1.73847E+00  1.12049E+00  1.02378E+00  1.39857E+00  1.83505E+00
   1.25273E+00 -1.17551E-01  9.42764E-01  8.10826E-01  7.13923E-01  8.62405E-02  1.35415E+00  8.55379E-01  5.11442E-01  1.76953E+00
   3.01199E-01  1.82286E+00 -4.41982E-01  1.35542E-01  6.37435E-01 -1.03569E+00 -4.96924E-02  8.96527E-01  3.55868E-02  2.48415E+00
   8.78523E-01  2.42651E-01 -1.00343E+00  1.01845E+00 -9.32130E-01 -5.91906E-02  4.52202E-01  6.01850E-01 -1.79136E+00  8.67168E-03
   6.91401E-01 -2.06667E-01  2.33155E+00  1.14377E+00  2.93760E-01 -5.51894E-01  7.30409E-02 -1.18386E+00 -1.56866E-02 -9.78841E-01
   2.14001E-01  4.08452E-01 -7.22181E-01  1.30090E-01 -2.60891E-01  4.27862E-01  7.63822E-02 -2.65312E-01  2.46591E-01  1.31364E-01
  -7.59696E-01 -2.39517E-02 -8.64735E-02 -7.69830E-03  1.81573E+00 -1.23366E+00  7.96492E-01  3.49742E-02 -2.72078E-02  3.41523E-04
  -1.68707E+00 -8.84410E-01 -1.36513E+00 -2.52047E-01  1.35983E+00  2.38168E-01 -1.38954E-01 -1.10586E+00 -8.29568E-02  9.00041E-01
  -4.16183E-01  2.70613E-01  4.55683E-01  1.84757E+00 -8.61314E-01  8.77969E-01  1.18467E-01  1.56229E+00  1.64092E+00 -1.37717E+00
  -1.91358E+00 -6.64915E-01 -5.57395E-01 -7.29694E-01  7.95018E-02  1.94054E+00  4.06407E-02  9.60984E-01  4.54898E-01 -4.77070E-01
   1.15490E-01  9.35994E-01  2.81483E-01  8.24506E-01  1.03146E+00  8.57923E-01  1.56867E+00 -6.96379E-01  8.78795E-01 -6.62747E-01
   1.16317E+00  3.97635E-01 -1.08069E+00  5.28309E-02  2.29858E+00  1.21121E-01  1.67293E+00 -1.32033E+00  5.47946E-01  1.38612E-01
   8.89685E-01  8.44281E-01  3.63034E+00  2.84730E+00  1.69431E+00  2.97397E+00  2.13254E+00  2.58007E+00  3.10907E+00  1.71366E+00
   5.07773E+00  3.93464E+00  4.03629E+00  6.63063E+00  5.23406E+00  6.03960E+00  5.95909E+00  5.94702E+00  4.83203E+00  5.19166E+00
   6.35635E+00  9.02686E+00  5.99483E+00  8.19287E+00  8.57062E+00  8.50527E+00  9.90343E+00  9.05485E+00  1.05030E+01  1.12666E+01
   1.17497E+01  1.22004E+01  1.26141E+01  1.27162E+01  1.49975E+01  1.43793E+01  1.37215E+01  1.61201E+01  1.56783E+01  1.56826E+01
   1.68968E+01  1.90170E+01  1.73918E+01  1.89538E+01  2.07937E+01  2.03767E+01  2.08889E+01  2.22656E+01  2.16173E+01  2.21219E+01
   2.44595E+01  2.26938E+01  2.36230E+01  2.14841E+01  2.10729E+01  2.19526E+01  2.29083E+01  2.10547E+01  2.09506E+01  2.15839E+01
   2.22867E+01  2.02418E+01  2.05606E+01  2.10728E+01  2.11046E+01  2.14995E+01  1.90939E+01  1.85353E+01  1.74821E+01  1.70174E+01
   1.73017E+01  1.92127E+01  1.63923E+01  1.47249E+01  1.52325E+01  1.51401E+01  1.54337E+01  1.47380E+01  1.59445E+01  1.40888E+01
   1.49709E+01  1.42676E+01  1.49263E+01  1.43095E+01  1.34537E+01  1.37833E+01  1.39783E+01  1.29143E+01  1.47467E+01  1.52468E+01
   1.37652E+01  1.40141E+01  1.17436E+01  1.18727E+01  1.22042E+01  1.25178E+01  1.24895E+01  1.32993E+01  1.18644E+01  1.26841E+01
   1.27042E+01  1.16525E+01  1.02701E+01  1.29119E+01  1.18136E+01  1.21070E+01  1.22131E+01  1.00733E+01  1.00530E+01  1.12753E+01
   1.01636E+01  1.30466E+01  1.03937E+01  1.04167E+01  1.06646E+01  1.22853E+01  1.12199E+01  1.01342E+01  9.06339E+00  1.09142E+01
   1.09500E+01  9.87676E+00  1.12554E+01  1.03408E+01  9.08516E+00  9.74569E+00  9.13513E+00  7.38546E+00  9.96444E+00  8.49533E+00
   1.03507E+01  6.80068E+00  1.00042E+01  7.89552E+00  7.86706E+00  9.21806E+00  8.14751E+00  7.09567E+00  6.67830E+00  8.38510E+00
   8.51507E+00  7.97897E+00  7.12176E+00  8.02435E+00  8.38631E+00  8.15603E+00  8.26766E+00  7.51997E+00  8.07478E+00  8.35636E+00
   7.28479E+00  6.42963E+00  7.73737E+00  7.83278E+00  7.45447E+00  7.87955E+00  7.15671E+00  7.47062E+00  8.07461E+00  7.01747E+00
   6.83271E+00  6.15093E+00  6.19199E+00  6.17231E+00  4.98834E+00  6.93341E+00  5.96440E+00  6.90166E+00  6.33906E+00  5.10267E+00
   5.64163E+00  7.11735E+00  5.86133E+00  5.06327E+00  5.78531E+00  5.96240E+00  5.70384E+00  6.97779E+00  5.47248E+00  4.78661E+00
   5.44399E+00  3.79054E+00  3.77000E+00  4.35089E+00  3.89572E+00  5.95047E+00  5.47591E+00  5.31390E+00  4.75025E+00  3.76737E+00
   3.39080E+00  3.64041E+00  5.46865E+00  4.39757E+00  4.09996E+00  5.82971E+00  4.49278E+00  5.32728E+00  3.58122E+00  4.95375E+00
   4.68545E+00  4.01490E+00  4.27134E+00  3.94451E+00  3.98653E+00  3.01023E+00  3.64307E+00  4.49286E+00  4.22110E+00  3.75453E+00
   3.59231E+00  4.80018E+00  4.61596E+00  2.66213E+00  3.53246E+00  2.79894E+00  3.96277E+00  3.55477E+00  4.32659E+00  4.04732E+00
   4.53896E+00  3.56793E+00  4.88042E+00  2.84509E+00  2.70401E+00  2.00298E+00  2.74380E+00  3.78009E+00
 NY points of the fit to the data follow
   3.07242E+00  3.41897E+00  3.03747E+00  3.34166E+00  3.09152E+00  3.38863E+00  3.21307E+00  3.47652E+00  3.25379E+00  3.44133E+00
   3.14417E+00  3.25885E+00  2.94216E+00  3.09026E+00  2.75142E+00  2.99075E+00  2.67042E+00  2.95014E+00  2.67533E+00  2.94893E+00
   2.67900E+00  2.93179E+00  2.67755E+00  2.88672E+00  2.67253E+00  2.79428E+00  2.63941E+00  2.68961E+00  2.63966E+00  2.64782E+00
   2.72208E+00  2.69924E+00  2.88937E+00  2.82469E+00  3.06926E+00  2.90110E+00  3.17019E+00  2.92551E+00  3.19467E+00  2.87431E+00
   3.11676E+00  2.80698E+00  3.10007E+00  2.83592E+00  3.14428E+00  2.91900E+00  3.23045E+00  3.03932E+00  3.23583E+00  2.98111E+00
   3.08970E+00  2.83160E+00  2.90990E+00  2.66285E+00  2.72939E+00  2.56956E+00  2.69691E+00  2.57441E+00  2.70751E+00  2.59538E+00
   2.72418E+00  2.60554E+00  2.69048E+00  2.54090E+00  2.61218E+00  2.46342E+00  2.53798E+00  2.40388E+00  2.48420E+00  2.36684E+00
   2.45348E+00  2.31944E+00  2.37259E+00  2.21117E+00  2.23960E+00  2.06284E+00  2.07510E+00  1.89329E+00  1.90151E+00  1.72812E+00
   1.73108E+00  1.57344E+00  1.57687E+00  1.44147E+00  1.46527E+00  1.44342E+00  1.51302E+00  1.55109E+00  1.65353E+00  1.71613E+00
   1.84983E+00  1.93223E+00  2.09679E+00  2.18207E+00  2.37728E+00  2.43271E+00  2.63730E+00  2.64663E+00  2.84720E+00  2.77998E+00
   2.96257E+00  2.83918E+00  2.99963E+00  2.81444E+00  2.94361E+00  2.70611E+00  2.79894E+00  2.53507E+00  2.61463E+00  2.41353E+00
   2.48639E+00  2.34350E+00  2.40975E+00  2.30854E+00  2.36885E+00  2.32052E+00  2.37887E+00  2.36437E+00  2.40262E+00  2.39505E+00
   2.40027E+00  2.41081E+00  2.39386E+00  2.39994E+00  2.38166E+00  2.41964E+00  2.40792E+00  2.39062E+00  2.36540E+00  2.28822E+00
   2.25405E+00  2.13164E+00  2.09699E+00  1.94188E+00  1.91276E+00  1.74476E+00  1.72224E+00  1.54492E+00  1.52788E+00  1.34997E+00
   1.33655E+00  1.15938E+00  1.14494E+00  9.71185E-01  9.57916E-01  8.08192E-01  7.99640E-01  6.80811E-01  6.84949E-01  6.28109E-01
   6.38489E-01  5.96593E-01  6.03151E-01  5.72724E-01  5.75239E-01  5.56301E-01  5.55144E-01  5.40022E-01  5.30125E-01  5.18876E-01
   5.03734E-01  4.98089E-01  4.84145E-01  4.83063E-01  4.72900E-01  4.72523E-01  4.64653E-01  4.61928E-01  4.54561E-01  4.49402E-01
   4.42172E-01  4.36579E-01  4.33869E-01  4.31548E-01  4.35702E-01  4.34884E-01  4.38319E-01  4.36383E-01  4.31721E-01  4.23182E-01
   4.06114E-01  3.99065E-01  3.76866E-01  3.82102E-01  3.63637E-01  3.83235E-01  3.64638E-01  4.01470E-01  3.79824E-01  4.29909E-01
   4.02101E-01  4.50817E-01  3.95238E-01  4.51983E-01  3.87042E-01  4.54964E-01  3.88014E-01  4.63924E-01  3.96226E-01  4.77358E-01
   4.11813E-01  4.93922E-01  4.33743E-01  5.13344E-01  4.58848E-01  5.35101E-01  4.96072E-01  5.66316E-01  5.40446E-01  6.09384E-01
   6.03654E-01  6.70631E-01  6.82373E-01  7.41444E-01  7.57948E-01  8.03825E-01  8.16028E-01  8.44133E-01  8.36635E-01  8.59118E-01
   8.47466E-01  8.73699E-01  8.67157E-01  9.07615E-01  9.03880E-01  9.38756E-01  9.30147E-01  9.52309E-01  9.38919E-01  9.41991E-01
   9.24064E-01  9.05045E-01  8.84545E-01  8.55246E-01  8.51565E-01  8.16366E-01  8.30868E-01  7.87795E-01  8.19211E-01  7.70349E-01
   8.13764E-01  7.58493E-01  8.13670E-01  7.56689E-01  8.20984E-01  7.70288E-01  8.44685E-01  8.01052E-01  8.81069E-01  8.45548E-01
   9.26841E-01  8.96207E-01  9.75537E-01  9.46873E-01  1.01848E+00  9.97901E-01  1.06648E+00  1.05391E+00  1.11537E+00  1.12112E+00
   1.18388E+00  1.20116E+00  1.26031E+00  1.28847E+00  1.34124E+00  1.36855E+00  1.41737E+00  1.44759E+00  1.49807E+00  1.53592E+00
   1.59250E+00  1.64180E+00  1.70975E+00  1.77827E+00  1.86286E+00  1.95506E+00  2.06298E+00  2.18632E+00  2.32717E+00  2.49139E+00
   2.67857E+00  2.89594E+00  3.14414E+00  3.42900E+00  3.75033E+00  4.11238E+00  4.51338E+00  4.95478E+00  5.43229E+00  5.94423E+00
   6.48291E+00  7.04339E+00  7.61499E+00  8.19070E+00  8.75804E+00  9.30977E+00  9.83420E+00  1.03265E+01  1.07791E+01  1.11923E+01
   1.15654E+01  1.19065E+01  1.22237E+01  1.25342E+01  1.28565E+01  1.32191E+01  1.36569E+01  1.42292E+01  1.50509E+01  1.61877E+01
   1.69718E+01  1.82129E+01  1.87641E+01  1.99028E+01  2.01505E+01  2.10481E+01  2.07944E+01  2.18257E+01  2.14827E+01  2.24622E+01
   2.20600E+01  2.27587E+01  2.21784E+01  2.24682E+01  2.19089E+01  2.19461E+01  2.15270E+01  2.12958E+01  2.12750E+01  2.12195E+01
   2.14282E+01  2.10299E+01  2.12552E+01  2.04685E+01  2.07628E+01  1.95554E+01  1.97028E+01  1.85833E+01  1.87128E+01  1.76526E+01
   1.77176E+01  1.66481E+01  1.65727E+01  1.55960E+01  1.56393E+01  1.50698E+01  1.51932E+01  1.49058E+01  1.51424E+01  1.52017E+01
   1.52295E+01  1.50942E+01  1.48720E+01  1.47717E+01  1.44655E+01  1.43763E+01  1.39573E+01  1.40196E+01  1.37847E+01  1.37767E+01
   1.35495E+01  1.33882E+01  1.31512E+01  1.29439E+01  1.27924E+01  1.26527E+01  1.25671E+01  1.24915E+01  1.25047E+01  1.25447E+01
   1.24121E+01  1.21218E+01  1.18768E+01  1.14668E+01  1.11989E+01  1.07513E+01  1.05144E+01  1.04031E+01  1.03610E+01  1.03662E+01
   1.04026E+01  1.04608E+01  1.05299E+01  1.06029E+01  1.06705E+01  1.07270E+01  1.07647E+01  1.07800E+01  1.07674E+01  1.07260E+01
   1.06533E+01  1.05513E+01  1.04205E+01  1.02655E+01  1.00892E+01  9.89812E+00  9.69637E+00  9.49116E+00  9.28666E+00  9.08960E+00
   8.90314E+00  8.73261E+00  8.57946E+00  8.44711E+00  8.33506E+00  8.24481E+00  8.17408E+00  8.12277E+00  8.08722E+00  8.06620E+00
   8.05522E+00  8.05255E+00  8.05342E+00  8.05608E+00  8.05595E+00  8.05169E+00  8.03931E+00  8.01818E+00  7.98514E+00  7.94042E+00
   7.88176E+00  7.81032E+00  7.72472E+00  7.62696E+00  7.51642E+00  7.39569E+00  7.26470E+00  7.12645E+00  6.98114E+00  6.83195E+00
   6.67911E+00  6.52570E+00  6.37179E+00  6.22026E+00  6.07089E+00  5.92622E+00  5.78567E+00  5.65143E+00  5.52258E+00  5.40097E+00
   5.28538E+00  5.17741E+00  5.07556E+00  4.98124E+00  4.89279E+00  4.81148E+00  4.73557E+00  4.66625E+00  4.60171E+00  4.54311E+00
   4.48866E+00  4.43950E+00  4.39387E+00  4.35292E+00  4.31490E+00  4.28101E+00  4.24953E+00  4.22171E+00  4.19585E+00  4.17321E+00
   4.15213E+00  4.13393E+00  4.11697E+00  4.10257E+00  4.08914E+00  4.07801E+00  4.06760E+00  4.05928E+00  4.05150E+00  4.04562E+00
   4.04011E+00  4.03634E+00  4.03279E+00  4.03087E+00  4.02905E+00  4.02874E+00  4.02842E+00  4.02952E+00  4.03052E+00  4.03287E+00
   4.03505E+00  4.03849E+00  4.04171E+00  4.04613E+00  4.05026E+00  4.05556E+00  4.06052E+00  4.06661E+00  4.07232E+00  4.07911E+00
   4.08551E+00  4.09296E+00  4.10000E+00  4.10808E+00  4.11574E+00  4.12444E+00  4.13274E+00  4.14213E+00
 NY background values follow
     1.395E+00    1.389E+00    1.383E+00    1.377E+00    1.371E+00    1.365E+00    1.358E+00    1.352E+00    1.346E+00    1.339E+00
     1.333E+00    1.326E+00    1.320E+00    1.313E+00    1.307E+00    1.300E+00    1.293E+00    1.286E+00    1.280E+00    1.273E+00
     1.266E+00    1.259E+00    1.252E+00    1.245E+00    1.238E+00    1.231E+00    1.224E+00    1.216E+00    1.209E+00    1.202E+00
     1.195E+00    1.188E+00    1.180E+00    1.173E+00    1.166E+00    1.158E+00    1.151E+00    1.143E+00    1.136E+00    1.128E+00
     1.121E+00    1.113E+00    1.106E+00    1.098E+00    1.091E+00    1.083E+00    1.075E+00    1.068E+00    1.060E+00    1.052E+00
     1.045E+00    1.037E+00    1.029E+00    1.022E+00    1.014E+00    1.006E+00    9.984E-01    9.906E-01    9.829E-01    9.751E-01
     9.674E-01    9.596E-01    9.519E-01    9.441E-01    9.364E-01    9.286E-01    9.209E-01    9.131E-01    9.054E-01    8.976E-01
     8.899E-01    8.822E-01    8.745E-01    8.668E-01    8.591E-01    8.514E-01    8.437E-01    8.361E-01    8.284E-01    8.208E-01
     8.132E-01    8.056E-01    7.980E-01    7.904E-01    7.829E-01    7.754E-01    7.679E-01    7.604E-01    7.529E-01    7.455E-01
     7.381E-01    7.307E-01    7.234E-01    7.160E-01    7.087E-01    7.015E-01    6.942E-01    6.870E-01    6.798E-01    6.727E-01
     6.656E-01    6.585E-01    6.515E-01    6.445E-01    6.375E-01    6.306E-01    6.237E-01    6.169E-01    6.101E-01    6.034E-01
     5.966E-01    5.900E-01    5.834E-01    5.768E-01    5.703E-01    5.638E-01    5.574E-01    5.510E-01    5.447E-01    5.384E-01
     5.322E-01    5.260E-01    5.199E-01    5.138E-01    5.078E-01    5.019E-01    4.960E-01    4.902E-01    4.844E-01    4.787E-01
     4.731E-01    4.675E-01    4.620E-01    4.565E-01    4.511E-01    4.458E-01    4.406E-01    4.354E-01    4.303E-01    4.253E-01
     4.203E-01    4.154E-01    4.106E-01    4.058E-01    4.012E-01    3.966E-01    3.921E-01    3.876E-01    3.833E-01    3.790E-01
     3.748E-01    3.707E-01    3.667E-01    3.627E-01    3.589E-01    3.551E-01    3.514E-01    3.478E-01    3.443E-01    3.408E-01
     3.375E-01    3.343E-01    3.311E-01    3.281E-01    3.251E-01    3.222E-01    3.195E-01    3.168E-01    3.142E-01    3.117E-01
     3.093E-01    3.071E-01    3.049E-01    3.028E-01    3.008E-01    2.989E-01    2.971E-01    2.953E-01    2.937E-01    2.922E-01
     2.908E-01    2.895E-01    2.882E-01    2.871E-01    2.860E-01    2.851E-01    2.842E-01    2.835E-01    2.828E-01    2.823E-01
     2.818E-01    2.814E-01    2.811E-01    2.810E-01    2.809E-01    2.809E-01    2.810E-01    2.812E-01    2.815E-01    2.819E-01
     2.823E-01    2.829E-01    2.836E-01    2.843E-01    2.852E-01    2.862E-01    2.872E-01    2.883E-01    2.896E-01    2.909E-01
     2.923E-01    2.938E-01    2.955E-01    2.972E-01    2.990E-01    3.009E-01    3.028E-01    3.049E-01    3.071E-01    3.094E-01
     3.117E-01    3.142E-01    3.167E-01    3.194E-01    3.221E-01    3.249E-01    3.278E-01    3.309E-01    3.340E-01    3.372E-01
     3.405E-01    3.438E-01    3.473E-01    3.509E-01    3.546E-01    3.583E-01    3.622E-01    3.661E-01    3.701E-01    3.743E-01
     3.785E-01    3.828E-01    3.872E-01    3.917E-01    3.963E-01    4.009E-01    4.057E-01    4.106E-01    4.155E-01    4.206E-01
     4.257E-01    4.309E-01    4.363E-01    4.417E-01    4.472E-01    4.528E-01    4.585E-01    4.642E-01    4.701E-01    4.761E-01
     4.821E-01    4.883E-01    4.945E-01    5.008E-01    5.072E-01    5.137E-01    5.203E-01    5.270E-01    5.338E-01    5.407E-01
     5.476E-01    5.547E-01    5.618E-01    5.690E-01    5.764E-01    5.838E-01    5.913E-01    5.989E-01    6.065E-01    6.143E-01
     6.222E-01    6.301E-01    6.382E-01    6.463E-01    6.545E-01    6.628E-01    6.712E-01    6.797E-01    6.883E-01    6.969E-01
     7.057E-01    7.145E-01    7.235E-01    7.325E-01    7.416E-01    7.508E-01    7.601E-01    7.695E-01    7.789E-01    7.885E-01
     7.981E-01    8.079E-01    8.177E-01    8.276E-01    8.376E-01    8.477E-01    8.579E-01    8.681E-01    8.785E-01    8.889E-01
     8.995E-01    9.101E-01    9.208E-01    9.316E-01    9.425E-01    9.534E-01    9.645E-01    9.756E-01    9.869E-01    9.982E-01
     1.010E+00    1.021E+00    1.033E+00    1.044E+00    1.056E+00    1.068E+00    1.080E+00    1.092E+00    1.104E+00    1.116E+00
     1.128E+00    1.141E+00    1.153E+00    1.166E+00    1.178E+00    1.191E+00    1.204E+00    1.217E+00    1.230E+00    1.243E+00
     1.256E+00    1.269E+00    1.282E+00    1.296E+00    1.309E+00    1.323E+00    1.336E+00    1.350E+00    1.364E+00    1.377E+00
     1.391E+00    1.405E+00    1.419E+00    1.433E+00    1.448E+00    1.462E+00    1.476E+00    1.490E+00    1.505E+00    1.519E+00
     1.534E+00    1.549E+00    1.563E+00    1.578E+00    1.593E+00    1.608E+00    1.623E+00    1.638E+00    1.653E+00    1.668E+00
     1.683E+00    1.698E+00    1.713E+00    1.729E+00    1.744E+00    1.759E+00    1.775E+00    1.790E+00    1.806E+00    1.822E+00
     1.837E+00    1.853E+00    1.869E+00    1.884E+00    1.900E+00    1.916E+00    1.932E+00    1.948E+00    1.964E+00    1.980E+00
     1.996E+00    2.012E+00    2.029E+00    2.045E+00    2.061E+00    2.077E+00    2.094E+00    2.110E+00    2.126E+00    2.143E+00
     2.159E+00    2.176E+00    2.192E+00    2.209E+00    2.225E+00    2.242E+00    2.259E+00    2.275E+00    2.292E+00    2.309E+00
     2.325E+00    2.342E+00    2.359E+00    2.376E+00    2.392E+00    2.409E+00    2.426E+00    2.443E+00    2.460E+00    2.477E+00
     2.494E+00    2.510E+00    2.527E+00    2.544E+00    2.561E+00    2.578E+00    2.595E+00    2.612E+00    2.629E+00    2.646E+00
     2.663E+00    2.680E+00    2.697E+00    2.714E+00    2.731E+00    2.748E+00    2.765E+00    2.782E+00    2.799E+00    2.816E+00
     2.833E+00    2.850E+00    2.867E+00    2.884E+00    2.901E+00    2.918E+00    2.935E+00    2.952E+00    2.969E+00    2.986E+00
     3.003E+00    3.020E+00    3.037E+00    3.054E+00    3.071E+00    3.088E+00    3.105E+00    3.122E+00    3.139E+00    3.155E+00
     3.172E+00    3.189E+00    3.206E+00    3.223E+00    3.239E+00    3.256E+00    3.273E+00    3.289E+00    3.306E+00    3.323E+00
     3.339E+00    3.356E+00    3.372E+00    3.389E+00    3.405E+00    3.422E+00    3.438E+00    3.455E+00    3.471E+00    3.487E+00
     3.504E+00    3.520E+00    3.536E+00    3.552E+00    3.569E+00    3.585E+00    3.601E+00    3.617E+00    3.633E+00    3.649E+00
     3.665E+00    3.680E+00    3.696E+00    3.712E+00    3.728E+00    3.743E+00    3.759E+00    3.775E+00
 Ala      Conc. = 2.63E+03
