 LCModel (Version 6.3-1L) Copyright: S.W. Provencher.          Ref.: Magn. Reson. Med. 30:672-679 (1993).                
 Slice#2 Row#7 Col#14  PD_05_press_1_raw_act
 36 lines in following concentration table = NCONC+1
    Conc.  %SD /Cr+PCr  Metabolite                                         
 1.82E+03  20%  22.097 Ala                                                 
    6.623  65% 8.0E-02 Asp                                                 
    0.000 999%   0.000 Cr                                                  
   82.411  29%   1.000 PCr                                                 
    3.984  65% 4.8E-02 GABA                                                
    4.039  64% 4.9E-02 Glc                                                 
  293.183  77%   3.558 Gln                                                 
  689.263  41%   8.364 Glu                                                 
    0.000 999%   0.000 GPC                                                 
   16.687  52%   0.202 PCh                                                 
    0.000 999%   0.000 GSH                                                 
    0.000 999%   0.000 Ins                                                 
    0.000 999%   0.000 Lac                                                 
    0.000 999%   0.000 NAA                                                 
    0.000 999%   0.000 NAAG                                                
    1.407  61% 1.7E-02 Scyllo                                              
    6.927  62% 8.4E-02 Tau                                                 
   12.818 123%   0.156 -CrCH2                                              
   16.687  52%   0.202 GPC+PCh                                             
    0.000 999%   0.000 NAA+NAAG                                            
   82.411  29%   1.000 Cr+PCr                                              
  982.445  38%  11.921 Glu+Gln                                             
 1.22E+04   6% 147.725 Lip13a                                              
    6.931 751% 8.4E-02 Lip13b                                              
 2.84E+03  11%  34.440 Lip09                                               
    0.000 999%   0.000 MM09                                                
  336.694  44%   4.086 Lip20                                               
    0.000 999%   0.000 MM20                                                
    0.000 999%   0.000 MM12                                                
 3.35E+03  13%  40.667 MM14                                                
 4.31E+03   9%  52.316+MM17                                                
 1.22E+04   6% 147.809 Lip13a+Lip13b                                       
 1.55E+04   4% 188.476 MM14+Lip13a+Lip13b+MM12                             
 2.84E+03  11%  34.440 MM09+Lip09                                          
  336.694  44%   4.086 MM20+Lip20                                          
   6 lines in following misc. output table
  FWHM = 0.153 ppm    S/N =  15                                            
  Data shift = 0.313 ppm                                                   
  Ph:  11 deg      -5.2 deg/ppm                                            
  alphaB,S = 8.5E+01,   4.1E+02                                            
    6 spline knots.   Ns = 9(2)                                            
   2 inflections.     1 extrema                                            
  498 points on ppm-axis = NY
      4.000000     3.992357     3.984714     3.977070     3.969427     3.961784     3.954141     3.946497     3.938854     3.931211
      3.923568     3.915925     3.908281     3.900638     3.892995     3.885352     3.877708     3.870065     3.862422     3.854779
      3.847136     3.839492     3.831849     3.824206     3.816563     3.808919     3.801276     3.793633     3.785990     3.778347
      3.770703     3.763060     3.755417     3.747774     3.740130     3.732487     3.724844     3.717201     3.709558     3.701914
      3.694271     3.686628     3.678985     3.671341     3.663698     3.656055     3.648412     3.640769     3.633125     3.625482
      3.617839     3.610196     3.602552     3.594909     3.587266     3.579623     3.571980     3.564336     3.556693     3.549050
      3.541407     3.533763     3.526120     3.518477     3.510834     3.503191     3.495547     3.487904     3.480261     3.472618
      3.464974     3.457331     3.449688     3.442045     3.434402     3.426758     3.419115     3.411472     3.403829     3.396185
      3.388542     3.380899     3.373256     3.365613     3.357969     3.350326     3.342683     3.335040     3.327396     3.319753
      3.312110     3.304467     3.296824     3.289180     3.281537     3.273894     3.266251     3.258607     3.250964     3.243321
      3.235678     3.228034     3.220391     3.212748     3.205105     3.197462     3.189818     3.182175     3.174532     3.166889
      3.159245     3.151602     3.143959     3.136316     3.128673     3.121029     3.113386     3.105743     3.098100     3.090456
      3.082813     3.075170     3.067527     3.059884     3.052240     3.044597     3.036954     3.029311     3.021667     3.014024
      3.006381     2.998738     2.991095     2.983451     2.975808     2.968165     2.960522     2.952878     2.945235     2.937592
      2.929949     2.922306     2.914662     2.907019     2.899376     2.891733     2.884089     2.876446     2.868803     2.861160
      2.853517     2.845873     2.838230     2.830587     2.822944     2.815300     2.807657     2.800014     2.792371     2.784728
      2.777084     2.769441     2.761798     2.754155     2.746511     2.738868     2.731225     2.723582     2.715939     2.708295
      2.700652     2.693009     2.685366     2.677722     2.670079     2.662436     2.654793     2.647150     2.639506     2.631863
      2.624220     2.616577     2.608933     2.601290     2.593647     2.586004     2.578361     2.570717     2.563074     2.555431
      2.547788     2.540144     2.532501     2.524858     2.517215     2.509572     2.501928     2.494285     2.486642     2.478999
      2.471355     2.463712     2.456069     2.448426     2.440783     2.433139     2.425496     2.417853     2.410210     2.402566
      2.394923     2.387280     2.379637     2.371994     2.364350     2.356707     2.349064     2.341421     2.333777     2.326134
      2.318491     2.310848     2.303205     2.295561     2.287918     2.280275     2.272632     2.264988     2.257345     2.249702
      2.242059     2.234416     2.226772     2.219129     2.211486     2.203843     2.196199     2.188556     2.180913     2.173270
      2.165627     2.157983     2.150340     2.142697     2.135054     2.127410     2.119767     2.112124     2.104481     2.096838
      2.089194     2.081551     2.073908     2.066265     2.058621     2.050978     2.043335     2.035692     2.028049     2.020405
      2.012762     2.005119     1.997476     1.989833     1.982190     1.974546     1.966903     1.959260     1.951617     1.943974
      1.936331     1.928688     1.921045     1.913402     1.905759     1.898115     1.890472     1.882829     1.875186     1.867543
      1.859900     1.852257     1.844614     1.836971     1.829327     1.821684     1.814041     1.806398     1.798755     1.791112
      1.783469     1.775826     1.768183     1.760540     1.752896     1.745253     1.737610     1.729967     1.722324     1.714681
      1.707038     1.699395     1.691752     1.684108     1.676465     1.668822     1.661179     1.653536     1.645893     1.638250
      1.630607     1.622964     1.615321     1.607677     1.600034     1.592391     1.584748     1.577105     1.569462     1.561819
      1.554176     1.546533     1.538890     1.531246     1.523603     1.515960     1.508317     1.500674     1.493031     1.485388
      1.477745     1.470102     1.462458     1.454815     1.447172     1.439529     1.431886     1.424243     1.416600     1.408957
      1.401314     1.393671     1.386027     1.378384     1.370741     1.363098     1.355455     1.347812     1.340169     1.332526
      1.324883     1.317240     1.309596     1.301953     1.294310     1.286667     1.279024     1.271381     1.263738     1.256095
      1.248452     1.240808     1.233165     1.225522     1.217879     1.210236     1.202593     1.194950     1.187307     1.179664
      1.172021     1.164377     1.156734     1.149091     1.141448     1.133805     1.126162     1.118519     1.110876     1.103233
      1.095590     1.087946     1.080303     1.072660     1.065017     1.057374     1.049731     1.042088     1.034445     1.026802
      1.019158     1.011515     1.003872     0.996229     0.988586     0.980943     0.973300     0.965657     0.958014     0.950371
      0.942727     0.935084     0.927441     0.919798     0.912155     0.904512     0.896869     0.889226     0.881583     0.873940
      0.866296     0.858653     0.851010     0.843367     0.835724     0.828081     0.820438     0.812795     0.805152     0.797508
      0.789865     0.782222     0.774579     0.766936     0.759293     0.751650     0.744007     0.736364     0.728721     0.721077
      0.713434     0.705791     0.698148     0.690505     0.682862     0.675219     0.667576     0.659933     0.652290     0.644646
      0.637003     0.629360     0.621717     0.614074     0.606431     0.598788     0.591145     0.583502     0.575858     0.568215
      0.560572     0.552929     0.545286     0.537643     0.530000     0.522357     0.514714     0.507071     0.499427     0.491784
      0.484141     0.476498     0.468855     0.461212     0.453569     0.445925     0.438282     0.430639     0.422996     0.415353
      0.407710     0.400067     0.392424     0.384780     0.377137     0.369494     0.361851     0.354208     0.346565     0.338922
      0.331278     0.323635     0.315992     0.308349     0.300706     0.293063     0.285420     0.277777     0.270133     0.262490
      0.254847     0.247204     0.239561     0.231918     0.224275     0.216631     0.208988     0.201345
 NY phased data points follow
   4.25071E+00  3.76939E+00  5.53646E+00  4.63000E+00  2.61167E+00  3.00895E+00  5.41931E+00  4.09260E+00  2.53889E+00  4.17327E+00
   3.46548E+00  3.36727E+00  4.60186E+00  4.23321E+00  4.02056E+00  3.36689E+00  3.80509E+00  2.48130E+00  2.88600E+00  1.80680E+00
   3.23107E+00  4.35571E+00  2.13977E+00  3.48197E+00  3.56363E+00  4.17245E+00  4.40295E+00  2.93831E+00  3.78572E+00  3.98787E+00
   3.34537E+00  2.07553E+00  2.87479E+00  3.20373E+00  3.61273E+00  3.57668E+00  3.98616E+00  3.51766E+00  3.93356E+00  4.60406E+00
   2.31507E+00  3.43030E+00  2.64151E+00  4.00969E+00  4.00626E+00  3.05012E+00  3.33138E+00  1.66068E+00  2.71739E+00  1.83886E+00
   3.15512E+00  2.78979E+00  2.68942E+00  2.44839E+00  3.92380E+00  4.15680E+00  1.52563E+00  3.12251E+00  1.93671E+00  3.61643E+00
   2.70367E+00  2.74215E+00  4.11385E+00  3.29075E+00  4.14632E+00  4.91053E+00  2.90240E+00  3.44486E+00  2.80620E+00  3.40512E+00
   3.42956E+00  2.65805E+00  3.70886E+00  2.98308E+00  4.15921E+00  2.62133E+00  4.22690E+00  4.36909E+00  3.29566E+00  2.00898E+00
   2.05293E+00  3.17653E+00  2.12026E+00  4.24149E+00  2.41772E+00  3.98971E+00  4.65808E+00  5.62794E+00  3.65862E+00  4.31931E+00
   3.16460E+00  2.74660E+00  2.31565E+00  4.99504E+00  3.09607E+00  2.77346E+00  3.23949E+00  3.58022E+00  4.84101E+00  3.45299E+00
   3.62964E+00  1.40746E+00  2.78759E+00  3.77148E+00  3.84330E+00  3.94395E+00  2.82060E+00  4.32325E+00  3.33025E+00  4.37123E+00
   2.47495E+00  3.04362E+00  2.60500E+00  4.29530E+00  4.43751E+00  3.35537E+00  2.54835E+00  3.82318E+00  5.15213E+00  3.07028E+00
   2.09831E+00  4.05628E+00  3.36103E+00  4.35658E+00  3.49277E+00  2.94581E+00  4.69211E+00  4.10523E+00  4.61048E+00  3.56536E+00
   3.18735E+00  3.88037E+00  5.87381E+00  5.11285E+00  4.89078E+00  2.94177E+00  3.62550E+00  3.94036E+00  3.26963E+00  4.47604E+00
   1.86027E+00  5.66122E+00  3.33299E+00  3.69145E+00  2.01861E+00  2.96385E+00  2.54432E+00  4.38941E+00  2.23687E+00  4.11517E+00
   3.55514E+00  3.97481E+00  3.41411E+00  3.29568E+00  2.88910E+00  3.16892E+00  2.91198E+00  3.53386E+00  4.38425E+00  2.21184E+00
   3.33265E+00  4.94233E+00  2.80925E+00  2.61752E+00  4.19251E+00  3.83087E+00  3.92581E+00  4.64922E+00  3.38230E+00  2.95358E+00
   1.84232E+00  2.63991E+00  3.96561E+00  3.71867E+00  2.57366E+00  3.01991E+00  5.17730E+00  3.71659E+00  4.83890E+00  4.36212E+00
   4.40993E+00  3.18336E+00  3.41905E+00  3.48720E+00  2.68307E+00  2.56532E+00  3.20286E+00  3.58879E+00  4.19674E+00  3.52155E+00
   2.88142E+00  3.09084E+00  2.85082E+00  2.99399E+00  2.55204E+00  3.83473E+00  3.42471E+00  2.52393E+00  2.04129E+00  4.05408E+00
   2.20591E+00  3.41545E+00  9.91454E-01  3.86945E+00  2.78857E+00  3.96996E+00  3.89271E+00  4.01305E+00  3.66538E+00  3.55063E+00
   2.95257E+00  4.06474E+00  2.05910E+00  4.04826E+00  2.55472E+00  4.03047E+00  2.12350E+00  3.92458E+00  3.40887E+00  3.90394E+00
   4.65846E+00  4.79234E+00  2.87805E+00  3.15629E+00  3.39976E+00  3.54869E+00  4.29731E+00  3.08253E+00  4.09608E+00  4.00972E+00
   5.10180E+00  5.46550E+00  6.62688E+00  5.07122E+00  4.83562E+00  5.37735E+00  6.60451E+00  4.92835E+00  4.66913E+00  5.06742E+00
   3.85617E+00  6.23135E+00  5.05353E+00  6.04859E+00  6.70446E+00  5.62247E+00  5.85916E+00  4.54771E+00  4.91918E+00  5.18493E+00
   5.59772E+00  7.25060E+00  6.14758E+00  5.82507E+00  8.86115E+00  7.14149E+00  6.19742E+00  5.73241E+00  7.26817E+00  7.84353E+00
   6.37607E+00  7.61151E+00  6.47732E+00  6.68410E+00  7.85650E+00  6.92039E+00  8.11876E+00  9.16024E+00  9.73337E+00  9.85610E+00
   1.03696E+01  1.02600E+01  1.00230E+01  1.12574E+01  1.16232E+01  1.14657E+01  1.21088E+01  1.24877E+01  1.29169E+01  1.38187E+01
   1.32034E+01  1.49332E+01  1.52906E+01  1.44473E+01  1.53368E+01  1.66406E+01  1.75484E+01  1.63018E+01  1.82917E+01  1.94504E+01
   1.93706E+01  1.98337E+01  2.12635E+01  2.24270E+01  2.26995E+01  2.40294E+01  2.29520E+01  2.48072E+01  2.68119E+01  2.48339E+01
   2.66221E+01  2.76037E+01  2.84567E+01  2.90983E+01  2.99711E+01  3.02921E+01  2.94048E+01  3.12439E+01  2.98293E+01  3.26762E+01
   3.14473E+01  3.23319E+01  3.32800E+01  3.25968E+01  3.32338E+01  3.22341E+01  3.17131E+01  3.20708E+01  3.31252E+01  3.30778E+01
   3.45296E+01  3.34401E+01  3.52128E+01  3.42305E+01  3.45786E+01  3.45896E+01  3.39902E+01  3.28315E+01  3.50846E+01  3.24266E+01
   3.29049E+01  3.35852E+01  3.26516E+01  3.24816E+01  3.22661E+01  3.32954E+01  3.33323E+01  3.34623E+01  3.24795E+01  3.29529E+01
   3.40830E+01  3.47373E+01  3.49775E+01  3.37629E+01  3.58874E+01  3.59415E+01  3.33705E+01  3.51586E+01  3.47979E+01  3.56479E+01
   3.29602E+01  3.35806E+01  3.47440E+01  3.29841E+01  3.29021E+01  3.53065E+01  3.49215E+01  3.33346E+01  3.26114E+01  3.27550E+01
   3.21631E+01  3.17362E+01  3.20738E+01  3.18242E+01  3.02746E+01  3.04791E+01  3.02078E+01  2.99467E+01  2.86671E+01  2.81034E+01
   2.88378E+01  2.72892E+01  2.79157E+01  2.74050E+01  2.69025E+01  2.60517E+01  2.61097E+01  2.64219E+01  2.40615E+01  2.49282E+01
   2.51491E+01  2.37808E+01  2.51266E+01  2.39909E+01  2.41250E+01  2.29802E+01  2.09303E+01  2.15062E+01  2.08201E+01  2.02225E+01
   2.07282E+01  2.01431E+01  1.93266E+01  1.95417E+01  1.83215E+01  1.75802E+01  1.91586E+01  1.65567E+01  1.77369E+01  1.75199E+01
   1.62371E+01  1.62856E+01  1.72678E+01  1.53605E+01  1.73633E+01  1.49561E+01  1.61300E+01  1.44953E+01  1.46146E+01  1.29759E+01
   1.54609E+01  1.40236E+01  1.42572E+01  1.25702E+01  1.33054E+01  1.05430E+01  9.79287E+00  1.20624E+01  1.15148E+01  1.08332E+01
   1.14527E+01  1.19780E+01  1.03565E+01  1.07696E+01  9.48810E+00  1.06485E+01  9.35401E+00  9.05992E+00  9.11117E+00  8.35991E+00
   9.47768E+00  9.59268E+00  8.19268E+00  8.80592E+00  7.12458E+00  6.86245E+00  6.98235E+00  6.53378E+00  7.25398E+00  6.12844E+00
   6.82514E+00  7.78889E+00  7.56804E+00  5.45172E+00  5.65505E+00  6.94911E+00  5.94814E+00  5.64266E+00  4.04162E+00  5.67166E+00
   5.38208E+00  3.35572E+00  3.64276E+00  3.91307E+00  3.35289E+00  5.02170E+00  4.16464E+00  4.76677E+00  5.00693E+00  3.64980E+00
   3.09854E+00  2.27543E+00  4.01633E+00  3.83942E+00  3.09861E+00  2.35908E+00  3.72886E+00  2.44500E+00  3.82134E+00  1.78918E+00
   2.37249E+00  1.83653E+00  2.21601E+00  2.11164E+00  1.77528E+00  2.18913E+00  2.02372E+00  2.83496E+00  1.73235E+00  1.54332E+00
   2.38036E+00  2.12788E+00  1.59357E+00  1.81669E+00  3.16755E+00  9.86018E-01  3.07417E+00  2.54791E+00  1.76757E+00  8.11700E-01
   1.28058E+00  2.01333E+00  2.06256E+00  1.38198E+00  1.69911E+00  1.68473E-01  2.68805E+00  3.65569E-01
 NY points of the fit to the data follow
   3.62623E+00  3.64329E+00  3.64038E+00  3.67691E+00  3.68407E+00  3.76303E+00  3.82263E+00  3.98854E+00  4.00438E+00  4.17402E+00
   4.07818E+00  4.20663E+00  3.98862E+00  4.07108E+00  3.76878E+00  3.92100E+00  3.64749E+00  3.87875E+00  3.61982E+00  3.88657E+00
   3.61861E+00  3.88641E+00  3.58824E+00  3.82442E+00  3.52829E+00  3.72284E+00  3.45639E+00  3.59781E+00  3.38695E+00  3.47791E+00
   3.34104E+00  3.38703E+00  3.34302E+00  3.34276E+00  3.39193E+00  3.35037E+00  3.47289E+00  3.39181E+00  3.55124E+00  3.41750E+00
   3.56282E+00  3.39334E+00  3.52570E+00  3.34144E+00  3.46447E+00  3.29842E+00  3.42400E+00  3.30222E+00  3.38314E+00  3.26492E+00
   3.30256E+00  3.19337E+00  3.20079E+00  3.11395E+00  3.11471E+00  3.08673E+00  3.11282E+00  3.10620E+00  3.12136E+00  3.11637E+00
   3.11619E+00  3.11092E+00  3.09723E+00  3.08737E+00  3.07447E+00  3.06645E+00  3.05563E+00  3.04949E+00  3.04201E+00  3.03742E+00
   3.03211E+00  3.02817E+00  3.02446E+00  3.02058E+00  3.01834E+00  3.01419E+00  3.01276E+00  3.00812E+00  3.00737E+00  3.00245E+00
   3.00283E+00  2.99855E+00  2.99993E+00  2.99797E+00  3.00726E+00  3.03410E+00  3.05244E+00  3.09559E+00  3.11655E+00  3.16671E+00
   3.18634E+00  3.23820E+00  3.25500E+00  3.30807E+00  3.32219E+00  3.37611E+00  3.38714E+00  3.43954E+00  3.44675E+00  3.49422E+00
   3.49590E+00  3.53344E+00  3.52776E+00  3.55081E+00  3.53663E+00  3.54097E+00  3.51916E+00  3.50724E+00  3.49345E+00  3.51078E+00
   3.50252E+00  3.53794E+00  3.52761E+00  3.57559E+00  3.56043E+00  3.62070E+00  3.60150E+00  3.67826E+00  3.65600E+00  3.74942E+00
   3.72258E+00  3.82760E+00  3.79408E+00  3.90632E+00  3.86544E+00  3.98233E+00  3.92931E+00  4.02665E+00  3.95759E+00  4.02498E+00
   3.94226E+00  3.97614E+00  3.88386E+00  3.88193E+00  3.78795E+00  3.75909E+00  3.67248E+00  3.62883E+00  3.55720E+00  3.51181E+00
   3.45913E+00  3.42053E+00  3.38633E+00  3.35723E+00  3.33881E+00  3.31863E+00  3.31375E+00  3.30539E+00  3.31495E+00  3.33027E+00
   3.34388E+00  3.35891E+00  3.37047E+00  3.38330E+00  3.39166E+00  3.40146E+00  3.40612E+00  3.41261E+00  3.41351E+00  3.41647E+00
   3.41355E+00  3.41314E+00  3.40676E+00  3.40320E+00  3.39398E+00  3.38795E+00  3.37711E+00  3.36955E+00  3.35778E+00  3.34943E+00
   3.33746E+00  3.32887E+00  3.31751E+00  3.30930E+00  3.29908E+00  3.28997E+00  3.27686E+00  3.26800E+00  3.24494E+00  3.23797E+00
   3.20698E+00  3.20575E+00  3.17260E+00  3.19070E+00  3.16619E+00  3.20602E+00  3.18847E+00  3.25660E+00  3.24093E+00  3.32501E+00
   3.28807E+00  3.37215E+00  3.26800E+00  3.37383E+00  3.22087E+00  3.36654E+00  3.19469E+00  3.40759E+00  3.27253E+00  3.56171E+00
   3.41440E+00  3.75395E+00  3.55576E+00  3.91077E+00  3.61399E+00  3.94164E+00  3.58069E+00  3.92478E+00  3.53725E+00  3.91722E+00
   3.53360E+00  3.94660E+00  3.58312E+00  4.00606E+00  3.66148E+00  4.07702E+00  3.75703E+00  4.14070E+00  3.83179E+00  4.18710E+00
   3.90423E+00  4.24011E+00  3.99355E+00  4.31638E+00  4.11504E+00  4.40193E+00  4.25854E+00  4.51755E+00  4.44194E+00  4.66695E+00
   4.64431E+00  4.82750E+00  4.82489E+00  4.96398E+00  4.98343E+00  5.08257E+00  5.13497E+00  5.20778E+00  5.30470E+00  5.35161E+00
   5.45186E+00  5.45764E+00  5.57180E+00  5.54355E+00  5.67341E+00  5.62265E+00  5.79532E+00  5.76407E+00  5.96378E+00  5.96276E+00
   6.17593E+00  6.20541E+00  6.41763E+00  6.47335E+00  6.67030E+00  6.74884E+00  6.93239E+00  7.03155E+00  7.19845E+00  7.32555E+00
   7.48341E+00  7.63803E+00  7.78643E+00  7.96206E+00  8.10157E+00  8.29269E+00  8.43541E+00  8.65559E+00  8.81330E+00  9.06576E+00
   9.25127E+00  9.54138E+00  9.76653E+00  1.00976E+01  1.03783E+01  1.07621E+01  1.11142E+01  1.15555E+01  1.19835E+01  1.24857E+01
   1.29902E+01  1.35544E+01  1.41428E+01  1.47762E+01  1.54443E+01  1.61418E+01  1.68788E+01  1.76310E+01  1.84143E+01  1.92052E+01
   2.00136E+01  2.08171E+01  2.16221E+01  2.24090E+01  2.31802E+01  2.39216E+01  2.46334E+01  2.53043E+01  2.59340E+01  2.65168E+01
   2.70537E+01  2.75450E+01  2.79948E+01  2.84089E+01  2.87978E+01  2.91744E+01  2.95600E+01  2.99886E+01  3.05351E+01  3.12431E+01
   3.16604E+01  3.23278E+01  3.25069E+01  3.30159E+01  3.29266E+01  3.31976E+01  3.28177E+01  3.32245E+01  3.29485E+01  3.34719E+01
   3.33223E+01  3.38263E+01  3.37429E+01  3.40985E+01  3.40029E+01  3.41349E+01  3.40247E+01  3.39136E+01  3.38386E+01  3.34887E+01
   3.35350E+01  3.30121E+01  3.32620E+01  3.26206E+01  3.31581E+01  3.25005E+01  3.33342E+01  3.27060E+01  3.37524E+01  3.31816E+01
   3.43089E+01  3.37459E+01  3.47699E+01  3.41923E+01  3.50109E+01  3.44390E+01  3.50420E+01  3.45583E+01  3.49939E+01  3.46647E+01
   3.48241E+01  3.44621E+01  3.44357E+01  3.40731E+01  3.38996E+01  3.35460E+01  3.32711E+01  3.30571E+01  3.28553E+01  3.26462E+01
   3.24189E+01  3.21689E+01  3.18927E+01  3.15897E+01  3.12590E+01  3.09019E+01  3.05187E+01  3.01118E+01  2.96825E+01  2.92341E+01
   2.87685E+01  2.82896E+01  2.77999E+01  2.73034E+01  2.68026E+01  2.63015E+01  2.58023E+01  2.53087E+01  2.48225E+01  2.43465E+01
   2.38821E+01  2.34314E+01  2.29951E+01  2.25748E+01  2.21701E+01  2.17821E+01  2.14100E+01  2.10540E+01  2.07128E+01  2.03863E+01
   2.00725E+01  1.97709E+01  1.94795E+01  1.91973E+01  1.89221E+01  1.86531E+01  1.83878E+01  1.81254E+01  1.78636E+01  1.76019E+01
   1.73381E+01  1.70719E+01  1.68014E+01  1.65267E+01  1.62464E+01  1.59608E+01  1.56688E+01  1.53712E+01  1.50674E+01  1.47583E+01
   1.44437E+01  1.41248E+01  1.38016E+01  1.34756E+01  1.31469E+01  1.28172E+01  1.24865E+01  1.21566E+01  1.18277E+01  1.15013E+01
   1.11777E+01  1.08582E+01  1.05430E+01  1.02334E+01  9.92935E+00  9.63199E+00  9.34111E+00  9.05776E+00  8.78156E+00  8.51343E+00
   8.25282E+00  8.00053E+00  7.75592E+00  7.51966E+00  7.29103E+00  7.07062E+00  6.85763E+00  6.65259E+00  6.45464E+00  6.26429E+00
   6.08063E+00  5.90416E+00  5.73394E+00  5.57045E+00  5.41276E+00  5.26133E+00  5.11525E+00  4.97497E+00  4.83959E+00  4.70957E+00
   4.58402E+00  4.46341E+00  4.34687E+00  4.23488E+00  4.12658E+00  4.02247E+00  3.92170E+00  3.82479E+00  3.73089E+00  3.64056E+00
   3.55295E+00  3.46862E+00  3.38675E+00  3.30792E+00  3.23130E+00  3.15748E+00  3.08566E+00  3.01644E+00  2.94903E+00  2.88402E+00
   2.82064E+00  2.75950E+00  2.69982E+00  2.64223E+00  2.58597E+00  2.53164E+00  2.47851E+00  2.42721E+00  2.37697E+00  2.32844E+00
   2.28088E+00  2.23493E+00  2.18984E+00  2.14627E+00  2.10348E+00  2.06213E+00  2.02147E+00  1.98218E+00  1.94352E+00  1.90616E+00
   1.86937E+00  1.83381E+00  1.79879E+00  1.76495E+00  1.73160E+00  1.69941E+00  1.66768E+00  1.63711E+00
 NY background values follow
     2.946E+00    2.941E+00    2.936E+00    2.931E+00    2.926E+00    2.921E+00    2.916E+00    2.911E+00    2.905E+00    2.900E+00
     2.895E+00    2.890E+00    2.885E+00    2.880E+00    2.875E+00    2.870E+00    2.865E+00    2.860E+00    2.854E+00    2.849E+00
     2.844E+00    2.839E+00    2.834E+00    2.829E+00    2.824E+00    2.819E+00    2.813E+00    2.808E+00    2.803E+00    2.798E+00
     2.793E+00    2.788E+00    2.783E+00    2.778E+00    2.772E+00    2.767E+00    2.762E+00    2.757E+00    2.752E+00    2.747E+00
     2.742E+00    2.737E+00    2.731E+00    2.726E+00    2.721E+00    2.716E+00    2.711E+00    2.706E+00    2.701E+00    2.695E+00
     2.690E+00    2.685E+00    2.680E+00    2.675E+00    2.670E+00    2.664E+00    2.659E+00    2.654E+00    2.649E+00    2.644E+00
     2.639E+00    2.633E+00    2.628E+00    2.623E+00    2.618E+00    2.613E+00    2.608E+00    2.603E+00    2.597E+00    2.592E+00
     2.587E+00    2.582E+00    2.577E+00    2.571E+00    2.566E+00    2.561E+00    2.556E+00    2.551E+00    2.546E+00    2.540E+00
     2.535E+00    2.530E+00    2.525E+00    2.520E+00    2.515E+00    2.509E+00    2.504E+00    2.499E+00    2.494E+00    2.489E+00
     2.483E+00    2.478E+00    2.473E+00    2.468E+00    2.463E+00    2.457E+00    2.452E+00    2.447E+00    2.442E+00    2.437E+00
     2.431E+00    2.426E+00    2.421E+00    2.416E+00    2.411E+00    2.405E+00    2.400E+00    2.395E+00    2.390E+00    2.385E+00
     2.379E+00    2.374E+00    2.369E+00    2.364E+00    2.359E+00    2.353E+00    2.348E+00    2.343E+00    2.338E+00    2.333E+00
     2.327E+00    2.322E+00    2.317E+00    2.312E+00    2.307E+00    2.301E+00    2.296E+00    2.291E+00    2.286E+00    2.280E+00
     2.275E+00    2.270E+00    2.265E+00    2.260E+00    2.254E+00    2.249E+00    2.244E+00    2.239E+00    2.233E+00    2.228E+00
     2.223E+00    2.218E+00    2.213E+00    2.207E+00    2.202E+00    2.197E+00    2.192E+00    2.186E+00    2.181E+00    2.176E+00
     2.171E+00    2.165E+00    2.160E+00    2.155E+00    2.150E+00    2.145E+00    2.139E+00    2.134E+00    2.129E+00    2.124E+00
     2.118E+00    2.113E+00    2.108E+00    2.103E+00    2.097E+00    2.092E+00    2.087E+00    2.082E+00    2.076E+00    2.071E+00
     2.066E+00    2.061E+00    2.055E+00    2.050E+00    2.045E+00    2.040E+00    2.034E+00    2.029E+00    2.024E+00    2.019E+00
     2.014E+00    2.008E+00    2.003E+00    1.998E+00    1.993E+00    1.987E+00    1.982E+00    1.977E+00    1.971E+00    1.966E+00
     1.961E+00    1.956E+00    1.950E+00    1.945E+00    1.940E+00    1.935E+00    1.929E+00    1.924E+00    1.919E+00    1.914E+00
     1.908E+00    1.903E+00    1.898E+00    1.893E+00    1.887E+00    1.882E+00    1.877E+00    1.872E+00    1.866E+00    1.861E+00
     1.856E+00    1.850E+00    1.845E+00    1.840E+00    1.835E+00    1.829E+00    1.824E+00    1.819E+00    1.814E+00    1.808E+00
     1.803E+00    1.798E+00    1.792E+00    1.787E+00    1.782E+00    1.777E+00    1.771E+00    1.766E+00    1.761E+00    1.755E+00
     1.750E+00    1.745E+00    1.740E+00    1.734E+00    1.729E+00    1.724E+00    1.718E+00    1.713E+00    1.708E+00    1.702E+00
     1.697E+00    1.692E+00    1.687E+00    1.681E+00    1.676E+00    1.671E+00    1.665E+00    1.660E+00    1.655E+00    1.649E+00
     1.644E+00    1.639E+00    1.634E+00    1.628E+00    1.623E+00    1.618E+00    1.612E+00    1.607E+00    1.602E+00    1.596E+00
     1.591E+00    1.586E+00    1.580E+00    1.575E+00    1.570E+00    1.564E+00    1.559E+00    1.554E+00    1.548E+00    1.543E+00
     1.538E+00    1.532E+00    1.527E+00    1.522E+00    1.516E+00    1.511E+00    1.506E+00    1.500E+00    1.495E+00    1.490E+00
     1.484E+00    1.479E+00    1.473E+00    1.468E+00    1.463E+00    1.457E+00    1.452E+00    1.447E+00    1.441E+00    1.436E+00
     1.431E+00    1.425E+00    1.420E+00    1.414E+00    1.409E+00    1.404E+00    1.398E+00    1.393E+00    1.388E+00    1.382E+00
     1.377E+00    1.371E+00    1.366E+00    1.361E+00    1.355E+00    1.350E+00    1.344E+00    1.339E+00    1.334E+00    1.328E+00
     1.323E+00    1.318E+00    1.312E+00    1.307E+00    1.301E+00    1.296E+00    1.290E+00    1.285E+00    1.280E+00    1.274E+00
     1.269E+00    1.263E+00    1.258E+00    1.253E+00    1.247E+00    1.242E+00    1.236E+00    1.231E+00    1.225E+00    1.220E+00
     1.215E+00    1.209E+00    1.204E+00    1.198E+00    1.193E+00    1.187E+00    1.182E+00    1.176E+00    1.171E+00    1.166E+00
     1.160E+00    1.155E+00    1.149E+00    1.144E+00    1.138E+00    1.133E+00    1.127E+00    1.122E+00    1.116E+00    1.111E+00
     1.105E+00    1.100E+00    1.094E+00    1.089E+00    1.084E+00    1.078E+00    1.073E+00    1.067E+00    1.062E+00    1.056E+00
     1.051E+00    1.045E+00    1.040E+00    1.034E+00    1.029E+00    1.023E+00    1.018E+00    1.012E+00    1.007E+00    1.001E+00
     9.956E-01    9.901E-01    9.846E-01    9.790E-01    9.735E-01    9.680E-01    9.625E-01    9.570E-01    9.514E-01    9.459E-01
     9.404E-01    9.349E-01    9.293E-01    9.238E-01    9.183E-01    9.127E-01    9.072E-01    9.017E-01    8.961E-01    8.906E-01
     8.850E-01    8.795E-01    8.739E-01    8.684E-01    8.629E-01    8.573E-01    8.517E-01    8.462E-01    8.406E-01    8.351E-01
     8.295E-01    8.240E-01    8.184E-01    8.128E-01    8.073E-01    8.017E-01    7.961E-01    7.906E-01    7.850E-01    7.794E-01
     7.738E-01    7.683E-01    7.627E-01    7.571E-01    7.515E-01    7.459E-01    7.403E-01    7.348E-01    7.292E-01    7.236E-01
     7.180E-01    7.124E-01    7.068E-01    7.012E-01    6.956E-01    6.900E-01    6.844E-01    6.788E-01    6.732E-01    6.676E-01
     6.620E-01    6.564E-01    6.508E-01    6.452E-01    6.395E-01    6.339E-01    6.283E-01    6.227E-01    6.171E-01    6.115E-01
     6.058E-01    6.002E-01    5.946E-01    5.890E-01    5.833E-01    5.777E-01    5.721E-01    5.665E-01    5.608E-01    5.552E-01
     5.495E-01    5.439E-01    5.383E-01    5.326E-01    5.270E-01    5.213E-01    5.157E-01    5.101E-01    5.044E-01    4.988E-01
     4.931E-01    4.875E-01    4.818E-01    4.762E-01    4.705E-01    4.648E-01    4.592E-01    4.535E-01    4.479E-01    4.422E-01
     4.365E-01    4.309E-01    4.252E-01    4.195E-01    4.139E-01    4.082E-01    4.025E-01    3.969E-01    3.912E-01    3.855E-01
     3.798E-01    3.742E-01    3.685E-01    3.628E-01    3.571E-01    3.514E-01    3.458E-01    3.401E-01    3.344E-01    3.287E-01
     3.230E-01    3.173E-01    3.116E-01    3.059E-01    3.002E-01    2.945E-01    2.888E-01    2.831E-01
 Ala      Conc. = 1.82E+03
