 LCModel (Version 6.3-1L) Copyright: S.W. Provencher.          Ref.: Magn. Reson. Med. 30:672-679 (1993).                
 Slice#3 Row#9 Col#8  PD_05_press_1_raw_act
 36 lines in following concentration table = NCONC+1
    Conc.  %SD /Cr+PCr  Metabolite                                         
  409.153  33%   0.312 Ala                                                 
  202.793  97%   0.155 Asp                                                 
  309.364  75%   0.236 Cr                                                  
 1.00E+03  24%   0.764 PCr                                                 
    0.000 999%   0.000 GABA                                                
    0.000 999%   0.000 Glc                                                 
  825.536  32%   0.630 Gln                                                 
 1.59E+03  19%   1.212 Glu                                                 
  359.389   6%   0.274 GPC                                                 
    0.000 999%   0.000 PCh                                                 
  470.384  16%   0.359 GSH                                                 
  803.616  32%   0.613 Ins                                                 
 1.09E+03  15%   0.835 Lac                                                 
 1.52E+03   5%   1.155 NAA                                                 
    0.000 999%   0.000 NAAG                                                
   14.844 166% 1.1E-02 Scyllo                                              
    0.000 999%   0.000 Tau                                                 
    0.000 999%   0.000 -CrCH2                                              
  359.389   6%   0.274 GPC+PCh                                             
 1.52E+03   5%   1.155 NAA+NAAG                                            
 1.31E+03   4%   1.000 Cr+PCr                                              
 2.41E+03  19%   1.842 Glu+Gln                                             
 1.38E+04   5%  10.488 Lip13a                                              
    0.000 999%   0.000 Lip13b                                              
 3.41E+03   8%   2.602 Lip09                                               
    0.000 999%   0.000 MM09                                                
 2.04E+03   9%   1.553 Lip20                                               
  224.927 139%   0.172 MM20                                                
  324.519  49%   0.247 MM12                                                
  986.340  71%   0.752 MM14                                                
    0.000 999%   0.000 MM17                                                
 1.38E+04   5%  10.488 Lip13a+Lip13b                                       
 1.51E+04   2%  11.488 MM14+Lip13a+Lip13b+MM12                             
 3.41E+03   8%   2.602 MM09+Lip09                                          
 2.26E+03  14%   1.725 MM20+Lip20                                          
   6 lines in following misc. output table
  FWHM = 0.061 ppm    S/N =  17                                            
  Data shift = 0.023 ppm                                                   
  Ph:  -2 deg      -8.0 deg/ppm                                            
  alphaB,S = 1.5E+00,   2.4E+02                                            
   14 spline knots.   Ns = 9(1)                                            
  (13) 2 infls.   (15) 1 extrs.                                            
  498 points on ppm-axis = NY
      4.000000     3.992357     3.984714     3.977070     3.969427     3.961784     3.954141     3.946497     3.938854     3.931211
      3.923568     3.915925     3.908281     3.900638     3.892995     3.885352     3.877708     3.870065     3.862422     3.854779
      3.847136     3.839492     3.831849     3.824206     3.816563     3.808919     3.801276     3.793633     3.785990     3.778347
      3.770703     3.763060     3.755417     3.747774     3.740130     3.732487     3.724844     3.717201     3.709558     3.701914
      3.694271     3.686628     3.678985     3.671341     3.663698     3.656055     3.648412     3.640769     3.633125     3.625482
      3.617839     3.610196     3.602552     3.594909     3.587266     3.579623     3.571980     3.564336     3.556693     3.549050
      3.541407     3.533763     3.526120     3.518477     3.510834     3.503191     3.495547     3.487904     3.480261     3.472618
      3.464974     3.457331     3.449688     3.442045     3.434402     3.426758     3.419115     3.411472     3.403829     3.396185
      3.388542     3.380899     3.373256     3.365613     3.357969     3.350326     3.342683     3.335040     3.327396     3.319753
      3.312110     3.304467     3.296824     3.289180     3.281537     3.273894     3.266251     3.258607     3.250964     3.243321
      3.235678     3.228034     3.220391     3.212748     3.205105     3.197462     3.189818     3.182175     3.174532     3.166889
      3.159245     3.151602     3.143959     3.136316     3.128673     3.121029     3.113386     3.105743     3.098100     3.090456
      3.082813     3.075170     3.067527     3.059884     3.052240     3.044597     3.036954     3.029311     3.021667     3.014024
      3.006381     2.998738     2.991095     2.983451     2.975808     2.968165     2.960522     2.952878     2.945235     2.937592
      2.929949     2.922306     2.914662     2.907019     2.899376     2.891733     2.884089     2.876446     2.868803     2.861160
      2.853517     2.845873     2.838230     2.830587     2.822944     2.815300     2.807657     2.800014     2.792371     2.784728
      2.777084     2.769441     2.761798     2.754155     2.746511     2.738868     2.731225     2.723582     2.715939     2.708295
      2.700652     2.693009     2.685366     2.677722     2.670079     2.662436     2.654793     2.647150     2.639506     2.631863
      2.624220     2.616577     2.608933     2.601290     2.593647     2.586004     2.578361     2.570717     2.563074     2.555431
      2.547788     2.540144     2.532501     2.524858     2.517215     2.509572     2.501928     2.494285     2.486642     2.478999
      2.471355     2.463712     2.456069     2.448426     2.440783     2.433139     2.425496     2.417853     2.410210     2.402566
      2.394923     2.387280     2.379637     2.371994     2.364350     2.356707     2.349064     2.341421     2.333777     2.326134
      2.318491     2.310848     2.303205     2.295561     2.287918     2.280275     2.272632     2.264988     2.257345     2.249702
      2.242059     2.234416     2.226772     2.219129     2.211486     2.203843     2.196199     2.188556     2.180913     2.173270
      2.165627     2.157983     2.150340     2.142697     2.135054     2.127410     2.119767     2.112124     2.104481     2.096838
      2.089194     2.081551     2.073908     2.066265     2.058621     2.050978     2.043335     2.035692     2.028049     2.020405
      2.012762     2.005119     1.997476     1.989833     1.982190     1.974546     1.966903     1.959260     1.951617     1.943974
      1.936331     1.928688     1.921045     1.913402     1.905759     1.898115     1.890472     1.882829     1.875186     1.867543
      1.859900     1.852257     1.844614     1.836971     1.829327     1.821684     1.814041     1.806398     1.798755     1.791112
      1.783469     1.775826     1.768183     1.760540     1.752896     1.745253     1.737610     1.729967     1.722324     1.714681
      1.707038     1.699395     1.691752     1.684108     1.676465     1.668822     1.661179     1.653536     1.645893     1.638250
      1.630607     1.622964     1.615321     1.607677     1.600034     1.592391     1.584748     1.577105     1.569462     1.561819
      1.554176     1.546533     1.538890     1.531246     1.523603     1.515960     1.508317     1.500674     1.493031     1.485388
      1.477745     1.470102     1.462458     1.454815     1.447172     1.439529     1.431886     1.424243     1.416600     1.408957
      1.401314     1.393671     1.386027     1.378384     1.370741     1.363098     1.355455     1.347812     1.340169     1.332526
      1.324883     1.317240     1.309596     1.301953     1.294310     1.286667     1.279024     1.271381     1.263738     1.256095
      1.248452     1.240808     1.233165     1.225522     1.217879     1.210236     1.202593     1.194950     1.187307     1.179664
      1.172021     1.164377     1.156734     1.149091     1.141448     1.133805     1.126162     1.118519     1.110876     1.103233
      1.095590     1.087946     1.080303     1.072660     1.065017     1.057374     1.049731     1.042088     1.034445     1.026802
      1.019158     1.011515     1.003872     0.996229     0.988586     0.980943     0.973300     0.965657     0.958014     0.950371
      0.942727     0.935084     0.927441     0.919798     0.912155     0.904512     0.896869     0.889226     0.881583     0.873940
      0.866296     0.858653     0.851010     0.843367     0.835724     0.828081     0.820438     0.812795     0.805152     0.797508
      0.789865     0.782222     0.774579     0.766936     0.759293     0.751650     0.744007     0.736364     0.728721     0.721077
      0.713434     0.705791     0.698148     0.690505     0.682862     0.675219     0.667576     0.659933     0.652290     0.644646
      0.637003     0.629360     0.621717     0.614074     0.606431     0.598788     0.591145     0.583502     0.575858     0.568215
      0.560572     0.552929     0.545286     0.537643     0.530000     0.522357     0.514714     0.507071     0.499427     0.491784
      0.484141     0.476498     0.468855     0.461212     0.453569     0.445925     0.438282     0.430639     0.422996     0.415353
      0.407710     0.400067     0.392424     0.384780     0.377137     0.369494     0.361851     0.354208     0.346565     0.338922
      0.331278     0.323635     0.315992     0.308349     0.300706     0.293063     0.285420     0.277777     0.270133     0.262490
      0.254847     0.247204     0.239561     0.231918     0.224275     0.216631     0.208988     0.201345
 NY phased data points follow
   1.97467E+01  1.79674E+01  1.94642E+01  1.92613E+01  2.10545E+01  1.84519E+01  2.58157E+01  2.59990E+01  3.05047E+01  3.85506E+01
   3.93641E+01  4.46717E+01  4.89767E+01  4.42237E+01  4.14581E+01  4.08623E+01  3.72859E+01  3.51846E+01  2.93580E+01  2.52856E+01
   2.81532E+01  2.59117E+01  2.23239E+01  2.03668E+01  2.45658E+01  2.24778E+01  2.47249E+01  2.07559E+01  2.01132E+01  2.00926E+01
   2.22426E+01  2.46087E+01  2.88177E+01  2.98228E+01  2.66912E+01  2.76781E+01  2.55035E+01  2.39809E+01  2.19983E+01  2.04835E+01
   2.35772E+01  2.11482E+01  1.83414E+01  1.77306E+01  2.04263E+01  1.99091E+01  1.93992E+01  2.24516E+01  2.46461E+01  2.52800E+01
   2.20770E+01  2.26351E+01  1.51906E+01  1.77500E+01  1.80475E+01  1.96733E+01  1.77484E+01  1.66520E+01  2.12635E+01  2.21197E+01
   1.64054E+01  1.94793E+01  1.92429E+01  1.43337E+01  1.45072E+01  1.06954E+01  7.92371E+00  9.33530E+00  9.48418E+00  9.37880E+00
   1.20376E+01  7.66595E+00  6.85472E+00  9.19653E+00  1.01416E+01  8.96782E+00  6.48619E+00  9.37584E+00  8.36184E+00  9.66272E+00
   9.11110E+00  1.16819E+01  5.42477E+00  1.17281E+01  1.14800E+01  6.69414E+00  8.66072E+00  7.68324E+00  1.06100E+01  6.46559E+00
   9.84043E+00  9.36246E+00  7.74367E+00  1.02087E+01  9.42292E+00  1.06223E+01  7.83302E+00  8.08742E+00  1.11497E+01  1.07857E+01
   1.26211E+01  1.48066E+01  2.52329E+01  3.32477E+01  3.74647E+01  4.16135E+01  3.39816E+01  2.96204E+01  2.97039E+01  2.32833E+01
   2.35369E+01  1.58186E+01  1.69679E+01  1.43348E+01  1.31308E+01  1.14756E+01  9.60222E+00  1.10346E+01  1.04336E+01  1.04283E+01
   8.28296E+00  8.78737E+00  8.05942E+00  9.12331E+00  1.25366E+01  1.89438E+01  2.85238E+01  3.85960E+01  4.27573E+01  4.44562E+01
   4.34577E+01  4.00706E+01  3.49450E+01  2.86892E+01  2.76069E+01  2.00831E+01  2.05180E+01  1.58608E+01  1.45893E+01  1.23176E+01
   8.09139E+00  1.11940E+01  6.27731E+00  7.12541E+00  5.79908E+00  9.56426E+00  5.49694E+00  9.42753E+00  7.60899E+00  9.99626E+00
   8.89068E+00  6.67032E+00  9.97453E+00  9.57181E+00  6.88331E+00  7.85164E+00  5.02361E+00  4.81236E+00  8.30780E+00  9.25275E+00
   3.12989E+00  5.54261E+00  1.03972E+00  2.30426E+00  1.31666E-01  3.64019E+00  3.50973E+00  6.12504E+00  6.22281E+00  4.09380E+00
   4.65972E+00  2.00557E+00  3.33667E+00  6.12403E+00  2.06045E+00 -2.23202E+00 -5.94656E-01 -1.36943E+00 -5.00869E+00 -4.29453E-01
  -4.46061E-01 -2.97883E+00 -6.21989E+00 -3.99363E+00  2.53219E-02 -3.47043E-01 -4.54462E+00 -1.88678E+00 -1.46761E+00 -1.73028E-01
   4.26743E+00  4.10251E+00  5.88794E+00  9.78104E+00  6.76952E+00  9.51441E+00  7.71702E+00  9.99265E+00  4.31026E+00  6.24805E+00
   4.47306E+00  4.47899E+00  8.24728E+00  8.59940E+00  1.05627E+01  8.71443E+00  5.82883E+00  6.67184E+00  5.46066E+00  3.73054E+00
   3.87082E+00  3.67644E+00  1.00939E+00  3.88224E+00  8.26110E+00  9.98878E+00  1.27006E+01  1.74259E+01  1.34115E+01  1.27326E+01
   1.00866E+01  5.08673E+00  6.16709E+00  3.73719E+00  5.30380E+00  5.85222E+00  3.79789E+00  9.32646E+00  1.31382E+01  9.13115E+00
   1.24082E+01  1.29510E+01  1.04649E+01  8.08362E+00  8.23203E+00  5.87442E+00  8.46672E+00  9.92288E+00  3.67219E+00  4.63529E+00
   9.25308E+00  6.86436E+00  5.01028E+00  4.96720E+00  6.06226E+00  8.08618E+00  1.00815E+01  7.59770E+00  1.38795E+01  7.47889E+00
   1.43842E+01  1.13188E+01  1.06501E+01  1.35307E+01  1.15109E+01  1.82140E+01  1.63930E+01  2.38381E+01  3.09519E+01  4.34014E+01
   5.45928E+01  5.71657E+01  5.21731E+01  4.41646E+01  4.28521E+01  3.63926E+01  2.65638E+01  2.01454E+01  1.93379E+01  9.70934E+00
   1.13752E+01  1.27564E+01  8.41136E+00  8.31872E+00  5.92905E+00  8.67326E+00  4.40960E+00  3.86680E+00  4.35616E+00  4.31557E+00
   7.00407E+00  7.15325E+00  6.49934E+00  4.47598E+00  7.39728E+00  2.31025E+00  2.58541E+00  2.60036E+00  3.85331E+00  3.19382E+00
   1.80401E+00  1.55538E+00  5.03670E+00  2.81885E+00  4.88980E+00  3.40660E+00  2.12991E+00  3.36768E+00  1.10198E+00  2.06547E+00
   3.97648E+00  4.05005E+00  1.16991E+00  3.91257E+00  5.93794E+00  3.41466E+00  3.94195E+00  1.17992E+01  5.00777E+00  1.19369E+01
   8.98187E+00  9.96436E+00  8.86489E+00  1.22821E+01  1.07046E+01  1.17407E+01  1.10269E+01  1.31913E+01  1.34183E+01  1.78554E+01
   1.42497E+01  1.76573E+01  1.61935E+01  2.25543E+01  2.30008E+01  3.00470E+01  3.06662E+01  3.19775E+01  3.66755E+01  4.07149E+01
   4.46333E+01  4.90029E+01  5.58906E+01  6.19137E+01  7.31549E+01  7.58602E+01  8.77261E+01  8.51724E+01  9.89525E+01  1.04876E+02
   1.07397E+02  1.13328E+02  1.14431E+02  1.17192E+02  1.10693E+02  1.10522E+02  1.09914E+02  1.03541E+02  8.75944E+01  7.96371E+01
   7.21878E+01  6.59356E+01  5.86063E+01  5.43170E+01  4.94859E+01  4.45785E+01  3.87503E+01  3.72810E+01  3.49025E+01  3.01083E+01
   2.80325E+01  2.77726E+01  2.32602E+01  2.29756E+01  2.16240E+01  1.65180E+01  1.42301E+01  1.59184E+01  1.35805E+01  1.24227E+01
   1.73703E+01  1.65423E+01  1.50016E+01  1.12997E+01  1.47914E+01  9.82498E+00  6.22470E+00  1.18355E+01  1.21648E+01  8.79692E+00
   9.58863E+00  1.19910E+01  1.05960E+01  8.30671E+00  5.04448E+00  5.77898E+00  6.30587E+00  7.02355E+00  6.08605E+00  5.61504E+00
   1.08518E+01  8.32050E+00  1.15692E+01  9.56081E+00  7.30542E+00  1.12124E+01  9.93513E+00  9.87434E+00  1.03963E+01  8.86709E+00
   1.28574E+01  8.12994E+00  8.47300E+00  1.04242E+01  1.01351E+01  8.86407E+00  7.13695E+00  9.87952E+00  9.01567E+00  1.13013E+01
   1.14253E+01  1.00240E+01  9.34926E+00  8.89010E+00  1.44861E+01  7.85190E+00  8.84812E+00  8.23697E+00  4.94255E+00  8.88122E+00
   8.29269E+00  6.51525E+00  4.61546E+00  6.38095E+00  5.63334E+00  5.47570E+00  4.93755E+00  6.83488E+00  4.19104E+00  4.62481E+00
   1.03920E+01  7.24244E+00  7.33128E+00  6.13567E+00  5.07577E+00  2.14219E+00  3.82092E+00  4.20183E+00  4.19790E+00  3.76292E+00
   4.32919E+00  6.43115E+00  4.53322E+00  3.74594E+00  4.04951E+00  6.46146E+00  6.61298E+00  5.26842E+00  1.15793E+00  1.24486E+00
   4.87138E+00  4.06875E-01  5.70532E+00  4.82987E+00  6.53658E+00  5.83948E+00  7.59510E+00  4.67233E+00  3.59969E+00  3.12516E+00
   9.54356E-01  5.45739E+00  6.83561E+00  3.35768E+00  3.25579E+00  6.44905E+00  3.19779E+00  3.63508E+00  3.21872E+00  1.49893E+00
   1.21601E+00  2.78831E+00  3.16229E+00  6.49168E+00 -3.73680E-01  7.24573E-01  3.41467E+00  5.33184E+00  3.42771E+00  3.12932E+00
   4.75889E+00  3.34957E+00  1.88643E+00  4.91692E+00  4.98535E+00  1.56771E+00  2.84723E+00  4.40359E+00  3.12185E+00  4.43120E+00
   2.43354E+00  3.11992E+00  4.16906E+00  4.14376E+00  2.05014E+00  6.68213E+00  3.41564E+00  2.31236E+00
 NY points of the fit to the data follow
   2.03239E+01  1.97473E+01  1.95282E+01  1.95812E+01  1.99541E+01  2.08766E+01  2.27686E+01  2.59847E+01  3.04587E+01  3.55749E+01
   4.02696E+01  4.34256E+01  4.44520E+01  4.35072E+01  4.12359E+01  3.83307E+01  3.52812E+01  3.23160E+01  2.94695E+01  2.67088E+01
   2.42212E+01  2.25679E+01  2.18968E+01  2.15793E+01  2.11342E+01  2.04433E+01  1.97228E+01  1.94273E+01  2.00228E+01  2.16788E+01
   2.40854E+01  2.65750E+01  2.84217E+01  2.91335E+01  2.86330E+01  2.71972E+01  2.52751E+01  2.33042E+01  2.15887E+01  2.01397E+01
   1.89050E+01  1.80304E+01  1.77421E+01  1.79603E+01  1.86665E+01  1.97235E+01  2.08524E+01  2.16618E+01  2.18793E+01  2.14529E+01
   2.05602E+01  1.95154E+01  1.84973E+01  1.75508E+01  1.67319E+01  1.60763E+01  1.55533E+01  1.52009E+01  1.51373E+01  1.52784E+01
   1.53650E+01  1.52362E+01  1.49146E+01  1.44665E+01  1.39729E+01  1.35176E+01  1.31660E+01  1.29451E+01  1.28237E+01  1.27679E+01
   1.27750E+01  1.28141E+01  1.28375E+01  1.28055E+01  1.26941E+01  1.25153E+01  1.22907E+01  1.20432E+01  1.17907E+01  1.15358E+01
   1.12878E+01  1.10472E+01  1.08220E+01  1.06065E+01  1.03509E+01  1.00135E+01  9.58566E+00  9.11397E+00  8.67494E+00  8.34316E+00
   8.16343E+00  8.13383E+00  8.21522E+00  8.35600E+00  8.57205E+00  8.98805E+00  9.39929E+00  9.76747E+00  1.04664E+01  1.20719E+01
   1.51477E+01  1.99285E+01  2.59215E+01  3.18161E+01  3.60354E+01  3.75796E+01  3.64845E+01  3.35975E+01  2.98771E+01  2.59923E+01
   2.22868E+01  1.88055E+01  1.54220E+01  1.21421E+01  9.50307E+00  8.27909E+00  7.86463E+00  7.66429E+00  7.63523E+00  7.93479E+00
   8.42136E+00  8.99379E+00  1.00480E+01  1.22387E+01  1.61893E+01  2.21646E+01  2.96215E+01  3.70627E+01  4.26330E+01  4.50783E+01
   4.43317E+01  4.13076E+01  3.71139E+01  3.25041E+01  2.78173E+01  2.31154E+01  1.83893E+01  1.38412E+01  1.02145E+01  8.48644E+00
   8.19542E+00  8.38181E+00  8.68465E+00  8.94846E+00  9.13924E+00  9.29718E+00  9.41031E+00  9.41573E+00  9.31221E+00  9.11232E+00
   8.83066E+00  8.51928E+00  8.20707E+00  7.94070E+00  7.73665E+00  7.56662E+00  7.40191E+00  7.19306E+00  6.90164E+00  6.54172E+00
   6.18927E+00  5.93380E+00  5.81757E+00  5.81215E+00  5.83113E+00  5.78575E+00  5.63125E+00  5.37610E+00  5.08082E+00  4.80049E+00
   4.53101E+00  4.22138E+00  3.80799E+00  3.32201E+00  2.83593E+00  2.43128E+00  2.17089E+00  2.00020E+00  1.85557E+00  1.71130E+00
   1.56652E+00  1.44268E+00  1.36058E+00  1.31348E+00  1.28876E+00  1.31306E+00  1.45950E+00  1.78887E+00  2.35231E+00  3.12085E+00
   3.93775E+00  4.62137E+00  4.99723E+00  5.01700E+00  4.73347E+00  4.25280E+00  3.71358E+00  3.26027E+00  3.07012E+00  3.33550E+00
   4.09679E+00  5.17762E+00  6.37643E+00  7.45518E+00  8.10254E+00  8.08715E+00  7.35331E+00  6.03106E+00  4.34955E+00  2.63630E+00
   1.40227E+00  1.11045E+00  1.91737E+00  3.65007E+00  5.90009E+00  8.13233E+00  9.76499E+00  1.03481E+01  9.74813E+00  8.18035E+00
   6.04786E+00  3.77703E+00  2.02212E+00  1.26076E+00  1.49157E+00  2.49552E+00  3.95252E+00  5.61146E+00  7.13187E+00  8.23895E+00
   8.91733E+00  9.25813E+00  9.36743E+00  9.27353E+00  9.05239E+00  8.98413E+00  9.22001E+00  9.60303E+00  9.89770E+00  9.90102E+00
   9.53002E+00  8.86255E+00  8.07793E+00  7.38977E+00  7.01906E+00  7.04868E+00  7.33727E+00  7.67185E+00  8.01818E+00  8.44156E+00
   9.02924E+00  1.00427E+01  1.14160E+01  1.27787E+01  1.42658E+01  1.65991E+01  2.05881E+01  2.67713E+01  3.48813E+01  4.34510E+01
   5.02133E+01  5.33064E+01  5.22978E+01  4.81601E+01  4.24036E+01  3.62229E+01  3.02797E+01  2.47635E+01  1.95191E+01  1.43951E+01
   9.86868E+00  7.23901E+00  6.38222E+00  6.02869E+00  5.84884E+00  5.76004E+00  5.68982E+00  5.58307E+00  5.45787E+00  5.32036E+00
   5.17884E+00  5.04411E+00  4.91908E+00  4.79785E+00  4.69069E+00  4.61211E+00  4.56019E+00  4.52641E+00  4.50743E+00  4.50337E+00
   4.51334E+00  4.53251E+00  4.55606E+00  4.58781E+00  4.63018E+00  4.68356E+00  4.74790E+00  4.82353E+00  4.91095E+00  5.01019E+00
   5.12175E+00  5.24748E+00  5.38839E+00  5.54500E+00  5.71872E+00  5.91140E+00  6.12554E+00  6.36417E+00  6.63115E+00  6.93127E+00
   7.27044E+00  7.65587E+00  8.09640E+00  8.60318E+00  9.19061E+00  9.87692E+00  1.06860E+01  1.16530E+01  1.28094E+01  1.41414E+01
   1.57058E+01  1.76042E+01  1.99015E+01  2.25927E+01  2.55805E+01  2.86894E+01  3.17768E+01  3.47690E+01  3.77558E+01  4.10132E+01
   4.48613E+01  4.95384E+01  5.51706E+01  6.17378E+01  6.90094E+01  7.65751E+01  8.40057E+01  9.10233E+01  9.74168E+01  1.02758E+02
   1.06995E+02  1.10302E+02  1.12729E+02  1.14107E+02  1.14028E+02  1.12022E+02  1.07857E+02  1.01323E+02  9.27098E+01  8.29598E+01
   7.32201E+01  6.44633E+01  5.73386E+01  5.20454E+01  4.82251E+01  4.51657E+01  4.22688E+01  3.93933E+01  3.65861E+01  3.35210E+01
   3.02694E+01  2.70935E+01  2.40845E+01  2.11729E+01  1.82778E+01  1.56379E+01  1.37108E+01  1.23449E+01  1.13295E+01  1.05631E+01
   9.98455E+00  9.55126E+00  9.23169E+00  9.00201E+00  8.84414E+00  8.74437E+00  8.69221E+00  8.67958E+00  8.70015E+00  8.74893E+00
   8.82189E+00  8.91566E+00  9.02728E+00  9.15396E+00  9.29308E+00  9.44205E+00  9.59838E+00  9.75959E+00  9.92319E+00  1.00866E+01
   1.02475E+01  1.04032E+01  1.05515E+01  1.06902E+01  1.08171E+01  1.09302E+01  1.10276E+01  1.11078E+01  1.11694E+01  1.12112E+01
   1.12323E+01  1.12322E+01  1.12103E+01  1.11668E+01  1.11017E+01  1.10157E+01  1.09092E+01  1.07834E+01  1.06394E+01  1.04784E+01
   1.03019E+01  1.01116E+01  9.90917E+00  9.69621E+00  9.47453E+00  9.24586E+00  9.01193E+00  8.77438E+00  8.53475E+00  8.29451E+00
   8.05503E+00  7.81756E+00  7.58323E+00  7.35299E+00  7.12772E+00  6.90813E+00  6.69484E+00  6.48836E+00  6.28907E+00  6.09724E+00
   5.91307E+00  5.73669E+00  5.56814E+00  5.40741E+00  5.25444E+00  5.10909E+00  4.97120E+00  4.84061E+00  4.71711E+00  4.60049E+00
   4.49050E+00  4.38688E+00  4.28939E+00  4.19778E+00  4.11179E+00  4.03119E+00  3.95569E+00  3.88507E+00  3.81909E+00  3.75753E+00
   3.70017E+00  3.64680E+00  3.59720E+00  3.55118E+00  3.50857E+00  3.46920E+00  3.43292E+00  3.39955E+00  3.36893E+00  3.34093E+00
   3.31542E+00  3.29229E+00  3.27140E+00  3.25265E+00  3.23591E+00  3.22109E+00  3.20812E+00  3.19688E+00  3.18731E+00  3.17930E+00
   3.17278E+00  3.16770E+00  3.16398E+00  3.16158E+00  3.16041E+00  3.16042E+00  3.16157E+00  3.16381E+00  3.16709E+00  3.17136E+00
   3.17658E+00  3.18271E+00  3.18972E+00  3.19759E+00  3.20627E+00  3.21574E+00  3.22596E+00  3.23692E+00  3.24860E+00  3.26099E+00
   3.27406E+00  3.28779E+00  3.30217E+00  3.31721E+00  3.33289E+00  3.34923E+00  3.36621E+00  3.38385E+00
 NY background values follow
     1.880E+01    1.869E+01    1.858E+01    1.847E+01    1.835E+01    1.824E+01    1.813E+01    1.802E+01    1.790E+01    1.779E+01
     1.768E+01    1.757E+01    1.745E+01    1.734E+01    1.723E+01    1.712E+01    1.700E+01    1.689E+01    1.678E+01    1.666E+01
     1.655E+01    1.644E+01    1.633E+01    1.621E+01    1.610E+01    1.599E+01    1.588E+01    1.576E+01    1.565E+01    1.554E+01
     1.543E+01    1.531E+01    1.520E+01    1.509E+01    1.498E+01    1.487E+01    1.475E+01    1.464E+01    1.453E+01    1.442E+01
     1.431E+01    1.420E+01    1.408E+01    1.397E+01    1.386E+01    1.375E+01    1.364E+01    1.353E+01    1.342E+01    1.331E+01
     1.320E+01    1.309E+01    1.298E+01    1.287E+01    1.276E+01    1.265E+01    1.254E+01    1.243E+01    1.233E+01    1.222E+01
     1.211E+01    1.200E+01    1.190E+01    1.179E+01    1.168E+01    1.158E+01    1.147E+01    1.136E+01    1.126E+01    1.115E+01
     1.105E+01    1.094E+01    1.084E+01    1.074E+01    1.063E+01    1.053E+01    1.043E+01    1.033E+01    1.022E+01    1.012E+01
     1.002E+01    9.922E+00    9.822E+00    9.723E+00    9.624E+00    9.526E+00    9.428E+00    9.331E+00    9.234E+00    9.138E+00
     9.042E+00    8.947E+00    8.852E+00    8.758E+00    8.665E+00    8.572E+00    8.480E+00    8.388E+00    8.297E+00    8.206E+00
     8.116E+00    8.027E+00    7.938E+00    7.849E+00    7.762E+00    7.674E+00    7.588E+00    7.502E+00    7.417E+00    7.332E+00
     7.248E+00    7.164E+00    7.081E+00    6.999E+00    6.917E+00    6.836E+00    6.755E+00    6.675E+00    6.596E+00    6.518E+00
     6.439E+00    6.362E+00    6.285E+00    6.209E+00    6.134E+00    6.059E+00    5.985E+00    5.911E+00    5.838E+00    5.766E+00
     5.694E+00    5.623E+00    5.553E+00    5.483E+00    5.414E+00    5.346E+00    5.278E+00    5.211E+00    5.144E+00    5.079E+00
     5.014E+00    4.949E+00    4.885E+00    4.822E+00    4.760E+00    4.698E+00    4.637E+00    4.577E+00    4.517E+00    4.458E+00
     4.399E+00    4.341E+00    4.284E+00    4.227E+00    4.171E+00    4.116E+00    4.061E+00    4.007E+00    3.954E+00    3.901E+00
     3.849E+00    3.798E+00    3.747E+00    3.696E+00    3.647E+00    3.598E+00    3.549E+00    3.502E+00    3.455E+00    3.408E+00
     3.362E+00    3.317E+00    3.272E+00    3.228E+00    3.185E+00    3.142E+00    3.100E+00    3.059E+00    3.018E+00    2.977E+00
     2.938E+00    2.898E+00    2.860E+00    2.822E+00    2.785E+00    2.748E+00    2.712E+00    2.676E+00    2.641E+00    2.607E+00
     2.572E+00    2.539E+00    2.506E+00    2.473E+00    2.441E+00    2.410E+00    2.379E+00    2.348E+00    2.318E+00    2.288E+00
     2.259E+00    2.230E+00    2.202E+00    2.174E+00    2.146E+00    2.119E+00    2.092E+00    2.066E+00    2.040E+00    2.014E+00
     1.988E+00    1.963E+00    1.938E+00    1.914E+00    1.890E+00    1.866E+00    1.842E+00    1.819E+00    1.796E+00    1.773E+00
     1.751E+00    1.728E+00    1.706E+00    1.684E+00    1.663E+00    1.641E+00    1.620E+00    1.599E+00    1.578E+00    1.557E+00
     1.537E+00    1.516E+00    1.496E+00    1.476E+00    1.456E+00    1.437E+00    1.417E+00    1.398E+00    1.379E+00    1.361E+00
     1.342E+00    1.324E+00    1.306E+00    1.288E+00    1.271E+00    1.253E+00    1.236E+00    1.219E+00    1.203E+00    1.187E+00
     1.170E+00    1.155E+00    1.139E+00    1.124E+00    1.109E+00    1.094E+00    1.080E+00    1.065E+00    1.051E+00    1.038E+00
     1.024E+00    1.011E+00    9.985E-01    9.860E-01    9.739E-01    9.620E-01    9.504E-01    9.391E-01    9.282E-01    9.175E-01
     9.072E-01    8.972E-01    8.875E-01    8.781E-01    8.691E-01    8.603E-01    8.519E-01    8.438E-01    8.360E-01    8.285E-01
     8.214E-01    8.145E-01    8.080E-01    8.017E-01    7.957E-01    7.901E-01    7.847E-01    7.797E-01    7.749E-01    7.704E-01
     7.662E-01    7.623E-01    7.587E-01    7.554E-01    7.523E-01    7.495E-01    7.470E-01    7.448E-01    7.428E-01    7.412E-01
     7.398E-01    7.386E-01    7.377E-01    7.371E-01    7.368E-01    7.367E-01    7.369E-01    7.373E-01    7.380E-01    7.389E-01
     7.401E-01    7.415E-01    7.432E-01    7.451E-01    7.472E-01    7.496E-01    7.523E-01    7.552E-01    7.583E-01    7.616E-01
     7.652E-01    7.690E-01    7.730E-01    7.772E-01    7.817E-01    7.864E-01    7.913E-01    7.964E-01    8.017E-01    8.072E-01
     8.129E-01    8.188E-01    8.249E-01    8.312E-01    8.377E-01    8.444E-01    8.513E-01    8.583E-01    8.656E-01    8.730E-01
     8.806E-01    8.884E-01    8.963E-01    9.044E-01    9.127E-01    9.211E-01    9.297E-01    9.385E-01    9.474E-01    9.565E-01
     9.657E-01    9.750E-01    9.846E-01    9.942E-01    1.004E+00    1.014E+00    1.024E+00    1.034E+00    1.045E+00    1.055E+00
     1.066E+00    1.076E+00    1.087E+00    1.098E+00    1.109E+00    1.120E+00    1.132E+00    1.143E+00    1.155E+00    1.166E+00
     1.178E+00    1.190E+00    1.202E+00    1.214E+00    1.227E+00    1.239E+00    1.252E+00    1.265E+00    1.278E+00    1.291E+00
     1.304E+00    1.318E+00    1.331E+00    1.345E+00    1.359E+00    1.373E+00    1.388E+00    1.402E+00    1.417E+00    1.432E+00
     1.447E+00    1.462E+00    1.477E+00    1.493E+00    1.509E+00    1.525E+00    1.541E+00    1.557E+00    1.574E+00    1.590E+00
     1.607E+00    1.624E+00    1.642E+00    1.659E+00    1.677E+00    1.695E+00    1.714E+00    1.732E+00    1.751E+00    1.770E+00
     1.789E+00    1.808E+00    1.827E+00    1.847E+00    1.867E+00    1.887E+00    1.908E+00    1.928E+00    1.949E+00    1.970E+00
     1.991E+00    2.012E+00    2.033E+00    2.055E+00    2.076E+00    2.098E+00    2.120E+00    2.142E+00    2.164E+00    2.187E+00
     2.209E+00    2.232E+00    2.255E+00    2.278E+00    2.301E+00    2.324E+00    2.347E+00    2.370E+00    2.394E+00    2.417E+00
     2.441E+00    2.465E+00    2.488E+00    2.512E+00    2.536E+00    2.560E+00    2.584E+00    2.609E+00    2.633E+00    2.657E+00
     2.681E+00    2.706E+00    2.730E+00    2.755E+00    2.779E+00    2.804E+00    2.828E+00    2.853E+00    2.878E+00    2.902E+00
     2.927E+00    2.952E+00    2.977E+00    3.002E+00    3.026E+00    3.051E+00    3.076E+00    3.101E+00    3.126E+00    3.151E+00
     3.176E+00    3.201E+00    3.226E+00    3.251E+00    3.276E+00    3.301E+00    3.326E+00    3.351E+00    3.377E+00    3.402E+00
     3.427E+00    3.452E+00    3.477E+00    3.502E+00    3.527E+00    3.552E+00    3.578E+00    3.603E+00    3.628E+00    3.653E+00
     3.678E+00    3.703E+00    3.728E+00    3.753E+00    3.778E+00    3.804E+00    3.829E+00    3.854E+00
 Ala      Conc. = 4.09E+02
