 LCModel (Version 6.3-1L) Copyright: S.W. Provencher.          Ref.: Magn. Reson. Med. 30:672-679 (1993).                
 Slice#3 Row#8 Col#7  PD_05_press_1_raw_act
 36 lines in following concentration table = NCONC+1
    Conc.  %SD /Cr+PCr  Metabolite                                         
  253.161  49%   0.197 Ala                                                 
  285.967  70%   0.223 Asp                                                 
  253.229  85%   0.197 Cr                                                  
 1.03E+03  22%   0.803 PCr                                                 
    0.000 999%   0.000 GABA                                                
   47.645 269% 3.7E-02 Glc                                                 
 1.01E+03  24%   0.785 Gln                                                 
 1.67E+03  17%   1.301 Glu                                                 
  396.222   6%   0.308 GPC                                                 
    0.000 999%   0.000 PCh                                                 
  457.166  17%   0.356 GSH                                                 
  551.757  46%   0.429 Ins                                                 
  402.027  34%   0.313 Lac                                                 
 1.68E+03   4%   1.305 NAA                                                 
    0.000 999%   0.000 NAAG                                                
   31.588  81% 2.5E-02 Scyllo                                              
    0.000 999%   0.000 Tau                                                 
    0.000 999%   0.000 -CrCH2                                              
  396.222   6%   0.308 GPC+PCh                                             
 1.68E+03   4%   1.305 NAA+NAAG                                            
 1.28E+03   5%   1.000 Cr+PCr                                              
 2.68E+03  15%   2.086 Glu+Gln                                             
 8.46E+03   7%   6.582 Lip13a                                              
    0.000 999%   0.000 Lip13b                                              
 2.19E+03   8%   1.705 Lip09                                               
    0.000 999%   0.000 MM09                                                
 1.27E+03   9%   0.985 Lip20                                               
  730.934  38%   0.569 MM20                                                
   59.457 176% 4.6E-02 MM12                                                
  824.042  54%   0.641 MM14                                                
  772.356  28%   0.601 MM17                                                
 8.46E+03   7%   6.582 Lip13a+Lip13b                                       
 9.34E+03   4%   7.270 MM14+Lip13a+Lip13b+MM12                             
 2.19E+03   8%   1.705 MM09+Lip09                                          
 2.00E+03  15%   1.554 MM20+Lip20                                          
   6 lines in following misc. output table
  FWHM = 0.046 ppm    S/N =   8                                            
  Data shift = 0.015 ppm                                                   
  Ph: -34 deg     -16.1 deg/ppm                                            
  alphaB,S = 1.7E+00,   8.9E+01                                            
   14 spline knots.   Ns = 7(1)                                            
  (10) 4 infls.   ( 6) 1 extrs.                                            
  498 points on ppm-axis = NY
      4.000000     3.992357     3.984714     3.977070     3.969427     3.961784     3.954141     3.946497     3.938854     3.931211
      3.923568     3.915925     3.908281     3.900638     3.892995     3.885352     3.877708     3.870065     3.862422     3.854779
      3.847136     3.839492     3.831849     3.824206     3.816563     3.808919     3.801276     3.793633     3.785990     3.778347
      3.770703     3.763060     3.755417     3.747774     3.740130     3.732487     3.724844     3.717201     3.709558     3.701914
      3.694271     3.686628     3.678985     3.671341     3.663698     3.656055     3.648412     3.640769     3.633125     3.625482
      3.617839     3.610196     3.602552     3.594909     3.587266     3.579623     3.571980     3.564336     3.556693     3.549050
      3.541407     3.533763     3.526120     3.518477     3.510834     3.503191     3.495547     3.487904     3.480261     3.472618
      3.464974     3.457331     3.449688     3.442045     3.434402     3.426758     3.419115     3.411472     3.403829     3.396185
      3.388542     3.380899     3.373256     3.365613     3.357969     3.350326     3.342683     3.335040     3.327396     3.319753
      3.312110     3.304467     3.296824     3.289180     3.281537     3.273894     3.266251     3.258607     3.250964     3.243321
      3.235678     3.228034     3.220391     3.212748     3.205105     3.197462     3.189818     3.182175     3.174532     3.166889
      3.159245     3.151602     3.143959     3.136316     3.128673     3.121029     3.113386     3.105743     3.098100     3.090456
      3.082813     3.075170     3.067527     3.059884     3.052240     3.044597     3.036954     3.029311     3.021667     3.014024
      3.006381     2.998738     2.991095     2.983451     2.975808     2.968165     2.960522     2.952878     2.945235     2.937592
      2.929949     2.922306     2.914662     2.907019     2.899376     2.891733     2.884089     2.876446     2.868803     2.861160
      2.853517     2.845873     2.838230     2.830587     2.822944     2.815300     2.807657     2.800014     2.792371     2.784728
      2.777084     2.769441     2.761798     2.754155     2.746511     2.738868     2.731225     2.723582     2.715939     2.708295
      2.700652     2.693009     2.685366     2.677722     2.670079     2.662436     2.654793     2.647150     2.639506     2.631863
      2.624220     2.616577     2.608933     2.601290     2.593647     2.586004     2.578361     2.570717     2.563074     2.555431
      2.547788     2.540144     2.532501     2.524858     2.517215     2.509572     2.501928     2.494285     2.486642     2.478999
      2.471355     2.463712     2.456069     2.448426     2.440783     2.433139     2.425496     2.417853     2.410210     2.402566
      2.394923     2.387280     2.379637     2.371994     2.364350     2.356707     2.349064     2.341421     2.333777     2.326134
      2.318491     2.310848     2.303205     2.295561     2.287918     2.280275     2.272632     2.264988     2.257345     2.249702
      2.242059     2.234416     2.226772     2.219129     2.211486     2.203843     2.196199     2.188556     2.180913     2.173270
      2.165627     2.157983     2.150340     2.142697     2.135054     2.127410     2.119767     2.112124     2.104481     2.096838
      2.089194     2.081551     2.073908     2.066265     2.058621     2.050978     2.043335     2.035692     2.028049     2.020405
      2.012762     2.005119     1.997476     1.989833     1.982190     1.974546     1.966903     1.959260     1.951617     1.943974
      1.936331     1.928688     1.921045     1.913402     1.905759     1.898115     1.890472     1.882829     1.875186     1.867543
      1.859900     1.852257     1.844614     1.836971     1.829327     1.821684     1.814041     1.806398     1.798755     1.791112
      1.783469     1.775826     1.768183     1.760540     1.752896     1.745253     1.737610     1.729967     1.722324     1.714681
      1.707038     1.699395     1.691752     1.684108     1.676465     1.668822     1.661179     1.653536     1.645893     1.638250
      1.630607     1.622964     1.615321     1.607677     1.600034     1.592391     1.584748     1.577105     1.569462     1.561819
      1.554176     1.546533     1.538890     1.531246     1.523603     1.515960     1.508317     1.500674     1.493031     1.485388
      1.477745     1.470102     1.462458     1.454815     1.447172     1.439529     1.431886     1.424243     1.416600     1.408957
      1.401314     1.393671     1.386027     1.378384     1.370741     1.363098     1.355455     1.347812     1.340169     1.332526
      1.324883     1.317240     1.309596     1.301953     1.294310     1.286667     1.279024     1.271381     1.263738     1.256095
      1.248452     1.240808     1.233165     1.225522     1.217879     1.210236     1.202593     1.194950     1.187307     1.179664
      1.172021     1.164377     1.156734     1.149091     1.141448     1.133805     1.126162     1.118519     1.110876     1.103233
      1.095590     1.087946     1.080303     1.072660     1.065017     1.057374     1.049731     1.042088     1.034445     1.026802
      1.019158     1.011515     1.003872     0.996229     0.988586     0.980943     0.973300     0.965657     0.958014     0.950371
      0.942727     0.935084     0.927441     0.919798     0.912155     0.904512     0.896869     0.889226     0.881583     0.873940
      0.866296     0.858653     0.851010     0.843367     0.835724     0.828081     0.820438     0.812795     0.805152     0.797508
      0.789865     0.782222     0.774579     0.766936     0.759293     0.751650     0.744007     0.736364     0.728721     0.721077
      0.713434     0.705791     0.698148     0.690505     0.682862     0.675219     0.667576     0.659933     0.652290     0.644646
      0.637003     0.629360     0.621717     0.614074     0.606431     0.598788     0.591145     0.583502     0.575858     0.568215
      0.560572     0.552929     0.545286     0.537643     0.530000     0.522357     0.514714     0.507071     0.499427     0.491784
      0.484141     0.476498     0.468855     0.461212     0.453569     0.445925     0.438282     0.430639     0.422996     0.415353
      0.407710     0.400067     0.392424     0.384780     0.377137     0.369494     0.361851     0.354208     0.346565     0.338922
      0.331278     0.323635     0.315992     0.308349     0.300706     0.293063     0.285420     0.277777     0.270133     0.262490
      0.254847     0.247204     0.239561     0.231918     0.224275     0.216631     0.208988     0.201345
 NY phased data points follow
   1.07503E+01  1.08167E+01  1.08348E+01  1.37025E+01  1.53500E+01  1.74267E+01  1.98089E+01  2.42416E+01  2.94982E+01  3.54891E+01
   4.28516E+01  4.34573E+01  4.27120E+01  3.58330E+01  3.23310E+01  3.12072E+01  2.59114E+01  1.98296E+01  2.32539E+01  1.90740E+01
   1.34509E+01  1.66237E+01  1.30747E+01  1.09682E+01  1.11012E+01  1.33187E+01  1.59564E+01  1.79452E+01  1.53319E+01  2.04623E+01
   1.94093E+01  2.25109E+01  2.36370E+01  2.36512E+01  2.00479E+01  1.33603E+01  1.55944E+01  1.52343E+01  1.42895E+01  1.44404E+01
   1.21815E+01  1.69006E+01  1.38984E+01  9.84059E+00  1.15843E+01  1.14738E+01  1.21182E+01  1.55599E+01  1.89920E+01  1.98668E+01
   1.31209E+01  1.01759E+01  1.26460E+01  1.12142E+01  5.24019E+00  9.44260E+00  1.41964E+01  1.25587E+01  8.95113E+00  9.96281E+00
   1.16145E+01  7.05994E+00  9.30509E+00  5.25677E+00  4.38812E+00  3.92352E+00  6.75492E+00  6.72980E+00  5.52091E-01  5.51979E+00
   8.99921E-01  7.86102E-03  4.46028E+00  5.20533E+00  8.05754E+00  5.93310E+00  3.69920E-01  6.18371E+00  2.25645E+00  6.92215E+00
   3.17083E+00  4.73201E+00  7.72572E+00  8.79385E+00  7.50249E+00  4.13939E+00  6.75743E+00  6.45278E+00  6.95286E+00  2.88106E+00
   5.53427E+00  8.96636E-01  8.20068E+00  7.18841E+00  3.88768E+00  6.58610E+00  4.87784E-01  1.09216E+00  2.99792E+00  7.10725E+00
   1.50804E+01  2.38357E+01  3.43684E+01  4.10153E+01  4.12315E+01  3.92453E+01  3.16946E+01  2.80203E+01  2.39707E+01  2.34185E+01
   1.73873E+01  1.53388E+01  9.32005E+00  1.00548E+01  1.40924E+01  7.10520E+00  7.31024E+00  6.94921E+00  6.64720E+00  9.44368E+00
   8.07580E+00  2.36448E+00  3.69513E+00  2.50511E+00  1.46163E+01  2.35089E+01  3.33729E+01  4.87668E+01  4.26781E+01  4.04322E+01
   3.76642E+01  3.25410E+01  2.55370E+01  2.57586E+01  1.51428E+01  1.70384E+01  1.36339E+01  1.49229E+01  8.94758E+00  4.53878E+00
   4.62074E+00  5.33419E+00  7.97517E+00  3.44345E+00  8.65800E-01  2.42726E-01  1.42224E+00  2.61842E+00  2.52403E+00 -8.20162E-01
   3.62169E+00  5.37857E+00  7.56631E+00  2.38994E+00 -1.47572E-01  3.18252E+00  5.90354E+00  3.42856E-01  2.76566E+00  6.29020E+00
   1.63179E+00 -1.87649E+00 -6.19640E+00 -3.87568E+00  3.50755E+00  5.07769E+00  1.29765E+00  3.74526E+00  2.80030E+00 -1.77774E+00
   2.69563E+00  1.78787E-03  2.25084E+00  2.05210E-01 -4.29293E+00 -2.48578E+00 -8.27143E+00 -7.05175E+00 -2.58959E+00 -4.60027E+00
  -5.23463E+00 -1.55407E+00 -3.91717E+00 -6.32210E+00 -5.66296E+00 -9.09859E-01 -2.36631E+00 -6.38965E+00 -1.14099E+00 -8.19577E-01
   1.13299E+00  3.86383E+00  3.89885E+00  4.01162E+00  3.26694E+00  5.05342E+00  3.95263E+00  1.67006E+00  3.87537E+00  1.97182E+00
  -5.02162E+00  6.46507E-01  3.66063E+00  9.62660E+00  5.12577E+00  2.17265E+00  5.93563E+00  9.48044E-01 -3.71078E-01 -2.77252E-01
  -3.29915E+00 -7.89046E-01 -1.26063E+00  4.15497E+00  1.17145E+01  9.40674E+00  1.13418E+01  1.19522E+01  1.78539E+01  1.25735E+01
   4.96982E+00  3.64161E+00  9.31289E-01  1.88659E+00  2.53451E-01  4.46989E+00  6.97803E+00  1.14182E+01  5.07951E+00  1.21552E+01
   1.61710E+01  8.80384E+00  7.44121E+00  1.25736E+01  9.12015E+00  6.18372E+00  1.23257E+01  9.03328E+00  3.53422E+00  9.89892E+00
   5.80935E+00  4.25918E+00  5.02211E+00  8.61452E-01  3.54001E+00  3.92848E+00  6.00233E+00  1.20756E+01  1.11285E+01  1.01615E+01
   9.89044E+00  1.39875E+01  1.36369E+01  1.49942E+01  9.33110E+00  1.67323E+01  1.06799E+01  1.81778E+01  2.98201E+01  4.72650E+01
   6.52420E+01  6.92152E+01  6.18238E+01  5.30168E+01  4.37095E+01  3.59538E+01  2.94984E+01  2.76198E+01  2.49222E+01  1.64083E+01
   1.65447E+01  1.44453E+01  1.29128E+01  1.08475E+01  5.80356E+00  1.23184E+01  9.33089E+00  8.80962E+00  6.85401E+00  7.44922E+00
   4.11960E+00  5.70209E+00  6.59285E+00  5.06645E+00  6.47168E+00  1.04760E+01  5.59113E+00  5.99528E+00  5.76161E+00  7.30751E+00
   1.01699E+01  4.17529E+00  1.11385E+01  5.70734E+00  1.36106E+00  7.63346E+00  8.53737E+00  6.05027E+00  4.89829E+00  6.02797E+00
   3.82997E+00  9.96274E+00  4.29672E+00  1.03340E+01  9.17054E+00  1.00627E+01  1.26784E+01  1.00242E+01  1.24452E+01  1.22421E+01
   1.14887E+01  1.41789E+01  1.47872E+01  1.41095E+01  1.44556E+01  1.23831E+01  1.81354E+01  1.30573E+01  1.79113E+01  1.14924E+01
   1.23493E+01  1.41191E+01  1.73054E+01  1.50820E+01  1.96102E+01  1.70608E+01  2.17361E+01  2.08952E+01  2.58539E+01  2.35573E+01
   2.88079E+01  2.64398E+01  3.53556E+01  2.81016E+01  3.68733E+01  4.04699E+01  4.93541E+01  4.74530E+01  5.32310E+01  5.78971E+01
   5.70385E+01  6.00276E+01  6.15143E+01  6.62448E+01  6.77731E+01  6.31081E+01  6.00412E+01  5.95910E+01  5.61054E+01  5.42892E+01
   4.52180E+01  4.16877E+01  3.76794E+01  3.34655E+01  3.78790E+01  3.01210E+01  3.01576E+01  2.57047E+01  2.20261E+01  1.92372E+01
   1.84617E+01  1.53414E+01  1.24869E+01  1.69227E+01  1.57763E+01  1.21077E+01  1.31685E+01  9.40397E+00  1.51286E+01  1.42689E+01
   1.24331E+01  1.78426E+01  1.26583E+01  9.17030E+00  8.81600E+00  5.81867E+00  9.51101E+00  9.54943E+00  1.11824E+01  9.97816E+00
   5.25247E+00  6.44950E+00  5.03159E+00  3.79120E+00  3.87217E+00  2.08213E+00  8.12246E+00  4.00748E+00  4.49677E+00 -2.25644E-01
   4.99362E+00  4.82563E+00  4.82600E+00  5.54824E+00  3.55426E+00  6.90638E+00  1.16389E+01  8.26611E+00  9.76536E+00  1.82936E+00
   8.49720E+00  1.04599E+01  8.21399E+00  8.81103E+00  9.09245E+00  6.75271E+00  6.35350E+00  6.58679E+00  4.30921E+00  7.76816E+00
   1.19629E+01  1.32425E+01  8.14516E+00  1.36930E+01  8.84001E+00  7.65505E+00  1.08816E+01  7.50355E+00  1.38530E+01  5.74581E+00
   8.62602E+00  6.43027E+00  6.53106E+00  4.44064E+00  5.88078E-01  3.64446E+00  6.31116E+00  2.51940E+00  3.04616E+00  6.35924E+00
   7.36134E+00  9.26834E+00  5.72769E+00  3.42916E+00 -5.63926E-01  5.14798E+00 -2.67013E-01 -5.78972E-01  1.03324E+00  5.60789E+00
   3.08567E+00  5.76206E+00  3.15297E+00  7.28490E+00  5.60725E+00  2.74129E+00  8.56680E+00  4.09468E+00  2.71368E+00  3.28141E+00
   2.32515E+00  4.20742E+00  2.37904E+00  3.87690E+00  2.96749E+00  4.53736E+00  2.23711E+00  3.77887E+00  4.57729E+00  5.79201E+00
  -9.53347E-01  3.14025E-01 -3.77139E-01  1.08944E+00  1.99577E+00  4.02103E+00  1.68965E+00  1.06672E+00  3.81535E+00 -1.13155E+00
  -5.54213E-01  1.83753E-01  1.45300E+00  2.10717E+00  6.89542E-01  1.55697E+00  7.31607E-01 -1.06182E+00  4.80136E+00  5.52754E-01
   3.52280E+00  1.73782E+00  1.84511E+00 -2.10318E+00 -2.38308E+00  2.83063E+00  2.40079E+00 -1.09784E+00 -1.24189E+00  5.96035E+00
   1.71917E-01  4.13623E+00 -1.45514E+00  4.02716E+00  7.15655E-01  2.97749E+00  5.22806E+00  1.93831E+00
 NY points of the fit to the data follow
   1.11356E+01  1.07944E+01  1.07430E+01  1.09354E+01  1.13276E+01  1.25834E+01  1.57378E+01  2.12082E+01  2.82418E+01  3.48799E+01
   3.89078E+01  3.93713E+01  3.69647E+01  3.32663E+01  2.97759E+01  2.71444E+01  2.48547E+01  2.17716E+01  1.78266E+01  1.50210E+01
   1.38668E+01  1.36705E+01  1.36959E+01  1.34820E+01  1.27822E+01  1.19930E+01  1.19118E+01  1.30755E+01  1.54515E+01  1.83529E+01
   2.08924E+01  2.24566E+01  2.27043E+01  2.16536E+01  1.98281E+01  1.76899E+01  1.56807E+01  1.36738E+01  1.18208E+01  1.10560E+01
   1.08492E+01  1.07596E+01  1.07285E+01  1.10217E+01  1.19064E+01  1.30924E+01  1.42031E+01  1.48227E+01  1.47136E+01  1.40694E+01
   1.31839E+01  1.21746E+01  1.13236E+01  1.07614E+01  1.01806E+01  9.44681E+00  8.89209E+00  8.75842E+00  8.88576E+00  9.02519E+00
   9.07602E+00  8.93216E+00  8.57670E+00  8.07878E+00  7.59364E+00  7.27062E+00  7.11250E+00  7.01202E+00  6.94355E+00  6.95654E+00
   7.03524E+00  7.16158E+00  7.25855E+00  7.28174E+00  7.22787E+00  7.10847E+00  6.96285E+00  6.82357E+00  6.68890E+00  6.54037E+00
   6.35792E+00  6.25779E+00  6.33191E+00  6.55632E+00  6.79271E+00  6.84942E+00  6.59991E+00  6.09237E+00  5.52246E+00  5.08592E+00
   4.88145E+00  4.88486E+00  4.97538E+00  5.00453E+00  4.93340E+00  4.95318E+00  5.10503E+00  5.32478E+00  6.00732E+00  8.76666E+00
   1.51091E+01  2.45540E+01  3.45083E+01  4.13873E+01  4.29062E+01  3.96851E+01  3.40863E+01  2.84830E+01  2.43150E+01  2.13652E+01
   1.79694E+01  1.27393E+01  7.55259E+00  5.61157E+00  5.09669E+00  4.88756E+00  4.77297E+00  4.69503E+00  4.64121E+00  4.64277E+00
   4.78714E+00  5.17833E+00  6.14617E+00  9.11037E+00  1.56701E+01  2.56165E+01  3.65092E+01  4.46600E+01  4.73993E+01  4.49895E+01
   3.97356E+01  3.40692E+01  2.94330E+01  2.56523E+01  2.11933E+01  1.47754E+01  8.17686E+00  5.23996E+00  4.85389E+00  5.21074E+00
   5.60365E+00  5.75744E+00  5.83024E+00  6.01862E+00  6.20813E+00  6.32793E+00  6.32731E+00  6.11115E+00  5.74162E+00  5.31838E+00
   4.95514E+00  4.71123E+00  4.50285E+00  4.32875E+00  4.20873E+00  4.16423E+00  4.12231E+00  3.96016E+00  3.62520E+00  3.13218E+00
   2.60712E+00  2.26892E+00  2.27280E+00  2.55924E+00  2.91260E+00  3.12715E+00  3.09209E+00  2.85919E+00  2.58240E+00  2.39491E+00
   2.30128E+00  2.11146E+00  1.74416E+00  1.13540E+00  4.34376E-01 -7.72140E-02 -3.16708E-01 -3.13889E-01 -2.46629E-01 -2.82557E-01
  -4.41957E-01 -6.18747E-01 -6.85004E-01 -6.35685E-01 -5.29941E-01 -4.03143E-01 -2.37677E-01  2.85702E-01  1.36727E+00  2.70789E+00
   3.76947E+00  4.07022E+00  3.63813E+00  2.81747E+00  1.96187E+00  1.36076E+00  1.13864E+00  1.27279E+00  1.92379E+00  3.07682E+00
   4.59363E+00  6.27562E+00  7.79326E+00  8.84951E+00  9.20479E+00  8.39556E+00  6.27464E+00  3.29527E+00  3.37833E-01 -1.73417E+00
  -2.34678E+00 -1.51202E+00  4.76406E-01  3.40440E+00  6.86157E+00  9.91780E+00  1.17691E+01  1.19907E+01  1.04882E+01  7.14515E+00
   3.23282E+00  1.62741E-01 -1.46581E+00 -1.67393E+00 -7.03833E-01  1.25745E+00  3.78749E+00  5.74083E+00  6.84413E+00  7.47680E+00
   8.10964E+00  8.59527E+00  8.46940E+00  8.04274E+00  8.02326E+00  8.50304E+00  9.25737E+00  9.98781E+00  1.03289E+01  1.00280E+01
   8.92545E+00  7.29029E+00  5.97544E+00  5.56555E+00  5.83617E+00  6.25456E+00  6.82911E+00  7.42287E+00  7.77745E+00  8.08507E+00
   8.71785E+00  9.66963E+00  1.05756E+01  1.13322E+01  1.20336E+01  1.28446E+01  1.53189E+01  2.21615E+01  3.41403E+01  4.86756E+01
   6.07206E+01  6.56533E+01  6.27998E+01  5.50099E+01  4.59965E+01  3.85918E+01  3.35250E+01  2.88820E+01  2.18773E+01  1.31406E+01
   8.22141E+00  6.82368E+00  6.27331E+00  6.08720E+00  6.12197E+00  6.10996E+00  6.03209E+00  5.91256E+00  5.76492E+00  5.62342E+00
   5.51105E+00  5.39353E+00  5.25869E+00  5.15333E+00  5.10238E+00  5.08532E+00  5.08686E+00  5.11077E+00  5.17097E+00  5.27040E+00
   5.38665E+00  5.52022E+00  5.68027E+00  5.86896E+00  6.08679E+00  6.33427E+00  6.61172E+00  6.91615E+00  7.24112E+00  7.58499E+00
   7.94537E+00  8.31621E+00  8.69111E+00  9.06336E+00  9.42571E+00  9.77199E+00  1.00975E+01  1.03989E+01  1.06744E+01  1.09236E+01
   1.11485E+01  1.13525E+01  1.15428E+01  1.17292E+01  1.19230E+01  1.21379E+01  1.23903E+01  1.26990E+01  1.30857E+01  1.35753E+01
   1.41990E+01  1.49934E+01  1.60369E+01  1.74214E+01  1.90675E+01  2.07043E+01  2.20456E+01  2.29769E+01  2.36836E+01  2.45120E+01
   2.57231E+01  2.75389E+01  3.01239E+01  3.34385E+01  3.72451E+01  4.12504E+01  4.53077E+01  4.91379E+01  5.23467E+01  5.50299E+01
   5.73808E+01  5.94812E+01  6.12625E+01  6.25589E+01  6.32605E+01  6.33029E+01  6.21515E+01  5.95043E+01  5.56227E+01  5.10984E+01
   4.65148E+01  4.24342E+01  3.92272E+01  3.68470E+01  3.48921E+01  3.29462E+01  3.10305E+01  2.90754E+01  2.66715E+01  2.41147E+01
   2.17794E+01  1.97684E+01  1.78264E+01  1.56086E+01  1.34664E+01  1.18464E+01  1.05821E+01  9.56214E+00  8.73338E+00  8.06095E+00
   7.51848E+00  7.08488E+00  6.74278E+00  6.47757E+00  6.27688E+00  6.13048E+00  6.03019E+00  5.96959E+00  5.94348E+00  5.94751E+00
   5.97796E+00  6.03187E+00  6.10699E+00  6.20156E+00  6.31401E+00  6.44269E+00  6.58598E+00  6.74243E+00  6.91080E+00  7.08977E+00
   7.27780E+00  7.47304E+00  7.67352E+00  7.87730E+00  8.08243E+00  8.28675E+00  8.48781E+00  8.68294E+00  8.86949E+00  9.04497E+00
   9.20696E+00  9.35299E+00  9.48055E+00  9.58729E+00  9.67125E+00  9.73089E+00  9.76499E+00  9.77255E+00  9.75286E+00  9.70567E+00
   9.63133E+00  9.53068E+00  9.40488E+00  9.25527E+00  9.08350E+00  8.89158E+00  8.68189E+00  8.45698E+00  8.21934E+00  7.97140E+00
   7.71556E+00  7.45433E+00  7.19017E+00  6.92533E+00  6.66173E+00  6.40103E+00  6.14475E+00  5.89432E+00  5.65098E+00  5.41566E+00
   5.18895E+00  4.97127E+00  4.76297E+00  4.56438E+00  4.37562E+00  4.19661E+00  4.02707E+00  3.86673E+00  3.71536E+00  3.57277E+00
   3.43862E+00  3.31245E+00  3.19376E+00  3.08214E+00  2.97729E+00  2.87893E+00  2.78663E+00  2.69993E+00  2.61839E+00  2.54174E+00
   2.46976E+00  2.40221E+00  2.33873E+00  2.27895E+00  2.22261E+00  2.16957E+00  2.11970E+00  2.07280E+00  2.02858E+00  1.98679E+00
   1.94728E+00  1.91004E+00  1.87497E+00  1.84189E+00  1.81059E+00  1.78090E+00  1.75280E+00  1.72629E+00  1.70129E+00  1.67763E+00
   1.65515E+00  1.63379E+00  1.61359E+00  1.59455E+00  1.57658E+00  1.55953E+00  1.54329E+00  1.52788E+00  1.51336E+00  1.49970E+00
   1.48681E+00  1.47454E+00  1.46288E+00  1.45188E+00  1.44159E+00  1.43196E+00  1.42289E+00  1.41428E+00  1.40618E+00  1.39865E+00
   1.39172E+00  1.38533E+00  1.37937E+00  1.37382E+00  1.36875E+00  1.36425E+00  1.36032E+00  1.35687E+00
 NY background values follow
     9.515E+00    9.457E+00    9.398E+00    9.339E+00    9.281E+00    9.222E+00    9.163E+00    9.104E+00    9.046E+00    8.987E+00
     8.928E+00    8.870E+00    8.811E+00    8.752E+00    8.693E+00    8.635E+00    8.576E+00    8.517E+00    8.459E+00    8.400E+00
     8.342E+00    8.283E+00    8.224E+00    8.166E+00    8.108E+00    8.049E+00    7.991E+00    7.933E+00    7.874E+00    7.816E+00
     7.758E+00    7.700E+00    7.642E+00    7.584E+00    7.527E+00    7.469E+00    7.411E+00    7.354E+00    7.296E+00    7.239E+00
     7.182E+00    7.125E+00    7.067E+00    7.011E+00    6.954E+00    6.897E+00    6.840E+00    6.784E+00    6.728E+00    6.671E+00
     6.615E+00    6.559E+00    6.504E+00    6.448E+00    6.392E+00    6.337E+00    6.282E+00    6.227E+00    6.172E+00    6.117E+00
     6.063E+00    6.008E+00    5.954E+00    5.900E+00    5.846E+00    5.793E+00    5.739E+00    5.686E+00    5.633E+00    5.580E+00
     5.528E+00    5.475E+00    5.423E+00    5.371E+00    5.320E+00    5.268E+00    5.217E+00    5.166E+00    5.115E+00    5.065E+00
     5.015E+00    4.965E+00    4.915E+00    4.865E+00    4.816E+00    4.767E+00    4.719E+00    4.670E+00    4.622E+00    4.575E+00
     4.527E+00    4.480E+00    4.433E+00    4.386E+00    4.340E+00    4.294E+00    4.248E+00    4.203E+00    4.158E+00    4.113E+00
     4.069E+00    4.025E+00    3.981E+00    3.937E+00    3.894E+00    3.851E+00    3.809E+00    3.767E+00    3.725E+00    3.683E+00
     3.642E+00    3.601E+00    3.561E+00    3.521E+00    3.481E+00    3.441E+00    3.402E+00    3.363E+00    3.325E+00    3.287E+00
     3.249E+00    3.212E+00    3.175E+00    3.138E+00    3.102E+00    3.066E+00    3.031E+00    2.995E+00    2.961E+00    2.926E+00
     2.892E+00    2.859E+00    2.825E+00    2.792E+00    2.760E+00    2.728E+00    2.696E+00    2.665E+00    2.634E+00    2.603E+00
     2.573E+00    2.543E+00    2.514E+00    2.485E+00    2.456E+00    2.428E+00    2.400E+00    2.373E+00    2.346E+00    2.319E+00
     2.293E+00    2.267E+00    2.241E+00    2.216E+00    2.192E+00    2.167E+00    2.143E+00    2.120E+00    2.097E+00    2.074E+00
     2.052E+00    2.030E+00    2.009E+00    1.988E+00    1.967E+00    1.947E+00    1.927E+00    1.907E+00    1.888E+00    1.870E+00
     1.851E+00    1.833E+00    1.816E+00    1.799E+00    1.782E+00    1.766E+00    1.750E+00    1.735E+00    1.720E+00    1.705E+00
     1.691E+00    1.677E+00    1.664E+00    1.651E+00    1.638E+00    1.626E+00    1.614E+00    1.603E+00    1.592E+00    1.581E+00
     1.571E+00    1.561E+00    1.551E+00    1.542E+00    1.533E+00    1.524E+00    1.516E+00    1.508E+00    1.500E+00    1.493E+00
     1.486E+00    1.479E+00    1.473E+00    1.467E+00    1.461E+00    1.455E+00    1.450E+00    1.445E+00    1.440E+00    1.436E+00
     1.431E+00    1.427E+00    1.424E+00    1.420E+00    1.417E+00    1.414E+00    1.411E+00    1.408E+00    1.406E+00    1.404E+00
     1.401E+00    1.400E+00    1.398E+00    1.397E+00    1.395E+00    1.394E+00    1.393E+00    1.392E+00    1.392E+00    1.391E+00
     1.391E+00    1.391E+00    1.390E+00    1.390E+00    1.391E+00    1.391E+00    1.391E+00    1.392E+00    1.393E+00    1.393E+00
     1.394E+00    1.395E+00    1.396E+00    1.398E+00    1.399E+00    1.400E+00    1.402E+00    1.403E+00    1.405E+00    1.407E+00
     1.409E+00    1.410E+00    1.412E+00    1.414E+00    1.416E+00    1.418E+00    1.421E+00    1.423E+00    1.425E+00    1.427E+00
     1.430E+00    1.432E+00    1.434E+00    1.437E+00    1.439E+00    1.441E+00    1.444E+00    1.446E+00    1.449E+00    1.451E+00
     1.454E+00    1.456E+00    1.459E+00    1.461E+00    1.463E+00    1.466E+00    1.468E+00    1.470E+00    1.473E+00    1.475E+00
     1.478E+00    1.480E+00    1.482E+00    1.484E+00    1.487E+00    1.489E+00    1.491E+00    1.493E+00    1.495E+00    1.497E+00
     1.500E+00    1.502E+00    1.504E+00    1.506E+00    1.508E+00    1.510E+00    1.512E+00    1.514E+00    1.515E+00    1.517E+00
     1.519E+00    1.521E+00    1.523E+00    1.524E+00    1.526E+00    1.528E+00    1.529E+00    1.531E+00    1.532E+00    1.534E+00
     1.535E+00    1.536E+00    1.538E+00    1.539E+00    1.540E+00    1.542E+00    1.543E+00    1.544E+00    1.545E+00    1.546E+00
     1.547E+00    1.548E+00    1.549E+00    1.549E+00    1.550E+00    1.551E+00    1.552E+00    1.552E+00    1.553E+00    1.554E+00
     1.554E+00    1.555E+00    1.555E+00    1.555E+00    1.556E+00    1.556E+00    1.557E+00    1.557E+00    1.557E+00    1.557E+00
     1.557E+00    1.558E+00    1.558E+00    1.558E+00    1.558E+00    1.558E+00    1.558E+00    1.558E+00    1.558E+00    1.557E+00
     1.557E+00    1.557E+00    1.557E+00    1.557E+00    1.556E+00    1.556E+00    1.556E+00    1.555E+00    1.555E+00    1.555E+00
     1.554E+00    1.554E+00    1.553E+00    1.553E+00    1.552E+00    1.552E+00    1.551E+00    1.551E+00    1.550E+00    1.550E+00
     1.549E+00    1.548E+00    1.548E+00    1.547E+00    1.546E+00    1.546E+00    1.545E+00    1.545E+00    1.544E+00    1.543E+00
     1.543E+00    1.542E+00    1.541E+00    1.541E+00    1.540E+00    1.539E+00    1.539E+00    1.538E+00    1.538E+00    1.537E+00
     1.536E+00    1.536E+00    1.535E+00    1.535E+00    1.534E+00    1.534E+00    1.533E+00    1.533E+00    1.532E+00    1.532E+00
     1.532E+00    1.531E+00    1.531E+00    1.531E+00    1.531E+00    1.530E+00    1.530E+00    1.530E+00    1.530E+00    1.530E+00
     1.530E+00    1.530E+00    1.530E+00    1.530E+00    1.530E+00    1.530E+00    1.530E+00    1.531E+00    1.531E+00    1.531E+00
     1.531E+00    1.532E+00    1.532E+00    1.532E+00    1.533E+00    1.533E+00    1.534E+00    1.534E+00    1.535E+00    1.535E+00
     1.536E+00    1.536E+00    1.537E+00    1.537E+00    1.538E+00    1.539E+00    1.539E+00    1.540E+00    1.541E+00    1.541E+00
     1.542E+00    1.543E+00    1.543E+00    1.544E+00    1.545E+00    1.546E+00    1.546E+00    1.547E+00    1.548E+00    1.549E+00
     1.550E+00    1.551E+00    1.551E+00    1.552E+00    1.553E+00    1.554E+00    1.555E+00    1.556E+00    1.557E+00    1.558E+00
     1.558E+00    1.559E+00    1.560E+00    1.561E+00    1.562E+00    1.563E+00    1.564E+00    1.565E+00    1.566E+00    1.567E+00
     1.568E+00    1.569E+00    1.570E+00    1.571E+00    1.572E+00    1.573E+00    1.574E+00    1.575E+00    1.576E+00    1.577E+00
     1.578E+00    1.579E+00    1.580E+00    1.581E+00    1.582E+00    1.583E+00    1.584E+00    1.585E+00    1.586E+00    1.587E+00
     1.588E+00    1.589E+00    1.590E+00    1.591E+00    1.592E+00    1.593E+00    1.594E+00    1.595E+00
 Ala      Conc. = 2.53E+02
