 LCModel (Version 6.3-1L) Copyright: S.W. Provencher.          Ref.: Magn. Reson. Med. 30:672-679 (1993).                
 Slice#1 Row#6 Col#8  PD_05_press_1_raw_act
 36 lines in following concentration table = NCONC+1
    Conc.  %SD /Cr+PCr  Metabolite                                         
  167.841  77%   0.345 Ala                                                 
   76.563 129%   0.158 Asp                                                 
    0.000 999%   0.000 Cr                                                  
  485.875  11%   1.000 PCr                                                 
   63.201  97%   0.130 GABA                                                
   56.138 108%   0.116 Glc                                                 
  436.546  69%   0.898 Gln                                                 
  980.815  35%   2.019 Glu                                                 
  230.945   9%   0.475 GPC                                                 
    0.000 999%   0.000 PCh                                                 
   84.343  88%   0.174 GSH                                                 
  768.566  32%   1.582 Ins                                                 
    0.000 999%   0.000 Lac                                                 
  723.022  17%   1.488 NAA                                                 
  123.794 104%   0.255 NAAG                                                
   38.127  45% 7.8E-02 Scyllo                                              
  144.364  66%   0.297 Tau                                                 
  150.836  54%   0.310 -CrCH2                                              
  230.945   9%   0.475 GPC+PCh                                             
  846.816   8%   1.743 NAA+NAAG                                            
  485.875  11%   1.000 Cr+PCr                                              
 1.42E+03  38%   2.917 Glu+Gln                                             
    0.000 999%   0.000 Lip13a                                              
  431.548  21%   0.888 Lip13b                                              
   82.922  60%   0.171 Lip09                                               
  512.504  23%   1.055 MM09                                                
   68.666  49%   0.141 Lip20                                               
  998.254  22%   2.055 MM20                                                
   93.867  66%   0.193 MM12                                                
  627.030  26%   1.291 MM14                                                
  333.917  37%   0.687 MM17                                                
  431.548  21%   0.888 Lip13a+Lip13b                                       
 1.15E+03  16%   2.372 MM14+Lip13a+Lip13b+MM12                             
  595.426  19%   1.225 MM09+Lip09                                          
 1.07E+03  21%   2.196 MM20+Lip20                                          
   6 lines in following misc. output table
  FWHM = 0.069 ppm    S/N =   4                                            
  Data shift =-0.031 ppm                                                   
  Ph: -22 deg       1.0 deg/ppm                                            
  alphaB,S = 1.4E+00,   6.1E+01                                            
   14 spline knots.   Ns = 9(1)                                            
  (15) 4 infls.   (16) 1 extrs.                                            
  498 points on ppm-axis = NY
      4.000000     3.992357     3.984714     3.977070     3.969427     3.961784     3.954141     3.946497     3.938854     3.931211
      3.923568     3.915925     3.908281     3.900638     3.892995     3.885352     3.877708     3.870065     3.862422     3.854779
      3.847136     3.839492     3.831849     3.824206     3.816563     3.808919     3.801276     3.793633     3.785990     3.778347
      3.770703     3.763060     3.755417     3.747774     3.740130     3.732487     3.724844     3.717201     3.709558     3.701914
      3.694271     3.686628     3.678985     3.671341     3.663698     3.656055     3.648412     3.640769     3.633125     3.625482
      3.617839     3.610196     3.602552     3.594909     3.587266     3.579623     3.571980     3.564336     3.556693     3.549050
      3.541407     3.533763     3.526120     3.518477     3.510834     3.503191     3.495547     3.487904     3.480261     3.472618
      3.464974     3.457331     3.449688     3.442045     3.434402     3.426758     3.419115     3.411472     3.403829     3.396185
      3.388542     3.380899     3.373256     3.365613     3.357969     3.350326     3.342683     3.335040     3.327396     3.319753
      3.312110     3.304467     3.296824     3.289180     3.281537     3.273894     3.266251     3.258607     3.250964     3.243321
      3.235678     3.228034     3.220391     3.212748     3.205105     3.197462     3.189818     3.182175     3.174532     3.166889
      3.159245     3.151602     3.143959     3.136316     3.128673     3.121029     3.113386     3.105743     3.098100     3.090456
      3.082813     3.075170     3.067527     3.059884     3.052240     3.044597     3.036954     3.029311     3.021667     3.014024
      3.006381     2.998738     2.991095     2.983451     2.975808     2.968165     2.960522     2.952878     2.945235     2.937592
      2.929949     2.922306     2.914662     2.907019     2.899376     2.891733     2.884089     2.876446     2.868803     2.861160
      2.853517     2.845873     2.838230     2.830587     2.822944     2.815300     2.807657     2.800014     2.792371     2.784728
      2.777084     2.769441     2.761798     2.754155     2.746511     2.738868     2.731225     2.723582     2.715939     2.708295
      2.700652     2.693009     2.685366     2.677722     2.670079     2.662436     2.654793     2.647150     2.639506     2.631863
      2.624220     2.616577     2.608933     2.601290     2.593647     2.586004     2.578361     2.570717     2.563074     2.555431
      2.547788     2.540144     2.532501     2.524858     2.517215     2.509572     2.501928     2.494285     2.486642     2.478999
      2.471355     2.463712     2.456069     2.448426     2.440783     2.433139     2.425496     2.417853     2.410210     2.402566
      2.394923     2.387280     2.379637     2.371994     2.364350     2.356707     2.349064     2.341421     2.333777     2.326134
      2.318491     2.310848     2.303205     2.295561     2.287918     2.280275     2.272632     2.264988     2.257345     2.249702
      2.242059     2.234416     2.226772     2.219129     2.211486     2.203843     2.196199     2.188556     2.180913     2.173270
      2.165627     2.157983     2.150340     2.142697     2.135054     2.127410     2.119767     2.112124     2.104481     2.096838
      2.089194     2.081551     2.073908     2.066265     2.058621     2.050978     2.043335     2.035692     2.028049     2.020405
      2.012762     2.005119     1.997476     1.989833     1.982190     1.974546     1.966903     1.959260     1.951617     1.943974
      1.936331     1.928688     1.921045     1.913402     1.905759     1.898115     1.890472     1.882829     1.875186     1.867543
      1.859900     1.852257     1.844614     1.836971     1.829327     1.821684     1.814041     1.806398     1.798755     1.791112
      1.783469     1.775826     1.768183     1.760540     1.752896     1.745253     1.737610     1.729967     1.722324     1.714681
      1.707038     1.699395     1.691752     1.684108     1.676465     1.668822     1.661179     1.653536     1.645893     1.638250
      1.630607     1.622964     1.615321     1.607677     1.600034     1.592391     1.584748     1.577105     1.569462     1.561819
      1.554176     1.546533     1.538890     1.531246     1.523603     1.515960     1.508317     1.500674     1.493031     1.485388
      1.477745     1.470102     1.462458     1.454815     1.447172     1.439529     1.431886     1.424243     1.416600     1.408957
      1.401314     1.393671     1.386027     1.378384     1.370741     1.363098     1.355455     1.347812     1.340169     1.332526
      1.324883     1.317240     1.309596     1.301953     1.294310     1.286667     1.279024     1.271381     1.263738     1.256095
      1.248452     1.240808     1.233165     1.225522     1.217879     1.210236     1.202593     1.194950     1.187307     1.179664
      1.172021     1.164377     1.156734     1.149091     1.141448     1.133805     1.126162     1.118519     1.110876     1.103233
      1.095590     1.087946     1.080303     1.072660     1.065017     1.057374     1.049731     1.042088     1.034445     1.026802
      1.019158     1.011515     1.003872     0.996229     0.988586     0.980943     0.973300     0.965657     0.958014     0.950371
      0.942727     0.935084     0.927441     0.919798     0.912155     0.904512     0.896869     0.889226     0.881583     0.873940
      0.866296     0.858653     0.851010     0.843367     0.835724     0.828081     0.820438     0.812795     0.805152     0.797508
      0.789865     0.782222     0.774579     0.766936     0.759293     0.751650     0.744007     0.736364     0.728721     0.721077
      0.713434     0.705791     0.698148     0.690505     0.682862     0.675219     0.667576     0.659933     0.652290     0.644646
      0.637003     0.629360     0.621717     0.614074     0.606431     0.598788     0.591145     0.583502     0.575858     0.568215
      0.560572     0.552929     0.545286     0.537643     0.530000     0.522357     0.514714     0.507071     0.499427     0.491784
      0.484141     0.476498     0.468855     0.461212     0.453569     0.445925     0.438282     0.430639     0.422996     0.415353
      0.407710     0.400067     0.392424     0.384780     0.377137     0.369494     0.361851     0.354208     0.346565     0.338922
      0.331278     0.323635     0.315992     0.308349     0.300706     0.293063     0.285420     0.277777     0.270133     0.262490
      0.254847     0.247204     0.239561     0.231918     0.224275     0.216631     0.208988     0.201345
 NY phased data points follow
  -1.17699E+01 -1.12879E+01 -1.12250E+01 -8.26796E+00 -7.93005E+00 -1.37914E+00 -3.38427E-01 -4.28892E+00 -3.48147E+00  4.04095E-01
  -3.78507E-01 -1.44740E+00 -4.97209E+00 -2.46385E+00  3.74399E-01 -4.99412E+00 -8.98591E+00 -6.62041E+00 -7.57053E+00 -5.25668E-01
  -6.34912E+00 -8.08617E+00 -8.53553E+00 -2.70322E+00 -8.27656E+00 -3.82763E+00 -8.11572E+00 -7.50891E+00 -7.63008E+00 -4.18296E+00
  -7.32105E+00 -3.67354E+00 -3.13336E+00 -3.26047E+00 -5.70815E+00 -6.68818E+00 -4.53285E-01 -4.08513E+00 -6.90207E+00 -9.91434E+00
  -4.90813E+00  9.50276E-01  2.14395E+00 -3.65471E+00 -5.27130E+00 -3.46059E+00  2.89976E+00 -3.06560E+00  1.00528E+00  6.33744E-02
  -6.30655E+00 -6.52979E+00 -1.10685E+00 -4.03551E+00 -6.44557E+00 -2.93725E+00 -5.55838E+00 -7.23792E+00 -4.83895E+00 -5.60187E+00
  -4.74519E+00 -5.42130E+00 -9.96113E+00 -5.13960E+00 -7.83641E+00 -7.92912E+00 -6.77778E+00 -6.67696E+00 -4.30827E+00 -5.23823E+00
  -2.50506E+00 -5.47572E+00 -4.50271E+00 -4.21897E+00 -4.66702E+00 -3.39299E+00 -7.83863E+00 -1.38124E+01 -8.61150E-01 -8.75953E-01
  -5.55026E+00 -5.81128E+00 -5.64652E+00 -3.92606E+00 -4.59897E+00 -5.38650E+00 -2.25726E+00 -6.32943E+00 -3.93670E+00 -6.26636E+00
  -9.56486E+00 -6.25371E+00 -5.33157E+00 -3.01487E+00 -5.84299E+00 -5.52951E+00 -3.00467E+00 -7.55290E-02 -3.04286E+00  1.59503E+00
   2.81343E+00  2.11454E+00  9.58614E+00  1.04345E+01  7.75098E+00  1.04404E+01  9.38286E+00  7.13116E+00  3.39023E+00  6.19043E+00
  -5.58009E+00 -1.37681E+00 -1.75388E+00 -3.01255E+00 -6.69479E+00 -3.00383E+00 -6.16987E+00 -2.53282E+00 -7.28797E+00 -6.55665E+00
  -7.30936E+00 -3.12147E-01 -3.27720E+00  7.61131E-01  8.42765E-02  5.80263E+00  2.15718E+00  6.29370E+00  7.77962E+00  4.40568E+00
   7.53481E+00  2.10201E+00 -2.95427E+00  2.18129E+00 -4.24495E+00 -1.75580E+00  1.17134E+00 -2.36962E+00 -1.18750E+01 -4.16081E+00
  -8.33931E+00 -7.75800E+00 -9.87012E+00 -8.37915E+00 -6.18718E+00 -8.47487E+00 -5.05617E+00 -7.57637E+00 -7.35927E+00 -9.32050E+00
  -8.12870E+00 -1.02558E+01 -7.96112E+00 -4.26231E+00 -5.40259E+00 -7.45194E+00 -6.73594E+00 -5.71092E+00 -9.98768E+00 -2.14685E+00
  -7.16845E+00 -1.14819E+01 -1.22602E+01 -5.72718E+00 -6.81958E+00 -3.58978E+00 -8.43065E+00 -7.24992E+00 -9.11090E+00 -7.47946E+00
  -9.03627E+00 -7.94816E+00 -6.76053E+00 -8.49008E+00 -9.64764E+00 -7.73070E+00 -7.89974E+00 -7.05908E+00 -1.07224E+01 -1.42109E+01
  -1.02119E+01 -1.38037E+01 -8.06365E+00 -9.35148E+00 -1.14078E+01 -1.24405E+01 -1.15417E+01 -8.80051E+00 -8.35326E+00 -8.07579E+00
  -2.97447E+00 -6.95908E+00 -7.93887E+00 -6.93702E+00 -5.57373E+00 -3.02873E+00 -3.70734E+00 -8.21620E+00 -7.72320E+00 -5.17957E+00
  -1.06380E+01 -8.32155E-01 -3.02778E+00 -4.77904E-02 -1.90983E+00 -4.63184E+00 -7.50366E+00 -4.63787E+00 -8.60797E+00 -7.10322E+00
  -6.29201E+00 -1.82462E+00 -4.06467E+00 -5.24325E+00 -2.23128E+00 -3.23012E+00 -1.19854E+00 -2.61376E+00 -3.00782E+00 -3.24586E+00
  -4.85350E+00 -4.34566E+00 -7.55576E+00 -3.86833E+00 -5.98774E+00 -6.25746E+00 -5.34251E+00 -6.99308E+00 -9.19790E+00 -4.38507E+00
  -1.67307E+00 -6.17969E+00  1.16352E+00 -7.98492E-01 -3.30648E+00 -6.38415E+00  4.02833E-02  1.72064E-01 -3.43474E+00 -6.54992E+00
  -1.68531E+00 -2.97036E+00  2.90840E-01 -1.36014E+00 -3.23208E+00 -1.85633E+00 -2.65210E+00 -4.29614E+00  2.69652E+00 -1.16173E+00
  -1.13462E+00  2.31686E+00  1.08838E+00  2.19009E+00  7.26181E+00 -7.23684E-02  1.27735E+01  1.43288E+01  1.71164E+01  1.96459E+01
   1.61881E+01  1.58334E+01  1.56932E+01  1.38932E+01  1.74523E+01  8.92558E+00  1.05716E+00 -3.25449E+00 -5.45608E+00 -4.91366E-01
  -3.99327E+00 -6.52363E+00 -3.05083E-01 -2.18501E+00  1.98653E+00 -2.60422E+00 -2.98780E+00  1.05866E-01 -4.35950E+00  5.05607E-02
  -3.51795E+00 -5.65595E+00 -4.65573E+00 -2.96087E+00 -6.13264E+00 -4.66775E+00 -4.05022E+00 -7.78918E+00 -4.50997E+00 -4.45998E+00
  -6.08588E+00 -2.92984E+00 -2.21489E+00 -6.30809E+00 -1.69590E+00 -1.69009E+00 -3.68918E+00 -4.08665E+00 -8.57151E+00 -5.63215E+00
  -2.61833E+00 -3.49155E+00 -9.41402E+00 -3.13427E+00 -5.59794E+00  9.33854E-01 -4.18498E+00 -2.89304E+00 -6.19783E+00 -3.34462E+00
  -9.04344E-01  1.02969E-01 -2.51192E+00  1.75016E-01 -3.34928E+00 -6.57182E+00 -4.07982E+00 -1.43605E+00 -8.66001E+00 -6.96613E+00
   2.10758E+00 -1.26978E+00 -6.33218E+00 -2.70615E+00 -5.42425E+00 -2.60368E+00 -1.86576E+00 -2.07119E+00 -5.29967E+00 -2.39711E+00
  -6.04767E+00 -2.44682E+00 -3.45785E+00 -2.13569E+00 -3.71881E+00 -3.69632E+00  1.79849E+00 -2.06344E+00 -3.17348E+00  5.88669E-01
  -4.33730E+00  1.96182E+00 -5.49878E-01 -1.74025E+00 -1.02198E+00 -1.31001E+00 -8.74028E-01 -2.74462E+00 -7.58756E-01 -7.51027E-01
   1.93711E+00  5.97407E+00  8.94330E-01 -1.32827E+00 -8.71815E-01  6.04776E+00  1.43255E+00 -2.38143E+00 -1.55337E+00 -1.34510E+00
  -3.79251E+00 -3.58373E+00 -7.67760E+00 -6.86769E+00 -3.53849E+00 -5.08059E+00 -7.39817E+00 -1.03567E+01 -2.84449E+00 -2.44367E+00
  -1.01646E+01 -8.36785E+00 -5.78164E+00 -1.04696E+01 -1.23809E+01 -1.45678E+01 -8.57904E+00 -1.16854E+01 -8.03379E+00 -1.21775E+01
  -8.07426E+00 -1.09263E+01 -1.16105E+01 -9.63749E+00 -7.95396E+00 -7.82359E+00 -1.15394E+01 -1.04741E+01 -1.46558E+01 -6.88868E+00
  -4.76525E+00 -1.18208E+01 -5.28867E+00 -6.47571E+00 -5.29790E+00 -6.07624E+00 -2.79300E+00 -5.98162E+00 -3.49756E+00 -4.12053E+00
  -4.59886E+00 -1.36994E+00 -7.50143E-01 -4.59828E+00  2.92132E+00 -6.56365E+00 -3.20279E+00 -4.10898E+00  1.01163E+00  1.83725E+00
  -2.50085E+00  2.75481E+00 -9.56141E-01  2.47611E+00 -1.70148E+00  2.19303E+00  9.77652E-02  6.74182E-01 -4.71430E+00 -3.35592E+00
  -9.91453E-01 -4.77532E+00 -1.27018E+00 -2.83803E+00 -3.99766E+00 -4.34750E-01 -3.74492E+00 -7.30927E+00 -3.54226E+00 -5.65066E+00
  -3.87179E+00 -2.55963E+00 -6.19672E-01 -1.24408E+00 -1.96563E+00 -7.58413E-01 -3.11544E+00 -2.40124E-01  6.63976E-01  5.05553E-01
  -2.74265E+00 -1.31401E+00 -3.80919E+00 -1.95498E-01 -3.16597E+00 -3.69552E+00 -3.00486E+00  1.73338E-01 -1.89306E+00 -5.11606E+00
  -6.96225E+00 -3.34759E+00 -8.01810E+00 -6.64067E+00 -6.39376E+00 -1.00302E+00 -4.88489E+00 -8.03280E+00 -3.15595E+00 -3.93152E+00
  -2.20789E+00 -5.21449E+00 -1.37439E+00 -1.13269E+00 -1.85713E+00 -6.23979E+00 -5.86667E+00 -6.69169E+00 -3.65320E+00 -4.09341E+00
  -4.42573E+00 -2.52385E+00 -2.67838E+00 -3.86700E+00  2.00591E+00 -4.59438E+00 -4.55090E+00 -4.17589E+00 -3.63502E+00 -6.78640E+00
  -3.91031E+00 -1.82232E+00  1.79958E+00 -6.79894E+00 -6.44753E+00 -1.09624E+00 -6.82368E+00 -3.34633E+00 -2.76876E+00 -5.06918E+00
  -2.06584E+00 -5.02034E+00 -5.30084E+00 -2.81287E-01 -2.89993E+00 -2.23370E+00 -5.20188E+00 -5.62921E+00
 NY points of the fit to the data follow
  -6.59622E+00 -6.74830E+00 -6.64845E+00 -6.21007E+00 -5.47469E+00 -4.57391E+00 -3.60493E+00 -2.66017E+00 -1.87004E+00 -1.36083E+00
  -1.12773E+00 -1.10788E+00 -1.32539E+00 -1.89710E+00 -2.84294E+00 -3.93483E+00 -4.78129E+00 -5.14230E+00 -5.27450E+00 -5.57558E+00
  -5.88747E+00 -5.99797E+00 -6.10970E+00 -6.23774E+00 -6.35505E+00 -6.40376E+00 -6.34510E+00 -6.13762E+00 -5.77548E+00 -5.33659E+00
  -4.89543E+00 -4.50009E+00 -4.13506E+00 -3.83401E+00 -3.75147E+00 -3.96732E+00 -4.40260E+00 -4.94554E+00 -5.44380E+00 -5.78227E+00
  -5.80536E+00 -5.43330E+00 -4.80893E+00 -4.06535E+00 -3.31904E+00 -2.69835E+00 -2.30314E+00 -2.18822E+00 -2.24935E+00 -2.47459E+00
  -2.95668E+00 -3.65117E+00 -4.48942E+00 -5.26760E+00 -5.65295E+00 -5.60934E+00 -5.49715E+00 -5.51322E+00 -5.49240E+00 -5.36941E+00
  -5.28311E+00 -5.29147E+00 -5.34991E+00 -5.45365E+00 -5.59972E+00 -5.77571E+00 -5.90538E+00 -5.88570E+00 -5.73782E+00 -5.54547E+00
  -5.34717E+00 -5.18420E+00 -5.06911E+00 -5.00359E+00 -4.98522E+00 -5.02502E+00 -5.14134E+00 -5.30290E+00 -5.42474E+00 -5.48041E+00
  -5.50587E+00 -5.56813E+00 -5.62949E+00 -5.64045E+00 -5.64489E+00 -5.71941E+00 -5.85909E+00 -6.00273E+00 -6.13251E+00 -6.26413E+00
  -6.42283E+00 -6.57991E+00 -6.65546E+00 -6.57801E+00 -6.39002E+00 -6.01547E+00 -5.07158E+00 -3.46852E+00 -1.36643E+00  1.15603E+00
   3.83480E+00  6.31081E+00  8.27737E+00  9.45501E+00  9.88352E+00  9.73419E+00  8.93498E+00  7.15351E+00  4.26347E+00  9.27344E-01
  -1.70000E+00 -3.02252E+00 -3.77235E+00 -4.96646E+00 -6.13917E+00 -6.50150E+00 -6.56227E+00 -6.55423E+00 -6.49668E+00 -6.10132E+00
  -5.14867E+00 -3.78455E+00 -2.08861E+00 -1.07809E-01  1.90602E+00  3.71233E+00  5.06554E+00  5.80046E+00  6.00605E+00  5.77684E+00
   4.95053E+00  3.27069E+00  8.71360E-01 -1.58548E+00 -3.29555E+00 -4.11559E+00 -4.81010E+00 -5.84656E+00 -6.53699E+00 -6.69292E+00
  -6.70108E+00 -6.64884E+00 -6.57716E+00 -6.53137E+00 -6.52167E+00 -6.54053E+00 -6.59060E+00 -6.65085E+00 -6.71166E+00 -6.78305E+00
  -6.86342E+00 -6.93983E+00 -7.00238E+00 -7.05549E+00 -7.11769E+00 -7.19367E+00 -7.28418E+00 -7.36699E+00 -7.43240E+00 -7.48546E+00
  -7.51669E+00 -7.53484E+00 -7.56476E+00 -7.60665E+00 -7.63974E+00 -7.64611E+00 -7.62802E+00 -7.62024E+00 -7.68422E+00 -7.82842E+00
  -7.97495E+00 -8.07450E+00 -8.14359E+00 -8.20028E+00 -8.26484E+00 -8.32408E+00 -8.34037E+00 -8.34144E+00 -8.33817E+00 -8.31190E+00
  -8.23948E+00 -8.12461E+00 -8.00740E+00 -7.91291E+00 -7.80021E+00 -7.59226E+00 -7.28345E+00 -6.97187E+00 -6.74384E+00 -6.58681E+00
  -6.46170E+00 -6.34253E+00 -6.26812E+00 -6.27280E+00 -6.34435E+00 -6.40589E+00 -6.36595E+00 -6.18321E+00 -5.88194E+00 -5.49068E+00
  -5.06962E+00 -4.69976E+00 -4.48934E+00 -4.49842E+00 -4.72245E+00 -5.20283E+00 -5.88797E+00 -6.60636E+00 -7.15087E+00 -7.38402E+00
  -7.28931E+00 -6.89615E+00 -6.21960E+00 -5.34931E+00 -4.47826E+00 -3.88324E+00 -3.73420E+00 -4.01864E+00 -4.65948E+00 -5.47754E+00
  -6.33346E+00 -7.22482E+00 -7.81807E+00 -7.82895E+00 -7.40508E+00 -6.80473E+00 -6.10994E+00 -5.18253E+00 -4.20109E+00 -3.55998E+00
  -3.32882E+00 -3.28247E+00 -3.15262E+00 -2.97287E+00 -2.89800E+00 -2.87350E+00 -2.78075E+00 -2.67637E+00 -2.63761E+00 -2.67381E+00
  -2.70243E+00 -2.67327E+00 -2.65229E+00 -2.71317E+00 -2.80724E+00 -2.81932E+00 -2.69265E+00 -2.45475E+00 -2.02217E+00 -1.40231E+00
  -7.45423E-01 -8.25821E-02  9.94062E-01  2.87124E+00  5.21580E+00  7.82772E+00  1.07188E+01  1.35666E+01  1.59347E+01  1.74690E+01
   1.79038E+01  1.74186E+01  1.63794E+01  1.47958E+01  1.22364E+01  8.49596E+00  4.36408E+00  1.29824E+00 -2.15253E-01 -1.25433E+00
  -2.81424E+00 -4.07798E+00 -4.42901E+00 -4.53867E+00 -4.61067E+00 -4.63558E+00 -4.63130E+00 -4.66114E+00 -4.71986E+00 -4.80450E+00
  -4.90520E+00 -4.99603E+00 -5.05595E+00 -5.09905E+00 -5.13244E+00 -5.14287E+00 -5.12604E+00 -5.08863E+00 -5.04065E+00 -4.98731E+00
  -4.92393E+00 -4.84960E+00 -4.77287E+00 -4.69215E+00 -4.60495E+00 -4.51518E+00 -4.42693E+00 -4.33994E+00 -4.25491E+00 -4.17306E+00
  -4.09526E+00 -4.02429E+00 -3.96413E+00 -3.91421E+00 -3.87419E+00 -3.84631E+00 -3.83187E+00 -3.83000E+00 -3.83775E+00 -3.85242E+00
  -3.87228E+00 -3.89350E+00 -3.91204E+00 -3.92435E+00 -3.92614E+00 -3.91276E+00 -3.87930E+00 -3.81967E+00 -3.72130E+00 -3.55071E+00
  -3.32081E+00 -3.09034E+00 -2.88296E+00 -2.72328E+00 -2.65682E+00 -2.70734E+00 -2.89671E+00 -3.18073E+00 -3.45166E+00 -3.67619E+00
  -3.86449E+00 -3.98551E+00 -3.96927E+00 -3.73675E+00 -3.29309E+00 -2.79526E+00 -2.40867E+00 -2.11064E+00 -1.78335E+00 -1.53546E+00
  -1.50472E+00 -1.65114E+00 -1.81792E+00 -1.84774E+00 -1.75182E+00 -1.64102E+00 -1.45820E+00 -1.11065E+00 -6.41754E-01 -1.03176E-01
   4.47120E-01  9.42301E-01  1.31359E+00  1.50072E+00  1.46272E+00  1.18583E+00  6.86447E-01  8.00297E-03 -7.87166E-01 -1.62911E+00
  -2.45166E+00 -3.20166E+00 -3.84418E+00 -4.36347E+00 -4.76034E+00 -5.04743E+00 -5.24387E+00 -5.37060E+00 -5.44708E+00 -5.48946E+00
  -5.50992E+00 -5.51693E+00 -5.51586E+00 -5.50984E+00 -5.50048E+00 -5.48848E+00 -5.47392E+00 -5.45661E+00 -5.43614E+00 -5.41202E+00
  -5.38373E+00 -5.35074E+00 -5.31243E+00 -5.26814E+00 -5.21712E+00 -5.15858E+00 -5.09162E+00 -5.01532E+00 -4.92861E+00 -4.83038E+00
  -4.71945E+00 -4.59468E+00 -4.45497E+00 -4.29939E+00 -4.12717E+00 -3.93788E+00 -3.73151E+00 -3.50864E+00 -3.27051E+00 -3.01911E+00
  -2.75722E+00 -2.48850E+00 -2.21741E+00 -1.94924E+00 -1.68982E+00 -1.44545E+00 -1.22251E+00 -1.02731E+00 -8.65678E-01 -7.42729E-01
  -6.62472E-01 -6.27630E-01 -6.39411E-01 -6.97493E-01 -7.99975E-01 -9.43512E-01 -1.12343E+00 -1.33406E+00 -1.56894E+00 -1.82131E+00
  -2.08431E+00 -2.35136E+00 -2.61637E+00 -2.87399E+00 -3.11975E+00 -3.35015E+00 -3.56268E+00 -3.75573E+00 -3.92852E+00 -4.08102E+00
  -4.21376E+00 -4.32780E+00 -4.42444E+00 -4.50523E+00 -4.57177E+00 -4.62570E+00 -4.66859E+00 -4.70194E+00 -4.72710E+00 -4.74527E+00
  -4.75750E+00 -4.76472E+00 -4.76770E+00 -4.76715E+00 -4.76360E+00 -4.75753E+00 -4.74930E+00 -4.73926E+00 -4.72768E+00 -4.71480E+00
  -4.70079E+00 -4.68580E+00 -4.66995E+00 -4.65338E+00 -4.63617E+00 -4.61841E+00 -4.60014E+00 -4.58142E+00 -4.56230E+00 -4.54284E+00
  -4.52307E+00 -4.50302E+00 -4.48270E+00 -4.46215E+00 -4.44137E+00 -4.42042E+00 -4.39929E+00 -4.37801E+00 -4.35656E+00 -4.33498E+00
  -4.31326E+00 -4.29145E+00 -4.26952E+00 -4.24748E+00 -4.22533E+00 -4.20309E+00 -4.18077E+00 -4.15837E+00 -4.13589E+00 -4.11333E+00
  -4.09068E+00 -4.06796E+00 -4.04518E+00 -4.02234E+00 -3.99941E+00 -3.97641E+00 -3.95332E+00 -3.93018E+00 -3.90696E+00 -3.88367E+00
  -3.86028E+00 -3.83681E+00 -3.81323E+00 -3.78957E+00 -3.76580E+00 -3.74193E+00 -3.71790E+00 -3.69374E+00
 NY background values follow
    -9.275E+00   -9.258E+00   -9.240E+00   -9.223E+00   -9.205E+00   -9.188E+00   -9.170E+00   -9.153E+00   -9.135E+00   -9.118E+00
    -9.100E+00   -9.083E+00   -9.065E+00   -9.048E+00   -9.030E+00   -9.013E+00   -8.995E+00   -8.978E+00   -8.960E+00   -8.943E+00
    -8.926E+00   -8.908E+00   -8.891E+00   -8.874E+00   -8.856E+00   -8.839E+00   -8.822E+00   -8.805E+00   -8.787E+00   -8.770E+00
    -8.753E+00   -8.736E+00   -8.719E+00   -8.702E+00   -8.685E+00   -8.668E+00   -8.651E+00   -8.634E+00   -8.618E+00   -8.601E+00
    -8.584E+00   -8.567E+00   -8.551E+00   -8.534E+00   -8.518E+00   -8.501E+00   -8.485E+00   -8.468E+00   -8.452E+00   -8.436E+00
    -8.420E+00   -8.403E+00   -8.387E+00   -8.371E+00   -8.355E+00   -8.339E+00   -8.323E+00   -8.308E+00   -8.292E+00   -8.276E+00
    -8.260E+00   -8.245E+00   -8.229E+00   -8.214E+00   -8.199E+00   -8.183E+00   -8.168E+00   -8.153E+00   -8.138E+00   -8.123E+00
    -8.108E+00   -8.093E+00   -8.078E+00   -8.063E+00   -8.049E+00   -8.034E+00   -8.020E+00   -8.005E+00   -7.991E+00   -7.977E+00
    -7.962E+00   -7.948E+00   -7.934E+00   -7.920E+00   -7.907E+00   -7.893E+00   -7.879E+00   -7.865E+00   -7.852E+00   -7.839E+00
    -7.825E+00   -7.812E+00   -7.799E+00   -7.786E+00   -7.773E+00   -7.760E+00   -7.747E+00   -7.734E+00   -7.722E+00   -7.709E+00
    -7.696E+00   -7.684E+00   -7.672E+00   -7.660E+00   -7.647E+00   -7.635E+00   -7.623E+00   -7.611E+00   -7.600E+00   -7.588E+00
    -7.576E+00   -7.565E+00   -7.553E+00   -7.542E+00   -7.530E+00   -7.519E+00   -7.508E+00   -7.497E+00   -7.486E+00   -7.475E+00
    -7.464E+00   -7.453E+00   -7.443E+00   -7.432E+00   -7.421E+00   -7.411E+00   -7.400E+00   -7.390E+00   -7.380E+00   -7.370E+00
    -7.359E+00   -7.349E+00   -7.339E+00   -7.330E+00   -7.320E+00   -7.310E+00   -7.300E+00   -7.291E+00   -7.281E+00   -7.271E+00
    -7.262E+00   -7.253E+00   -7.243E+00   -7.234E+00   -7.225E+00   -7.216E+00   -7.207E+00   -7.198E+00   -7.189E+00   -7.180E+00
    -7.171E+00   -7.162E+00   -7.154E+00   -7.145E+00   -7.136E+00   -7.128E+00   -7.120E+00   -7.111E+00   -7.103E+00   -7.094E+00
    -7.086E+00   -7.078E+00   -7.070E+00   -7.062E+00   -7.054E+00   -7.046E+00   -7.038E+00   -7.030E+00   -7.022E+00   -7.014E+00
    -7.007E+00   -6.999E+00   -6.991E+00   -6.984E+00   -6.976E+00   -6.969E+00   -6.961E+00   -6.954E+00   -6.946E+00   -6.939E+00
    -6.932E+00   -6.925E+00   -6.917E+00   -6.910E+00   -6.903E+00   -6.896E+00   -6.889E+00   -6.882E+00   -6.875E+00   -6.868E+00
    -6.861E+00   -6.855E+00   -6.848E+00   -6.841E+00   -6.835E+00   -6.828E+00   -6.821E+00   -6.815E+00   -6.808E+00   -6.802E+00
    -6.796E+00   -6.789E+00   -6.783E+00   -6.777E+00   -6.771E+00   -6.765E+00   -6.759E+00   -6.753E+00   -6.747E+00   -6.741E+00
    -6.736E+00   -6.730E+00   -6.725E+00   -6.719E+00   -6.714E+00   -6.708E+00   -6.703E+00   -6.698E+00   -6.692E+00   -6.687E+00
    -6.682E+00   -6.677E+00   -6.672E+00   -6.668E+00   -6.663E+00   -6.658E+00   -6.654E+00   -6.649E+00   -6.645E+00   -6.640E+00
    -6.636E+00   -6.632E+00   -6.628E+00   -6.624E+00   -6.620E+00   -6.616E+00   -6.612E+00   -6.608E+00   -6.604E+00   -6.601E+00
    -6.597E+00   -6.593E+00   -6.590E+00   -6.587E+00   -6.583E+00   -6.580E+00   -6.577E+00   -6.573E+00   -6.570E+00   -6.567E+00
    -6.564E+00   -6.561E+00   -6.558E+00   -6.555E+00   -6.553E+00   -6.550E+00   -6.547E+00   -6.544E+00   -6.542E+00   -6.539E+00
    -6.536E+00   -6.534E+00   -6.531E+00   -6.529E+00   -6.527E+00   -6.524E+00   -6.522E+00   -6.520E+00   -6.517E+00   -6.515E+00
    -6.513E+00   -6.511E+00   -6.508E+00   -6.506E+00   -6.504E+00   -6.502E+00   -6.500E+00   -6.498E+00   -6.496E+00   -6.494E+00
    -6.492E+00   -6.490E+00   -6.488E+00   -6.486E+00   -6.484E+00   -6.482E+00   -6.480E+00   -6.478E+00   -6.476E+00   -6.474E+00
    -6.472E+00   -6.470E+00   -6.468E+00   -6.466E+00   -6.464E+00   -6.462E+00   -6.460E+00   -6.458E+00   -6.456E+00   -6.453E+00
    -6.451E+00   -6.449E+00   -6.447E+00   -6.445E+00   -6.442E+00   -6.440E+00   -6.438E+00   -6.435E+00   -6.433E+00   -6.430E+00
    -6.428E+00   -6.425E+00   -6.423E+00   -6.420E+00   -6.417E+00   -6.414E+00   -6.412E+00   -6.409E+00   -6.406E+00   -6.403E+00
    -6.400E+00   -6.396E+00   -6.393E+00   -6.390E+00   -6.386E+00   -6.383E+00   -6.379E+00   -6.376E+00   -6.372E+00   -6.368E+00
    -6.364E+00   -6.360E+00   -6.356E+00   -6.351E+00   -6.347E+00   -6.342E+00   -6.338E+00   -6.333E+00   -6.328E+00   -6.323E+00
    -6.317E+00   -6.312E+00   -6.306E+00   -6.301E+00   -6.295E+00   -6.289E+00   -6.282E+00   -6.276E+00   -6.269E+00   -6.263E+00
    -6.256E+00   -6.249E+00   -6.241E+00   -6.234E+00   -6.226E+00   -6.218E+00   -6.210E+00   -6.202E+00   -6.193E+00   -6.184E+00
    -6.175E+00   -6.166E+00   -6.157E+00   -6.147E+00   -6.137E+00   -6.127E+00   -6.117E+00   -6.106E+00   -6.096E+00   -6.085E+00
    -6.073E+00   -6.062E+00   -6.050E+00   -6.038E+00   -6.026E+00   -6.014E+00   -6.001E+00   -5.989E+00   -5.976E+00   -5.963E+00
    -5.949E+00   -5.936E+00   -5.922E+00   -5.908E+00   -5.894E+00   -5.879E+00   -5.865E+00   -5.850E+00   -5.835E+00   -5.820E+00
    -5.804E+00   -5.789E+00   -5.773E+00   -5.757E+00   -5.741E+00   -5.724E+00   -5.708E+00   -5.691E+00   -5.674E+00   -5.657E+00
    -5.640E+00   -5.622E+00   -5.605E+00   -5.587E+00   -5.569E+00   -5.551E+00   -5.532E+00   -5.514E+00   -5.495E+00   -5.476E+00
    -5.457E+00   -5.438E+00   -5.418E+00   -5.399E+00   -5.379E+00   -5.359E+00   -5.339E+00   -5.319E+00   -5.299E+00   -5.278E+00
    -5.258E+00   -5.237E+00   -5.217E+00   -5.196E+00   -5.175E+00   -5.154E+00   -5.132E+00   -5.111E+00   -5.090E+00   -5.068E+00
    -5.047E+00   -5.025E+00   -5.003E+00   -4.981E+00   -4.959E+00   -4.938E+00   -4.916E+00   -4.893E+00   -4.871E+00   -4.849E+00
    -4.827E+00   -4.805E+00   -4.782E+00   -4.760E+00   -4.737E+00   -4.715E+00   -4.693E+00   -4.670E+00   -4.648E+00   -4.625E+00
    -4.603E+00   -4.580E+00   -4.558E+00   -4.535E+00   -4.512E+00   -4.490E+00   -4.467E+00   -4.445E+00   -4.422E+00   -4.400E+00
    -4.377E+00   -4.355E+00   -4.332E+00   -4.310E+00   -4.287E+00   -4.265E+00   -4.242E+00   -4.220E+00   -4.197E+00   -4.175E+00
    -4.152E+00   -4.130E+00   -4.107E+00   -4.085E+00   -4.062E+00   -4.040E+00   -4.017E+00   -3.995E+00   -3.972E+00   -3.950E+00
    -3.927E+00   -3.905E+00   -3.882E+00   -3.860E+00   -3.837E+00   -3.815E+00   -3.792E+00   -3.770E+00   -3.747E+00   -3.725E+00
    -3.702E+00   -3.680E+00   -3.657E+00   -3.635E+00   -3.612E+00   -3.590E+00   -3.567E+00   -3.545E+00
 Ala      Conc. = 1.68E+02
