 LCModel (Version 6.3-1L) Copyright: S.W. Provencher.          Ref.: Magn. Reson. Med. 30:672-679 (1993).                
 Slice#3 Row#4 Col#2  PD_05_press_1_raw_act
 36 lines in following concentration table = NCONC+1
    Conc.  %SD /Cr+PCr  Metabolite                                         
   39.193  70%   0.969 Ala                                                 
    4.246 191%   0.105 Asp                                                 
    0.000 999%   0.000 Cr                                                  
   40.441  37%   1.000 PCr                                                 
    3.921 124% 9.7E-02 GABA                                                
    3.269 149% 8.1E-02 Glc                                                 
  118.974  49%   2.942 Gln                                                 
   54.055 111%   1.337 Glu                                                 
   12.399  44%   0.307 GPC                                                 
    0.000 999%   0.000 PCh                                                 
    0.000 999%   0.000 GSH                                                 
    0.000 999%   0.000 Ins                                                 
    0.000 999%   0.000 Lac                                                 
   33.292  56%   0.823 NAA                                                 
    0.000 999%   0.000 NAAG                                                
    1.423 113% 3.5E-02 Scyllo                                              
    5.884 138%   0.145 Tau                                                 
    0.000 999%   0.000 -CrCH2                                              
   12.399  44%   0.307 GPC+PCh                                             
   33.292  56%   0.823 NAA+NAAG                                            
   40.441  37%   1.000 Cr+PCr                                              
  173.029  50%   4.279 Glu+Gln                                             
  108.426 185%   2.681 Lip13a                                              
   97.072  63%   2.400 Lip13b                                              
    0.000 999%   0.000 Lip09                                               
  963.484  12%  23.825 MM09                                                
  168.442  36%   4.165 Lip20                                               
 1.45E+03  12%  35.882 MM20                                                
  288.965  12%   7.145 MM12                                                
  722.284  12%  17.860 MM14                                                
  362.578  13%   8.966 MM17                                                
  205.498  82%   5.081 Lip13a+Lip13b                                       
 1.22E+03  16%  30.087 MM14+Lip13a+Lip13b+MM12                             
  963.484  12%  23.825 MM09+Lip09                                          
 1.62E+03  11%  40.047 MM20+Lip20                                          
   6 lines in following misc. output table
  FWHM = 0.046 ppm    S/N =   3                                            
  Data shift =-0.023 ppm                                                   
  Ph: 119 deg       3.2 deg/ppm                                            
  alphaB,S = 3.8E-01,   2.5E+01                                            
   14 spline knots.   Ns = 5(1)                                            
  ( 7) 3 infls.   ( 8) 2 extrs.                                            
  498 points on ppm-axis = NY
      4.000000     3.992357     3.984714     3.977070     3.969427     3.961784     3.954141     3.946497     3.938854     3.931211
      3.923568     3.915925     3.908281     3.900638     3.892995     3.885352     3.877708     3.870065     3.862422     3.854779
      3.847136     3.839492     3.831849     3.824206     3.816563     3.808919     3.801276     3.793633     3.785990     3.778347
      3.770703     3.763060     3.755417     3.747774     3.740130     3.732487     3.724844     3.717201     3.709558     3.701914
      3.694271     3.686628     3.678985     3.671341     3.663698     3.656055     3.648412     3.640769     3.633125     3.625482
      3.617839     3.610196     3.602552     3.594909     3.587266     3.579623     3.571980     3.564336     3.556693     3.549050
      3.541407     3.533763     3.526120     3.518477     3.510834     3.503191     3.495547     3.487904     3.480261     3.472618
      3.464974     3.457331     3.449688     3.442045     3.434402     3.426758     3.419115     3.411472     3.403829     3.396185
      3.388542     3.380899     3.373256     3.365613     3.357969     3.350326     3.342683     3.335040     3.327396     3.319753
      3.312110     3.304467     3.296824     3.289180     3.281537     3.273894     3.266251     3.258607     3.250964     3.243321
      3.235678     3.228034     3.220391     3.212748     3.205105     3.197462     3.189818     3.182175     3.174532     3.166889
      3.159245     3.151602     3.143959     3.136316     3.128673     3.121029     3.113386     3.105743     3.098100     3.090456
      3.082813     3.075170     3.067527     3.059884     3.052240     3.044597     3.036954     3.029311     3.021667     3.014024
      3.006381     2.998738     2.991095     2.983451     2.975808     2.968165     2.960522     2.952878     2.945235     2.937592
      2.929949     2.922306     2.914662     2.907019     2.899376     2.891733     2.884089     2.876446     2.868803     2.861160
      2.853517     2.845873     2.838230     2.830587     2.822944     2.815300     2.807657     2.800014     2.792371     2.784728
      2.777084     2.769441     2.761798     2.754155     2.746511     2.738868     2.731225     2.723582     2.715939     2.708295
      2.700652     2.693009     2.685366     2.677722     2.670079     2.662436     2.654793     2.647150     2.639506     2.631863
      2.624220     2.616577     2.608933     2.601290     2.593647     2.586004     2.578361     2.570717     2.563074     2.555431
      2.547788     2.540144     2.532501     2.524858     2.517215     2.509572     2.501928     2.494285     2.486642     2.478999
      2.471355     2.463712     2.456069     2.448426     2.440783     2.433139     2.425496     2.417853     2.410210     2.402566
      2.394923     2.387280     2.379637     2.371994     2.364350     2.356707     2.349064     2.341421     2.333777     2.326134
      2.318491     2.310848     2.303205     2.295561     2.287918     2.280275     2.272632     2.264988     2.257345     2.249702
      2.242059     2.234416     2.226772     2.219129     2.211486     2.203843     2.196199     2.188556     2.180913     2.173270
      2.165627     2.157983     2.150340     2.142697     2.135054     2.127410     2.119767     2.112124     2.104481     2.096838
      2.089194     2.081551     2.073908     2.066265     2.058621     2.050978     2.043335     2.035692     2.028049     2.020405
      2.012762     2.005119     1.997476     1.989833     1.982190     1.974546     1.966903     1.959260     1.951617     1.943974
      1.936331     1.928688     1.921045     1.913402     1.905759     1.898115     1.890472     1.882829     1.875186     1.867543
      1.859900     1.852257     1.844614     1.836971     1.829327     1.821684     1.814041     1.806398     1.798755     1.791112
      1.783469     1.775826     1.768183     1.760540     1.752896     1.745253     1.737610     1.729967     1.722324     1.714681
      1.707038     1.699395     1.691752     1.684108     1.676465     1.668822     1.661179     1.653536     1.645893     1.638250
      1.630607     1.622964     1.615321     1.607677     1.600034     1.592391     1.584748     1.577105     1.569462     1.561819
      1.554176     1.546533     1.538890     1.531246     1.523603     1.515960     1.508317     1.500674     1.493031     1.485388
      1.477745     1.470102     1.462458     1.454815     1.447172     1.439529     1.431886     1.424243     1.416600     1.408957
      1.401314     1.393671     1.386027     1.378384     1.370741     1.363098     1.355455     1.347812     1.340169     1.332526
      1.324883     1.317240     1.309596     1.301953     1.294310     1.286667     1.279024     1.271381     1.263738     1.256095
      1.248452     1.240808     1.233165     1.225522     1.217879     1.210236     1.202593     1.194950     1.187307     1.179664
      1.172021     1.164377     1.156734     1.149091     1.141448     1.133805     1.126162     1.118519     1.110876     1.103233
      1.095590     1.087946     1.080303     1.072660     1.065017     1.057374     1.049731     1.042088     1.034445     1.026802
      1.019158     1.011515     1.003872     0.996229     0.988586     0.980943     0.973300     0.965657     0.958014     0.950371
      0.942727     0.935084     0.927441     0.919798     0.912155     0.904512     0.896869     0.889226     0.881583     0.873940
      0.866296     0.858653     0.851010     0.843367     0.835724     0.828081     0.820438     0.812795     0.805152     0.797508
      0.789865     0.782222     0.774579     0.766936     0.759293     0.751650     0.744007     0.736364     0.728721     0.721077
      0.713434     0.705791     0.698148     0.690505     0.682862     0.675219     0.667576     0.659933     0.652290     0.644646
      0.637003     0.629360     0.621717     0.614074     0.606431     0.598788     0.591145     0.583502     0.575858     0.568215
      0.560572     0.552929     0.545286     0.537643     0.530000     0.522357     0.514714     0.507071     0.499427     0.491784
      0.484141     0.476498     0.468855     0.461212     0.453569     0.445925     0.438282     0.430639     0.422996     0.415353
      0.407710     0.400067     0.392424     0.384780     0.377137     0.369494     0.361851     0.354208     0.346565     0.338922
      0.331278     0.323635     0.315992     0.308349     0.300706     0.293063     0.285420     0.277777     0.270133     0.262490
      0.254847     0.247204     0.239561     0.231918     0.224275     0.216631     0.208988     0.201345
 NY phased data points follow
   4.81132E+01  4.82560E+01  4.74059E+01  4.74587E+01  4.83819E+01  4.74811E+01  4.56433E+01  4.56219E+01  4.57447E+01  4.44968E+01
   4.46773E+01  4.37744E+01  4.14266E+01  3.97929E+01  3.98475E+01  3.94944E+01  3.97179E+01  3.94398E+01  3.91846E+01  3.74355E+01
   3.93790E+01  3.76352E+01  3.78369E+01  3.69078E+01  3.45813E+01  3.55473E+01  3.58444E+01  3.46879E+01  3.48426E+01  3.47532E+01
   3.54061E+01  3.31478E+01  3.46090E+01  3.35307E+01  3.31020E+01  3.21371E+01  3.10960E+01  3.16122E+01  3.13235E+01  3.10802E+01
   3.14485E+01  3.08013E+01  2.94905E+01  3.04820E+01  3.04825E+01  3.04070E+01  2.99130E+01  2.86410E+01  2.88512E+01  2.99477E+01
   2.75731E+01  2.87549E+01  2.77760E+01  2.75178E+01  2.83411E+01  2.56150E+01  2.56328E+01  2.58805E+01  2.66470E+01  2.60009E+01
   2.61341E+01  2.42697E+01  2.61600E+01  2.52460E+01  2.35899E+01  2.43916E+01  2.30796E+01  2.44666E+01  2.38902E+01  2.25358E+01
   2.41690E+01  2.22024E+01  2.31624E+01  2.12887E+01  2.28599E+01  2.26759E+01  2.17458E+01  2.08335E+01  2.16279E+01  1.99562E+01
   2.20380E+01  2.11204E+01  2.19805E+01  2.06803E+01  2.10978E+01  1.94677E+01  1.94341E+01  1.97020E+01  1.90306E+01  2.03979E+01
   2.07163E+01  1.93453E+01  1.92086E+01  1.92998E+01  1.89427E+01  1.96522E+01  1.75038E+01  1.61921E+01  1.84578E+01  1.58942E+01
   1.93303E+01  1.89167E+01  1.83593E+01  1.83864E+01  1.54216E+01  1.62264E+01  1.67209E+01  1.48976E+01  1.67398E+01  1.60100E+01
   1.58790E+01  1.55745E+01  1.63063E+01  1.59020E+01  1.57386E+01  1.39343E+01  1.40275E+01  1.55944E+01  1.31522E+01  1.36717E+01
   1.49393E+01  1.38458E+01  1.33168E+01  1.36442E+01  1.48881E+01  1.43385E+01  1.53332E+01  1.49266E+01  1.41321E+01  1.36522E+01
   1.30750E+01  1.37544E+01  1.06882E+01  1.07092E+01  1.46822E+01  1.20626E+01  1.31569E+01  1.43587E+01  1.23472E+01  1.05268E+01
   1.29026E+01  1.16692E+01  1.19487E+01  1.14091E+01  1.06147E+01  1.11751E+01  1.01757E+01  1.06763E+01  1.40107E+01  1.10696E+01
   1.18227E+01  1.17557E+01  1.18264E+01  1.10594E+01  1.26174E+01  1.27679E+01  1.01954E+01  1.13592E+01  1.14499E+01  1.08123E+01
   9.41167E+00  1.14435E+01  1.23940E+01  1.07110E+01  1.28957E+01  1.15947E+01  1.26534E+01  1.10545E+01  9.93773E+00  1.00231E+01
   1.00245E+01  1.21387E+01  9.56627E+00  9.19207E+00  1.14992E+01  1.06671E+01  9.53054E+00  1.24620E+01  1.21591E+01  9.22231E+00
   1.15267E+01  1.00332E+01  1.28779E+01  1.06773E+01  8.41135E+00  9.58474E+00  1.02438E+01  1.08871E+01  9.16702E+00  9.85404E+00
   1.01507E+01  1.05414E+01  9.75750E+00  1.04509E+01  8.43342E+00  8.78624E+00  1.03529E+01  1.07975E+01  9.96909E+00  9.87696E+00
   8.53495E+00  1.05341E+01  1.20205E+01  1.01337E+01  1.02886E+01  9.62364E+00  9.06601E+00  9.31680E+00  1.04300E+01  8.98836E+00
   1.03722E+01  1.16064E+01  1.17349E+01  1.07237E+01  1.24394E+01  1.37295E+01  1.36473E+01  1.31325E+01  1.14357E+01  1.29898E+01
   1.08002E+01  1.42292E+01  1.59097E+01  1.62632E+01  1.48972E+01  1.75244E+01  1.55588E+01  1.47272E+01  1.86855E+01  1.67098E+01
   1.62691E+01  1.78557E+01  1.88604E+01  1.68356E+01  1.87705E+01  1.91249E+01  1.94210E+01  2.01107E+01  2.14538E+01  2.05696E+01
   2.14843E+01  2.21855E+01  2.23891E+01  2.15380E+01  2.16244E+01  2.21957E+01  2.28921E+01  2.29949E+01  2.26677E+01  2.20534E+01
   2.33749E+01  2.32519E+01  2.26862E+01  2.34904E+01  2.52590E+01  2.34217E+01  2.50781E+01  2.39531E+01  2.69258E+01  2.54766E+01
   2.60616E+01  2.42873E+01  2.42919E+01  2.18298E+01  2.45661E+01  2.39622E+01  2.36741E+01  2.51828E+01  2.43165E+01  2.40941E+01
   2.39906E+01  2.34859E+01  2.27691E+01  2.25655E+01  2.42401E+01  2.23949E+01  2.16115E+01  2.29399E+01  2.14830E+01  2.35223E+01
   2.30459E+01  2.42667E+01  2.39009E+01  2.05883E+01  2.07975E+01  2.17477E+01  2.32504E+01  2.37574E+01  2.12955E+01  2.19182E+01
   2.28508E+01  2.13788E+01  2.17041E+01  1.95437E+01  2.27572E+01  2.11045E+01  2.02351E+01  2.19213E+01  2.08506E+01  2.26607E+01
   1.95026E+01  2.22903E+01  2.05846E+01  1.95352E+01  1.93008E+01  2.02710E+01  2.18435E+01  2.29001E+01  1.88309E+01  2.00784E+01
   1.95538E+01  1.84129E+01  1.81400E+01  1.85650E+01  2.17819E+01  2.07091E+01  1.97953E+01  1.94755E+01  1.99250E+01  2.03156E+01
   1.87022E+01  1.83579E+01  1.96372E+01  1.91895E+01  1.86684E+01  2.10470E+01  1.81844E+01  1.92719E+01  1.77359E+01  1.86727E+01
   1.96158E+01  1.84066E+01  1.80443E+01  1.85913E+01  1.66821E+01  2.03474E+01  1.81961E+01  2.00445E+01  2.06269E+01  1.84427E+01
   2.02213E+01  2.00145E+01  1.80129E+01  1.82358E+01  1.81160E+01  1.96760E+01  1.96984E+01  1.70763E+01  1.71299E+01  1.90853E+01
   1.91711E+01  1.84860E+01  1.79676E+01  1.91618E+01  1.69688E+01  1.93779E+01  1.74418E+01  1.56216E+01  1.60316E+01  1.77921E+01
   1.51172E+01  1.51760E+01  1.50231E+01  1.47712E+01  1.49361E+01  1.27857E+01  1.41993E+01  1.33504E+01  1.47532E+01  1.43067E+01
   1.27129E+01  1.53165E+01  1.50083E+01  1.28337E+01  1.31961E+01  1.27283E+01  1.18586E+01  1.30702E+01  1.27449E+01  1.12941E+01
   1.20991E+01  1.11287E+01  1.18511E+01  1.12051E+01  1.08495E+01  1.07006E+01  1.05316E+01  1.17217E+01  1.10509E+01  1.18292E+01
   1.13028E+01  1.07712E+01  1.08851E+01  1.20393E+01  9.69304E+00  9.90515E+00  1.01941E+01  1.18383E+01  1.03220E+01  9.91824E+00
   1.04527E+01  9.34137E+00  1.05266E+01  1.24741E+01  1.07446E+01  9.43948E+00  1.09024E+01  1.10084E+01  9.62500E+00  1.09918E+01
   1.09014E+01  1.04342E+01  1.10687E+01  1.07988E+01  1.01103E+01  1.14914E+01  8.32597E+00  1.13180E+01  1.16429E+01  9.33299E+00
   9.77206E+00  1.19279E+01  9.85875E+00  9.79926E+00  1.05051E+01  9.07159E+00  9.25415E+00  1.15132E+01  1.15637E+01  9.99158E+00
   1.00315E+01  9.16504E+00  1.03705E+01  1.02763E+01  8.27099E+00  9.59087E+00  9.51468E+00  1.08277E+01  1.09629E+01  9.40609E+00
   9.87630E+00  9.62809E+00  9.56289E+00  7.99525E+00  9.73319E+00  9.79105E+00  7.49020E+00  8.45091E+00  9.38690E+00  8.16072E+00
   8.62098E+00  7.09452E+00  1.00972E+01  9.68086E+00  8.78388E+00  1.03639E+01  7.13738E+00  7.77624E+00  8.69701E+00  8.64533E+00
   9.82744E+00  6.11011E+00  7.31684E+00  8.34935E+00  7.46368E+00  1.08242E+01  8.63753E+00  8.12344E+00  6.92036E+00  8.66961E+00
   9.50373E+00  7.17714E+00  7.65270E+00  8.68299E+00  7.96223E+00  8.15085E+00  8.37175E+00  9.04777E+00  8.94537E+00  7.66182E+00
   9.02878E+00  8.89192E+00  8.93370E+00  7.06164E+00  7.20166E+00  7.54713E+00  7.17326E+00  8.65778E+00  8.71376E+00  7.01262E+00
   8.41812E+00  7.78473E+00  9.07827E+00  8.25314E+00  7.18623E+00  7.16661E+00  7.32312E+00  7.81418E+00
 NY points of the fit to the data follow
   4.63003E+01  4.59309E+01  4.55784E+01  4.52821E+01  4.51336E+01  4.50784E+01  4.49891E+01  4.47644E+01  4.43562E+01  4.37816E+01
   4.31178E+01  4.24603E+01  4.18688E+01  4.13529E+01  4.09064E+01  4.05098E+01  4.01287E+01  3.97626E+01  3.94208E+01  3.91080E+01
   3.88292E+01  3.85364E+01  3.81495E+01  3.76422E+01  3.70482E+01  3.64381E+01  3.59032E+01  3.55594E+01  3.54293E+01  3.54210E+01
   3.53945E+01  3.52264E+01  3.48465E+01  3.42756E+01  3.36476E+01  3.30924E+01  3.26587E+01  3.23470E+01  3.21209E+01  3.19090E+01
   3.16601E+01  3.13686E+01  3.10450E+01  3.06990E+01  3.03474E+01  3.00116E+01  2.96915E+01  2.93809E+01  2.90787E+01  2.87800E+01
   2.84799E+01  2.81781E+01  2.78765E+01  2.75752E+01  2.72760E+01  2.69818E+01  2.66938E+01  2.64113E+01  2.61338E+01  2.58610E+01
   2.55929E+01  2.53296E+01  2.50707E+01  2.48140E+01  2.45592E+01  2.43049E+01  2.40500E+01  2.37961E+01  2.35456E+01  2.32998E+01
   2.30626E+01  2.28367E+01  2.26168E+01  2.23956E+01  2.21674E+01  2.19306E+01  2.16876E+01  2.14463E+01  2.12136E+01  2.09917E+01
   2.07815E+01  2.05899E+01  2.04139E+01  2.02383E+01  2.00516E+01  1.98477E+01  1.96278E+01  1.93996E+01  1.91715E+01  1.89476E+01
   1.87292E+01  1.85179E+01  1.83154E+01  1.81240E+01  1.79482E+01  1.77877E+01  1.76464E+01  1.75811E+01  1.77238E+01  1.80045E+01
   1.82542E+01  1.83295E+01  1.81584E+01  1.77609E+01  1.72382E+01  1.67168E+01  1.62790E+01  1.59533E+01  1.57362E+01  1.55922E+01
   1.54626E+01  1.53351E+01  1.52141E+01  1.50997E+01  1.49914E+01  1.48873E+01  1.47874E+01  1.46925E+01  1.46030E+01  1.45212E+01
   1.44600E+01  1.44967E+01  1.47743E+01  1.51987E+01  1.55800E+01  1.57588E+01  1.56587E+01  1.53038E+01  1.48070E+01  1.43055E+01
   1.38868E+01  1.35816E+01  1.33861E+01  1.32596E+01  1.31402E+01  1.30183E+01  1.28978E+01  1.27768E+01  1.26539E+01  1.25294E+01
   1.24047E+01  1.22820E+01  1.21624E+01  1.20447E+01  1.19282E+01  1.18128E+01  1.16989E+01  1.15879E+01  1.14809E+01  1.13792E+01
   1.12829E+01  1.11918E+01  1.11055E+01  1.10234E+01  1.09451E+01  1.08690E+01  1.07907E+01  1.07104E+01  1.06330E+01  1.05646E+01
   1.05110E+01  1.04701E+01  1.04350E+01  1.03995E+01  1.03598E+01  1.03159E+01  1.02703E+01  1.02267E+01  1.01883E+01  1.01558E+01
   1.01282E+01  1.01017E+01  1.00747E+01  1.00541E+01  1.00443E+01  1.00452E+01  1.00511E+01  1.00580E+01  1.00662E+01  1.00783E+01
   1.00975E+01  1.01230E+01  1.01501E+01  1.01800E+01  1.02171E+01  1.02624E+01  1.03158E+01  1.03750E+01  1.04342E+01  1.04781E+01
   1.05027E+01  1.05054E+01  1.04888E+01  1.04724E+01  1.04770E+01  1.05200E+01  1.06287E+01  1.08314E+01  1.11191E+01  1.14408E+01
   1.17552E+01  1.20201E+01  1.21826E+01  1.22206E+01  1.21201E+01  1.18406E+01  1.14636E+01  1.11814E+01  1.11233E+01  1.13319E+01
   1.17820E+01  1.23950E+01  1.30160E+01  1.35195E+01  1.38541E+01  1.40186E+01  1.40481E+01  1.40047E+01  1.39539E+01  1.39614E+01
   1.40785E+01  1.43134E+01  1.46407E+01  1.50074E+01  1.53667E+01  1.56864E+01  1.59521E+01  1.61671E+01  1.63521E+01  1.65383E+01
   1.67316E+01  1.68871E+01  1.70123E+01  1.71714E+01  1.74220E+01  1.77995E+01  1.83165E+01  1.89181E+01  1.94654E+01  1.98855E+01
   2.01672E+01  2.03346E+01  2.04529E+01  2.06130E+01  2.08579E+01  2.11821E+01  2.15800E+01  2.20362E+01  2.25128E+01  2.29714E+01
   2.33881E+01  2.37282E+01  2.39645E+01  2.40980E+01  2.41604E+01  2.42857E+01  2.45884E+01  2.49766E+01  2.53065E+01  2.54567E+01
   2.53671E+01  2.50632E+01  2.46449E+01  2.42200E+01  2.38530E+01  2.35684E+01  2.33649E+01  2.32025E+01  2.30454E+01  2.29005E+01
   2.27711E+01  2.26553E+01  2.25504E+01  2.24518E+01  2.23552E+01  2.22583E+01  2.21617E+01  2.20684E+01  2.19819E+01  2.19056E+01
   2.18412E+01  2.17894E+01  2.17497E+01  2.17205E+01  2.16998E+01  2.16858E+01  2.16765E+01  2.16703E+01  2.16655E+01  2.16604E+01
   2.16532E+01  2.16421E+01  2.16256E+01  2.16022E+01  2.15706E+01  2.15295E+01  2.14782E+01  2.14158E+01  2.13421E+01  2.12573E+01
   2.11616E+01  2.10560E+01  2.09415E+01  2.08194E+01  2.06912E+01  2.05584E+01  2.04229E+01  2.02864E+01  2.01506E+01  2.00171E+01
   1.98878E+01  1.97640E+01  1.96473E+01  1.95391E+01  1.94407E+01  1.93534E+01  1.92785E+01  1.92175E+01  1.91723E+01  1.91457E+01
   1.91431E+01  1.91786E+01  1.92862E+01  1.94405E+01  1.95316E+01  1.94972E+01  1.93312E+01  1.90748E+01  1.87914E+01  1.85345E+01
   1.83677E+01  1.83857E+01  1.85879E+01  1.89050E+01  1.92293E+01  1.94693E+01  1.95819E+01  1.95651E+01  1.94540E+01  1.92917E+01
   1.91132E+01  1.89474E+01  1.88020E+01  1.86630E+01  1.85305E+01  1.84100E+01  1.83067E+01  1.82246E+01  1.81647E+01  1.81242E+01
   1.80957E+01  1.80677E+01  1.80258E+01  1.79552E+01  1.78430E+01  1.76808E+01  1.74664E+01  1.72037E+01  1.69023E+01  1.65754E+01
   1.62372E+01  1.59007E+01  1.55761E+01  1.52699E+01  1.49847E+01  1.47201E+01  1.44739E+01  1.42426E+01  1.40225E+01  1.38105E+01
   1.36042E+01  1.34020E+01  1.32031E+01  1.30072E+01  1.28146E+01  1.26258E+01  1.24416E+01  1.22627E+01  1.20901E+01  1.19245E+01
   1.17667E+01  1.16175E+01  1.14776E+01  1.13475E+01  1.12278E+01  1.11188E+01  1.10211E+01  1.09350E+01  1.08607E+01  1.07985E+01
   1.07485E+01  1.07109E+01  1.06856E+01  1.06726E+01  1.06717E+01  1.06827E+01  1.07050E+01  1.07382E+01  1.07816E+01  1.08341E+01
   1.08947E+01  1.09622E+01  1.10350E+01  1.11116E+01  1.11902E+01  1.12689E+01  1.13458E+01  1.14190E+01  1.14864E+01  1.15461E+01
   1.15962E+01  1.16351E+01  1.16614E+01  1.16739E+01  1.16717E+01  1.16544E+01  1.16218E+01  1.15740E+01  1.15115E+01  1.14351E+01
   1.13459E+01  1.12451E+01  1.11342E+01  1.10146E+01  1.08880E+01  1.07561E+01  1.06204E+01  1.04826E+01  1.03440E+01  1.02060E+01
   1.00698E+01  9.93643E+00  9.80677E+00  9.68153E+00  9.56129E+00  9.44648E+00  9.33740E+00  9.23422E+00  9.13702E+00  9.04580E+00
   8.96046E+00  8.88088E+00  8.80686E+00  8.73818E+00  8.67458E+00  8.61580E+00  8.56156E+00  8.51158E+00  8.46556E+00  8.42323E+00
   8.38432E+00  8.34856E+00  8.31569E+00  8.28547E+00  8.25772E+00  8.23228E+00  8.20900E+00  8.18771E+00  8.16830E+00  8.15062E+00
   8.13456E+00  8.12002E+00  8.10688E+00  8.09505E+00  8.08444E+00  8.07497E+00  8.06655E+00  8.05912E+00  8.05260E+00  8.04693E+00
   8.04206E+00  8.03792E+00  8.03446E+00  8.03163E+00  8.02940E+00  8.02770E+00  8.02651E+00  8.02577E+00  8.02546E+00  8.02554E+00
   8.02598E+00  8.02674E+00  8.02780E+00  8.02911E+00  8.03067E+00  8.03244E+00  8.03440E+00  8.03652E+00  8.03877E+00  8.04115E+00
   8.04362E+00  8.04617E+00  8.04877E+00  8.05140E+00  8.05405E+00  8.05670E+00  8.05933E+00  8.06193E+00
 NY background values follow
     4.615E+01    4.575E+01    4.536E+01    4.497E+01    4.457E+01    4.418E+01    4.379E+01    4.340E+01    4.301E+01    4.263E+01
     4.224E+01    4.185E+01    4.147E+01    4.108E+01    4.070E+01    4.032E+01    3.994E+01    3.956E+01    3.919E+01    3.881E+01
     3.844E+01    3.807E+01    3.770E+01    3.733E+01    3.696E+01    3.660E+01    3.623E+01    3.587E+01    3.552E+01    3.516E+01
     3.481E+01    3.446E+01    3.411E+01    3.376E+01    3.342E+01    3.308E+01    3.274E+01    3.240E+01    3.207E+01    3.174E+01
     3.141E+01    3.109E+01    3.076E+01    3.045E+01    3.013E+01    2.982E+01    2.951E+01    2.920E+01    2.890E+01    2.860E+01
     2.831E+01    2.801E+01    2.772E+01    2.744E+01    2.715E+01    2.687E+01    2.660E+01    2.632E+01    2.605E+01    2.578E+01
     2.551E+01    2.525E+01    2.499E+01    2.473E+01    2.447E+01    2.422E+01    2.397E+01    2.372E+01    2.348E+01    2.323E+01
     2.299E+01    2.276E+01    2.252E+01    2.229E+01    2.205E+01    2.183E+01    2.160E+01    2.137E+01    2.115E+01    2.093E+01
     2.071E+01    2.050E+01    2.028E+01    2.007E+01    1.986E+01    1.965E+01    1.944E+01    1.924E+01    1.904E+01    1.883E+01
     1.863E+01    1.844E+01    1.824E+01    1.804E+01    1.785E+01    1.766E+01    1.747E+01    1.728E+01    1.710E+01    1.691E+01
     1.673E+01    1.655E+01    1.637E+01    1.619E+01    1.602E+01    1.584E+01    1.567E+01    1.551E+01    1.534E+01    1.517E+01
     1.501E+01    1.485E+01    1.469E+01    1.454E+01    1.438E+01    1.423E+01    1.408E+01    1.393E+01    1.379E+01    1.365E+01
     1.351E+01    1.337E+01    1.323E+01    1.310E+01    1.297E+01    1.284E+01    1.271E+01    1.259E+01    1.247E+01    1.235E+01
     1.224E+01    1.212E+01    1.201E+01    1.191E+01    1.180E+01    1.170E+01    1.160E+01    1.150E+01    1.141E+01    1.132E+01
     1.123E+01    1.114E+01    1.106E+01    1.098E+01    1.090E+01    1.083E+01    1.076E+01    1.069E+01    1.062E+01    1.056E+01
     1.050E+01    1.044E+01    1.039E+01    1.033E+01    1.028E+01    1.024E+01    1.020E+01    1.015E+01    1.012E+01    1.008E+01
     1.005E+01    1.002E+01    9.995E+00    9.972E+00    9.952E+00    9.934E+00    9.920E+00    9.908E+00    9.900E+00    9.894E+00
     9.891E+00    9.891E+00    9.894E+00    9.901E+00    9.910E+00    9.922E+00    9.937E+00    9.955E+00    9.976E+00    1.000E+01
     1.003E+01    1.006E+01    1.009E+01    1.013E+01    1.016E+01    1.021E+01    1.025E+01    1.030E+01    1.035E+01    1.040E+01
     1.046E+01    1.051E+01    1.058E+01    1.064E+01    1.070E+01    1.077E+01    1.084E+01    1.092E+01    1.099E+01    1.107E+01
     1.115E+01    1.124E+01    1.132E+01    1.141E+01    1.150E+01    1.159E+01    1.168E+01    1.178E+01    1.188E+01    1.198E+01
     1.208E+01    1.218E+01    1.229E+01    1.240E+01    1.251E+01    1.262E+01    1.273E+01    1.285E+01    1.296E+01    1.308E+01
     1.320E+01    1.332E+01    1.345E+01    1.357E+01    1.370E+01    1.382E+01    1.395E+01    1.408E+01    1.422E+01    1.435E+01
     1.448E+01    1.462E+01    1.475E+01    1.489E+01    1.502E+01    1.516E+01    1.530E+01    1.543E+01    1.557E+01    1.570E+01
     1.584E+01    1.597E+01    1.611E+01    1.624E+01    1.637E+01    1.651E+01    1.664E+01    1.677E+01    1.689E+01    1.702E+01
     1.714E+01    1.727E+01    1.739E+01    1.750E+01    1.762E+01    1.773E+01    1.784E+01    1.795E+01    1.806E+01    1.816E+01
     1.826E+01    1.835E+01    1.845E+01    1.853E+01    1.862E+01    1.870E+01    1.878E+01    1.885E+01    1.892E+01    1.899E+01
     1.905E+01    1.910E+01    1.915E+01    1.920E+01    1.924E+01    1.928E+01    1.931E+01    1.934E+01    1.937E+01    1.939E+01
     1.940E+01    1.941E+01    1.942E+01    1.942E+01    1.942E+01    1.942E+01    1.941E+01    1.940E+01    1.938E+01    1.936E+01
     1.934E+01    1.931E+01    1.928E+01    1.925E+01    1.921E+01    1.917E+01    1.912E+01    1.908E+01    1.903E+01    1.897E+01
     1.892E+01    1.886E+01    1.879E+01    1.873E+01    1.866E+01    1.859E+01    1.852E+01    1.844E+01    1.836E+01    1.828E+01
     1.820E+01    1.811E+01    1.803E+01    1.794E+01    1.784E+01    1.775E+01    1.765E+01    1.755E+01    1.745E+01    1.735E+01
     1.725E+01    1.714E+01    1.703E+01    1.692E+01    1.681E+01    1.670E+01    1.659E+01    1.647E+01    1.635E+01    1.623E+01
     1.611E+01    1.599E+01    1.587E+01    1.575E+01    1.562E+01    1.550E+01    1.537E+01    1.524E+01    1.511E+01    1.498E+01
     1.485E+01    1.472E+01    1.459E+01    1.446E+01    1.432E+01    1.419E+01    1.406E+01    1.392E+01    1.378E+01    1.365E+01
     1.351E+01    1.338E+01    1.324E+01    1.310E+01    1.297E+01    1.283E+01    1.269E+01    1.255E+01    1.242E+01    1.228E+01
     1.214E+01    1.201E+01    1.187E+01    1.173E+01    1.160E+01    1.146E+01    1.133E+01    1.119E+01    1.106E+01    1.093E+01
     1.080E+01    1.066E+01    1.053E+01    1.040E+01    1.028E+01    1.015E+01    1.002E+01    9.898E+00    9.774E+00    9.652E+00
     9.531E+00    9.412E+00    9.294E+00    9.178E+00    9.064E+00    8.951E+00    8.840E+00    8.731E+00    8.624E+00    8.519E+00
     8.416E+00    8.315E+00    8.217E+00    8.121E+00    8.027E+00    7.935E+00    7.846E+00    7.759E+00    7.676E+00    7.594E+00
     7.516E+00    7.440E+00    7.367E+00    7.297E+00    7.230E+00    7.166E+00    7.106E+00    7.048E+00    6.994E+00    6.942E+00
     6.894E+00    6.849E+00    6.806E+00    6.767E+00    6.730E+00    6.696E+00    6.665E+00    6.636E+00    6.610E+00    6.586E+00
     6.564E+00    6.545E+00    6.528E+00    6.513E+00    6.500E+00    6.489E+00    6.480E+00    6.472E+00    6.467E+00    6.463E+00
     6.461E+00    6.461E+00    6.462E+00    6.464E+00    6.468E+00    6.473E+00    6.479E+00    6.487E+00    6.495E+00    6.505E+00
     6.515E+00    6.526E+00    6.538E+00    6.551E+00    6.565E+00    6.579E+00    6.593E+00    6.608E+00    6.624E+00    6.639E+00
     6.655E+00    6.671E+00    6.688E+00    6.704E+00    6.720E+00    6.736E+00    6.753E+00    6.769E+00    6.785E+00    6.802E+00
     6.818E+00    6.834E+00    6.851E+00    6.867E+00    6.883E+00    6.899E+00    6.915E+00    6.932E+00    6.948E+00    6.964E+00
     6.979E+00    6.995E+00    7.011E+00    7.027E+00    7.042E+00    7.057E+00    7.073E+00    7.088E+00    7.103E+00    7.118E+00
     7.133E+00    7.147E+00    7.162E+00    7.176E+00    7.190E+00    7.204E+00    7.218E+00    7.232E+00    7.245E+00    7.258E+00
     7.271E+00    7.284E+00    7.297E+00    7.309E+00    7.321E+00    7.333E+00    7.345E+00    7.356E+00
 Ala      Conc. = 3.92E+01
