 LCModel (Version 6.3-1L) Copyright: S.W. Provencher.          Ref.: Magn. Reson. Med. 30:672-679 (1993).                
 Slice#2 Row#12 Col#9  PD_05_press_1_raw_act
 36 lines in following concentration table = NCONC+1
    Conc.  %SD /Cr+PCr  Metabolite                                         
  127.341  60%   0.124 Ala                                                 
    0.000 999%   0.000 Asp                                                 
   95.848 164% 9.3E-02 Cr                                                  
  931.569  17%   0.907 PCr                                                 
    0.000 999%   0.000 GABA                                                
    0.000 999%   0.000 Glc                                                 
  575.686  29%   0.560 Gln                                                 
  890.927  21%   0.867 Glu                                                 
  343.581   4%   0.334 GPC                                                 
    0.000 999%   0.000 PCh                                                 
  242.248  19%   0.236 GSH                                                 
 1.06E+03  16%   1.028 Ins                                                 
  165.473  52%   0.161 Lac                                                 
 1.82E+03   5%   1.768 NAA                                                 
   42.387 246% 4.1E-02 NAAG                                                
  131.081  14%   0.128 Scyllo                                              
  167.423  77%   0.163 Tau                                                 
  167.099  40%   0.163 -CrCH2                                              
  343.581   4%   0.334 GPC+PCh                                             
 1.86E+03   3%   1.810 NAA+NAAG                                            
 1.03E+03   3%   1.000 Cr+PCr                                              
 1.47E+03  20%   1.427 Glu+Gln                                             
  463.541  38%   0.451 Lip13a                                              
    0.000 999%   0.000 Lip13b                                              
    0.000 999%   0.000 Lip09                                               
  747.211  15%   0.727 MM09                                                
   72.206  95% 7.0E-02 Lip20                                               
 1.76E+03  12%   1.716 MM20                                                
  267.872  31%   0.261 MM12                                                
  622.173  28%   0.606 MM14                                                
  313.725  38%   0.305 MM17                                                
  463.541  38%   0.451 Lip13a+Lip13b                                       
 1.35E+03  17%   1.317 MM14+Lip13a+Lip13b+MM12                             
  747.211  15%   0.727 MM09+Lip09                                          
 1.84E+03  12%   1.786 MM20+Lip20                                          
   6 lines in following misc. output table
  FWHM = 0.069 ppm    S/N =  17                                            
  Data shift = 0.038 ppm                                                   
  Ph: -61 deg     -19.5 deg/ppm                                            
  alphaB,S = 9.5E-01,   1.6E+02                                            
   14 spline knots.   Ns = 9(1)                                            
  (13) 3 infls.   ( 9) 1 extrs.                                            
  498 points on ppm-axis = NY
      4.000000     3.992357     3.984714     3.977070     3.969427     3.961784     3.954141     3.946497     3.938854     3.931211
      3.923568     3.915925     3.908281     3.900638     3.892995     3.885352     3.877708     3.870065     3.862422     3.854779
      3.847136     3.839492     3.831849     3.824206     3.816563     3.808919     3.801276     3.793633     3.785990     3.778347
      3.770703     3.763060     3.755417     3.747774     3.740130     3.732487     3.724844     3.717201     3.709558     3.701914
      3.694271     3.686628     3.678985     3.671341     3.663698     3.656055     3.648412     3.640769     3.633125     3.625482
      3.617839     3.610196     3.602552     3.594909     3.587266     3.579623     3.571980     3.564336     3.556693     3.549050
      3.541407     3.533763     3.526120     3.518477     3.510834     3.503191     3.495547     3.487904     3.480261     3.472618
      3.464974     3.457331     3.449688     3.442045     3.434402     3.426758     3.419115     3.411472     3.403829     3.396185
      3.388542     3.380899     3.373256     3.365613     3.357969     3.350326     3.342683     3.335040     3.327396     3.319753
      3.312110     3.304467     3.296824     3.289180     3.281537     3.273894     3.266251     3.258607     3.250964     3.243321
      3.235678     3.228034     3.220391     3.212748     3.205105     3.197462     3.189818     3.182175     3.174532     3.166889
      3.159245     3.151602     3.143959     3.136316     3.128673     3.121029     3.113386     3.105743     3.098100     3.090456
      3.082813     3.075170     3.067527     3.059884     3.052240     3.044597     3.036954     3.029311     3.021667     3.014024
      3.006381     2.998738     2.991095     2.983451     2.975808     2.968165     2.960522     2.952878     2.945235     2.937592
      2.929949     2.922306     2.914662     2.907019     2.899376     2.891733     2.884089     2.876446     2.868803     2.861160
      2.853517     2.845873     2.838230     2.830587     2.822944     2.815300     2.807657     2.800014     2.792371     2.784728
      2.777084     2.769441     2.761798     2.754155     2.746511     2.738868     2.731225     2.723582     2.715939     2.708295
      2.700652     2.693009     2.685366     2.677722     2.670079     2.662436     2.654793     2.647150     2.639506     2.631863
      2.624220     2.616577     2.608933     2.601290     2.593647     2.586004     2.578361     2.570717     2.563074     2.555431
      2.547788     2.540144     2.532501     2.524858     2.517215     2.509572     2.501928     2.494285     2.486642     2.478999
      2.471355     2.463712     2.456069     2.448426     2.440783     2.433139     2.425496     2.417853     2.410210     2.402566
      2.394923     2.387280     2.379637     2.371994     2.364350     2.356707     2.349064     2.341421     2.333777     2.326134
      2.318491     2.310848     2.303205     2.295561     2.287918     2.280275     2.272632     2.264988     2.257345     2.249702
      2.242059     2.234416     2.226772     2.219129     2.211486     2.203843     2.196199     2.188556     2.180913     2.173270
      2.165627     2.157983     2.150340     2.142697     2.135054     2.127410     2.119767     2.112124     2.104481     2.096838
      2.089194     2.081551     2.073908     2.066265     2.058621     2.050978     2.043335     2.035692     2.028049     2.020405
      2.012762     2.005119     1.997476     1.989833     1.982190     1.974546     1.966903     1.959260     1.951617     1.943974
      1.936331     1.928688     1.921045     1.913402     1.905759     1.898115     1.890472     1.882829     1.875186     1.867543
      1.859900     1.852257     1.844614     1.836971     1.829327     1.821684     1.814041     1.806398     1.798755     1.791112
      1.783469     1.775826     1.768183     1.760540     1.752896     1.745253     1.737610     1.729967     1.722324     1.714681
      1.707038     1.699395     1.691752     1.684108     1.676465     1.668822     1.661179     1.653536     1.645893     1.638250
      1.630607     1.622964     1.615321     1.607677     1.600034     1.592391     1.584748     1.577105     1.569462     1.561819
      1.554176     1.546533     1.538890     1.531246     1.523603     1.515960     1.508317     1.500674     1.493031     1.485388
      1.477745     1.470102     1.462458     1.454815     1.447172     1.439529     1.431886     1.424243     1.416600     1.408957
      1.401314     1.393671     1.386027     1.378384     1.370741     1.363098     1.355455     1.347812     1.340169     1.332526
      1.324883     1.317240     1.309596     1.301953     1.294310     1.286667     1.279024     1.271381     1.263738     1.256095
      1.248452     1.240808     1.233165     1.225522     1.217879     1.210236     1.202593     1.194950     1.187307     1.179664
      1.172021     1.164377     1.156734     1.149091     1.141448     1.133805     1.126162     1.118519     1.110876     1.103233
      1.095590     1.087946     1.080303     1.072660     1.065017     1.057374     1.049731     1.042088     1.034445     1.026802
      1.019158     1.011515     1.003872     0.996229     0.988586     0.980943     0.973300     0.965657     0.958014     0.950371
      0.942727     0.935084     0.927441     0.919798     0.912155     0.904512     0.896869     0.889226     0.881583     0.873940
      0.866296     0.858653     0.851010     0.843367     0.835724     0.828081     0.820438     0.812795     0.805152     0.797508
      0.789865     0.782222     0.774579     0.766936     0.759293     0.751650     0.744007     0.736364     0.728721     0.721077
      0.713434     0.705791     0.698148     0.690505     0.682862     0.675219     0.667576     0.659933     0.652290     0.644646
      0.637003     0.629360     0.621717     0.614074     0.606431     0.598788     0.591145     0.583502     0.575858     0.568215
      0.560572     0.552929     0.545286     0.537643     0.530000     0.522357     0.514714     0.507071     0.499427     0.491784
      0.484141     0.476498     0.468855     0.461212     0.453569     0.445925     0.438282     0.430639     0.422996     0.415353
      0.407710     0.400067     0.392424     0.384780     0.377137     0.369494     0.361851     0.354208     0.346565     0.338922
      0.331278     0.323635     0.315992     0.308349     0.300706     0.293063     0.285420     0.277777     0.270133     0.262490
      0.254847     0.247204     0.239561     0.231918     0.224275     0.216631     0.208988     0.201345
 NY phased data points follow
  -3.14562E+01 -3.12340E+01 -3.02170E+01 -2.55948E+01 -2.38583E+01 -2.13734E+01 -2.16004E+01 -1.86687E+01 -1.35472E+01 -1.35491E+01
  -1.22359E+01 -1.20359E+01 -1.67756E+01 -1.76578E+01 -2.02530E+01 -2.20745E+01 -2.63118E+01 -2.44292E+01 -2.78650E+01 -2.61151E+01
  -2.81425E+01 -2.75930E+01 -2.53884E+01 -2.62793E+01 -2.74304E+01 -2.46911E+01 -2.43995E+01 -2.10758E+01 -2.07373E+01 -2.23695E+01
  -2.16337E+01 -1.94251E+01 -2.01422E+01 -2.04238E+01 -2.56262E+01 -2.10498E+01 -1.99272E+01 -1.99744E+01 -2.13269E+01 -2.11580E+01
  -1.97712E+01 -1.86436E+01 -2.01628E+01 -1.94918E+01 -1.72523E+01 -1.52624E+01 -1.60110E+01 -1.60904E+01 -1.75445E+01 -1.67431E+01
  -1.65079E+01 -1.74959E+01 -1.96378E+01 -1.65893E+01 -1.88682E+01 -1.93594E+01 -1.94484E+01 -1.56122E+01 -1.92405E+01 -1.82990E+01
  -1.85473E+01 -1.85889E+01 -1.83839E+01 -2.00424E+01 -1.98685E+01 -1.98364E+01 -2.06927E+01 -1.91839E+01 -2.00438E+01 -1.92174E+01
  -1.77495E+01 -1.76459E+01 -1.75261E+01 -1.73845E+01 -1.84791E+01 -1.87487E+01 -1.74686E+01 -1.75362E+01 -1.74305E+01 -1.63084E+01
  -1.40265E+01 -1.38121E+01 -1.54683E+01 -1.51207E+01 -1.34132E+01 -1.23623E+01 -1.39434E+01 -1.17169E+01 -1.41201E+01 -1.19162E+01
  -1.06407E+01 -1.09259E+01 -9.59132E+00 -9.94466E+00 -1.10160E+01 -8.02726E+00 -8.00205E+00 -4.57581E+00 -4.68323E+00 -9.00748E-01
   3.66760E+00  6.80921E+00  9.68903E+00  8.59033E+00  7.49097E+00  6.05568E+00  3.40090E+00 -9.09854E-01 -1.13695E+00 -3.29155E+00
  -7.13319E+00 -9.06407E+00 -5.86371E+00 -1.01079E+01 -9.09551E+00 -8.37081E+00 -1.12075E+01 -9.08445E+00 -9.59174E+00 -7.47479E+00
  -6.10686E+00 -3.33150E+00 -1.44557E+00  3.60817E+00  6.99580E+00  1.37781E+01  1.56550E+01  1.56669E+01  1.45771E+01  1.08015E+01
   9.33091E+00  5.79277E+00  2.56370E+00 -2.25595E+00 -3.50358E+00 -7.13289E+00 -6.72971E+00 -8.48598E+00 -8.95521E+00 -9.33973E+00
  -1.08670E+01 -8.57246E+00 -8.70618E+00 -9.87751E+00 -1.05197E+01 -8.99258E+00 -7.82296E+00 -8.71880E+00 -9.54663E+00 -9.26161E+00
  -7.81885E+00 -1.00091E+01 -8.71661E+00 -8.88527E+00 -8.20833E+00 -1.01201E+01 -8.51516E+00 -9.34983E+00 -8.79639E+00 -8.69419E+00
  -1.13491E+01 -9.45547E+00 -1.10092E+01 -8.47002E+00 -1.12271E+01 -8.92699E+00 -9.21357E+00 -1.19683E+01 -1.01541E+01 -1.22097E+01
  -1.12332E+01 -1.17113E+01 -1.21062E+01 -1.07167E+01 -1.49624E+01 -1.24972E+01 -1.35235E+01 -1.44449E+01 -1.28224E+01 -1.09335E+01
  -1.28322E+01 -1.06833E+01 -1.21897E+01 -1.00007E+01 -1.06082E+01 -1.02508E+01 -9.95162E+00 -6.80352E+00 -8.47559E+00 -7.03081E+00
  -5.57483E+00 -2.68596E+00 -3.07366E+00 -2.29965E+00 -3.02262E+00 -1.64140E+00 -2.06072E+00 -5.87487E+00 -2.12440E+00 -3.31564E+00
  -2.90987E+00 -2.41497E+00 -4.01306E+00 -4.11302E+00 -2.94229E+00 -1.22846E+00 -2.98107E+00 -5.63862E+00 -6.06933E+00 -5.27900E+00
  -4.18256E+00 -3.64777E+00 -1.58723E+00  9.68087E-02 -1.45038E-01  2.01247E+00  8.08443E-01  3.28511E+00  2.04909E+00 -2.27664E+00
  -1.73372E+00 -3.59909E+00 -1.66238E+00 -1.62881E+00 -2.85367E-01 -1.61251E+00  1.10439E+00  6.36444E-01  2.65765E+00  2.68126E+00
   2.72624E+00  3.75355E+00  3.63739E+00  3.03997E+00  1.23700E+00  2.77464E+00  2.32032E+00  2.90354E+00  6.76265E-01  4.55463E+00
   3.82361E-01  3.13681E+00  1.94478E+00  2.81169E+00  4.50262E+00  4.74527E+00  7.07425E+00  5.14328E+00  5.71142E+00  8.23397E+00
   8.51135E+00  1.03480E+01  1.27760E+01  1.27037E+01  2.01173E+01  2.60914E+01  3.12904E+01  3.67187E+01  4.35408E+01  4.91771E+01
   5.41740E+01  5.32889E+01  4.83191E+01  4.16653E+01  3.72197E+01  3.11463E+01  2.51857E+01  1.96446E+01  1.45090E+01  1.08199E+01
   7.85215E+00  8.27489E+00  6.68939E+00  5.32623E+00  4.94660E+00  4.70852E+00  3.71525E+00  4.85841E+00  5.30744E+00  3.24284E+00
   2.14370E+00  4.35586E+00  3.60874E+00  1.63168E+00  3.00245E+00  1.90261E+00  1.50807E+00  2.83464E+00  1.71321E+00  3.16044E+00
   9.27707E-01  5.16626E+00  3.60530E+00  1.48542E+00  3.60501E+00  5.02802E+00  4.87876E+00  3.67864E+00  2.35281E+00  2.32655E+00
   3.81466E+00  3.76532E+00  2.88574E+00  3.82486E+00  4.95828E+00  3.40708E+00  4.12970E+00  3.53500E+00  5.78944E+00  5.31275E+00
   6.58994E+00  2.52248E+00  5.82274E+00  6.42952E+00  6.46150E+00  5.95320E+00  6.48718E+00  4.27283E+00  3.80198E+00  7.57045E+00
   8.11745E+00  5.71482E+00  4.92011E+00  5.13711E+00  4.74325E+00  6.25771E+00  5.39406E+00  6.52400E+00  4.07023E+00  2.72294E+00
   4.25087E+00  6.45229E+00  6.15757E+00  7.15260E+00  6.53491E+00  8.71992E+00  8.05200E+00  7.96004E+00  6.53935E+00  8.64458E+00
   6.94363E+00  1.06038E+01  8.55208E+00  8.61117E+00  9.10134E+00  8.27302E+00  9.24027E+00  7.89551E+00  6.75564E+00  8.81828E+00
   7.49962E+00  6.94123E+00  6.73312E+00  7.23259E+00  6.59179E+00  7.56187E+00  5.94338E+00  8.63720E+00  7.22014E+00  7.57970E+00
   7.49224E+00  8.23604E+00  7.30607E+00  9.11666E+00  8.72095E+00  8.00023E+00  1.03817E+01  8.60261E+00  8.24586E+00  9.50073E+00
   7.04554E+00  8.74634E+00  4.64992E+00  5.28329E+00  9.64094E+00  5.35646E+00  7.70168E+00  5.78963E+00  4.35979E+00  4.05557E+00
   2.74413E+00  5.93778E+00  5.51921E+00  4.76046E+00  3.16675E+00  3.35525E+00  5.93386E+00  6.13486E+00  6.53063E+00  5.12619E+00
   4.53148E+00  6.59351E+00  6.31287E+00  5.74460E+00  7.40039E+00  5.07528E+00  6.60052E+00  6.22329E+00  7.96287E+00  8.60968E+00
   7.34527E+00  7.29469E+00  8.66478E+00  8.25512E+00  9.11284E+00  8.10614E+00  9.15667E+00  1.07132E+01  1.04453E+01  9.58338E+00
   1.05470E+01  1.09005E+01  9.88272E+00  8.08112E+00  9.54833E+00  9.30836E+00  9.99495E+00  6.79068E+00  6.86423E+00  7.58818E+00
   7.11032E+00  8.74392E+00  1.06538E+01  5.88539E+00  7.59991E+00  6.28286E+00  5.44523E+00  6.72157E+00  6.16147E+00  5.31492E+00
   5.14786E+00  4.35452E+00  6.02018E+00  7.64808E+00  6.56099E+00  4.66457E+00  6.19284E+00  5.54186E+00  6.88382E+00  6.79110E+00
   3.29995E+00  6.41592E+00  6.43819E+00  6.04715E+00  6.12956E+00  4.50933E+00  6.03058E+00  6.46811E+00  6.24494E+00  4.62942E+00
   5.06702E+00  5.88328E+00  6.37350E+00  6.35782E+00  5.89241E+00  5.25238E+00  5.40320E+00  4.71901E+00  5.83160E+00  3.84465E+00
   6.53884E+00  3.45496E+00  4.81894E+00  6.60676E+00  4.57823E+00  5.64775E+00  4.71172E+00  4.89588E+00  2.37826E+00  2.62092E+00
   6.25501E+00  3.48457E+00  2.46862E+00  5.49308E+00  4.75420E+00  5.24633E+00  4.43165E+00  3.65045E+00  6.08617E+00  4.81143E+00
   3.45239E+00  6.60209E+00  5.29810E+00  4.77367E+00  4.31956E+00  4.80993E+00  5.24394E+00  4.53886E+00  5.89716E+00  5.52512E+00
   3.75156E+00  6.38214E+00  2.75290E+00  4.89200E+00  4.67900E+00  6.69976E+00  5.00928E+00  5.46687E+00
 NY points of the fit to the data follow
  -2.94705E+01 -2.86341E+01 -2.74751E+01 -2.59177E+01 -2.40681E+01 -2.19719E+01 -1.95365E+01 -1.69768E+01 -1.48817E+01 -1.38253E+01
  -1.39654E+01 -1.50291E+01 -1.65455E+01 -1.81595E+01 -1.97431E+01 -2.12763E+01 -2.26761E+01 -2.38203E+01 -2.47274E+01 -2.55931E+01
  -2.61213E+01 -2.61565E+01 -2.59974E+01 -2.57269E+01 -2.53603E+01 -2.48848E+01 -2.42288E+01 -2.33254E+01 -2.22096E+01 -2.11092E+01
  -2.02901E+01 -1.98559E+01 -1.98192E+01 -2.00884E+01 -2.05370E+01 -2.10862E+01 -2.16555E+01 -2.20652E+01 -2.21253E+01 -2.19147E+01
  -2.15272E+01 -2.08862E+01 -2.00521E+01 -1.90921E+01 -1.80515E+01 -1.70881E+01 -1.64746E+01 -1.64305E+01 -1.68991E+01 -1.76264E+01
  -1.83803E+01 -1.90123E+01 -1.94949E+01 -1.98342E+01 -1.99823E+01 -1.99405E+01 -1.97966E+01 -1.95678E+01 -1.92288E+01 -1.89026E+01
  -1.87334E+01 -1.87419E+01 -1.88245E+01 -1.88784E+01 -1.88539E+01 -1.87449E+01 -1.85484E+01 -1.82701E+01 -1.79642E+01 -1.76528E+01
  -1.73432E+01 -1.70833E+01 -1.68755E+01 -1.67178E+01 -1.66136E+01 -1.65689E+01 -1.65882E+01 -1.66452E+01 -1.65840E+01 -1.63338E+01
  -1.59549E+01 -1.54784E+01 -1.49374E+01 -1.43175E+01 -1.35772E+01 -1.27816E+01 -1.21063E+01 -1.17240E+01 -1.17171E+01 -1.19724E+01
  -1.23054E+01 -1.26144E+01 -1.28437E+01 -1.27797E+01 -1.19779E+01 -1.05467E+01 -8.61890E+00 -6.32478E+00 -3.65150E+00 -3.75634E-01
   3.37800E+00  6.97995E+00  9.41358E+00  9.97388E+00  8.71692E+00  6.27709E+00  3.40172E+00  5.14973E-01 -2.31496E+00 -5.02242E+00
  -7.36443E+00 -9.18867E+00 -1.06801E+01 -1.19358E+01 -1.24861E+01 -1.25090E+01 -1.23197E+01 -1.18080E+01 -1.04434E+01 -8.42316E+00
  -5.96269E+00 -3.09200E+00  8.49417E-02  3.74024E+00  7.96778E+00  1.21525E+01  1.50925E+01  1.59039E+01  1.46019E+01  1.19194E+01
   8.75028E+00  5.55948E+00  2.39541E+00 -7.22653E-01 -3.54490E+00 -5.78846E+00 -7.58430E+00 -9.11153E+00 -9.75814E+00 -9.73387E+00
  -9.56908E+00 -9.40142E+00 -9.27734E+00 -9.21146E+00 -9.17905E+00 -9.15026E+00 -9.14301E+00 -9.16043E+00 -9.19215E+00 -9.23402E+00
  -9.26956E+00 -9.29345E+00 -9.32955E+00 -9.36468E+00 -9.39116E+00 -9.40664E+00 -9.39299E+00 -9.38343E+00 -9.42608E+00 -9.51013E+00
  -9.58349E+00 -9.57971E+00 -9.47579E+00 -9.32934E+00 -9.23989E+00 -9.26930E+00 -9.40859E+00 -9.61167E+00 -9.83614E+00 -1.00355E+01
  -1.02092E+01 -1.03508E+01 -1.05071E+01 -1.06943E+01 -1.08515E+01 -1.09169E+01 -1.08238E+01 -1.06189E+01 -1.04417E+01 -1.03305E+01
  -1.02160E+01 -1.00284E+01 -9.73123E+00 -9.35802E+00 -8.96799E+00 -8.53582E+00 -7.98396E+00 -7.30315E+00 -6.57112E+00 -5.88932E+00
  -5.34091E+00 -4.94731E+00 -4.70246E+00 -4.56265E+00 -4.44359E+00 -4.25900E+00 -3.99096E+00 -3.61095E+00 -3.14966E+00 -2.68426E+00
  -2.27060E+00 -1.96830E+00 -1.79145E+00 -1.81891E+00 -2.13643E+00 -2.73164E+00 -3.50481E+00 -4.21149E+00 -4.61199E+00 -4.65447E+00
  -4.36738E+00 -3.82029E+00 -3.05112E+00 -2.16038E+00 -1.34094E+00 -7.40030E-01 -5.16140E-01 -7.20267E-01 -1.21426E+00 -1.83024E+00
  -2.45767E+00 -2.94059E+00 -3.05005E+00 -2.71471E+00 -2.05424E+00 -1.27990E+00 -5.69037E-01  9.56916E-02  7.18335E-01  1.21984E+00
   1.60553E+00  1.93421E+00  2.25684E+00  2.56196E+00  2.83423E+00  3.11971E+00  3.44157E+00  3.71367E+00  3.83632E+00  3.78239E+00
   3.61351E+00  3.46337E+00  3.42808E+00  3.54840E+00  3.86296E+00  4.33472E+00  4.86218E+00  5.42036E+00  6.02869E+00  6.68130E+00
   7.49087E+00  9.14433E+00  1.22428E+01  1.61140E+01  2.06259E+01  2.55746E+01  3.09649E+01  3.72278E+01  4.41243E+01  5.01132E+01
   5.32306E+01  5.25667E+01  4.87124E+01  4.31116E+01  3.70699E+01  3.10908E+01  2.52437E+01  1.97758E+01  1.51936E+01  1.15625E+01
   8.34615E+00  5.80884E+00  4.78863E+00  4.39606E+00  4.15311E+00  3.97013E+00  3.81853E+00  3.66929E+00  3.52894E+00  3.39824E+00
   3.27752E+00  3.17171E+00  3.08527E+00  3.01293E+00  2.95206E+00  2.90763E+00  2.88221E+00  2.87404E+00  2.88047E+00  2.90090E+00
   2.93654E+00  2.98729E+00  3.04933E+00  3.12246E+00  3.20693E+00  3.30228E+00  3.40695E+00  3.51968E+00  3.63918E+00  3.76384E+00
   3.89158E+00  4.02038E+00  4.14771E+00  4.27125E+00  4.38871E+00  4.49825E+00  4.59844E+00  4.68844E+00  4.76798E+00  4.83733E+00
   4.89710E+00  4.94896E+00  4.99530E+00  5.03904E+00  5.08390E+00  5.13490E+00  5.19929E+00  5.29113E+00  5.42431E+00  5.56579E+00
   5.70300E+00  5.83284E+00  5.94763E+00  6.04762E+00  6.10970E+00  6.08233E+00  5.96010E+00  5.77072E+00  5.57111E+00  5.43388E+00
   5.39453E+00  5.46634E+00  5.66952E+00  6.01251E+00  6.45936E+00  6.92901E+00  7.33925E+00  7.67540E+00  8.00483E+00  8.31441E+00
   8.54402E+00  8.69879E+00  8.78253E+00  8.81703E+00  8.80353E+00  8.67385E+00  8.42326E+00  8.07937E+00  7.66497E+00  7.27281E+00
   6.97860E+00  6.82204E+00  6.83100E+00  7.01642E+00  7.34080E+00  7.71594E+00  8.03521E+00  8.23345E+00  8.34625E+00  8.42305E+00
   8.42275E+00  8.34214E+00  8.19792E+00  8.02348E+00  7.83797E+00  7.61996E+00  7.39032E+00  7.19792E+00  7.02678E+00  6.86598E+00
   6.71223E+00  6.56479E+00  6.42394E+00  6.29050E+00  6.16545E+00  6.04986E+00  5.94473E+00  5.85102E+00  5.76960E+00  5.70128E+00
   5.64679E+00  5.60680E+00  5.58191E+00  5.57273E+00  5.57987E+00  5.60401E+00  5.64579E+00  5.70590E+00  5.78499E+00  5.88371E+00
   6.00260E+00  6.14206E+00  6.30222E+00  6.48289E+00  6.68340E+00  6.90260E+00  7.13871E+00  7.38927E+00  7.65103E+00  7.92007E+00
   8.19173E+00  8.46079E+00  8.72154E+00  8.96801E+00  9.19412E+00  9.39404E+00  9.56237E+00  9.69445E+00  9.78655E+00  9.83607E+00
   9.84168E+00  9.80340E+00  9.72257E+00  9.60182E+00  9.44485E+00  9.25630E+00  9.04145E+00  8.80602E+00  8.55588E+00  8.29681E+00
   8.03424E+00  7.77312E+00  7.51775E+00  7.27175E+00  7.03796E+00  6.81849E+00  6.61472E+00  6.42741E+00  6.25675E+00  6.10250E+00
   5.96409E+00  5.84063E+00  5.73109E+00  5.63432E+00  5.54913E+00  5.47439E+00  5.40895E+00  5.35176E+00  5.30182E+00  5.25825E+00
   5.22026E+00  5.18716E+00  5.15833E+00  5.13321E+00  5.11131E+00  5.09225E+00  5.07567E+00  5.06127E+00  5.04877E+00  5.03795E+00
   5.02858E+00  5.02051E+00  5.01359E+00  5.00769E+00  5.00269E+00  4.99850E+00  4.99502E+00  4.99220E+00  4.98997E+00  4.98828E+00
   4.98707E+00  4.98628E+00  4.98589E+00  4.98588E+00  4.98620E+00  4.98683E+00  4.98772E+00  4.98888E+00  4.99027E+00  4.99189E+00
   4.99373E+00  4.99576E+00  4.99796E+00  5.00034E+00  5.00288E+00  5.00559E+00  5.00845E+00  5.01145E+00  5.01457E+00  5.01783E+00
   5.02123E+00  5.02476E+00  5.02841E+00  5.03217E+00  5.03605E+00  5.04006E+00  5.04420E+00  5.04846E+00  5.05283E+00  5.05732E+00
   5.06192E+00  5.06667E+00  5.07155E+00  5.07655E+00  5.08168E+00  5.08695E+00  5.09236E+00  5.09793E+00
 NY background values follow
    -3.393E+01   -3.374E+01   -3.354E+01   -3.335E+01   -3.316E+01   -3.297E+01   -3.278E+01   -3.259E+01   -3.240E+01   -3.221E+01
    -3.201E+01   -3.182E+01   -3.163E+01   -3.144E+01   -3.125E+01   -3.106E+01   -3.087E+01   -3.068E+01   -3.049E+01   -3.030E+01
    -3.011E+01   -2.992E+01   -2.973E+01   -2.954E+01   -2.935E+01   -2.916E+01   -2.897E+01   -2.878E+01   -2.859E+01   -2.841E+01
    -2.822E+01   -2.803E+01   -2.784E+01   -2.766E+01   -2.747E+01   -2.728E+01   -2.710E+01   -2.691E+01   -2.673E+01   -2.654E+01
    -2.636E+01   -2.618E+01   -2.599E+01   -2.581E+01   -2.563E+01   -2.545E+01   -2.526E+01   -2.508E+01   -2.490E+01   -2.472E+01
    -2.454E+01   -2.436E+01   -2.419E+01   -2.401E+01   -2.383E+01   -2.366E+01   -2.348E+01   -2.330E+01   -2.313E+01   -2.295E+01
    -2.278E+01   -2.261E+01   -2.244E+01   -2.226E+01   -2.209E+01   -2.192E+01   -2.175E+01   -2.158E+01   -2.141E+01   -2.125E+01
    -2.108E+01   -2.091E+01   -2.075E+01   -2.058E+01   -2.042E+01   -2.026E+01   -2.009E+01   -1.993E+01   -1.977E+01   -1.961E+01
    -1.945E+01   -1.929E+01   -1.913E+01   -1.898E+01   -1.882E+01   -1.866E+01   -1.851E+01   -1.836E+01   -1.820E+01   -1.805E+01
    -1.790E+01   -1.775E+01   -1.760E+01   -1.745E+01   -1.730E+01   -1.716E+01   -1.701E+01   -1.687E+01   -1.672E+01   -1.658E+01
    -1.644E+01   -1.630E+01   -1.616E+01   -1.602E+01   -1.588E+01   -1.574E+01   -1.560E+01   -1.546E+01   -1.533E+01   -1.519E+01
    -1.506E+01   -1.493E+01   -1.479E+01   -1.466E+01   -1.453E+01   -1.440E+01   -1.427E+01   -1.414E+01   -1.402E+01   -1.389E+01
    -1.376E+01   -1.364E+01   -1.351E+01   -1.339E+01   -1.326E+01   -1.314E+01   -1.302E+01   -1.290E+01   -1.278E+01   -1.266E+01
    -1.254E+01   -1.242E+01   -1.230E+01   -1.219E+01   -1.207E+01   -1.196E+01   -1.184E+01   -1.173E+01   -1.161E+01   -1.150E+01
    -1.139E+01   -1.128E+01   -1.117E+01   -1.106E+01   -1.095E+01   -1.084E+01   -1.073E+01   -1.062E+01   -1.051E+01   -1.040E+01
    -1.030E+01   -1.019E+01   -1.009E+01   -9.981E+00   -9.876E+00   -9.771E+00   -9.667E+00   -9.564E+00   -9.460E+00   -9.357E+00
    -9.255E+00   -9.152E+00   -9.050E+00   -8.948E+00   -8.847E+00   -8.746E+00   -8.645E+00   -8.544E+00   -8.444E+00   -8.343E+00
    -8.243E+00   -8.143E+00   -8.044E+00   -7.944E+00   -7.845E+00   -7.745E+00   -7.646E+00   -7.547E+00   -7.448E+00   -7.349E+00
    -7.250E+00   -7.151E+00   -7.052E+00   -6.953E+00   -6.854E+00   -6.755E+00   -6.657E+00   -6.558E+00   -6.460E+00   -6.361E+00
    -6.263E+00   -6.165E+00   -6.067E+00   -5.970E+00   -5.872E+00   -5.775E+00   -5.678E+00   -5.582E+00   -5.485E+00   -5.389E+00
    -5.293E+00   -5.198E+00   -5.103E+00   -5.008E+00   -4.914E+00   -4.820E+00   -4.726E+00   -4.633E+00   -4.540E+00   -4.448E+00
    -4.356E+00   -4.265E+00   -4.174E+00   -4.084E+00   -3.994E+00   -3.905E+00   -3.816E+00   -3.728E+00   -3.641E+00   -3.554E+00
    -3.468E+00   -3.382E+00   -3.297E+00   -3.213E+00   -3.129E+00   -3.046E+00   -2.964E+00   -2.883E+00   -2.802E+00   -2.722E+00
    -2.643E+00   -2.565E+00   -2.487E+00   -2.410E+00   -2.333E+00   -2.258E+00   -2.183E+00   -2.108E+00   -2.035E+00   -1.962E+00
    -1.890E+00   -1.818E+00   -1.747E+00   -1.677E+00   -1.607E+00   -1.538E+00   -1.470E+00   -1.403E+00   -1.336E+00   -1.269E+00
    -1.203E+00   -1.138E+00   -1.074E+00   -1.010E+00   -9.468E-01   -8.841E-01   -8.221E-01   -7.606E-01   -6.997E-01   -6.395E-01
    -5.798E-01   -5.207E-01   -4.621E-01   -4.042E-01   -3.467E-01   -2.899E-01   -2.336E-01   -1.779E-01   -1.227E-01   -6.802E-02
    -1.390E-02    3.969E-02    9.275E-02    1.453E-01    1.973E-01    2.488E-01    2.998E-01    3.503E-01    4.002E-01    4.497E-01
     4.986E-01    5.471E-01    5.951E-01    6.425E-01    6.895E-01    7.360E-01    7.820E-01    8.276E-01    8.726E-01    9.172E-01
     9.613E-01    1.005E+00    1.048E+00    1.091E+00    1.133E+00    1.175E+00    1.216E+00    1.257E+00    1.298E+00    1.338E+00
     1.377E+00    1.416E+00    1.455E+00    1.493E+00    1.531E+00    1.568E+00    1.605E+00    1.642E+00    1.678E+00    1.714E+00
     1.749E+00    1.784E+00    1.819E+00    1.853E+00    1.887E+00    1.920E+00    1.953E+00    1.985E+00    2.018E+00    2.049E+00
     2.081E+00    2.112E+00    2.143E+00    2.173E+00    2.203E+00    2.232E+00    2.262E+00    2.291E+00    2.319E+00    2.347E+00
     2.375E+00    2.403E+00    2.430E+00    2.457E+00    2.484E+00    2.510E+00    2.536E+00    2.561E+00    2.587E+00    2.612E+00
     2.637E+00    2.661E+00    2.685E+00    2.709E+00    2.733E+00    2.756E+00    2.779E+00    2.802E+00    2.825E+00    2.847E+00
     2.869E+00    2.891E+00    2.913E+00    2.934E+00    2.955E+00    2.976E+00    2.996E+00    3.017E+00    3.037E+00    3.057E+00
     3.077E+00    3.096E+00    3.116E+00    3.135E+00    3.154E+00    3.173E+00    3.191E+00    3.210E+00    3.228E+00    3.246E+00
     3.264E+00    3.282E+00    3.299E+00    3.317E+00    3.334E+00    3.351E+00    3.368E+00    3.385E+00    3.402E+00    3.418E+00
     3.435E+00    3.451E+00    3.467E+00    3.483E+00    3.499E+00    3.515E+00    3.531E+00    3.547E+00    3.562E+00    3.578E+00
     3.594E+00    3.609E+00    3.624E+00    3.640E+00    3.655E+00    3.670E+00    3.685E+00    3.700E+00    3.715E+00    3.730E+00
     3.745E+00    3.760E+00    3.775E+00    3.790E+00    3.804E+00    3.819E+00    3.834E+00    3.849E+00    3.864E+00    3.878E+00
     3.893E+00    3.908E+00    3.923E+00    3.937E+00    3.952E+00    3.967E+00    3.981E+00    3.996E+00    4.010E+00    4.025E+00
     4.039E+00    4.054E+00    4.068E+00    4.083E+00    4.097E+00    4.111E+00    4.125E+00    4.139E+00    4.153E+00    4.167E+00
     4.180E+00    4.194E+00    4.208E+00    4.221E+00    4.235E+00    4.248E+00    4.261E+00    4.274E+00    4.287E+00    4.300E+00
     4.312E+00    4.325E+00    4.337E+00    4.349E+00    4.362E+00    4.374E+00    4.385E+00    4.397E+00    4.409E+00    4.420E+00
     4.431E+00    4.442E+00    4.453E+00    4.464E+00    4.474E+00    4.484E+00    4.495E+00    4.505E+00    4.514E+00    4.524E+00
     4.534E+00    4.543E+00    4.553E+00    4.562E+00    4.571E+00    4.580E+00    4.589E+00    4.598E+00    4.606E+00    4.615E+00
     4.623E+00    4.632E+00    4.640E+00    4.649E+00    4.657E+00    4.665E+00    4.673E+00    4.681E+00    4.689E+00    4.697E+00
     4.705E+00    4.713E+00    4.721E+00    4.729E+00    4.737E+00    4.745E+00    4.753E+00    4.761E+00    4.769E+00    4.777E+00
     4.785E+00    4.793E+00    4.801E+00    4.810E+00    4.818E+00    4.826E+00    4.834E+00    4.843E+00
 Ala      Conc. = 1.27E+02
