 LCModel (Version 6.3-1L) Copyright: S.W. Provencher.          Ref.: Magn. Reson. Med. 30:672-679 (1993).                
 Slice#3 Row#11 Col#14  PD_05_press_1_raw_act
 36 lines in following concentration table = NCONC+1
    Conc.  %SD /Cr+PCr  Metabolite                                         
  896.352  54%  27.589 Ala                                                 
    5.999  26%   0.185 Asp                                                 
    0.000 999%   0.000 Cr                                                  
   32.490  55%   1.000 PCr                                                 
    3.599  26%   0.111 GABA                                                
    3.599  26%   0.111 Glc                                                 
    0.000 999%   0.000 Gln                                                 
  538.986  34%  16.589 Glu                                                 
    0.000 999%   0.000 GPC                                                 
   29.156  22%   0.897 PCh                                                 
    0.000 999%   0.000 GSH                                                 
  177.523  42%   5.464 Ins                                                 
 1.56E+03  31%  48.116 Lac                                                 
    0.000 999%   0.000 NAA                                                 
    0.000 999%   0.000 NAAG                                                
    1.200  26% 3.7E-02 Scyllo                                              
    5.999  26%   0.185 Tau                                                 
    3.247  56%   0.100 -CrCH2                                              
   29.156  22%   0.897 GPC+PCh                                             
    0.000 999%   0.000 NAA+NAAG                                            
   32.490  55%   1.000 Cr+PCr                                              
  538.986  34%  16.589 Glu+Gln                                             
    0.000 999%   0.000 Lip13a                                              
 2.37E+03  15%  72.856 Lip13b                                              
  633.655  15%  19.503 Lip09                                               
  582.383  16%  17.925 MM09                                                
  353.863  15%  10.892 Lip20                                               
    0.000 999%   0.000 MM20                                                
   38.087 420%   1.172 MM12                                                
 3.04E+03  15%  93.520 MM14                                                
 1.08E+03  24%  33.203 MM17                                                
 2.37E+03  15%  72.856 Lip13a+Lip13b                                       
 5.44E+03   8% 167.549 MM14+Lip13a+Lip13b+MM12                             
 1.22E+03   8%  37.429 MM09+Lip09                                          
  353.863  15%  10.892 MM20+Lip20                                          
   6 lines in following misc. output table
  FWHM = 0.153 ppm    S/N =  24                                            
  Data shift = 0.138 ppm                                                   
  Ph: 154 deg     -82.7 deg/ppm                                            
  alphaB,S = 8.5E+01,   2.9E+02                                            
    6 spline knots.   Ns = 9(2)                                            
  (11) 9 infls.   ( 6) 1 extrs.                                            
  498 points on ppm-axis = NY
      4.000000     3.992357     3.984714     3.977070     3.969427     3.961784     3.954141     3.946497     3.938854     3.931211
      3.923568     3.915925     3.908281     3.900638     3.892995     3.885352     3.877708     3.870065     3.862422     3.854779
      3.847136     3.839492     3.831849     3.824206     3.816563     3.808919     3.801276     3.793633     3.785990     3.778347
      3.770703     3.763060     3.755417     3.747774     3.740130     3.732487     3.724844     3.717201     3.709558     3.701914
      3.694271     3.686628     3.678985     3.671341     3.663698     3.656055     3.648412     3.640769     3.633125     3.625482
      3.617839     3.610196     3.602552     3.594909     3.587266     3.579623     3.571980     3.564336     3.556693     3.549050
      3.541407     3.533763     3.526120     3.518477     3.510834     3.503191     3.495547     3.487904     3.480261     3.472618
      3.464974     3.457331     3.449688     3.442045     3.434402     3.426758     3.419115     3.411472     3.403829     3.396185
      3.388542     3.380899     3.373256     3.365613     3.357969     3.350326     3.342683     3.335040     3.327396     3.319753
      3.312110     3.304467     3.296824     3.289180     3.281537     3.273894     3.266251     3.258607     3.250964     3.243321
      3.235678     3.228034     3.220391     3.212748     3.205105     3.197462     3.189818     3.182175     3.174532     3.166889
      3.159245     3.151602     3.143959     3.136316     3.128673     3.121029     3.113386     3.105743     3.098100     3.090456
      3.082813     3.075170     3.067527     3.059884     3.052240     3.044597     3.036954     3.029311     3.021667     3.014024
      3.006381     2.998738     2.991095     2.983451     2.975808     2.968165     2.960522     2.952878     2.945235     2.937592
      2.929949     2.922306     2.914662     2.907019     2.899376     2.891733     2.884089     2.876446     2.868803     2.861160
      2.853517     2.845873     2.838230     2.830587     2.822944     2.815300     2.807657     2.800014     2.792371     2.784728
      2.777084     2.769441     2.761798     2.754155     2.746511     2.738868     2.731225     2.723582     2.715939     2.708295
      2.700652     2.693009     2.685366     2.677722     2.670079     2.662436     2.654793     2.647150     2.639506     2.631863
      2.624220     2.616577     2.608933     2.601290     2.593647     2.586004     2.578361     2.570717     2.563074     2.555431
      2.547788     2.540144     2.532501     2.524858     2.517215     2.509572     2.501928     2.494285     2.486642     2.478999
      2.471355     2.463712     2.456069     2.448426     2.440783     2.433139     2.425496     2.417853     2.410210     2.402566
      2.394923     2.387280     2.379637     2.371994     2.364350     2.356707     2.349064     2.341421     2.333777     2.326134
      2.318491     2.310848     2.303205     2.295561     2.287918     2.280275     2.272632     2.264988     2.257345     2.249702
      2.242059     2.234416     2.226772     2.219129     2.211486     2.203843     2.196199     2.188556     2.180913     2.173270
      2.165627     2.157983     2.150340     2.142697     2.135054     2.127410     2.119767     2.112124     2.104481     2.096838
      2.089194     2.081551     2.073908     2.066265     2.058621     2.050978     2.043335     2.035692     2.028049     2.020405
      2.012762     2.005119     1.997476     1.989833     1.982190     1.974546     1.966903     1.959260     1.951617     1.943974
      1.936331     1.928688     1.921045     1.913402     1.905759     1.898115     1.890472     1.882829     1.875186     1.867543
      1.859900     1.852257     1.844614     1.836971     1.829327     1.821684     1.814041     1.806398     1.798755     1.791112
      1.783469     1.775826     1.768183     1.760540     1.752896     1.745253     1.737610     1.729967     1.722324     1.714681
      1.707038     1.699395     1.691752     1.684108     1.676465     1.668822     1.661179     1.653536     1.645893     1.638250
      1.630607     1.622964     1.615321     1.607677     1.600034     1.592391     1.584748     1.577105     1.569462     1.561819
      1.554176     1.546533     1.538890     1.531246     1.523603     1.515960     1.508317     1.500674     1.493031     1.485388
      1.477745     1.470102     1.462458     1.454815     1.447172     1.439529     1.431886     1.424243     1.416600     1.408957
      1.401314     1.393671     1.386027     1.378384     1.370741     1.363098     1.355455     1.347812     1.340169     1.332526
      1.324883     1.317240     1.309596     1.301953     1.294310     1.286667     1.279024     1.271381     1.263738     1.256095
      1.248452     1.240808     1.233165     1.225522     1.217879     1.210236     1.202593     1.194950     1.187307     1.179664
      1.172021     1.164377     1.156734     1.149091     1.141448     1.133805     1.126162     1.118519     1.110876     1.103233
      1.095590     1.087946     1.080303     1.072660     1.065017     1.057374     1.049731     1.042088     1.034445     1.026802
      1.019158     1.011515     1.003872     0.996229     0.988586     0.980943     0.973300     0.965657     0.958014     0.950371
      0.942727     0.935084     0.927441     0.919798     0.912155     0.904512     0.896869     0.889226     0.881583     0.873940
      0.866296     0.858653     0.851010     0.843367     0.835724     0.828081     0.820438     0.812795     0.805152     0.797508
      0.789865     0.782222     0.774579     0.766936     0.759293     0.751650     0.744007     0.736364     0.728721     0.721077
      0.713434     0.705791     0.698148     0.690505     0.682862     0.675219     0.667576     0.659933     0.652290     0.644646
      0.637003     0.629360     0.621717     0.614074     0.606431     0.598788     0.591145     0.583502     0.575858     0.568215
      0.560572     0.552929     0.545286     0.537643     0.530000     0.522357     0.514714     0.507071     0.499427     0.491784
      0.484141     0.476498     0.468855     0.461212     0.453569     0.445925     0.438282     0.430639     0.422996     0.415353
      0.407710     0.400067     0.392424     0.384780     0.377137     0.369494     0.361851     0.354208     0.346565     0.338922
      0.331278     0.323635     0.315992     0.308349     0.300706     0.293063     0.285420     0.277777     0.270133     0.262490
      0.254847     0.247204     0.239561     0.231918     0.224275     0.216631     0.208988     0.201345
 NY phased data points follow
   1.96009E-01  1.79788E-01  5.55296E-01 -2.73525E-01  5.88706E-01 -4.13869E-02  6.95212E-01  1.03330E+00  4.08926E-01  9.36543E-01
   2.00772E-01  1.13579E+00  5.59004E-01  9.09667E-01 -5.94202E-02  8.26780E-01  1.47159E+00  1.15546E+00  1.18600E+00  1.02681E+00
   4.68679E-01  1.19680E+00  6.36202E-01  6.53374E-01  4.91977E-01  8.68985E-01  1.49287E+00  4.76862E-01  7.89130E-01  1.29342E+00
  -7.68728E-02  3.65845E-01  1.54672E+00  7.31535E-01  5.96093E-02  1.40735E+00  6.99011E-01  1.39939E+00  1.38514E+00  1.58186E+00
   8.42180E-01  1.10787E+00  1.86746E+00  1.23577E+00  1.26899E+00  1.29394E+00  1.46194E+00  4.14604E-01  7.90114E-01  1.90905E+00
   9.08046E-01  1.59677E+00  1.46450E+00  1.61590E+00  1.44580E+00  1.18844E+00  9.18461E-01  1.03934E+00  7.99929E-01  1.16053E+00
   2.83235E+00  8.13775E-01  1.87661E+00  2.91298E+00  1.87597E+00  2.11079E+00  2.24871E+00  1.47279E+00  2.08667E+00  1.21216E+00
   8.42581E-01  2.51792E+00  2.32260E+00  2.68001E+00  1.77280E+00  1.90016E+00  1.83049E+00  1.40516E+00  2.13316E+00  2.50444E+00
   1.11909E+00  3.50255E+00  2.44365E+00  3.39215E+00  3.06566E+00  2.10399E+00  2.71870E+00  2.36166E+00  1.65213E+00  1.18835E+00
   7.99671E-01  1.26779E+00  1.43927E+00  1.45723E+00  2.22427E+00  2.25407E+00  1.65707E+00  2.77496E+00  3.21804E+00  3.10630E+00
   1.89878E+00  2.04046E+00  2.94338E+00  3.12435E+00  2.37677E+00  3.08552E+00  3.88366E+00  4.04428E+00  4.09541E+00  3.04220E+00
   4.17399E+00  3.14665E+00  3.90993E+00  2.84800E+00  1.74243E+00  2.64699E+00  2.65321E+00  2.49292E+00  3.18913E+00  2.76882E+00
   2.59103E+00  3.02514E+00  3.43572E+00  2.97743E+00  3.00127E+00  2.31304E+00  3.36189E+00  3.04350E+00  3.23805E+00  3.06134E+00
   3.50946E+00  3.13154E+00  4.25340E+00  3.17238E+00  3.64881E+00  2.96668E+00  3.47766E+00  2.75010E+00  3.11906E+00  3.57886E+00
   3.10758E+00  3.40554E+00  3.28589E+00  3.70852E+00  2.50888E+00  4.36624E+00  2.86313E+00  3.48727E+00  3.55059E+00  3.65097E+00
   3.26086E+00  3.81243E+00  2.89649E+00  2.00866E+00  3.54837E+00  3.32687E+00  3.63018E+00  1.67291E+00  4.41595E+00  2.88336E+00
   4.15593E+00  3.30618E+00  4.03166E+00  2.89101E+00  4.03615E+00  4.05463E+00  4.57322E+00  3.13620E+00  3.99874E+00  3.96217E+00
   3.74895E+00  3.05062E+00  4.09669E+00  3.63950E+00  4.18874E+00  4.16919E+00  4.68030E+00  3.85971E+00  4.41558E+00  3.41548E+00
   4.42672E+00  4.56701E+00  4.69340E+00  3.57822E+00  3.58737E+00  4.14140E+00  4.14291E+00  5.27830E+00  5.19585E+00  4.21086E+00
   4.26828E+00  3.34929E+00  4.25610E+00  4.70228E+00  5.03849E+00  4.58237E+00  4.40358E+00  4.80203E+00  4.16621E+00  4.56646E+00
   4.48489E+00  4.64696E+00  3.99416E+00  4.59587E+00  3.60343E+00  4.01819E+00  2.88870E+00  4.99037E+00  4.89484E+00  4.87248E+00
   4.91659E+00  5.41684E+00  4.09692E+00  5.03348E+00  3.87881E+00  4.73230E+00  4.02416E+00  4.08268E+00  4.74475E+00  4.89286E+00
   4.59448E+00  4.40128E+00  3.79051E+00  4.69202E+00  4.99821E+00  4.39440E+00  5.05706E+00  4.00853E+00  4.71638E+00  5.60431E+00
   5.25342E+00  5.48331E+00  4.07276E+00  5.00500E+00  5.85520E+00  5.87081E+00  5.21345E+00  5.25316E+00  5.40995E+00  6.15448E+00
   6.02911E+00  6.87220E+00  6.28283E+00  7.44864E+00  7.84348E+00  8.20430E+00  7.56859E+00  7.41767E+00  7.66911E+00  5.86021E+00
   4.28636E+00  4.13232E+00  5.25267E+00  4.97046E+00  5.69426E+00  5.98945E+00  5.97884E+00  6.06624E+00  6.18348E+00  7.33952E+00
   6.35984E+00  7.61205E+00  6.22520E+00  6.90495E+00  6.55903E+00  4.80278E+00  6.84124E+00  7.15680E+00  6.66396E+00  6.58957E+00
   7.08959E+00  7.60841E+00  6.93337E+00  7.60641E+00  7.45843E+00  6.97504E+00  7.48688E+00  7.18014E+00  7.41511E+00  7.49468E+00
   8.18091E+00  8.52131E+00  7.26844E+00  8.09935E+00  8.19380E+00  8.11027E+00  8.72889E+00  9.12064E+00  8.77089E+00  7.79310E+00
   9.85115E+00  9.17966E+00  8.74908E+00  1.01319E+01  9.29799E+00  9.80680E+00  1.01164E+01  1.00648E+01  1.07530E+01  1.08688E+01
   1.12102E+01  1.16158E+01  1.29030E+01  1.30127E+01  1.28425E+01  1.33721E+01  1.29410E+01  1.48647E+01  1.41357E+01  1.53463E+01
   1.56293E+01  1.56434E+01  1.60577E+01  1.62317E+01  1.61258E+01  1.66675E+01  1.86559E+01  1.85468E+01  2.00147E+01  1.90948E+01
   2.12089E+01  2.07874E+01  2.16655E+01  2.34471E+01  2.35071E+01  2.52479E+01  2.62594E+01  2.69105E+01  2.88835E+01  2.90797E+01
   3.11145E+01  3.32900E+01  3.37819E+01  3.45030E+01  3.55911E+01  3.68116E+01  3.88548E+01  3.81820E+01  4.02873E+01  4.10149E+01
   4.16631E+01  4.26811E+01  4.28482E+01  4.39594E+01  4.30962E+01  4.12129E+01  4.18010E+01  4.14684E+01  3.94176E+01  3.67206E+01
   3.50788E+01  3.35974E+01  3.11192E+01  2.69558E+01  2.54314E+01  2.44471E+01  2.18110E+01  1.93191E+01  1.74924E+01  1.75285E+01
   1.54506E+01  1.52609E+01  1.31012E+01  1.27947E+01  1.31164E+01  1.25410E+01  1.28356E+01  1.20292E+01  1.19970E+01  1.13969E+01
   1.17818E+01  9.27645E+00  1.07554E+01  1.03363E+01  8.69440E+00  1.01841E+01  1.00407E+01  9.40399E+00  9.95405E+00  8.86263E+00
   1.02899E+01  9.50404E+00  9.91833E+00  1.06575E+01  1.07929E+01  1.12020E+01  1.14982E+01  1.13653E+01  1.10142E+01  1.06311E+01
   1.24536E+01  1.25675E+01  1.16701E+01  1.21185E+01  1.24378E+01  1.18357E+01  1.11495E+01  1.15559E+01  1.14235E+01  1.22903E+01
   1.09872E+01  1.13993E+01  1.11401E+01  1.03360E+01  1.04534E+01  1.01475E+01  1.01499E+01  9.86872E+00  1.08161E+01  1.01136E+01
   8.69136E+00  9.09949E+00  9.07505E+00  9.23484E+00  9.74768E+00  8.35956E+00  7.15365E+00  8.29692E+00  9.45044E+00  8.11254E+00
   7.95942E+00  7.34594E+00  8.20335E+00  7.86750E+00  7.96558E+00  7.93927E+00  6.58517E+00  7.04639E+00  7.03558E+00  7.84094E+00
   6.45057E+00  6.94177E+00  6.52205E+00  6.08906E+00  6.64791E+00  6.02634E+00  6.01455E+00  6.75619E+00  6.56329E+00  7.04346E+00
   5.81204E+00  6.75276E+00  6.08472E+00  6.62792E+00  5.92004E+00  5.91139E+00  4.88483E+00  5.63178E+00  6.08084E+00  5.38539E+00
   6.78072E+00  6.13970E+00  4.47457E+00  5.48188E+00  5.99305E+00  5.58315E+00  4.61797E+00  5.03566E+00  5.17311E+00  5.07753E+00
   5.36408E+00  5.48813E+00  5.96840E+00  5.58115E+00  4.99932E+00  4.87866E+00  5.59241E+00  4.52744E+00  5.01716E+00  4.43424E+00
   5.23078E+00  4.90656E+00  5.94266E+00  4.91970E+00  4.62671E+00  4.96703E+00  4.12950E+00  3.72971E+00  4.11867E+00  4.60689E+00
   4.84590E+00  5.04672E+00  5.76286E+00  4.77328E+00  4.79002E+00  4.91044E+00  3.95543E+00  5.62299E+00  4.70221E+00  4.60367E+00
   4.93105E+00  4.65211E+00  3.91696E+00  4.96686E+00  3.74156E+00  5.57819E+00  3.67178E+00  4.70579E+00
 NY points of the fit to the data follow
   2.66998E-01  1.14883E-01  3.17491E-01  2.18974E-01  4.03458E-01  3.43530E-01  4.98361E-01  4.35221E-01  5.49959E-01  4.78060E-01
   5.57994E-01  4.67725E-01  5.37170E-01  4.51208E-01  5.51841E-01  4.71895E-01  6.24142E-01  5.52405E-01  7.41582E-01  6.46637E-01
   8.39301E-01  6.94074E-01  8.93533E-01  6.90147E-01  9.05241E-01  6.67775E-01  9.08866E-01  6.40257E-01  8.99891E-01  6.22607E-01
   9.17752E-01  6.44278E-01  9.53724E-01  6.98641E-01  1.02543E+00  7.93422E-01  1.09907E+00  8.89727E-01  1.17532E+00  9.92958E-01
   1.23338E+00  1.07981E+00  1.29920E+00  1.19790E+00  1.39888E+00  1.34683E+00  1.52275E+00  1.50184E+00  1.63828E+00  1.61078E+00
   1.68853E+00  1.64725E+00  1.69027E+00  1.65085E+00  1.68222E+00  1.65950E+00  1.70796E+00  1.70433E+00  1.75176E+00  1.74695E+00
   1.78960E+00  1.77715E+00  1.81370E+00  1.79277E+00  1.82689E+00  1.80566E+00  1.84208E+00  1.82628E+00  1.87003E+00  1.86299E+00
   1.91193E+00  1.90793E+00  1.95144E+00  1.94450E+00  1.97813E+00  1.96733E+00  1.99025E+00  1.97572E+00  1.98746E+00  1.96950E+00
   1.97034E+00  1.94832E+00  1.93772E+00  1.90929E+00  1.88429E+00  1.86739E+00  1.85275E+00  1.84470E+00  1.84569E+00  1.84007E+00
   1.85901E+00  1.86268E+00  1.91305E+00  1.92844E+00  2.02379E+00  2.04782E+00  2.19317E+00  2.21308E+00  2.40288E+00  2.40898E+00
   2.63431E+00  2.61235E+00  2.85257E+00  2.80411E+00  3.04891E+00  2.96330E+00  3.18490E+00  3.07074E+00  3.26011E+00  3.12592E+00
   3.27252E+00  3.13659E+00  3.24812E+00  3.11562E+00  3.19162E+00  3.07695E+00  3.12612E+00  3.03649E+00  3.06515E+00  3.00492E+00
   3.02124E+00  2.99359E+00  3.01129E+00  3.01521E+00  3.04577E+00  3.07077E+00  3.11737E+00  3.14363E+00  3.19356E+00  3.21004E+00
   3.25562E+00  3.26372E+00  3.30323E+00  3.30026E+00  3.33131E+00  3.32408E+00  3.34924E+00  3.33883E+00  3.35850E+00  3.34843E+00
   3.36457E+00  3.35649E+00  3.37029E+00  3.36665E+00  3.38044E+00  3.38577E+00  3.40278E+00  3.41928E+00  3.44158E+00  3.46882E+00
   3.49602E+00  3.52558E+00  3.55356E+00  3.58328E+00  3.61056E+00  3.63919E+00  3.66474E+00  3.69157E+00  3.71488E+00  3.73940E+00
   3.75998E+00  3.78182E+00  3.79952E+00  3.81845E+00  3.83326E+00  3.84924E+00  3.86148E+00  3.87486E+00  3.88472E+00  3.89561E+00
   3.90341E+00  3.91222E+00  3.91846E+00  3.92563E+00  3.93078E+00  3.93686E+00  3.94152E+00  3.94707E+00  3.95175E+00  3.95745E+00
   3.96274E+00  3.96932E+00  3.97573E+00  3.98375E+00  3.99192E+00  4.00220E+00  4.01328E+00  4.02774E+00  4.04486E+00  4.06366E+00
   4.08308E+00  4.10955E+00  4.12127E+00  4.15438E+00  4.15544E+00  4.19606E+00  4.18978E+00  4.24886E+00  4.25363E+00  4.34324E+00
   4.33986E+00  4.45546E+00  4.42918E+00  4.56330E+00  4.50629E+00  4.64566E+00  4.56950E+00  4.72869E+00  4.64079E+00  4.82230E+00
   4.71130E+00  4.89170E+00  4.75216E+00  4.91851E+00  4.74346E+00  4.89201E+00  4.70254E+00  4.84446E+00  4.64397E+00  4.78316E+00
   4.60171E+00  4.75084E+00  4.58844E+00  4.74031E+00  4.62970E+00  4.79113E+00  4.72632E+00  4.88765E+00  4.87176E+00  5.02804E+00
   5.04159E+00  5.16938E+00  5.21071E+00  5.30660E+00  5.38637E+00  5.45286E+00  5.58012E+00  5.62245E+00  5.78475E+00  5.79009E+00
   5.94273E+00  5.89915E+00  6.03588E+00  5.95719E+00  6.08302E+00  6.00004E+00  6.13040E+00  6.06844E+00  6.19586E+00  6.16323E+00
   6.27847E+00  6.26858E+00  6.36724E+00  6.38489E+00  6.46110E+00  6.50314E+00  6.55818E+00  6.62768E+00  6.65548E+00  6.74076E+00
   6.74099E+00  6.83552E+00  6.80987E+00  6.90438E+00  6.86648E+00  6.96076E+00  6.91645E+00  7.01037E+00  6.96778E+00  7.05550E+00
   7.01598E+00  7.09644E+00  7.06560E+00  7.13893E+00  7.12381E+00  7.19642E+00  7.20090E+00  7.27317E+00  7.29901E+00  7.37442E+00
   7.42359E+00  7.50715E+00  7.58777E+00  7.68766E+00  7.79991E+00  7.92106E+00  8.06487E+00  8.21335E+00  8.38708E+00  8.56799E+00
   8.77433E+00  8.99042E+00  9.23099E+00  9.48371E+00  9.75836E+00  1.00460E+01  1.03514E+01  1.06672E+01  1.09940E+01  1.13271E+01
   1.16644E+01  1.20028E+01  1.23399E+01  1.26743E+01  1.30055E+01  1.33345E+01  1.36655E+01  1.40074E+01  1.43825E+01  1.48131E+01
   1.51785E+01  1.56308E+01  1.59791E+01  1.64512E+01  1.68246E+01  1.73667E+01  1.77563E+01  1.84667E+01  1.89730E+01  1.98329E+01
   2.04550E+01  2.13865E+01  2.21038E+01  2.31037E+01  2.39460E+01  2.49939E+01  2.60419E+01  2.71703E+01  2.84732E+01  2.97038E+01
   3.11579E+01  3.22937E+01  3.37886E+01  3.46569E+01  3.61664E+01  3.68646E+01  3.83045E+01  3.89455E+01  4.02815E+01  4.08317E+01
   4.19515E+01  4.21691E+01  4.28720E+01  4.27550E+01  4.29140E+01  4.23266E+01  4.17924E+01  4.07004E+01  3.93157E+01  3.75498E+01
   3.54101E+01  3.32124E+01  3.06131E+01  2.82323E+01  2.56402E+01  2.36227E+01  2.13790E+01  1.97567E+01  1.80307E+01  1.68813E+01
   1.56500E+01  1.47942E+01  1.39540E+01  1.34148E+01  1.29095E+01  1.25829E+01  1.22618E+01  1.20410E+01  1.17786E+01  1.15168E+01
   1.11932E+01  1.07680E+01  1.04546E+01  1.00533E+01  9.82676E+00  9.58641E+00  9.49881E+00  9.49901E+00  9.55403E+00  9.65035E+00
   9.77971E+00  9.93621E+00  1.01145E+01  1.03095E+01  1.05161E+01  1.07288E+01  1.09418E+01  1.11494E+01  1.13455E+01  1.15244E+01
   1.16807E+01  1.18096E+01  1.19070E+01  1.19701E+01  1.19969E+01  1.19869E+01  1.19408E+01  1.18606E+01  1.17491E+01  1.16102E+01
   1.14484E+01  1.12685E+01  1.10756E+01  1.08744E+01  1.06693E+01  1.04644E+01  1.02625E+01  1.00663E+01  9.87724E+00  9.69625E+00
   9.52344E+00  9.35854E+00  9.20065E+00  9.04881E+00  8.90168E+00  8.75809E+00  8.61677E+00  8.47681E+00  8.33729E+00  8.19775E+00
   8.05780E+00  7.91748E+00  7.77686E+00  7.63642E+00  7.49657E+00  7.35803E+00  7.22138E+00  7.08742E+00  6.95675E+00  6.83009E+00
   6.70793E+00  6.59084E+00  6.47910E+00  6.37310E+00  6.27293E+00  6.17877E+00  6.09053E+00  6.00823E+00  5.93163E+00  5.86064E+00
   5.79492E+00  5.73431E+00  5.67842E+00  5.62703E+00  5.57977E+00  5.53640E+00  5.49656E+00  5.46004E+00  5.42648E+00  5.39571E+00
   5.36740E+00  5.34142E+00  5.31747E+00  5.29545E+00  5.27510E+00  5.25633E+00  5.23893E+00  5.22284E+00  5.20786E+00  5.19397E+00
   5.18097E+00  5.16887E+00  5.15751E+00  5.14689E+00  5.13687E+00  5.12746E+00  5.11853E+00  5.11012E+00  5.10210E+00  5.09451E+00
   5.08725E+00  5.08034E+00  5.07370E+00  5.06736E+00  5.06124E+00  5.05539E+00  5.04971E+00  5.04426E+00  5.03896E+00  5.03386E+00
   5.02890E+00  5.02412E+00  5.01947E+00  5.01498E+00  5.01062E+00  5.00642E+00  5.00235E+00  4.99846E+00  4.99470E+00  4.99114E+00
   4.98774E+00  4.98457E+00  4.98160E+00  4.97891E+00  4.97649E+00  4.97444E+00  4.97276E+00  4.97158E+00
 NY background values follow
     2.170E+00    2.188E+00    2.205E+00    2.223E+00    2.241E+00    2.259E+00    2.277E+00    2.294E+00    2.312E+00    2.330E+00
     2.348E+00    2.366E+00    2.384E+00    2.402E+00    2.420E+00    2.438E+00    2.456E+00    2.473E+00    2.491E+00    2.509E+00
     2.527E+00    2.546E+00    2.564E+00    2.582E+00    2.600E+00    2.618E+00    2.636E+00    2.654E+00    2.672E+00    2.690E+00
     2.708E+00    2.726E+00    2.745E+00    2.763E+00    2.781E+00    2.799E+00    2.817E+00    2.835E+00    2.854E+00    2.872E+00
     2.890E+00    2.908E+00    2.926E+00    2.945E+00    2.963E+00    2.981E+00    2.999E+00    3.018E+00    3.036E+00    3.054E+00
     3.072E+00    3.091E+00    3.109E+00    3.127E+00    3.145E+00    3.164E+00    3.182E+00    3.200E+00    3.218E+00    3.237E+00
     3.255E+00    3.273E+00    3.292E+00    3.310E+00    3.328E+00    3.346E+00    3.365E+00    3.383E+00    3.401E+00    3.419E+00
     3.438E+00    3.456E+00    3.474E+00    3.492E+00    3.511E+00    3.529E+00    3.547E+00    3.565E+00    3.584E+00    3.602E+00
     3.620E+00    3.638E+00    3.656E+00    3.675E+00    3.693E+00    3.711E+00    3.729E+00    3.747E+00    3.765E+00    3.784E+00
     3.802E+00    3.820E+00    3.838E+00    3.856E+00    3.874E+00    3.892E+00    3.910E+00    3.928E+00    3.946E+00    3.964E+00
     3.982E+00    4.000E+00    4.018E+00    4.036E+00    4.054E+00    4.072E+00    4.090E+00    4.108E+00    4.126E+00    4.144E+00
     4.162E+00    4.180E+00    4.197E+00    4.215E+00    4.233E+00    4.251E+00    4.269E+00    4.286E+00    4.304E+00    4.322E+00
     4.340E+00    4.357E+00    4.375E+00    4.392E+00    4.410E+00    4.428E+00    4.445E+00    4.463E+00    4.480E+00    4.498E+00
     4.515E+00    4.533E+00    4.550E+00    4.568E+00    4.585E+00    4.602E+00    4.620E+00    4.637E+00    4.654E+00    4.672E+00
     4.689E+00    4.706E+00    4.723E+00    4.740E+00    4.757E+00    4.774E+00    4.792E+00    4.809E+00    4.826E+00    4.843E+00
     4.860E+00    4.876E+00    4.893E+00    4.910E+00    4.927E+00    4.944E+00    4.961E+00    4.977E+00    4.994E+00    5.011E+00
     5.027E+00    5.044E+00    5.061E+00    5.077E+00    5.094E+00    5.110E+00    5.126E+00    5.143E+00    5.159E+00    5.176E+00
     5.192E+00    5.208E+00    5.224E+00    5.240E+00    5.257E+00    5.273E+00    5.289E+00    5.305E+00    5.321E+00    5.337E+00
     5.353E+00    5.368E+00    5.384E+00    5.400E+00    5.416E+00    5.432E+00    5.447E+00    5.463E+00    5.478E+00    5.494E+00
     5.509E+00    5.525E+00    5.540E+00    5.556E+00    5.571E+00    5.586E+00    5.601E+00    5.617E+00    5.632E+00    5.647E+00
     5.662E+00    5.677E+00    5.692E+00    5.707E+00    5.721E+00    5.736E+00    5.751E+00    5.766E+00    5.780E+00    5.795E+00
     5.809E+00    5.824E+00    5.838E+00    5.853E+00    5.867E+00    5.881E+00    5.896E+00    5.910E+00    5.924E+00    5.938E+00
     5.952E+00    5.966E+00    5.980E+00    5.994E+00    6.008E+00    6.021E+00    6.035E+00    6.049E+00    6.062E+00    6.076E+00
     6.089E+00    6.103E+00    6.116E+00    6.129E+00    6.142E+00    6.156E+00    6.169E+00    6.182E+00    6.195E+00    6.208E+00
     6.220E+00    6.233E+00    6.246E+00    6.259E+00    6.271E+00    6.284E+00    6.296E+00    6.309E+00    6.321E+00    6.333E+00
     6.346E+00    6.358E+00    6.370E+00    6.382E+00    6.394E+00    6.406E+00    6.418E+00    6.429E+00    6.441E+00    6.453E+00
     6.464E+00    6.476E+00    6.487E+00    6.499E+00    6.510E+00    6.521E+00    6.532E+00    6.543E+00    6.554E+00    6.565E+00
     6.576E+00    6.587E+00    6.598E+00    6.608E+00    6.619E+00    6.630E+00    6.640E+00    6.650E+00    6.661E+00    6.671E+00
     6.681E+00    6.691E+00    6.701E+00    6.711E+00    6.721E+00    6.731E+00    6.740E+00    6.750E+00    6.760E+00    6.769E+00
     6.778E+00    6.788E+00    6.797E+00    6.806E+00    6.815E+00    6.824E+00    6.833E+00    6.842E+00    6.851E+00    6.859E+00
     6.868E+00    6.877E+00    6.885E+00    6.893E+00    6.902E+00    6.910E+00    6.918E+00    6.926E+00    6.934E+00    6.942E+00
     6.950E+00    6.957E+00    6.965E+00    6.972E+00    6.980E+00    6.987E+00    6.994E+00    7.002E+00    7.009E+00    7.016E+00
     7.023E+00    7.030E+00    7.036E+00    7.043E+00    7.050E+00    7.056E+00    7.063E+00    7.069E+00    7.075E+00    7.081E+00
     7.087E+00    7.093E+00    7.099E+00    7.105E+00    7.111E+00    7.116E+00    7.122E+00    7.127E+00    7.133E+00    7.138E+00
     7.143E+00    7.148E+00    7.153E+00    7.158E+00    7.163E+00    7.167E+00    7.172E+00    7.177E+00    7.181E+00    7.185E+00
     7.190E+00    7.194E+00    7.198E+00    7.202E+00    7.206E+00    7.209E+00    7.213E+00    7.217E+00    7.220E+00    7.224E+00
     7.227E+00    7.230E+00    7.233E+00    7.236E+00    7.239E+00    7.242E+00    7.245E+00    7.247E+00    7.250E+00    7.252E+00
     7.255E+00    7.257E+00    7.259E+00    7.261E+00    7.263E+00    7.265E+00    7.266E+00    7.268E+00    7.270E+00    7.271E+00
     7.272E+00    7.274E+00    7.275E+00    7.276E+00    7.277E+00    7.278E+00    7.278E+00    7.279E+00    7.280E+00    7.280E+00
     7.280E+00    7.281E+00    7.281E+00    7.281E+00    7.281E+00    7.281E+00    7.280E+00    7.280E+00    7.280E+00    7.279E+00
     7.278E+00    7.278E+00    7.277E+00    7.276E+00    7.275E+00    7.273E+00    7.272E+00    7.271E+00    7.269E+00    7.268E+00
     7.266E+00    7.264E+00    7.262E+00    7.260E+00    7.258E+00    7.256E+00    7.254E+00    7.251E+00    7.249E+00    7.246E+00
     7.243E+00    7.240E+00    7.237E+00    7.234E+00    7.231E+00    7.228E+00    7.225E+00    7.221E+00    7.218E+00    7.214E+00
     7.210E+00    7.206E+00    7.202E+00    7.198E+00    7.194E+00    7.189E+00    7.185E+00    7.180E+00    7.176E+00    7.171E+00
     7.166E+00    7.161E+00    7.156E+00    7.151E+00    7.146E+00    7.140E+00    7.135E+00    7.129E+00    7.123E+00    7.117E+00
     7.112E+00    7.105E+00    7.099E+00    7.093E+00    7.087E+00    7.080E+00    7.074E+00    7.067E+00    7.060E+00    7.053E+00
     7.046E+00    7.039E+00    7.032E+00    7.024E+00    7.017E+00    7.009E+00    7.002E+00    6.994E+00    6.986E+00    6.978E+00
     6.970E+00    6.962E+00    6.953E+00    6.945E+00    6.936E+00    6.928E+00    6.919E+00    6.910E+00    6.901E+00    6.892E+00
     6.883E+00    6.873E+00    6.864E+00    6.855E+00    6.845E+00    6.835E+00    6.825E+00    6.815E+00    6.805E+00    6.795E+00
     6.785E+00    6.774E+00    6.764E+00    6.753E+00    6.742E+00    6.732E+00    6.721E+00    6.710E+00
 Ala      Conc. = 8.96E+02
