 LCModel (Version 6.3-1L) Copyright: S.W. Provencher.          Ref.: Magn. Reson. Med. 30:672-679 (1993).                
 Slice#1 Row#12 Col#14  PD_05_press_1_raw_act
 36 lines in following concentration table = NCONC+1
    Conc.  %SD /Cr+PCr  Metabolite                                         
   20.442 111%   3.134 Ala                                                 
    0.992 140%   0.152 Asp                                                 
    6.522 152%   1.000 Cr                                                  
    0.000 999%   0.000 PCr                                                 
    0.603 139% 9.2E-02 GABA                                                
    0.588 142% 9.0E-02 Glc                                                 
    8.350 535%   1.280 Gln                                                 
    0.000 999%   0.000 Glu                                                 
    0.000 999%   0.000 GPC                                                 
    4.427  84%   0.679 PCh                                                 
    5.587 267%   0.857 GSH                                                 
    0.000 999%   0.000 Ins                                                 
    4.099 606%   0.628 Lac                                                 
    0.000 999%   0.000 NAA                                                 
    0.000 999%   0.000 NAAG                                                
    0.208 134% 3.2E-02 Scyllo                                              
    0.994 140%   0.152 Tau                                                 
    2.391 190%   0.367 -CrCH2                                              
    4.427  84%   0.679 GPC+PCh                                             
    0.000 999%   0.000 NAA+NAAG                                            
    6.522 152%   1.000 Cr+PCr                                              
    8.350 535%   1.280 Glu+Gln                                             
 1.98E+03   6% 303.942 Lip13a                                              
    0.000 999%   0.000 Lip13b                                              
   69.599  65%  10.672 Lip09                                               
    0.273 999% 4.2E-02 MM09                                                
    0.000 999%   0.000 Lip20                                               
    0.000 999%   0.000 MM20                                                
    0.162 999% 2.5E-02 MM12                                                
    1.395 751%   0.214 MM14                                                
    1.687 398%   0.259 MM17                                                
 1.98E+03   6% 303.942 Lip13a+Lip13b                                       
 1.98E+03   6% 304.180 MM14+Lip13a+Lip13b+MM12                             
   69.872  64%  10.714 MM09+Lip09                                          
    0.000 999%   0.000 MM20+Lip20                                          
   6 lines in following misc. output table
  FWHM = 0.054 ppm    S/N =   3                                            
  Data shift =-0.031 ppm                                                   
  Ph:  61 deg     -10.2 deg/ppm                                            
  alphaB,S = 8.5E+01,   5.1E+01                                            
   14 spline knots.   Ns = 5(1)                                            
   2 inflections.     1 extrema                                            
  498 points on ppm-axis = NY
      4.000000     3.992357     3.984714     3.977070     3.969427     3.961784     3.954141     3.946497     3.938854     3.931211
      3.923568     3.915925     3.908281     3.900638     3.892995     3.885352     3.877708     3.870065     3.862422     3.854779
      3.847136     3.839492     3.831849     3.824206     3.816563     3.808919     3.801276     3.793633     3.785990     3.778347
      3.770703     3.763060     3.755417     3.747774     3.740130     3.732487     3.724844     3.717201     3.709558     3.701914
      3.694271     3.686628     3.678985     3.671341     3.663698     3.656055     3.648412     3.640769     3.633125     3.625482
      3.617839     3.610196     3.602552     3.594909     3.587266     3.579623     3.571980     3.564336     3.556693     3.549050
      3.541407     3.533763     3.526120     3.518477     3.510834     3.503191     3.495547     3.487904     3.480261     3.472618
      3.464974     3.457331     3.449688     3.442045     3.434402     3.426758     3.419115     3.411472     3.403829     3.396185
      3.388542     3.380899     3.373256     3.365613     3.357969     3.350326     3.342683     3.335040     3.327396     3.319753
      3.312110     3.304467     3.296824     3.289180     3.281537     3.273894     3.266251     3.258607     3.250964     3.243321
      3.235678     3.228034     3.220391     3.212748     3.205105     3.197462     3.189818     3.182175     3.174532     3.166889
      3.159245     3.151602     3.143959     3.136316     3.128673     3.121029     3.113386     3.105743     3.098100     3.090456
      3.082813     3.075170     3.067527     3.059884     3.052240     3.044597     3.036954     3.029311     3.021667     3.014024
      3.006381     2.998738     2.991095     2.983451     2.975808     2.968165     2.960522     2.952878     2.945235     2.937592
      2.929949     2.922306     2.914662     2.907019     2.899376     2.891733     2.884089     2.876446     2.868803     2.861160
      2.853517     2.845873     2.838230     2.830587     2.822944     2.815300     2.807657     2.800014     2.792371     2.784728
      2.777084     2.769441     2.761798     2.754155     2.746511     2.738868     2.731225     2.723582     2.715939     2.708295
      2.700652     2.693009     2.685366     2.677722     2.670079     2.662436     2.654793     2.647150     2.639506     2.631863
      2.624220     2.616577     2.608933     2.601290     2.593647     2.586004     2.578361     2.570717     2.563074     2.555431
      2.547788     2.540144     2.532501     2.524858     2.517215     2.509572     2.501928     2.494285     2.486642     2.478999
      2.471355     2.463712     2.456069     2.448426     2.440783     2.433139     2.425496     2.417853     2.410210     2.402566
      2.394923     2.387280     2.379637     2.371994     2.364350     2.356707     2.349064     2.341421     2.333777     2.326134
      2.318491     2.310848     2.303205     2.295561     2.287918     2.280275     2.272632     2.264988     2.257345     2.249702
      2.242059     2.234416     2.226772     2.219129     2.211486     2.203843     2.196199     2.188556     2.180913     2.173270
      2.165627     2.157983     2.150340     2.142697     2.135054     2.127410     2.119767     2.112124     2.104481     2.096838
      2.089194     2.081551     2.073908     2.066265     2.058621     2.050978     2.043335     2.035692     2.028049     2.020405
      2.012762     2.005119     1.997476     1.989833     1.982190     1.974546     1.966903     1.959260     1.951617     1.943974
      1.936331     1.928688     1.921045     1.913402     1.905759     1.898115     1.890472     1.882829     1.875186     1.867543
      1.859900     1.852257     1.844614     1.836971     1.829327     1.821684     1.814041     1.806398     1.798755     1.791112
      1.783469     1.775826     1.768183     1.760540     1.752896     1.745253     1.737610     1.729967     1.722324     1.714681
      1.707038     1.699395     1.691752     1.684108     1.676465     1.668822     1.661179     1.653536     1.645893     1.638250
      1.630607     1.622964     1.615321     1.607677     1.600034     1.592391     1.584748     1.577105     1.569462     1.561819
      1.554176     1.546533     1.538890     1.531246     1.523603     1.515960     1.508317     1.500674     1.493031     1.485388
      1.477745     1.470102     1.462458     1.454815     1.447172     1.439529     1.431886     1.424243     1.416600     1.408957
      1.401314     1.393671     1.386027     1.378384     1.370741     1.363098     1.355455     1.347812     1.340169     1.332526
      1.324883     1.317240     1.309596     1.301953     1.294310     1.286667     1.279024     1.271381     1.263738     1.256095
      1.248452     1.240808     1.233165     1.225522     1.217879     1.210236     1.202593     1.194950     1.187307     1.179664
      1.172021     1.164377     1.156734     1.149091     1.141448     1.133805     1.126162     1.118519     1.110876     1.103233
      1.095590     1.087946     1.080303     1.072660     1.065017     1.057374     1.049731     1.042088     1.034445     1.026802
      1.019158     1.011515     1.003872     0.996229     0.988586     0.980943     0.973300     0.965657     0.958014     0.950371
      0.942727     0.935084     0.927441     0.919798     0.912155     0.904512     0.896869     0.889226     0.881583     0.873940
      0.866296     0.858653     0.851010     0.843367     0.835724     0.828081     0.820438     0.812795     0.805152     0.797508
      0.789865     0.782222     0.774579     0.766936     0.759293     0.751650     0.744007     0.736364     0.728721     0.721077
      0.713434     0.705791     0.698148     0.690505     0.682862     0.675219     0.667576     0.659933     0.652290     0.644646
      0.637003     0.629360     0.621717     0.614074     0.606431     0.598788     0.591145     0.583502     0.575858     0.568215
      0.560572     0.552929     0.545286     0.537643     0.530000     0.522357     0.514714     0.507071     0.499427     0.491784
      0.484141     0.476498     0.468855     0.461212     0.453569     0.445925     0.438282     0.430639     0.422996     0.415353
      0.407710     0.400067     0.392424     0.384780     0.377137     0.369494     0.361851     0.354208     0.346565     0.338922
      0.331278     0.323635     0.315992     0.308349     0.300706     0.293063     0.285420     0.277777     0.270133     0.262490
      0.254847     0.247204     0.239561     0.231918     0.224275     0.216631     0.208988     0.201345
 NY phased data points follow
  -9.92670E-01 -2.40456E+00 -7.62611E-01 -1.34876E+00 -2.18993E+00 -7.69710E-01 -1.27522E+00 -1.63712E+00 -1.92318E+00 -2.38233E+00
  -7.37952E-01 -1.54790E-01 -1.21821E+00 -1.21159E+00  8.88502E-02 -1.96915E+00 -5.32693E-01 -1.07972E+00 -3.81467E-01 -1.44290E+00
  -4.72150E-01 -1.14531E+00 -9.10627E-01 -1.16434E+00 -6.49173E-01 -1.00211E+00 -1.36305E-01  1.62893E-02 -1.22294E+00 -1.29216E+00
  -2.26617E-01 -3.23186E-01 -1.34662E+00 -8.88209E-01 -1.76183E+00 -1.84794E+00 -6.19516E-01 -9.13206E-01  7.80790E-02  3.95782E-01
  -1.02632E+00 -1.58028E+00 -3.64770E-01  4.79741E-01  2.68278E-01 -1.45618E-01 -1.58009E+00 -2.09034E+00 -1.03434E+00  4.72797E-01
  -8.62052E-01 -9.40089E-01 -1.17661E+00 -3.91906E-01 -9.39440E-01 -1.18470E+00 -7.62996E-01  1.56684E-01 -1.69753E+00 -7.89914E-01
  -5.00985E-01 -1.34829E+00 -1.36019E+00 -1.19652E+00 -1.11735E+00  3.29840E-01 -1.52157E-01 -5.36705E-01 -1.73305E+00 -1.31041E+00
  -1.78377E+00  2.80071E-01 -5.99192E-02 -1.26694E+00 -2.40148E+00 -1.77657E+00  3.56709E-01 -1.62873E+00 -4.53227E-02  2.75531E-01
  -2.57442E-01 -9.23756E-02  3.80571E-01 -1.33562E-01 -4.41647E-02 -4.53967E-01 -1.40646E+00 -3.53204E-01  6.43098E-01 -2.50819E-02
  -1.25654E+00 -6.19156E-01 -1.59653E-02 -3.55818E-01  6.85467E-01 -1.26212E+00 -1.95417E-01 -1.66705E-01 -2.29356E-01 -2.94436E-01
  -1.24721E+00 -5.95466E-01 -4.66774E-01 -1.47628E+00  6.28351E-01 -6.54469E-02  7.42715E-02  3.20682E-01  7.32473E-01 -5.12907E-01
   5.72315E-01  4.53812E-01 -2.60324E-01 -4.85489E-01 -5.61730E-01 -5.02138E-01 -8.83645E-01 -5.93147E-01 -9.08119E-02  6.51114E-01
  -6.72194E-01 -7.47787E-01  7.59857E-01 -7.92990E-01  9.03165E-01  1.08900E-01 -1.34973E-01 -2.02865E+00 -6.58780E-01  1.27906E+00
   1.02474E-01  2.02670E-01 -5.27231E-01 -6.85322E-01  1.32132E+00  2.14873E-01  1.68970E+00 -1.23591E+00  5.56242E-02 -5.27184E-01
  -3.83189E-01  7.04084E-01  4.97000E-01 -5.34517E-01 -5.23227E-01  3.28355E-01  1.39039E+00 -1.82783E-01 -3.04435E-01 -2.36618E-01
  -6.80803E-01 -2.08859E-01  2.48754E-01 -1.95697E-01  3.52749E-01 -1.10239E-01 -2.04070E-01 -8.39091E-01 -5.97412E-01 -2.19900E+00
   1.63987E+00 -1.41214E+00 -2.45978E-01  3.84758E-02 -1.90459E-01 -7.50250E-01 -1.31989E+00  8.11277E-01 -4.28332E-01  6.03565E-02
   2.46454E-02 -8.24283E-01  6.56956E-01 -2.01333E+00 -6.48135E-01  1.14695E-01 -3.89532E-01 -3.23425E-01  1.05187E+00 -7.98148E-01
  -1.27171E+00 -5.96073E-01 -1.35569E+00 -4.58796E-01 -7.68674E-01 -3.22857E-01 -6.91348E-01 -1.17954E+00  2.52557E-01 -2.90088E-01
   1.77257E-01 -4.55822E-01 -1.98466E+00  5.92143E-01 -1.58764E+00 -7.72481E-01 -2.84182E-02  7.22642E-01  1.14181E+00  1.77352E-01
   4.13870E-01  1.13067E-01  4.86157E-01 -4.61150E-02  3.17047E-01 -2.80804E-01 -3.41926E-01 -7.56841E-01  4.31372E-01  4.40623E-02
  -7.69744E-01 -4.08262E-01 -5.39037E-01 -1.09917E+00 -5.82259E-01 -1.17841E+00 -1.60748E+00 -5.64454E-01 -1.53918E-01  6.20013E-01
  -5.41336E-01 -3.26746E-01 -6.35570E-01  1.59190E+00  1.53843E-02 -2.25303E-03  3.55123E-01  2.61876E-01  5.32263E-02  3.24840E-01
  -2.13417E+00 -2.38189E-01 -2.08124E+00  1.10924E+00 -1.73598E-01 -9.26601E-01  4.87817E-01 -1.28343E+00 -2.06877E-01  4.82866E-01
  -1.35814E+00 -4.74311E-01 -9.92303E-01  4.65015E-01 -1.34576E+00  1.19043E+00 -4.89737E-01 -6.40134E-01 -8.93571E-02 -1.05804E+00
   1.48638E-01 -7.32887E-02  7.41058E-01  1.81208E-01 -6.31212E-01  8.34033E-02 -5.24324E-01 -2.15576E-01 -1.39221E-01  9.93650E-01
  -1.40156E+00  1.52060E-01 -4.45869E-01  5.58694E-01  3.67232E-01  1.35554E+00 -1.35323E+00  1.64602E-01  1.88670E+00  1.90136E+00
   7.22153E-01  2.75520E-01  1.22849E+00 -1.47456E-01 -5.92393E-01  9.10375E-01 -2.71806E-01  1.74269E-01 -3.37591E-01  1.88868E+00
   6.73531E-01 -8.17802E-01  8.28819E-01 -2.01900E-01  5.62955E-01 -6.50635E-01 -1.60143E-01  1.78822E+00 -3.84917E-01  1.58816E+00
   9.49746E-02  1.03255E+00  3.37311E-01  6.41095E-01 -1.79359E-01  2.04302E+00 -1.21133E-01  1.22578E+00  5.43803E-01 -1.31514E+00
   3.60598E-01  7.43601E-01  1.79900E+00  1.53643E+00  4.89243E-01  5.85091E-01  1.70300E+00  1.01415E+00  1.55496E+00  1.63701E+00
   2.99360E+00  1.78416E+00  1.03324E+00  1.11047E-01  1.00503E+00  1.36630E+00  1.29328E+00  1.48225E-01  1.91193E+00  1.57278E+00
   2.39533E+00  2.64092E+00  1.23198E+00  2.80224E+00  2.64688E+00  3.83144E+00  3.12637E+00  2.07747E+00  8.92772E-01  1.95013E+00
   2.52748E+00  3.50573E+00  2.03007E+00  2.02050E+00  2.34689E+00  2.19099E+00  2.81627E+00  2.76225E+00  2.43086E+00  2.30987E+00
   2.86711E+00  4.12150E+00  4.61680E+00  3.74524E+00  5.28661E+00  5.04109E+00  3.64241E+00  4.13977E+00  6.19383E+00  4.45082E+00
   5.89133E+00  5.15152E+00  4.34417E+00  5.98417E+00  6.44322E+00  5.96315E+00  6.65391E+00  5.10125E+00  6.59385E+00  6.36091E+00
   5.50513E+00  5.17221E+00  6.07978E+00  6.72523E+00  6.96695E+00  5.02119E+00  5.98393E+00  6.58134E+00  4.34143E+00  6.56165E+00
   4.79158E+00  7.01016E+00  5.80913E+00  5.69572E+00  5.66161E+00  4.05479E+00  5.16548E+00  4.71474E+00  5.80801E+00  4.41731E+00
   3.80018E+00  4.08308E+00  3.87749E+00  2.73111E+00  3.41097E+00  3.97787E+00  3.16455E+00  2.21681E+00  2.78216E+00  2.19912E+00
   2.52668E+00  1.89411E+00  1.92228E+00  3.54680E+00  2.33488E+00  1.21634E+00  2.31468E+00  1.10949E+00  1.83518E+00  1.66567E+00
   2.31691E+00  2.36995E+00  1.08359E+00  9.11717E-01  2.29897E+00  9.13212E-01  2.73353E+00  1.95403E+00  2.89133E+00  9.42784E-01
   3.03895E+00  1.42061E+00  1.68740E+00  1.03274E+00  2.73031E+00  9.39455E-01  1.37698E+00 -5.57291E-01  4.59518E-01  1.72559E+00
   3.51566E+00  5.00805E-02  1.07409E+00  1.49436E+00  6.21297E-01  2.31070E-01  8.66513E-01 -5.28520E-02  1.14205E+00  1.45794E+00
   9.35204E-01  2.19872E+00  2.06339E+00  1.15012E+00  4.92830E-01  6.79210E-01  4.64129E-01  1.89870E+00  3.65158E-01  1.99686E+00
   1.70890E+00 -7.21771E-01  8.42370E-01  9.62970E-01  6.45600E-01  1.62403E-01  1.56798E-01  3.75785E-01  2.10452E+00  1.54831E+00
   2.70185E-02  3.99802E-01  1.70367E+00  7.96600E-01  1.79999E+00  7.41486E-03 -6.51100E-01  3.07238E-01  1.22385E+00  7.65361E-01
   1.56718E+00  1.52799E+00  1.02540E+00  2.13536E-01  1.01770E+00  1.90999E+00  1.24917E+00  1.81198E+00  1.68508E+00  1.07124E+00
  -4.87226E-01  5.53942E-02  7.11539E-01  8.15306E-01  1.45026E+00  5.47862E-01  8.77988E-01  1.03036E+00  1.02371E+00  1.31021E+00
   4.23556E-01  1.74262E+00  7.42204E-01  3.19490E-01  1.01259E+00  8.45509E-01  1.10758E+00  8.94933E-01  1.20966E+00  1.03725E+00
   1.96014E+00  1.87085E+00  6.83219E-01  9.25323E-01  1.55121E+00  1.50013E+00  1.62017E+00  1.72232E+00
 NY points of the fit to the data follow
  -9.70351E-01 -9.65501E-01 -9.60157E-01 -9.55814E-01 -9.55518E-01 -9.57777E-01 -9.53274E-01 -9.36042E-01 -9.09798E-01 -8.79878E-01
  -8.50987E-01 -8.26710E-01 -8.10087E-01 -8.04674E-01 -8.12386E-01 -8.32937E-01 -8.61988E-01 -8.86613E-01 -8.93889E-01 -8.85036E-01
  -8.67574E-01 -8.47357E-01 -8.31830E-01 -8.24695E-01 -8.25315E-01 -8.25929E-01 -8.22273E-01 -8.15015E-01 -8.04123E-01 -7.87802E-01
  -7.67262E-01 -7.45697E-01 -7.27038E-01 -7.20062E-01 -7.28280E-01 -7.45891E-01 -7.64738E-01 -7.76454E-01 -7.85761E-01 -7.95590E-01
  -8.02440E-01 -8.04356E-01 -8.03979E-01 -8.02706E-01 -8.00215E-01 -7.95826E-01 -7.89421E-01 -7.82909E-01 -7.77501E-01 -7.72106E-01
  -7.66796E-01 -7.61484E-01 -7.56323E-01 -7.51421E-01 -7.46502E-01 -7.41803E-01 -7.37739E-01 -7.34299E-01 -7.31569E-01 -7.29058E-01
  -7.26006E-01 -7.22429E-01 -7.18451E-01 -7.14282E-01 -7.10042E-01 -7.05917E-01 -7.02012E-01 -6.98271E-01 -6.94607E-01 -6.90986E-01
  -6.87086E-01 -6.82548E-01 -6.77471E-01 -6.72133E-01 -6.66911E-01 -6.62233E-01 -6.58193E-01 -6.54797E-01 -6.51859E-01 -6.49066E-01
  -6.46021E-01 -6.41795E-01 -6.35711E-01 -6.28326E-01 -6.20803E-01 -6.13967E-01 -6.08260E-01 -6.03837E-01 -6.00677E-01 -5.98674E-01
  -5.97639E-01 -5.97084E-01 -5.96049E-01 -5.93274E-01 -5.88553E-01 -5.82420E-01 -5.74507E-01 -5.62199E-01 -5.31522E-01 -4.63478E-01
  -3.69563E-01 -2.70325E-01 -1.83578E-01 -1.22265E-01 -9.43885E-02 -1.03800E-01 -1.50487E-01 -2.29603E-01 -3.28387E-01 -4.23866E-01
  -4.85718E-01 -5.03891E-01 -5.06316E-01 -5.05198E-01 -5.02714E-01 -4.99632E-01 -4.96371E-01 -4.93009E-01 -4.89480E-01 -4.85450E-01
  -4.80012E-01 -4.70088E-01 -4.45130E-01 -4.02126E-01 -3.50106E-01 -2.98777E-01 -2.56136E-01 -2.27641E-01 -2.15521E-01 -2.20442E-01
  -2.43409E-01 -2.82623E-01 -3.30906E-01 -3.75522E-01 -4.02033E-01 -4.14066E-01 -4.21367E-01 -4.24211E-01 -4.22020E-01 -4.14335E-01
  -4.01203E-01 -3.85053E-01 -3.70716E-01 -3.60892E-01 -3.56016E-01 -3.55509E-01 -3.57225E-01 -3.58982E-01 -3.59624E-01 -3.58641E-01
  -3.57141E-01 -3.55361E-01 -3.53128E-01 -3.50319E-01 -3.47009E-01 -3.43285E-01 -3.39080E-01 -3.34597E-01 -3.30038E-01 -3.25561E-01
  -3.21335E-01 -3.17462E-01 -3.13741E-01 -3.09719E-01 -3.05220E-01 -3.00375E-01 -2.95364E-01 -2.90292E-01 -2.85076E-01 -2.79739E-01
  -2.74510E-01 -2.69675E-01 -2.65383E-01 -2.61590E-01 -2.58079E-01 -2.54768E-01 -2.51650E-01 -2.48657E-01 -2.45669E-01 -2.42386E-01
  -2.38946E-01 -2.35623E-01 -2.32452E-01 -2.29300E-01 -2.25687E-01 -2.20634E-01 -2.13192E-01 -2.03136E-01 -1.91482E-01 -1.80169E-01
  -1.70839E-01 -1.65203E-01 -1.65409E-01 -1.71953E-01 -1.82078E-01 -1.92073E-01 -1.97847E-01 -1.95633E-01 -1.84117E-01 -1.65025E-01
  -1.41331E-01 -1.16767E-01 -9.50963E-02 -8.04111E-02 -7.61331E-02 -8.37119E-02 -9.85981E-02 -1.14316E-01 -1.26079E-01 -1.31217E-01
  -1.29272E-01 -1.20682E-01 -1.05739E-01 -8.64811E-02 -6.59830E-02 -4.74671E-02 -3.42727E-02 -2.79722E-02 -2.45998E-02 -2.03532E-02
  -1.52583E-02 -9.93498E-03 -4.58902E-03  6.58216E-04  5.59170E-03  9.83535E-03  1.24732E-02  1.27369E-02  1.15333E-02  1.05057E-02
   1.06422E-02  1.16306E-02  1.47685E-02  2.20936E-02  3.31583E-02  4.65746E-02  6.12626E-02  7.49669E-02  8.37458E-02  8.62892E-02
   8.44876E-02  8.02694E-02  7.44316E-02  6.83576E-02  6.59369E-02  6.91780E-02  7.69793E-02  8.89630E-02  1.04561E-01  1.20873E-01
   1.34610E-01  1.45551E-01  1.54394E-01  1.61823E-01  1.67629E-01  1.71975E-01  1.75442E-01  1.79183E-01  1.84261E-01  1.90689E-01
   1.98257E-01  2.06826E-01  2.16193E-01  2.25895E-01  2.35467E-01  2.44697E-01  2.53270E-01  2.61449E-01  2.69540E-01  2.77736E-01
   2.86178E-01  2.95011E-01  3.04324E-01  3.14064E-01  3.24133E-01  3.34438E-01  3.44819E-01  3.55157E-01  3.65482E-01  3.75840E-01
   3.86315E-01  3.97046E-01  4.08162E-01  4.19783E-01  4.31966E-01  4.44667E-01  4.57848E-01  4.71490E-01  4.85546E-01  4.99969E-01
   5.14748E-01  5.29897E-01  5.45485E-01  5.61580E-01  5.78214E-01  5.95419E-01  6.13246E-01  6.31737E-01  6.50916E-01  6.70811E-01
   6.91463E-01  7.12902E-01  7.35175E-01  7.58338E-01  7.82457E-01  8.07604E-01  8.33866E-01  8.61336E-01  8.90126E-01  9.20355E-01
   9.52165E-01  9.85709E-01  1.02117E+00  1.05876E+00  1.09873E+00  1.14136E+00  1.18705E+00  1.23624E+00  1.28963E+00  1.34821E+00
   1.41380E+00  1.49041E+00  1.58600E+00  1.69377E+00  1.79163E+00  1.86697E+00  1.91562E+00  1.93887E+00  1.94079E+00  1.92685E+00
   1.91684E+00  1.94564E+00  2.03400E+00  2.19080E+00  2.41020E+00  2.65907E+00  2.90458E+00  3.13793E+00  3.35197E+00  3.53974E+00
   3.69837E+00  3.83604E+00  3.98005E+00  4.14982E+00  4.33207E+00  4.51664E+00  4.69864E+00  4.87538E+00  5.04503E+00  5.20669E+00
   5.36363E+00  5.51936E+00  5.67466E+00  5.82870E+00  5.97798E+00  6.11357E+00  6.22724E+00  6.31585E+00  6.37698E+00  6.40882E+00
   6.41114E+00  6.38680E+00  6.34209E+00  6.27918E+00  6.19723E+00  6.09675E+00  5.97904E+00  5.84578E+00  5.69892E+00  5.54053E+00
   5.37279E+00  5.19789E+00  5.01796E+00  4.83507E+00  4.65116E+00  4.46800E+00  4.28721E+00  4.11020E+00  3.93820E+00  3.77223E+00
   3.61313E+00  3.46154E+00  3.31797E+00  3.18275E+00  3.05607E+00  2.93802E+00  2.82857E+00  2.72760E+00  2.63491E+00  2.55025E+00
   2.47326E+00  2.40356E+00  2.34070E+00  2.28420E+00  2.23351E+00  2.18805E+00  2.14721E+00  2.11035E+00  2.07681E+00  2.04594E+00
   2.01707E+00  1.98956E+00  1.96283E+00  1.93633E+00  1.90958E+00  1.88219E+00  1.85384E+00  1.82432E+00  1.79351E+00  1.76140E+00
   1.72805E+00  1.69360E+00  1.65826E+00  1.62229E+00  1.58600E+00  1.54968E+00  1.51367E+00  1.47825E+00  1.44371E+00  1.41029E+00
   1.37820E+00  1.34760E+00  1.31862E+00  1.29134E+00  1.26578E+00  1.24196E+00  1.21985E+00  1.19940E+00  1.18054E+00  1.16319E+00
   1.14727E+00  1.13267E+00  1.11930E+00  1.10706E+00  1.09587E+00  1.08564E+00  1.07628E+00  1.06772E+00  1.05990E+00  1.05274E+00
   1.04620E+00  1.04023E+00  1.03476E+00  1.02978E+00  1.02523E+00  1.02108E+00  1.01732E+00  1.01389E+00  1.01080E+00  1.00800E+00
   1.00549E+00  1.00324E+00  1.00123E+00  9.99461E-01  9.97908E-01  9.96562E-01  9.95410E-01  9.94441E-01  9.93646E-01  9.93015E-01
   9.92542E-01  9.92216E-01  9.92032E-01  9.91982E-01  9.92059E-01  9.92258E-01  9.92575E-01  9.93002E-01  9.93536E-01  9.94170E-01
   9.94902E-01  9.95727E-01  9.96642E-01  9.97642E-01  9.98725E-01  9.99885E-01  1.00112E+00  1.00243E+00  1.00381E+00  1.00526E+00
   1.00677E+00  1.00835E+00  1.00998E+00  1.01168E+00  1.01343E+00  1.01523E+00  1.01708E+00  1.01899E+00  1.02095E+00  1.02295E+00
   1.02499E+00  1.02709E+00  1.02922E+00  1.03140E+00  1.03361E+00  1.03587E+00  1.03816E+00  1.04049E+00
 NY background values follow
    -9.871E-01   -9.832E-01   -9.793E-01   -9.755E-01   -9.716E-01   -9.677E-01   -9.639E-01   -9.600E-01   -9.561E-01   -9.522E-01
    -9.484E-01   -9.445E-01   -9.406E-01   -9.368E-01   -9.329E-01   -9.290E-01   -9.251E-01   -9.213E-01   -9.174E-01   -9.135E-01
    -9.096E-01   -9.058E-01   -9.019E-01   -8.980E-01   -8.942E-01   -8.903E-01   -8.864E-01   -8.825E-01   -8.787E-01   -8.748E-01
    -8.709E-01   -8.671E-01   -8.632E-01   -8.593E-01   -8.554E-01   -8.516E-01   -8.477E-01   -8.438E-01   -8.400E-01   -8.361E-01
    -8.322E-01   -8.283E-01   -8.245E-01   -8.206E-01   -8.167E-01   -8.128E-01   -8.090E-01   -8.051E-01   -8.012E-01   -7.974E-01
    -7.935E-01   -7.896E-01   -7.857E-01   -7.819E-01   -7.780E-01   -7.741E-01   -7.703E-01   -7.664E-01   -7.625E-01   -7.586E-01
    -7.548E-01   -7.509E-01   -7.470E-01   -7.431E-01   -7.393E-01   -7.354E-01   -7.315E-01   -7.277E-01   -7.238E-01   -7.199E-01
    -7.160E-01   -7.122E-01   -7.083E-01   -7.044E-01   -7.006E-01   -6.967E-01   -6.928E-01   -6.889E-01   -6.851E-01   -6.812E-01
    -6.773E-01   -6.735E-01   -6.696E-01   -6.657E-01   -6.618E-01   -6.580E-01   -6.541E-01   -6.502E-01   -6.463E-01   -6.425E-01
    -6.386E-01   -6.347E-01   -6.309E-01   -6.270E-01   -6.231E-01   -6.192E-01   -6.154E-01   -6.115E-01   -6.076E-01   -6.038E-01
    -5.999E-01   -5.960E-01   -5.921E-01   -5.883E-01   -5.844E-01   -5.805E-01   -5.767E-01   -5.728E-01   -5.689E-01   -5.650E-01
    -5.612E-01   -5.573E-01   -5.534E-01   -5.495E-01   -5.457E-01   -5.418E-01   -5.379E-01   -5.341E-01   -5.302E-01   -5.263E-01
    -5.224E-01   -5.186E-01   -5.147E-01   -5.108E-01   -5.070E-01   -5.031E-01   -4.992E-01   -4.953E-01   -4.915E-01   -4.876E-01
    -4.837E-01   -4.799E-01   -4.760E-01   -4.721E-01   -4.682E-01   -4.644E-01   -4.605E-01   -4.566E-01   -4.527E-01   -4.489E-01
    -4.450E-01   -4.411E-01   -4.373E-01   -4.334E-01   -4.295E-01   -4.256E-01   -4.218E-01   -4.179E-01   -4.140E-01   -4.102E-01
    -4.063E-01   -4.024E-01   -3.985E-01   -3.947E-01   -3.908E-01   -3.869E-01   -3.831E-01   -3.792E-01   -3.753E-01   -3.714E-01
    -3.676E-01   -3.637E-01   -3.598E-01   -3.560E-01   -3.521E-01   -3.482E-01   -3.443E-01   -3.405E-01   -3.366E-01   -3.327E-01
    -3.288E-01   -3.250E-01   -3.211E-01   -3.172E-01   -3.134E-01   -3.095E-01   -3.056E-01   -3.017E-01   -2.979E-01   -2.940E-01
    -2.901E-01   -2.863E-01   -2.824E-01   -2.785E-01   -2.746E-01   -2.708E-01   -2.669E-01   -2.630E-01   -2.592E-01   -2.553E-01
    -2.514E-01   -2.475E-01   -2.437E-01   -2.398E-01   -2.359E-01   -2.321E-01   -2.282E-01   -2.243E-01   -2.204E-01   -2.166E-01
    -2.127E-01   -2.088E-01   -2.049E-01   -2.011E-01   -1.972E-01   -1.933E-01   -1.895E-01   -1.856E-01   -1.817E-01   -1.778E-01
    -1.740E-01   -1.701E-01   -1.662E-01   -1.624E-01   -1.585E-01   -1.546E-01   -1.507E-01   -1.469E-01   -1.430E-01   -1.391E-01
    -1.353E-01   -1.314E-01   -1.275E-01   -1.236E-01   -1.198E-01   -1.159E-01   -1.120E-01   -1.081E-01   -1.043E-01   -1.004E-01
    -9.653E-02   -9.266E-02   -8.879E-02   -8.492E-02   -8.104E-02   -7.717E-02   -7.330E-02   -6.943E-02   -6.556E-02   -6.168E-02
    -5.781E-02   -5.394E-02   -5.007E-02   -4.620E-02   -4.232E-02   -3.845E-02   -3.458E-02   -3.071E-02   -2.684E-02   -2.297E-02
    -1.909E-02   -1.522E-02   -1.135E-02   -7.477E-03   -3.605E-03    2.668E-04    4.139E-03    8.011E-03    1.188E-02    1.575E-02
     1.963E-02    2.350E-02    2.737E-02    3.124E-02    3.511E-02    3.899E-02    4.286E-02    4.673E-02    5.060E-02    5.447E-02
     5.835E-02    6.222E-02    6.609E-02    6.996E-02    7.383E-02    7.771E-02    8.158E-02    8.545E-02    8.932E-02    9.319E-02
     9.707E-02    1.009E-01    1.048E-01    1.087E-01    1.126E-01    1.164E-01    1.203E-01    1.242E-01    1.280E-01    1.319E-01
     1.358E-01    1.397E-01    1.435E-01    1.474E-01    1.513E-01    1.551E-01    1.590E-01    1.629E-01    1.668E-01    1.706E-01
     1.745E-01    1.784E-01    1.823E-01    1.861E-01    1.900E-01    1.939E-01    1.977E-01    2.016E-01    2.055E-01    2.094E-01
     2.132E-01    2.171E-01    2.210E-01    2.248E-01    2.287E-01    2.326E-01    2.365E-01    2.403E-01    2.442E-01    2.481E-01
     2.519E-01    2.558E-01    2.597E-01    2.636E-01    2.674E-01    2.713E-01    2.752E-01    2.790E-01    2.829E-01    2.868E-01
     2.907E-01    2.945E-01    2.984E-01    3.023E-01    3.062E-01    3.100E-01    3.139E-01    3.178E-01    3.216E-01    3.255E-01
     3.294E-01    3.333E-01    3.371E-01    3.410E-01    3.449E-01    3.487E-01    3.526E-01    3.565E-01    3.604E-01    3.642E-01
     3.681E-01    3.720E-01    3.758E-01    3.797E-01    3.836E-01    3.875E-01    3.913E-01    3.952E-01    3.991E-01    4.030E-01
     4.068E-01    4.107E-01    4.146E-01    4.184E-01    4.223E-01    4.262E-01    4.301E-01    4.339E-01    4.378E-01    4.417E-01
     4.455E-01    4.494E-01    4.533E-01    4.572E-01    4.610E-01    4.649E-01    4.688E-01    4.726E-01    4.765E-01    4.804E-01
     4.843E-01    4.881E-01    4.920E-01    4.959E-01    4.997E-01    5.036E-01    5.075E-01    5.114E-01    5.152E-01    5.191E-01
     5.230E-01    5.269E-01    5.307E-01    5.346E-01    5.385E-01    5.423E-01    5.462E-01    5.501E-01    5.540E-01    5.578E-01
     5.617E-01    5.656E-01    5.694E-01    5.733E-01    5.772E-01    5.811E-01    5.849E-01    5.888E-01    5.927E-01    5.965E-01
     6.004E-01    6.043E-01    6.082E-01    6.120E-01    6.159E-01    6.198E-01    6.236E-01    6.275E-01    6.314E-01    6.353E-01
     6.391E-01    6.430E-01    6.469E-01    6.508E-01    6.546E-01    6.585E-01    6.624E-01    6.662E-01    6.701E-01    6.740E-01
     6.779E-01    6.817E-01    6.856E-01    6.895E-01    6.933E-01    6.972E-01    7.011E-01    7.050E-01    7.088E-01    7.127E-01
     7.166E-01    7.204E-01    7.243E-01    7.282E-01    7.321E-01    7.359E-01    7.398E-01    7.437E-01    7.475E-01    7.514E-01
     7.553E-01    7.592E-01    7.630E-01    7.669E-01    7.708E-01    7.747E-01    7.785E-01    7.824E-01    7.863E-01    7.901E-01
     7.940E-01    7.979E-01    8.018E-01    8.056E-01    8.095E-01    8.134E-01    8.172E-01    8.211E-01    8.250E-01    8.289E-01
     8.327E-01    8.366E-01    8.405E-01    8.443E-01    8.482E-01    8.521E-01    8.560E-01    8.598E-01    8.637E-01    8.676E-01
     8.715E-01    8.753E-01    8.792E-01    8.831E-01    8.869E-01    8.908E-01    8.947E-01    8.986E-01    9.024E-01    9.063E-01
     9.102E-01    9.140E-01    9.179E-01    9.218E-01    9.257E-01    9.295E-01    9.334E-01    9.373E-01
 Ala      Conc. = 2.04E+01
