 LCModel (Version 6.3-1L) Copyright: S.W. Provencher.          Ref.: Magn. Reson. Med. 30:672-679 (1993).                
 Slice#2 Row#3 Col#7  PD_05_press_1_raw_act
 36 lines in following concentration table = NCONC+1
    Conc.  %SD /Cr+PCr  Metabolite                                         
   70.308 169% 4.2E-02 Ala                                                 
    0.000 999%   0.000 Asp                                                 
  476.666  42%   0.281 Cr                                                  
 1.22E+03  17%   0.719 PCr                                                 
  133.491 121% 7.9E-02 GABA                                                
    0.000 999%   0.000 Glc                                                 
 1.15E+03  19%   0.680 Gln                                                 
 1.65E+03  16%   0.975 Glu                                                 
  582.220   4%   0.344 GPC                                                 
    0.000 999%   0.000 PCh                                                 
  641.320  11%   0.379 GSH                                                 
 2.06E+03  13%   1.214 Ins                                                 
  262.237  45%   0.155 Lac                                                 
 2.30E+03   3%   1.360 NAA                                                 
    0.000 999%   0.000 NAAG                                                
  138.390  19% 8.2E-02 Scyllo                                              
    0.000 999%   0.000 Tau                                                 
  137.598  78% 8.1E-02 -CrCH2                                              
  582.220   4%   0.344 GPC+PCh                                             
 2.30E+03   3%   1.360 NAA+NAAG                                            
 1.69E+03   3%   1.000 Cr+PCr                                              
 2.80E+03  13%   1.655 Glu+Gln                                             
 1.04E+03  34%   0.613 Lip13a                                              
    0.000 999%   0.000 Lip13b                                              
    0.000 999%   0.000 Lip09                                               
 1.69E+03  12%   1.000 MM09                                                
  178.133  72%   0.105 Lip20                                               
 3.66E+03  11%   2.162 MM20                                                
  560.643  28%   0.331 MM12                                                
 5.51E+03   3%   3.252+MM14                                                
 1.72E+03  17%   1.017 MM17                                                
 1.04E+03  34%   0.613 Lip13a+Lip13b                                       
 7.11E+03   5%   4.196 MM14+Lip13a+Lip13b+MM12                             
 1.69E+03  12%   1.000 MM09+Lip09                                          
 3.84E+03  10%   2.268 MM20+Lip20                                          
   6 lines in following misc. output table
  FWHM = 0.046 ppm    S/N =  14                                            
  Data shift =-0.023 ppm                                                   
  Ph: -21 deg      -9.4 deg/ppm                                            
  alphaB,S = 9.6E-01,   9.5E+01                                            
   14 spline knots.   Ns = 8(1)                                            
  (13) 4 infls.   ( 7) 3 extrs.                                            
  498 points on ppm-axis = NY
      4.000000     3.992357     3.984714     3.977070     3.969427     3.961784     3.954141     3.946497     3.938854     3.931211
      3.923568     3.915925     3.908281     3.900638     3.892995     3.885352     3.877708     3.870065     3.862422     3.854779
      3.847136     3.839492     3.831849     3.824206     3.816563     3.808919     3.801276     3.793633     3.785990     3.778347
      3.770703     3.763060     3.755417     3.747774     3.740130     3.732487     3.724844     3.717201     3.709558     3.701914
      3.694271     3.686628     3.678985     3.671341     3.663698     3.656055     3.648412     3.640769     3.633125     3.625482
      3.617839     3.610196     3.602552     3.594909     3.587266     3.579623     3.571980     3.564336     3.556693     3.549050
      3.541407     3.533763     3.526120     3.518477     3.510834     3.503191     3.495547     3.487904     3.480261     3.472618
      3.464974     3.457331     3.449688     3.442045     3.434402     3.426758     3.419115     3.411472     3.403829     3.396185
      3.388542     3.380899     3.373256     3.365613     3.357969     3.350326     3.342683     3.335040     3.327396     3.319753
      3.312110     3.304467     3.296824     3.289180     3.281537     3.273894     3.266251     3.258607     3.250964     3.243321
      3.235678     3.228034     3.220391     3.212748     3.205105     3.197462     3.189818     3.182175     3.174532     3.166889
      3.159245     3.151602     3.143959     3.136316     3.128673     3.121029     3.113386     3.105743     3.098100     3.090456
      3.082813     3.075170     3.067527     3.059884     3.052240     3.044597     3.036954     3.029311     3.021667     3.014024
      3.006381     2.998738     2.991095     2.983451     2.975808     2.968165     2.960522     2.952878     2.945235     2.937592
      2.929949     2.922306     2.914662     2.907019     2.899376     2.891733     2.884089     2.876446     2.868803     2.861160
      2.853517     2.845873     2.838230     2.830587     2.822944     2.815300     2.807657     2.800014     2.792371     2.784728
      2.777084     2.769441     2.761798     2.754155     2.746511     2.738868     2.731225     2.723582     2.715939     2.708295
      2.700652     2.693009     2.685366     2.677722     2.670079     2.662436     2.654793     2.647150     2.639506     2.631863
      2.624220     2.616577     2.608933     2.601290     2.593647     2.586004     2.578361     2.570717     2.563074     2.555431
      2.547788     2.540144     2.532501     2.524858     2.517215     2.509572     2.501928     2.494285     2.486642     2.478999
      2.471355     2.463712     2.456069     2.448426     2.440783     2.433139     2.425496     2.417853     2.410210     2.402566
      2.394923     2.387280     2.379637     2.371994     2.364350     2.356707     2.349064     2.341421     2.333777     2.326134
      2.318491     2.310848     2.303205     2.295561     2.287918     2.280275     2.272632     2.264988     2.257345     2.249702
      2.242059     2.234416     2.226772     2.219129     2.211486     2.203843     2.196199     2.188556     2.180913     2.173270
      2.165627     2.157983     2.150340     2.142697     2.135054     2.127410     2.119767     2.112124     2.104481     2.096838
      2.089194     2.081551     2.073908     2.066265     2.058621     2.050978     2.043335     2.035692     2.028049     2.020405
      2.012762     2.005119     1.997476     1.989833     1.982190     1.974546     1.966903     1.959260     1.951617     1.943974
      1.936331     1.928688     1.921045     1.913402     1.905759     1.898115     1.890472     1.882829     1.875186     1.867543
      1.859900     1.852257     1.844614     1.836971     1.829327     1.821684     1.814041     1.806398     1.798755     1.791112
      1.783469     1.775826     1.768183     1.760540     1.752896     1.745253     1.737610     1.729967     1.722324     1.714681
      1.707038     1.699395     1.691752     1.684108     1.676465     1.668822     1.661179     1.653536     1.645893     1.638250
      1.630607     1.622964     1.615321     1.607677     1.600034     1.592391     1.584748     1.577105     1.569462     1.561819
      1.554176     1.546533     1.538890     1.531246     1.523603     1.515960     1.508317     1.500674     1.493031     1.485388
      1.477745     1.470102     1.462458     1.454815     1.447172     1.439529     1.431886     1.424243     1.416600     1.408957
      1.401314     1.393671     1.386027     1.378384     1.370741     1.363098     1.355455     1.347812     1.340169     1.332526
      1.324883     1.317240     1.309596     1.301953     1.294310     1.286667     1.279024     1.271381     1.263738     1.256095
      1.248452     1.240808     1.233165     1.225522     1.217879     1.210236     1.202593     1.194950     1.187307     1.179664
      1.172021     1.164377     1.156734     1.149091     1.141448     1.133805     1.126162     1.118519     1.110876     1.103233
      1.095590     1.087946     1.080303     1.072660     1.065017     1.057374     1.049731     1.042088     1.034445     1.026802
      1.019158     1.011515     1.003872     0.996229     0.988586     0.980943     0.973300     0.965657     0.958014     0.950371
      0.942727     0.935084     0.927441     0.919798     0.912155     0.904512     0.896869     0.889226     0.881583     0.873940
      0.866296     0.858653     0.851010     0.843367     0.835724     0.828081     0.820438     0.812795     0.805152     0.797508
      0.789865     0.782222     0.774579     0.766936     0.759293     0.751650     0.744007     0.736364     0.728721     0.721077
      0.713434     0.705791     0.698148     0.690505     0.682862     0.675219     0.667576     0.659933     0.652290     0.644646
      0.637003     0.629360     0.621717     0.614074     0.606431     0.598788     0.591145     0.583502     0.575858     0.568215
      0.560572     0.552929     0.545286     0.537643     0.530000     0.522357     0.514714     0.507071     0.499427     0.491784
      0.484141     0.476498     0.468855     0.461212     0.453569     0.445925     0.438282     0.430639     0.422996     0.415353
      0.407710     0.400067     0.392424     0.384780     0.377137     0.369494     0.361851     0.354208     0.346565     0.338922
      0.331278     0.323635     0.315992     0.308349     0.300706     0.293063     0.285420     0.277777     0.270133     0.262490
      0.254847     0.247204     0.239561     0.231918     0.224275     0.216631     0.208988     0.201345
 NY phased data points follow
   1.71787E+01  1.86385E+01  2.24336E+01  2.40380E+01  2.27202E+01  3.21983E+01  3.63796E+01  4.25702E+01  4.91740E+01  5.01354E+01
   4.94620E+01  4.74848E+01  4.64623E+01  4.15542E+01  3.76065E+01  3.30073E+01  2.44724E+01  2.85260E+01  2.09273E+01  2.26058E+01
   2.39543E+01  2.14827E+01  2.33990E+01  2.16731E+01  2.45194E+01  2.61176E+01  2.54818E+01  2.86654E+01  3.32433E+01  3.23118E+01
   3.06906E+01  3.27449E+01  2.85832E+01  2.49391E+01  2.31644E+01  2.34311E+01  2.46844E+01  2.45364E+01  2.59309E+01  2.62180E+01
   2.66326E+01  2.60565E+01  2.71510E+01  2.32764E+01  2.86241E+01  3.19632E+01  3.18951E+01  3.21255E+01  3.11783E+01  2.61124E+01
   2.31619E+01  2.39557E+01  1.82780E+01  2.17638E+01  2.07263E+01  2.33904E+01  2.15360E+01  2.09651E+01  2.10835E+01  2.08027E+01
   1.96285E+01  1.81380E+01  1.17350E+01  1.48731E+01  1.33182E+01  1.26526E+01  1.17085E+01  1.06283E+01  1.39087E+01  1.52095E+01
   1.05363E+01  1.34668E+01  1.25682E+01  1.36601E+01  1.41395E+01  1.54250E+01  1.62096E+01  1.53433E+01  1.01698E+01  1.04754E+01
   1.10524E+01  1.25985E+01  9.07898E+00  1.31191E+01  1.72034E+01  1.64521E+01  1.57120E+01  1.12649E+01  1.20930E+01  1.63111E+01
   1.31602E+01  1.90393E+01  1.45621E+01  1.52202E+01  1.85000E+01  1.54367E+01  1.55667E+01  1.43805E+01  1.96391E+01  3.47498E+01
   4.25903E+01  5.64521E+01  6.01560E+01  6.20195E+01  5.33142E+01  4.53811E+01  3.47480E+01  3.04713E+01  2.91917E+01  2.04156E+01
   1.70842E+01  1.41577E+01  1.52532E+01  1.24001E+01  1.23129E+01  8.71199E+00  1.11541E+01  1.27283E+01  1.37044E+01  1.78945E+01
   1.41618E+01  1.69542E+01  1.82821E+01  3.30708E+01  4.74822E+01  5.66570E+01  6.30470E+01  6.55333E+01  6.14227E+01  5.26090E+01
   4.39006E+01  3.52936E+01  2.88342E+01  2.43645E+01  1.84375E+01  1.20581E+01  9.50426E+00  7.08121E+00  7.21877E+00  7.77644E+00
   1.38855E+01  1.14073E+01  5.18681E+00  1.15036E+01  9.24307E+00  9.11831E+00  8.42387E+00  8.39665E+00  9.69155E+00  7.49608E+00
   7.90349E+00  1.01071E+01  7.72155E+00  6.88987E+00  7.77068E+00  5.69585E+00  1.12753E+01  8.65926E+00  7.93342E+00  1.04854E+01
   3.20952E+00  3.88897E+00  1.19702E+00  3.81940E+00  7.08936E+00  9.22230E+00  4.76844E+00  7.30221E+00  6.75369E+00  4.86035E+00
   2.30983E+00  4.30215E+00  1.59181E+00  9.04109E-01 -6.63559E+00 -3.91583E+00  7.84362E-01 -2.58639E+00 -9.77298E-01  6.95046E-01
  -9.11199E-01 -3.74700E+00 -3.02969E+00 -1.95247E+00 -4.39892E+00 -2.55376E+00 -3.56781E+00  2.30618E+00  4.63568E+00  2.93314E+00
   7.09655E+00  1.07042E+01  9.41728E+00  6.34686E+00  7.90547E+00  1.04540E+01  7.99518E+00  7.53190E+00  8.52488E+00  8.46936E+00
   7.09167E+00  1.04844E+01  1.16962E+01  8.64663E+00  1.22333E+01  1.01105E+01  9.41405E+00  4.08157E+00  4.40399E+00  2.16576E+00
   3.46068E+00  6.17076E+00  1.10073E+01  1.28493E+01  1.45964E+01  1.76570E+01  1.76507E+01  2.05819E+01  1.25720E+01  7.76684E+00
   6.41892E+00  5.13294E+00  6.64770E+00  1.14777E+01  1.12044E+01  1.19140E+01  1.56544E+01  1.27767E+01  1.70444E+01  1.46062E+01
   1.53992E+01  1.10738E+01  1.08472E+01  1.47187E+01  1.44899E+01  1.64309E+01  1.54526E+01  1.40768E+01  1.65025E+01  1.28401E+01
   1.25913E+01  1.31173E+01  1.16919E+01  1.91365E+01  1.46639E+01  1.44864E+01  1.84495E+01  2.07162E+01  1.64277E+01  2.10026E+01
   2.55140E+01  2.76540E+01  3.55258E+01  3.23287E+01  3.24195E+01  3.23530E+01  4.64505E+01  6.70157E+01  7.89224E+01  8.75393E+01
   8.88075E+01  8.43515E+01  7.42770E+01  6.09184E+01  5.17462E+01  4.54364E+01  3.34473E+01  2.83954E+01  2.44231E+01  2.07752E+01
   1.99192E+01  1.62304E+01  1.98936E+01  1.74003E+01  1.91655E+01  1.78370E+01  1.23551E+01  1.59937E+01  1.16222E+01  1.33388E+01
   1.00615E+01  1.17755E+01  1.11537E+01  8.21732E+00  1.17714E+01  8.79820E+00  1.32831E+01  1.15177E+01  8.30568E+00  1.22536E+01
   1.50685E+01  7.93920E+00  9.18378E+00  1.30334E+01  1.02805E+01  1.16089E+01  8.10732E+00  9.68023E+00  1.25625E+01  9.28590E+00
   1.23112E+01  1.10300E+01  1.25047E+01  1.25470E+01  1.61960E+01  1.78202E+01  1.59177E+01  1.88504E+01  2.10864E+01  2.39134E+01
   2.07813E+01  2.06051E+01  2.40906E+01  2.42536E+01  2.40491E+01  2.33159E+01  2.57397E+01  2.43017E+01  2.27472E+01  2.59307E+01
   2.43605E+01  2.81423E+01  2.41753E+01  2.96952E+01  3.01636E+01  3.03211E+01  3.08638E+01  3.63696E+01  3.89462E+01  4.03729E+01
   4.56043E+01  4.14983E+01  4.61829E+01  4.75917E+01  5.31784E+01  5.17298E+01  5.08380E+01  5.55749E+01  5.05516E+01  4.75833E+01
   5.01037E+01  4.73465E+01  3.95648E+01  3.99953E+01  3.71620E+01  3.39167E+01  3.33314E+01  2.86851E+01  2.36121E+01  2.28248E+01
   1.66042E+01  2.27964E+01  1.80084E+01  1.19147E+01  1.51366E+01  1.75603E+01  1.68188E+01  1.33708E+01  1.56899E+01  1.43813E+01
   9.24268E+00  9.31131E+00  9.32068E+00  1.04603E+01  1.21885E+01  8.90825E+00  8.62327E+00  1.07679E+01  7.36880E+00  1.22957E+01
   8.91500E+00  7.75548E+00  6.59214E+00  8.32233E+00  8.35017E+00  8.58069E+00  9.12980E+00  5.39023E+00  5.48147E+00  8.22647E+00
   6.51006E+00  3.00030E+00  6.18913E+00  4.78614E+00  3.93698E+00  3.57618E+00  4.21472E+00  4.68787E+00  7.81880E+00  8.80708E+00
   8.02838E+00  7.60292E+00  8.97933E+00  8.93897E+00  9.90646E+00  9.14690E+00  9.48177E+00  8.77736E+00  1.00349E+01  1.28882E+01
   1.04039E+01  1.10168E+01  8.58227E+00  1.31405E+01  1.19828E+01  1.15919E+01  1.47196E+01  9.87405E+00  1.33382E+01  1.42249E+01
   1.10417E+01  9.82351E+00  1.25707E+01  1.16979E+01  1.30089E+01  8.71109E+00  9.16560E+00  7.61875E+00  6.77459E+00  2.40099E+00
   1.81470E+00  2.48941E+00  3.34851E+00  4.94903E+00  5.39334E+00  3.57614E+00  2.96912E+00  1.97210E+00  1.04965E+00  1.87530E+00
   1.33132E+00  2.06429E+00  3.92096E-01 -6.12410E-01 -1.43146E+00 -8.02007E-01 -1.84449E+00 -2.95111E-01 -1.73673E+00 -1.85776E+00
   5.75259E-01 -4.85161E+00  2.02552E+00  1.62940E-01  2.18438E+00  9.56697E-01 -3.18804E+00  1.29913E+00  4.97964E-01 -2.13752E-01
   2.96750E+00  1.45156E+00  8.28737E-01  1.59134E+00  1.64236E+00  6.45129E-01 -3.81688E-01  3.55671E+00  1.08418E+00  8.04523E-01
   1.46545E+00 -1.86529E+00 -7.36659E-01  2.50904E+00 -9.09532E-01 -7.28936E-01  1.74632E+00  2.42316E+00 -8.91783E-01  3.11393E+00
   2.20212E+00  2.58341E+00 -3.89100E-01 -6.17489E-01  8.66983E-01  8.35875E-01 -1.12163E+00  8.32412E-01  7.50029E-01 -1.49846E+00
  -1.06484E+00 -2.35081E+00 -2.76613E+00 -1.09373E+00  2.19884E+00 -7.57212E-01 -1.26293E+00  3.62521E+00  3.05017E+00  1.32949E+00
  -6.96462E-01 -1.74125E+00  5.30624E-01  6.62892E-01  9.24861E-01 -1.05654E+00  1.74035E+00 -5.36090E-01
 NY points of the fit to the data follow
   2.10079E+01  2.16596E+01  2.23183E+01  2.29486E+01  2.52385E+01  2.98965E+01  3.62288E+01  4.28732E+01  4.83130E+01  5.11791E+01
   5.09096E+01  4.80982E+01  4.40420E+01  3.98983E+01  3.61005E+01  3.27087E+01  2.99104E+01  2.74216E+01  2.49432E+01  2.31658E+01
   2.20053E+01  2.17561E+01  2.15493E+01  2.08144E+01  2.07447E+01  2.21568E+01  2.47881E+01  2.78259E+01  3.07223E+01  3.29487E+01
   3.38365E+01  3.31784E+01  3.14948E+01  2.91937E+01  2.66667E+01  2.42557E+01  2.21344E+01  2.04949E+01  1.96740E+01  1.98301E+01
   2.00435E+01  2.03295E+01  2.19368E+01  2.49662E+01  2.83032E+01  3.06584E+01  3.14515E+01  3.06483E+01  2.84040E+01  2.53243E+01
   2.25327E+01  2.05456E+01  1.90930E+01  1.80786E+01  1.75033E+01  1.73820E+01  1.77771E+01  1.86001E+01  1.93771E+01  1.95905E+01
   1.90695E+01  1.79738E+01  1.67030E+01  1.57548E+01  1.51908E+01  1.49567E+01  1.50693E+01  1.54514E+01  1.59412E+01  1.63722E+01
   1.66122E+01  1.66558E+01  1.64777E+01  1.61147E+01  1.56662E+01  1.52259E+01  1.48326E+01  1.44684E+01  1.41702E+01  1.41897E+01
   1.39439E+01  1.35382E+01  1.35778E+01  1.41971E+01  1.48949E+01  1.52559E+01  1.51647E+01  1.46997E+01  1.40139E+01  1.32533E+01
   1.27348E+01  1.26310E+01  1.27164E+01  1.27858E+01  1.37379E+01  1.62954E+01  1.67027E+01  1.69027E+01  2.19766E+01  3.29390E+01
   4.55469E+01  5.54351E+01  6.04217E+01  5.98719E+01  5.43934E+01  4.61460E+01  3.79923E+01  3.15237E+01  2.63778E+01  2.19958E+01
   1.83554E+01  1.49252E+01  1.18025E+01  1.05169E+01  1.01972E+01  1.00588E+01  1.00022E+01  1.01227E+01  1.11941E+01  1.45533E+01
   1.65411E+01  1.73562E+01  2.22036E+01  3.31798E+01  4.65501E+01  5.75757E+01  6.36103E+01  6.40384E+01  5.95941E+01  5.20264E+01
   4.37961E+01  3.66570E+01  3.03819E+01  2.44939E+01  1.92688E+01  1.47913E+01  1.12137E+01  1.00828E+01  1.05171E+01  1.11544E+01
   1.15882E+01  1.16541E+01  1.14234E+01  1.11296E+01  1.08278E+01  1.04952E+01  1.01302E+01  9.71269E+00  9.25013E+00  8.77064E+00
   8.29816E+00  7.94625E+00  7.68898E+00  7.43486E+00  7.29083E+00  7.26627E+00  7.16151E+00  6.83761E+00  6.25536E+00  5.66728E+00
   5.39996E+00  5.49834E+00  5.74934E+00  5.92725E+00  5.89054E+00  5.59025E+00  5.09169E+00  4.53351E+00  4.01204E+00  3.65345E+00
   3.46490E+00  3.08591E+00  2.41153E+00  1.65491E+00  1.21646E+00  1.25210E+00  1.41897E+00  1.49457E+00  1.50180E+00  1.43097E+00
   1.41150E+00  1.50825E+00  1.57604E+00  1.59669E+00  1.80080E+00  2.44508E+00  3.63618E+00  5.18308E+00  6.68673E+00  7.80996E+00
   8.34394E+00  8.09050E+00  7.20715E+00  6.20380E+00  5.42202E+00  5.14077E+00  5.66118E+00  6.73844E+00  8.08753E+00  9.58906E+00
   1.11471E+01  1.23367E+01  1.29835E+01  1.31213E+01  1.21060E+01  9.66375E+00  6.70083E+00  4.32718E+00  3.10019E+00  2.62223E+00
   3.18404E+00  5.32849E+00  8.58459E+00  1.16553E+01  1.36891E+01  1.46789E+01  1.46616E+01  1.32098E+01  1.04164E+01  7.34378E+00
   5.14020E+00  4.44283E+00  5.08303E+00  6.66254E+00  8.86148E+00  1.10224E+01  1.25186E+01  1.30202E+01  1.31607E+01  1.34683E+01
   1.36669E+01  1.38705E+01  1.44090E+01  1.52607E+01  1.60395E+01  1.67553E+01  1.75590E+01  1.80978E+01  1.77707E+01  1.67278E+01
   1.56994E+01  1.50752E+01  1.49523E+01  1.54009E+01  1.64095E+01  1.76164E+01  1.86413E+01  1.94677E+01  2.01829E+01  2.10024E+01
   2.20150E+01  2.38710E+01  2.81520E+01  3.22865E+01  3.34265E+01  3.70550E+01  4.80950E+01  6.40701E+01  7.87418E+01  8.80134E+01
   9.01863E+01  8.51284E+01  7.46623E+01  6.23884E+01  5.15513E+01  4.29346E+01  3.56484E+01  2.93919E+01  2.39070E+01  1.86774E+01
   1.50731E+01  1.38031E+01  1.33077E+01  1.30262E+01  1.28323E+01  1.26033E+01  1.22667E+01  1.18622E+01  1.14346E+01  1.10051E+01
   1.05938E+01  1.02355E+01  9.93639E+00  9.69356E+00  9.50967E+00  9.37763E+00  9.28784E+00  9.23644E+00  9.21875E+00  9.23768E+00
   9.29506E+00  9.38941E+00  9.52979E+00  9.72652E+00  9.98526E+00  1.03121E+01  1.07137E+01  1.11922E+01  1.17442E+01  1.23672E+01
   1.30572E+01  1.38042E+01  1.45949E+01  1.54160E+01  1.62492E+01  1.70764E+01  1.78798E+01  1.86428E+01  1.93510E+01  1.99934E+01
   2.05639E+01  2.10627E+01  2.14971E+01  2.18822E+01  2.22400E+01  2.25990E+01  2.29929E+01  2.34605E+01  2.40462E+01  2.47894E+01
   2.56616E+01  2.67141E+01  2.80451E+01  2.96283E+01  3.13389E+01  3.30849E+01  3.48460E+01  3.66651E+01  3.85157E+01  4.03153E+01
   4.20880E+01  4.38793E+01  4.56261E+01  4.71884E+01  4.84431E+01  4.92896E+01  4.96619E+01  4.95627E+01  4.90307E+01  4.81251E+01
   4.66822E+01  4.48791E+01  4.30935E+01  4.12632E+01  3.89909E+01  3.60969E+01  3.27676E+01  2.93725E+01  2.58942E+01  2.24779E+01
   1.96496E+01  1.77801E+01  1.67197E+01  1.61281E+01  1.57542E+01  1.53753E+01  1.48480E+01  1.42271E+01  1.35406E+01  1.28559E+01
   1.22248E+01  1.16334E+01  1.10893E+01  1.05569E+01  9.99155E+00  9.50942E+00  9.11916E+00  8.77524E+00  8.45909E+00  8.16300E+00
   7.88355E+00  7.61983E+00  7.37224E+00  7.14226E+00  6.93181E+00  6.74323E+00  6.57884E+00  6.44105E+00  6.33209E+00  6.25426E+00
   6.20967E+00  6.20037E+00  6.22812E+00  6.29459E+00  6.40115E+00  6.54908E+00  6.73917E+00  6.97185E+00  7.24679E+00  7.56302E+00
   7.91858E+00  8.31061E+00  8.73488E+00  9.18592E+00  9.65672E+00  1.01390E+01  1.06232E+01  1.10987E+01  1.15539E+01  1.19768E+01
   1.23552E+01  1.26775E+01  1.29329E+01  1.31122E+01  1.32079E+01  1.32149E+01  1.31305E+01  1.29549E+01  1.26909E+01  1.23440E+01
   1.19218E+01  1.14338E+01  1.08910E+01  1.03055E+01  9.68960E+00  9.05563E+00  8.41514E+00  7.77883E+00  7.15603E+00  6.55477E+00
   5.98134E+00  5.44056E+00  4.93554E+00  4.46815E+00  4.03897E+00  3.64769E+00  3.29302E+00  2.97313E+00  2.68564E+00  2.42808E+00
   2.19779E+00  1.99218E+00  1.80858E+00  1.64458E+00  1.49780E+00  1.36627E+00  1.24810E+00  1.14169E+00  1.04551E+00  9.58296E-01
   8.78866E-01  8.06361E-01  7.39915E-01  6.78870E-01  6.22495E-01  5.70293E-01  5.21751E-01  4.76576E-01  4.34374E-01  3.94886E-01
   3.57742E-01  3.22772E-01  2.89743E-01  2.58589E-01  2.29080E-01  2.01102E-01  1.74433E-01  1.49035E-01  1.24782E-01  1.01676E-01
   7.95498E-02  5.83607E-02  3.79619E-02  1.83913E-02 -4.39338E-04 -1.85111E-02 -3.59704E-02 -5.28258E-02 -6.91724E-02 -8.49426E-02
  -1.00206E-01 -1.14937E-01 -1.29269E-01 -1.43179E-01 -1.56732E-01 -1.69842E-01 -1.82589E-01 -1.94959E-01 -2.07065E-01 -2.18855E-01
  -2.30373E-01 -2.41532E-01 -2.52422E-01 -2.63023E-01 -2.73430E-01 -2.83562E-01 -2.93447E-01 -3.03011E-01 -3.12350E-01 -3.21434E-01
  -3.30326E-01 -3.38916E-01 -3.47227E-01 -3.55190E-01 -3.62895E-01 -3.70278E-01 -3.77354E-01 -3.83979E-01
 NY background values follow
     1.625E+01    1.617E+01    1.609E+01    1.601E+01    1.593E+01    1.585E+01    1.577E+01    1.569E+01    1.561E+01    1.553E+01
     1.545E+01    1.537E+01    1.529E+01    1.521E+01    1.513E+01    1.504E+01    1.496E+01    1.488E+01    1.480E+01    1.472E+01
     1.464E+01    1.456E+01    1.448E+01    1.440E+01    1.432E+01    1.424E+01    1.415E+01    1.407E+01    1.399E+01    1.391E+01
     1.383E+01    1.375E+01    1.367E+01    1.359E+01    1.350E+01    1.342E+01    1.334E+01    1.326E+01    1.318E+01    1.310E+01
     1.302E+01    1.293E+01    1.285E+01    1.277E+01    1.269E+01    1.261E+01    1.253E+01    1.244E+01    1.236E+01    1.228E+01
     1.220E+01    1.212E+01    1.204E+01    1.195E+01    1.187E+01    1.179E+01    1.171E+01    1.163E+01    1.155E+01    1.147E+01
     1.139E+01    1.131E+01    1.123E+01    1.115E+01    1.107E+01    1.099E+01    1.091E+01    1.083E+01    1.075E+01    1.067E+01
     1.059E+01    1.051E+01    1.043E+01    1.035E+01    1.028E+01    1.020E+01    1.012E+01    1.005E+01    9.970E+00    9.895E+00
     9.819E+00    9.744E+00    9.669E+00    9.595E+00    9.521E+00    9.448E+00    9.375E+00    9.302E+00    9.230E+00    9.159E+00
     9.088E+00    9.017E+00    8.947E+00    8.878E+00    8.809E+00    8.740E+00    8.673E+00    8.605E+00    8.538E+00    8.472E+00
     8.406E+00    8.341E+00    8.277E+00    8.213E+00    8.149E+00    8.087E+00    8.024E+00    7.963E+00    7.902E+00    7.841E+00
     7.781E+00    7.722E+00    7.664E+00    7.606E+00    7.548E+00    7.492E+00    7.435E+00    7.380E+00    7.325E+00    7.271E+00
     7.218E+00    7.165E+00    7.113E+00    7.061E+00    7.011E+00    6.960E+00    6.911E+00    6.862E+00    6.814E+00    6.767E+00
     6.720E+00    6.675E+00    6.629E+00    6.585E+00    6.541E+00    6.498E+00    6.456E+00    6.415E+00    6.374E+00    6.334E+00
     6.295E+00    6.256E+00    6.218E+00    6.181E+00    6.145E+00    6.110E+00    6.075E+00    6.041E+00    6.007E+00    5.975E+00
     5.943E+00    5.912E+00    5.882E+00    5.852E+00    5.823E+00    5.795E+00    5.768E+00    5.741E+00    5.715E+00    5.690E+00
     5.666E+00    5.642E+00    5.619E+00    5.597E+00    5.576E+00    5.555E+00    5.535E+00    5.516E+00    5.498E+00    5.480E+00
     5.463E+00    5.447E+00    5.432E+00    5.417E+00    5.403E+00    5.390E+00    5.377E+00    5.366E+00    5.355E+00    5.344E+00
     5.335E+00    5.326E+00    5.318E+00    5.311E+00    5.304E+00    5.299E+00    5.293E+00    5.289E+00    5.285E+00    5.282E+00
     5.279E+00    5.277E+00    5.275E+00    5.275E+00    5.274E+00    5.274E+00    5.275E+00    5.276E+00    5.278E+00    5.280E+00
     5.282E+00    5.285E+00    5.288E+00    5.292E+00    5.296E+00    5.300E+00    5.305E+00    5.310E+00    5.316E+00    5.321E+00
     5.327E+00    5.333E+00    5.340E+00    5.346E+00    5.353E+00    5.360E+00    5.368E+00    5.375E+00    5.382E+00    5.390E+00
     5.398E+00    5.405E+00    5.413E+00    5.421E+00    5.429E+00    5.437E+00    5.445E+00    5.453E+00    5.461E+00    5.469E+00
     5.477E+00    5.485E+00    5.492E+00    5.500E+00    5.507E+00    5.515E+00    5.522E+00    5.529E+00    5.536E+00    5.543E+00
     5.550E+00    5.556E+00    5.563E+00    5.569E+00    5.575E+00    5.580E+00    5.586E+00    5.591E+00    5.596E+00    5.601E+00
     5.605E+00    5.609E+00    5.613E+00    5.617E+00    5.620E+00    5.623E+00    5.625E+00    5.627E+00    5.629E+00    5.630E+00
     5.631E+00    5.632E+00    5.632E+00    5.632E+00    5.631E+00    5.630E+00    5.628E+00    5.626E+00    5.623E+00    5.620E+00
     5.617E+00    5.612E+00    5.608E+00    5.603E+00    5.597E+00    5.591E+00    5.584E+00    5.576E+00    5.569E+00    5.560E+00
     5.551E+00    5.542E+00    5.532E+00    5.522E+00    5.511E+00    5.499E+00    5.487E+00    5.475E+00    5.462E+00    5.448E+00
     5.435E+00    5.420E+00    5.405E+00    5.390E+00    5.374E+00    5.358E+00    5.341E+00    5.323E+00    5.306E+00    5.287E+00
     5.269E+00    5.249E+00    5.230E+00    5.210E+00    5.189E+00    5.168E+00    5.146E+00    5.124E+00    5.102E+00    5.079E+00
     5.056E+00    5.032E+00    5.008E+00    4.983E+00    4.958E+00    4.933E+00    4.907E+00    4.880E+00    4.853E+00    4.826E+00
     4.799E+00    4.770E+00    4.742E+00    4.713E+00    4.684E+00    4.655E+00    4.625E+00    4.594E+00    4.564E+00    4.533E+00
     4.502E+00    4.470E+00    4.438E+00    4.406E+00    4.374E+00    4.341E+00    4.308E+00    4.275E+00    4.241E+00    4.207E+00
     4.173E+00    4.139E+00    4.105E+00    4.070E+00    4.035E+00    4.000E+00    3.965E+00    3.929E+00    3.894E+00    3.858E+00
     3.822E+00    3.786E+00    3.750E+00    3.713E+00    3.677E+00    3.640E+00    3.604E+00    3.567E+00    3.530E+00    3.493E+00
     3.456E+00    3.419E+00    3.382E+00    3.345E+00    3.307E+00    3.270E+00    3.233E+00    3.196E+00    3.159E+00    3.121E+00
     3.084E+00    3.047E+00    3.010E+00    2.973E+00    2.936E+00    2.899E+00    2.862E+00    2.825E+00    2.789E+00    2.752E+00
     2.716E+00    2.680E+00    2.644E+00    2.608E+00    2.572E+00    2.536E+00    2.501E+00    2.466E+00    2.431E+00    2.396E+00
     2.361E+00    2.327E+00    2.293E+00    2.259E+00    2.226E+00    2.192E+00    2.159E+00    2.127E+00    2.094E+00    2.062E+00
     2.031E+00    1.999E+00    1.968E+00    1.937E+00    1.907E+00    1.877E+00    1.848E+00    1.818E+00    1.790E+00    1.761E+00
     1.733E+00    1.706E+00    1.678E+00    1.652E+00    1.625E+00    1.599E+00    1.573E+00    1.548E+00    1.523E+00    1.499E+00
     1.474E+00    1.450E+00    1.427E+00    1.404E+00    1.381E+00    1.358E+00    1.336E+00    1.314E+00    1.292E+00    1.271E+00
     1.250E+00    1.229E+00    1.209E+00    1.189E+00    1.169E+00    1.150E+00    1.131E+00    1.112E+00    1.093E+00    1.075E+00
     1.057E+00    1.039E+00    1.021E+00    1.004E+00    9.871E-01    9.703E-01    9.538E-01    9.375E-01    9.215E-01    9.057E-01
     8.901E-01    8.748E-01    8.597E-01    8.448E-01    8.301E-01    8.156E-01    8.014E-01    7.873E-01    7.734E-01    7.597E-01
     7.461E-01    7.328E-01    7.196E-01    7.065E-01    6.936E-01    6.809E-01    6.683E-01    6.558E-01    6.435E-01    6.312E-01
     6.191E-01    6.071E-01    5.952E-01    5.834E-01    5.717E-01    5.601E-01    5.485E-01    5.371E-01    5.256E-01    5.143E-01
     5.030E-01    4.917E-01    4.805E-01    4.694E-01    4.582E-01    4.471E-01    4.360E-01    4.249E-01    4.138E-01    4.027E-01
     3.916E-01    3.805E-01    3.694E-01    3.583E-01    3.471E-01    3.359E-01    3.246E-01    3.133E-01
 Ala      Conc. = 7.03E+01
