 LCModel (Version 6.3-1L) Copyright: S.W. Provencher.          Ref.: Magn. Reson. Med. 30:672-679 (1993).                
 Slice#3 Row#1 Col#3  PD_05_press_1_raw_act
 36 lines in following concentration table = NCONC+1
    Conc.  %SD /Cr+PCr  Metabolite                                         
   48.651  54%   0.000 Ala                                                 
    3.188  74%   0.000 Asp                                                 
    0.000 999%   0.000 Cr                                                  
    0.000 999%   0.000 PCr                                                 
    1.846  76%   0.000 GABA                                                
    1.922  73%   0.000 Glc                                                 
   10.656 475%   0.000 Gln                                                 
   14.367 386%   0.000 Glu                                                 
    0.000 999%   0.000 GPC                                                 
    8.748  55%   0.000 PCh                                                 
    0.000 999%   0.000 GSH                                                 
   83.021  67%   0.000 Ins                                                 
   87.654  37%   0.000 Lac                                                 
   32.431  52%   0.000 NAA                                                 
    4.242 410%   0.000 NAAG                                                
    0.670  70%   0.000 Scyllo                                              
    3.217  73%   0.000 Tau                                                 
    0.214 999%   0.000 -CrCH2                                              
    8.748  55%   0.000 GPC+PCh                                             
   36.673  51%   0.000 NAA+NAAG                                            
    0.000 999%   0.000 Cr+PCr                                              
   25.022 290%   0.000 Glu+Gln                                             
  525.231  19%   0.000 Lip13a                                              
    0.000 999%   0.000 Lip13b                                              
    0.000 999%   0.000 Lip09                                               
   11.252 336%   0.000 MM09                                                
  282.852  26%   0.000 Lip20                                               
  202.495  39%   0.000 MM20                                                
    6.293 418%   0.000 MM12                                                
    0.000 999%   0.000 MM14                                                
  264.541  19%   0.000 MM17                                                
  525.231  19%   0.000 Lip13a+Lip13b                                       
  531.523  19%   0.000 MM14+Lip13a+Lip13b+MM12                             
   11.252 336%   0.000 MM09+Lip09                                          
  485.348  18%   0.000 MM20+Lip20                                          
   6 lines in following misc. output table
  FWHM = 0.038 ppm    S/N =   1                                            
  Data shift =-0.015 ppm                                                   
  Ph: 123 deg      24.4 deg/ppm                                            
  alphaB,S = 8.5E+01,   2.6E+01                                            
   14 spline knots.   Ns = 5(1)                                            
   4 inflections.     1 extrema                                            
  498 points on ppm-axis = NY
      4.000000     3.992357     3.984714     3.977070     3.969427     3.961784     3.954141     3.946497     3.938854     3.931211
      3.923568     3.915925     3.908281     3.900638     3.892995     3.885352     3.877708     3.870065     3.862422     3.854779
      3.847136     3.839492     3.831849     3.824206     3.816563     3.808919     3.801276     3.793633     3.785990     3.778347
      3.770703     3.763060     3.755417     3.747774     3.740130     3.732487     3.724844     3.717201     3.709558     3.701914
      3.694271     3.686628     3.678985     3.671341     3.663698     3.656055     3.648412     3.640769     3.633125     3.625482
      3.617839     3.610196     3.602552     3.594909     3.587266     3.579623     3.571980     3.564336     3.556693     3.549050
      3.541407     3.533763     3.526120     3.518477     3.510834     3.503191     3.495547     3.487904     3.480261     3.472618
      3.464974     3.457331     3.449688     3.442045     3.434402     3.426758     3.419115     3.411472     3.403829     3.396185
      3.388542     3.380899     3.373256     3.365613     3.357969     3.350326     3.342683     3.335040     3.327396     3.319753
      3.312110     3.304467     3.296824     3.289180     3.281537     3.273894     3.266251     3.258607     3.250964     3.243321
      3.235678     3.228034     3.220391     3.212748     3.205105     3.197462     3.189818     3.182175     3.174532     3.166889
      3.159245     3.151602     3.143959     3.136316     3.128673     3.121029     3.113386     3.105743     3.098100     3.090456
      3.082813     3.075170     3.067527     3.059884     3.052240     3.044597     3.036954     3.029311     3.021667     3.014024
      3.006381     2.998738     2.991095     2.983451     2.975808     2.968165     2.960522     2.952878     2.945235     2.937592
      2.929949     2.922306     2.914662     2.907019     2.899376     2.891733     2.884089     2.876446     2.868803     2.861160
      2.853517     2.845873     2.838230     2.830587     2.822944     2.815300     2.807657     2.800014     2.792371     2.784728
      2.777084     2.769441     2.761798     2.754155     2.746511     2.738868     2.731225     2.723582     2.715939     2.708295
      2.700652     2.693009     2.685366     2.677722     2.670079     2.662436     2.654793     2.647150     2.639506     2.631863
      2.624220     2.616577     2.608933     2.601290     2.593647     2.586004     2.578361     2.570717     2.563074     2.555431
      2.547788     2.540144     2.532501     2.524858     2.517215     2.509572     2.501928     2.494285     2.486642     2.478999
      2.471355     2.463712     2.456069     2.448426     2.440783     2.433139     2.425496     2.417853     2.410210     2.402566
      2.394923     2.387280     2.379637     2.371994     2.364350     2.356707     2.349064     2.341421     2.333777     2.326134
      2.318491     2.310848     2.303205     2.295561     2.287918     2.280275     2.272632     2.264988     2.257345     2.249702
      2.242059     2.234416     2.226772     2.219129     2.211486     2.203843     2.196199     2.188556     2.180913     2.173270
      2.165627     2.157983     2.150340     2.142697     2.135054     2.127410     2.119767     2.112124     2.104481     2.096838
      2.089194     2.081551     2.073908     2.066265     2.058621     2.050978     2.043335     2.035692     2.028049     2.020405
      2.012762     2.005119     1.997476     1.989833     1.982190     1.974546     1.966903     1.959260     1.951617     1.943974
      1.936331     1.928688     1.921045     1.913402     1.905759     1.898115     1.890472     1.882829     1.875186     1.867543
      1.859900     1.852257     1.844614     1.836971     1.829327     1.821684     1.814041     1.806398     1.798755     1.791112
      1.783469     1.775826     1.768183     1.760540     1.752896     1.745253     1.737610     1.729967     1.722324     1.714681
      1.707038     1.699395     1.691752     1.684108     1.676465     1.668822     1.661179     1.653536     1.645893     1.638250
      1.630607     1.622964     1.615321     1.607677     1.600034     1.592391     1.584748     1.577105     1.569462     1.561819
      1.554176     1.546533     1.538890     1.531246     1.523603     1.515960     1.508317     1.500674     1.493031     1.485388
      1.477745     1.470102     1.462458     1.454815     1.447172     1.439529     1.431886     1.424243     1.416600     1.408957
      1.401314     1.393671     1.386027     1.378384     1.370741     1.363098     1.355455     1.347812     1.340169     1.332526
      1.324883     1.317240     1.309596     1.301953     1.294310     1.286667     1.279024     1.271381     1.263738     1.256095
      1.248452     1.240808     1.233165     1.225522     1.217879     1.210236     1.202593     1.194950     1.187307     1.179664
      1.172021     1.164377     1.156734     1.149091     1.141448     1.133805     1.126162     1.118519     1.110876     1.103233
      1.095590     1.087946     1.080303     1.072660     1.065017     1.057374     1.049731     1.042088     1.034445     1.026802
      1.019158     1.011515     1.003872     0.996229     0.988586     0.980943     0.973300     0.965657     0.958014     0.950371
      0.942727     0.935084     0.927441     0.919798     0.912155     0.904512     0.896869     0.889226     0.881583     0.873940
      0.866296     0.858653     0.851010     0.843367     0.835724     0.828081     0.820438     0.812795     0.805152     0.797508
      0.789865     0.782222     0.774579     0.766936     0.759293     0.751650     0.744007     0.736364     0.728721     0.721077
      0.713434     0.705791     0.698148     0.690505     0.682862     0.675219     0.667576     0.659933     0.652290     0.644646
      0.637003     0.629360     0.621717     0.614074     0.606431     0.598788     0.591145     0.583502     0.575858     0.568215
      0.560572     0.552929     0.545286     0.537643     0.530000     0.522357     0.514714     0.507071     0.499427     0.491784
      0.484141     0.476498     0.468855     0.461212     0.453569     0.445925     0.438282     0.430639     0.422996     0.415353
      0.407710     0.400067     0.392424     0.384780     0.377137     0.369494     0.361851     0.354208     0.346565     0.338922
      0.331278     0.323635     0.315992     0.308349     0.300706     0.293063     0.285420     0.277777     0.270133     0.262490
      0.254847     0.247204     0.239561     0.231918     0.224275     0.216631     0.208988     0.201345
 NY phased data points follow
   3.71197E-01  2.63206E+00 -2.52420E+00 -1.48187E-01 -5.51331E-01  2.10605E-02  1.44405E+00 -9.74471E-02 -1.19725E+00  4.60580E-01
   3.26935E-01  3.23709E-01  7.23188E-01  7.53354E-01  9.98020E-01 -1.25693E+00  8.55101E-01 -7.29101E-01  3.47522E-01 -7.01957E-01
   1.62703E+00  1.66127E+00 -2.00591E-01  3.80690E-01  3.59414E-01  1.86517E+00  2.09721E+00  9.78271E-01  1.01373E+00  5.86012E-01
  -8.68265E-01 -5.49906E-01  1.47538E+00  2.00323E+00  1.45172E+00  7.03797E-01  1.05521E+00  8.63631E-01  2.77351E+00 -1.21039E+00
  -5.40211E-01 -1.89544E-01 -5.32909E-01  6.67679E-01  8.50106E-01  7.18068E-01 -5.81684E-01  1.16201E-01  1.82087E+00  7.57156E-01
   1.91912E+00  2.58124E+00 -9.92052E-01 -1.45641E+00  8.72234E-01  1.12576E+00  1.89034E+00  8.42469E-01  2.43644E+00 -1.06659E-01
   1.62510E+00  1.78910E+00  1.62215E+00  9.43105E-01  1.30658E+00  1.03631E-01  2.01382E-02  9.02149E-01 -9.58946E-01  1.59635E+00
   1.33484E+00  1.58086E-01  4.31289E-01  2.08708E+00  7.36611E-01  2.73035E+00 -7.30435E-01 -5.21800E-01  1.41042E+00  1.68516E+00
  -2.04855E-02 -3.85681E-01  2.49803E-01  6.39573E-01  1.48131E+00  3.01902E+00  1.20142E+00  9.79773E-01  5.92277E-01  4.05525E-01
   1.18465E+00  2.29838E-01  9.42516E-01  8.18078E-01  1.09660E+00 -4.67887E-01 -4.06051E-01  6.37034E-01  7.72240E-01  8.87469E-01
   2.75886E-01  1.01250E+00  2.64594E+00  3.17336E+00  2.28131E+00 -4.54726E-01  1.18632E+00  5.51389E-01  1.22347E+00  5.63432E-01
   8.48820E-01  7.38842E-01  1.67644E+00  4.32182E-01  1.52695E+00  3.80709E-01  2.18227E+00  7.25490E-01  4.89302E-01  1.01697E+00
   2.49096E+00  1.96202E-01  5.15716E-01 -1.75330E-01 -2.00422E-01 -2.69819E-01  7.74646E-01  3.23058E+00  2.38407E+00  1.50915E+00
   1.36088E+00  1.86267E-01  9.38485E-01  1.52083E+00  2.18860E+00  1.98110E+00  1.27297E+00  3.19914E+00  4.01952E+00  2.07851E+00
   6.45353E-01  2.97833E-01  8.61865E-01  6.77567E-01  2.11807E-01  2.53414E+00  1.19156E+00  1.86015E+00  5.91831E-01  1.84218E+00
   1.91184E+00  3.01869E+00  2.24618E+00  1.82166E+00  1.55164E+00  2.93306E+00  1.49713E+00  6.04017E-01  2.03287E+00  2.06582E+00
   2.55273E+00  2.26375E+00  2.41279E+00 -1.15920E+00  1.10181E+00  2.48657E+00  1.81528E+00  2.35078E+00  5.41035E-01  1.33729E+00
   1.23738E+00  1.50171E+00  1.68071E+00  1.09207E+00  2.60045E+00  1.36811E+00  7.72921E-01  2.56587E+00  2.51733E-01  2.16254E+00
   3.37349E+00  4.71408E-01  1.84624E+00  2.92865E+00  1.58439E+00  3.01050E+00  2.09846E+00  2.16507E+00  1.06980E+00  9.78570E-01
   3.73042E-01  9.17210E-01  1.57863E+00  1.89316E+00  6.40088E-01  1.77422E+00  2.12203E+00  1.74169E+00  1.13995E+00  2.19728E+00
   2.16267E+00  5.22068E-01  2.75843E+00  1.32527E+00  3.19501E+00  2.04823E+00  3.07088E+00  2.74126E+00  2.70236E+00  1.22913E+00
   1.12532E+00  2.24936E+00  2.70813E+00  2.50531E+00  1.87013E+00  2.43890E+00  3.42997E+00  3.63020E+00  1.91821E+00  1.94079E+00
   3.16432E+00  3.17256E+00  2.28315E+00  3.13583E+00  3.45768E+00  2.14574E+00  2.69333E+00  2.00251E+00  2.58178E+00  2.24793E+00
   3.28997E+00  3.30181E+00  2.63689E+00  2.14089E+00  4.49403E+00  3.07335E+00  3.06874E+00  1.78827E+00  2.74225E+00  2.84732E+00
   1.98540E+00  3.59337E+00  2.48462E+00  2.53494E+00  1.59097E+00  3.06223E+00  2.46822E+00  3.55329E+00  3.50444E+00  3.87024E+00
   1.80062E+00  4.29037E+00  2.53656E+00  4.38489E+00  3.08852E+00  2.93855E+00  3.41328E+00  4.29736E+00  3.75653E+00  3.61158E+00
   4.49653E+00  3.70766E+00  5.64919E+00  3.78951E+00  3.77352E+00  3.19958E+00  5.22724E+00  3.10019E+00  3.58184E+00  3.93559E+00
   3.12229E+00  4.68876E+00  3.23126E+00  5.31331E+00  4.40053E+00  4.53860E+00  3.89228E+00  3.26084E+00  3.85451E+00  2.70575E+00
   3.14541E+00  4.93293E+00  4.14547E+00  4.67937E+00  3.14372E+00  3.48137E+00  4.63967E+00  2.84587E+00  2.94085E+00  4.46013E+00
   3.72574E+00  4.70103E+00  4.26545E+00  4.43711E+00  4.01987E+00  4.06332E+00  5.50620E+00  4.26650E+00  3.63026E+00  5.60047E+00
   3.85288E+00  4.94232E+00  4.58389E+00  5.51143E+00  3.53285E+00  4.14433E+00  3.65131E+00  2.98546E+00  4.21714E+00  2.88155E+00
   3.17604E+00  2.43771E+00  2.36780E+00  3.81751E+00  3.54176E+00  3.13860E+00  3.88633E+00  1.02922E+00  4.05809E+00  4.21239E+00
   2.80576E+00  2.20717E+00  3.79648E+00  2.59698E+00  1.32219E+00  2.96635E+00  1.63070E+00  2.02019E+00  3.53317E+00  9.18200E-01
   1.31029E+00  1.98309E+00  1.07693E+00  8.06368E-01  2.41874E-01  2.54062E-01  2.10701E+00  2.94332E-01  3.24127E+00  1.95730E+00
   2.39657E+00  6.68991E-01  4.21973E+00  1.37771E+00  3.72377E+00  2.17155E+00  3.54424E+00  3.91232E+00  3.71234E+00  4.02762E+00
   1.80418E+00  2.31627E+00  3.59370E+00  2.71946E+00  1.28704E+00  2.34328E+00  1.69311E+00  4.02456E+00  6.48925E+00  3.63409E+00
   5.64039E+00  4.22790E+00  4.60076E+00  5.16656E+00  6.19208E+00  5.19324E+00  5.07738E+00  3.81004E+00  5.38973E+00  4.46703E+00
   4.85053E+00  4.26761E+00  2.89062E+00  5.03367E+00  4.08372E+00  4.83783E+00  5.36037E+00  3.96324E+00  4.25161E+00  3.25672E+00
   6.03332E+00  4.47563E+00  3.86903E+00  5.20230E+00  2.40381E+00  2.91835E+00  4.49173E+00  2.21896E+00  3.54369E+00  2.46947E+00
   2.17511E+00  2.93013E+00  3.03150E+00  2.33835E+00  1.85500E+00  2.30210E+00  3.04530E+00  2.03946E+00  2.67423E+00  3.15540E+00
   3.38497E+00  2.78446E+00  3.72818E+00  1.48465E+00  1.97693E+00  4.79589E+00  3.74737E+00  2.27491E+00  3.22976E+00  2.08425E+00
   3.74195E+00  2.86887E+00  1.03898E+00  1.22856E+00  1.87620E+00  1.77934E+00  2.33072E+00  1.32709E+00  2.58688E+00  1.42971E+00
   1.59708E+00  4.29631E-01 -1.61054E-01  1.41923E+00  4.40082E-01  3.43625E-01  8.71074E-01  1.26172E+00  9.91302E-01  2.25623E-01
   2.18883E+00 -5.52403E-01 -6.65270E-01  1.18251E+00  1.31576E-01  2.08923E+00  1.01370E+00 -5.84446E-01  9.00172E-01  8.01336E-01
   2.16292E+00  1.32192E+00  4.35289E-01  1.05305E+00  1.43758E+00  5.43604E-02  9.81155E-01  1.16593E+00  1.09232E+00  9.01436E-01
   2.67894E+00  4.81648E-01  5.23000E-01  1.02493E+00  4.62639E-01  1.46836E+00  1.15789E+00  2.13965E+00  7.08604E-01  1.15644E+00
   2.63579E-01  1.18978E+00  1.09845E+00  9.02124E-01 -1.82498E+00 -4.84897E-01 -9.10663E-01 -1.57272E+00  1.82571E+00  9.90248E-01
   3.22998E+00  5.18998E-01 -2.52671E-01  9.19402E-01  6.95399E-01 -2.65891E-01  1.86157E+00 -9.33680E-01  1.40121E+00  3.38310E-01
  -1.96389E+00  4.34605E-01  2.58451E-01  1.00656E+00  5.86761E-01  6.01756E-01  2.59894E+00  1.73136E+00  3.43522E+00  8.43735E-01
  -9.52386E-01  8.13760E-01 -9.36915E-01  2.15108E-01  4.45905E-01  9.79188E-01  1.84543E+00  1.30530E+00
 NY points of the fit to the data follow
   8.57286E-02  1.38710E-01  1.90944E-01  2.36690E-01  2.61843E-01  2.74879E-01  2.86835E-01  2.98055E-01  3.09031E-01  3.20920E-01
   3.33745E-01  3.45934E-01  3.55196E-01  3.61771E-01  3.68676E-01  3.76417E-01  3.86074E-01  4.02230E-01  4.30564E-01  4.71335E-01
   5.14077E-01  5.42071E-01  5.51772E-01  5.42838E-01  5.07398E-01  4.43999E-01  3.72613E-01  3.23980E-01  3.25287E-01  3.77275E-01
   4.66357E-01  5.81197E-01  6.98966E-01  7.80956E-01  8.05998E-01  7.73687E-01  7.06480E-01  6.27108E-01  5.48429E-01  4.86483E-01
   4.63268E-01  4.88644E-01  5.65968E-01  6.80831E-01  8.04558E-01  9.21988E-01  1.02106E+00  1.06931E+00  1.02192E+00  8.60979E-01
   6.30203E-01  4.11973E-01  2.70626E-01  2.33488E-01  3.01022E-01  4.30695E-01  5.58441E-01  6.55097E-01  7.25017E-01  7.74463E-01
   7.95622E-01  7.77647E-01  7.22474E-01  6.48332E-01  5.79614E-01  5.38929E-01  5.45166E-01  5.95521E-01  6.64613E-01  7.29906E-01
   7.77424E-01  8.05709E-01  8.13288E-01  8.00386E-01  7.73685E-01  7.41681E-01  7.12767E-01  6.89956E-01  6.76483E-01  6.76081E-01
   6.81646E-01  6.88068E-01  6.89794E-01  6.85022E-01  6.74564E-01  6.58347E-01  6.34533E-01  6.08174E-01  5.95877E-01  6.16377E-01
   6.74903E-01  7.62108E-01  8.60146E-01  9.48739E-01  1.01138E+00  1.04836E+00  1.06835E+00  1.08957E+00  1.13977E+00  1.21190E+00
   1.29838E+00  1.42351E+00  1.58287E+00  1.70810E+00  1.71107E+00  1.56376E+00  1.32211E+00  1.07342E+00  8.79699E-01  7.76177E-01
   7.82336E-01  8.36700E-01  8.85133E-01  9.26151E-01  9.60726E-01  9.90451E-01  1.01633E+00  1.03968E+00  1.06145E+00  1.08284E+00
   1.10492E+00  1.12828E+00  1.15264E+00  1.17742E+00  1.20236E+00  1.22724E+00  1.25154E+00  1.27449E+00  1.29581E+00  1.31534E+00
   1.33294E+00  1.34899E+00  1.36369E+00  1.37773E+00  1.39217E+00  1.40768E+00  1.42422E+00  1.44162E+00  1.45965E+00  1.47790E+00
   1.49573E+00  1.51261E+00  1.52861E+00  1.54456E+00  1.56081E+00  1.57719E+00  1.59290E+00  1.60687E+00  1.61873E+00  1.62858E+00
   1.63735E+00  1.64578E+00  1.65383E+00  1.66122E+00  1.66730E+00  1.67140E+00  1.67299E+00  1.67274E+00  1.67071E+00  1.66561E+00
   1.65744E+00  1.64777E+00  1.64092E+00  1.64046E+00  1.64491E+00  1.64862E+00  1.64668E+00  1.63702E+00  1.62079E+00  1.60317E+00
   1.58797E+00  1.57620E+00  1.56852E+00  1.56276E+00  1.55632E+00  1.54862E+00  1.54182E+00  1.54049E+00  1.54664E+00  1.55639E+00
   1.56388E+00  1.56732E+00  1.56907E+00  1.57306E+00  1.58223E+00  1.59552E+00  1.60909E+00  1.62307E+00  1.63875E+00  1.65736E+00
   1.67771E+00  1.69629E+00  1.71065E+00  1.71897E+00  1.72213E+00  1.72610E+00  1.73498E+00  1.74739E+00  1.76182E+00  1.77907E+00
   1.80055E+00  1.82721E+00  1.85816E+00  1.89020E+00  1.91807E+00  1.93261E+00  1.93150E+00  1.91835E+00  1.89640E+00  1.87340E+00
   1.86305E+00  1.87860E+00  1.92093E+00  1.98342E+00  2.05858E+00  2.13856E+00  2.20919E+00  2.25328E+00  2.27038E+00  2.27081E+00
   2.26214E+00  2.25248E+00  2.25320E+00  2.27653E+00  2.32311E+00  2.38497E+00  2.45107E+00  2.51137E+00  2.55978E+00  2.59278E+00
   2.61246E+00  2.62613E+00  2.64126E+00  2.66081E+00  2.68513E+00  2.71237E+00  2.74299E+00  2.77917E+00  2.82024E+00  2.86654E+00
   2.91631E+00  2.96396E+00  3.00407E+00  3.03576E+00  3.06500E+00  3.09739E+00  3.13490E+00  3.17694E+00  3.22236E+00  3.26782E+00
   3.30920E+00  3.35273E+00  3.39856E+00  3.44241E+00  3.48918E+00  3.56856E+00  3.69661E+00  3.83007E+00  3.96432E+00  4.14737E+00
   4.39012E+00  4.60875E+00  4.69130E+00  4.59254E+00  4.34572E+00  4.02173E+00  3.69004E+00  3.43468E+00  3.29521E+00  3.20351E+00
   3.12911E+00  3.06633E+00  3.01362E+00  2.97039E+00  2.93715E+00  2.91340E+00  2.89801E+00  2.89034E+00  2.89089E+00  2.90059E+00
   2.92068E+00  2.95259E+00  2.99707E+00  3.05405E+00  3.12266E+00  3.20140E+00  3.28829E+00  3.38094E+00  3.47652E+00  3.57213E+00
   3.66494E+00  3.75215E+00  3.83097E+00  3.89886E+00  3.95333E+00  3.99229E+00  4.01442E+00  4.01903E+00  4.00606E+00  3.97626E+00
   3.93100E+00  3.87197E+00  3.80120E+00  3.72092E+00  3.63343E+00  3.54100E+00  3.44574E+00  3.34967E+00  3.25458E+00  3.16198E+00
   3.07306E+00  2.98870E+00  2.90949E+00  2.83576E+00  2.76765E+00  2.70517E+00  2.64830E+00  2.59704E+00  2.55157E+00  2.51251E+00
   2.48174E+00  2.46568E+00  2.48309E+00  2.53033E+00  2.58182E+00  2.64756E+00  2.73927E+00  2.81219E+00  2.77799E+00  2.57634E+00
   2.24056E+00  1.87848E+00  1.55371E+00  1.30233E+00  1.20151E+00  1.29128E+00  1.52359E+00  1.82946E+00  2.12011E+00  2.33615E+00
   2.46351E+00  2.51338E+00  2.56861E+00  2.71337E+00  2.90527E+00  3.15104E+00  3.47954E+00  3.82205E+00  4.00806E+00  3.89626E+00
   3.53316E+00  3.08447E+00  2.65785E+00  2.34469E+00  2.31864E+00  2.66207E+00  3.24728E+00  3.91702E+00  4.51110E+00  4.93592E+00
   5.16157E+00  5.18826E+00  5.12475E+00  5.07575E+00  5.03455E+00  4.98962E+00  4.93600E+00  4.87193E+00  4.79736E+00  4.71320E+00
   4.62087E+00  4.52206E+00  4.41856E+00  4.31217E+00  4.20457E+00  4.09726E+00  3.99150E+00  3.88829E+00  3.78844E+00  3.69253E+00
   3.60097E+00  3.51397E+00  3.43159E+00  3.35378E+00  3.28044E+00  3.21139E+00  3.14644E+00  3.08534E+00  3.02785E+00  2.97373E+00
   2.92275E+00  2.87471E+00  2.82940E+00  2.78663E+00  2.74620E+00  2.70792E+00  2.67162E+00  2.63714E+00  2.60428E+00  2.57285E+00
   2.54265E+00  2.51350E+00  2.48520E+00  2.45758E+00  2.43044E+00  2.40361E+00  2.37693E+00  2.35028E+00  2.32353E+00  2.29661E+00
   2.26943E+00  2.24196E+00  2.21417E+00  2.18608E+00  2.15771E+00  2.12908E+00  2.10023E+00  2.07121E+00  2.04207E+00  2.01286E+00
   1.98365E+00  1.95445E+00  1.92531E+00  1.89625E+00  1.86730E+00  1.83848E+00  1.80980E+00  1.78126E+00  1.75285E+00  1.72458E+00
   1.69645E+00  1.66844E+00  1.64054E+00  1.61275E+00  1.58504E+00  1.55741E+00  1.52987E+00  1.50238E+00  1.47494E+00  1.44754E+00
   1.42016E+00  1.39282E+00  1.36550E+00  1.33818E+00  1.31087E+00  1.28355E+00  1.25622E+00  1.22888E+00  1.20153E+00  1.17415E+00
   1.14674E+00  1.11930E+00  1.09183E+00  1.06432E+00  1.03678E+00  1.00919E+00  9.81547E-01  9.53860E-01  9.26127E-01  8.98344E-01
   8.70506E-01  8.42609E-01  8.14652E-01  7.86638E-01  7.58567E-01  7.30435E-01  7.02238E-01  6.73973E-01  6.45643E-01  6.17249E-01
   5.88790E-01  5.60262E-01  5.31662E-01  5.02990E-01  4.74249E-01  4.45439E-01  4.16558E-01  3.87602E-01  3.58569E-01  3.29462E-01
   3.00283E-01  2.71030E-01  2.41700E-01  2.12290E-01  1.82802E-01  1.53235E-01  1.23591E-01  9.38688E-02  6.40632E-02  3.41723E-02
   4.19702E-03 -2.58618E-02 -5.60054E-02 -8.62379E-02 -1.16564E-01 -1.46985E-01 -1.77503E-01 -2.08118E-01
 NY background values follow
    -7.485E-02   -7.492E-02   -7.488E-02   -7.473E-02   -7.446E-02   -7.409E-02   -7.360E-02   -7.300E-02   -7.229E-02   -7.146E-02
    -7.053E-02   -6.949E-02   -6.834E-02   -6.707E-02   -6.570E-02   -6.422E-02   -6.263E-02   -6.093E-02   -5.912E-02   -5.720E-02
    -5.517E-02   -5.304E-02   -5.080E-02   -4.845E-02   -4.600E-02   -4.344E-02   -4.077E-02   -3.800E-02   -3.512E-02   -3.214E-02
    -2.905E-02   -2.586E-02   -2.256E-02   -1.917E-02   -1.566E-02   -1.206E-02   -8.353E-03   -4.545E-03   -6.352E-04    3.375E-03
     7.486E-03    1.170E-02    1.601E-02    2.042E-02    2.492E-02    2.953E-02    3.423E-02    3.903E-02    4.393E-02    4.892E-02
     5.401E-02    5.919E-02    6.447E-02    6.984E-02    7.530E-02    8.086E-02    8.651E-02    9.225E-02    9.808E-02    1.040E-01
     1.100E-01    1.161E-01    1.223E-01    1.286E-01    1.349E-01    1.414E-01    1.479E-01    1.545E-01    1.613E-01    1.680E-01
     1.749E-01    1.819E-01    1.889E-01    1.960E-01    2.032E-01    2.105E-01    2.179E-01    2.253E-01    2.328E-01    2.404E-01
     2.481E-01    2.558E-01    2.636E-01    2.715E-01    2.795E-01    2.875E-01    2.956E-01    3.038E-01    3.121E-01    3.204E-01
     3.288E-01    3.372E-01    3.458E-01    3.544E-01    3.630E-01    3.717E-01    3.805E-01    3.894E-01    3.983E-01    4.072E-01
     4.163E-01    4.253E-01    4.345E-01    4.437E-01    4.530E-01    4.623E-01    4.716E-01    4.811E-01    4.906E-01    5.001E-01
     5.097E-01    5.193E-01    5.290E-01    5.387E-01    5.485E-01    5.583E-01    5.682E-01    5.781E-01    5.881E-01    5.981E-01
     6.081E-01    6.182E-01    6.284E-01    6.385E-01    6.487E-01    6.590E-01    6.693E-01    6.796E-01    6.899E-01    7.003E-01
     7.107E-01    7.212E-01    7.317E-01    7.422E-01    7.527E-01    7.633E-01    7.739E-01    7.845E-01    7.951E-01    8.058E-01
     8.165E-01    8.272E-01    8.379E-01    8.487E-01    8.595E-01    8.703E-01    8.811E-01    8.919E-01    9.027E-01    9.136E-01
     9.244E-01    9.353E-01    9.462E-01    9.571E-01    9.680E-01    9.789E-01    9.898E-01    1.001E+00    1.012E+00    1.023E+00
     1.033E+00    1.044E+00    1.055E+00    1.066E+00    1.077E+00    1.088E+00    1.099E+00    1.110E+00    1.121E+00    1.132E+00
     1.143E+00    1.154E+00    1.164E+00    1.175E+00    1.186E+00    1.197E+00    1.208E+00    1.219E+00    1.229E+00    1.240E+00
     1.251E+00    1.262E+00    1.272E+00    1.283E+00    1.294E+00    1.304E+00    1.315E+00    1.325E+00    1.336E+00    1.346E+00
     1.357E+00    1.367E+00    1.378E+00    1.388E+00    1.399E+00    1.409E+00    1.419E+00    1.429E+00    1.440E+00    1.450E+00
     1.460E+00    1.470E+00    1.480E+00    1.490E+00    1.500E+00    1.510E+00    1.520E+00    1.529E+00    1.539E+00    1.549E+00
     1.559E+00    1.568E+00    1.578E+00    1.587E+00    1.597E+00    1.606E+00    1.615E+00    1.625E+00    1.634E+00    1.643E+00
     1.652E+00    1.661E+00    1.670E+00    1.679E+00    1.688E+00    1.696E+00    1.705E+00    1.714E+00    1.722E+00    1.731E+00
     1.739E+00    1.747E+00    1.756E+00    1.764E+00    1.772E+00    1.780E+00    1.788E+00    1.796E+00    1.804E+00    1.811E+00
     1.819E+00    1.826E+00    1.834E+00    1.841E+00    1.849E+00    1.856E+00    1.863E+00    1.870E+00    1.877E+00    1.884E+00
     1.890E+00    1.897E+00    1.904E+00    1.910E+00    1.916E+00    1.923E+00    1.929E+00    1.935E+00    1.941E+00    1.947E+00
     1.953E+00    1.958E+00    1.964E+00    1.969E+00    1.975E+00    1.980E+00    1.985E+00    1.990E+00    1.995E+00    2.000E+00
     2.005E+00    2.009E+00    2.014E+00    2.018E+00    2.022E+00    2.026E+00    2.030E+00    2.034E+00    2.038E+00    2.042E+00
     2.045E+00    2.049E+00    2.052E+00    2.055E+00    2.059E+00    2.061E+00    2.064E+00    2.067E+00    2.070E+00    2.072E+00
     2.074E+00    2.077E+00    2.079E+00    2.081E+00    2.083E+00    2.084E+00    2.086E+00    2.087E+00    2.089E+00    2.090E+00
     2.091E+00    2.092E+00    2.093E+00    2.093E+00    2.094E+00    2.094E+00    2.094E+00    2.094E+00    2.094E+00    2.094E+00
     2.094E+00    2.094E+00    2.093E+00    2.092E+00    2.091E+00    2.090E+00    2.089E+00    2.088E+00    2.087E+00    2.085E+00
     2.083E+00    2.081E+00    2.079E+00    2.077E+00    2.075E+00    2.072E+00    2.070E+00    2.067E+00    2.064E+00    2.061E+00
     2.058E+00    2.055E+00    2.051E+00    2.048E+00    2.044E+00    2.040E+00    2.036E+00    2.032E+00    2.027E+00    2.023E+00
     2.018E+00    2.013E+00    2.008E+00    2.003E+00    1.998E+00    1.992E+00    1.987E+00    1.981E+00    1.975E+00    1.969E+00
     1.963E+00    1.956E+00    1.950E+00    1.943E+00    1.936E+00    1.929E+00    1.922E+00    1.915E+00    1.907E+00    1.899E+00
     1.892E+00    1.884E+00    1.876E+00    1.867E+00    1.859E+00    1.850E+00    1.842E+00    1.833E+00    1.824E+00    1.814E+00
     1.805E+00    1.795E+00    1.786E+00    1.776E+00    1.766E+00    1.756E+00    1.745E+00    1.735E+00    1.724E+00    1.714E+00
     1.703E+00    1.691E+00    1.680E+00    1.669E+00    1.657E+00    1.645E+00    1.633E+00    1.621E+00    1.609E+00    1.597E+00
     1.584E+00    1.572E+00    1.559E+00    1.546E+00    1.533E+00    1.519E+00    1.506E+00    1.492E+00    1.478E+00    1.464E+00
     1.450E+00    1.436E+00    1.421E+00    1.407E+00    1.392E+00    1.377E+00    1.362E+00    1.347E+00    1.332E+00    1.316E+00
     1.301E+00    1.285E+00    1.269E+00    1.253E+00    1.236E+00    1.220E+00    1.203E+00    1.187E+00    1.170E+00    1.153E+00
     1.136E+00    1.118E+00    1.101E+00    1.083E+00    1.066E+00    1.048E+00    1.030E+00    1.011E+00    9.930E-01    9.745E-01
     9.559E-01    9.371E-01    9.181E-01    8.991E-01    8.799E-01    8.605E-01    8.410E-01    8.214E-01    8.016E-01    7.817E-01
     7.616E-01    7.414E-01    7.211E-01    7.006E-01    6.800E-01    6.593E-01    6.384E-01    6.174E-01    5.962E-01    5.750E-01
     5.536E-01    5.320E-01    5.103E-01    4.885E-01    4.666E-01    4.445E-01    4.223E-01    4.000E-01    3.776E-01    3.550E-01
     3.323E-01    3.095E-01    2.865E-01    2.635E-01    2.403E-01    2.170E-01    1.935E-01    1.700E-01    1.463E-01    1.225E-01
     9.862E-02    7.460E-02    5.047E-02    2.622E-02    1.859E-03   -2.261E-02   -4.720E-02   -7.189E-02   -9.670E-02   -1.216E-01
    -1.466E-01   -1.718E-01   -1.970E-01   -2.223E-01   -2.478E-01   -2.733E-01   -2.989E-01   -3.247E-01   -3.505E-01   -3.765E-01
    -4.025E-01   -4.286E-01   -4.549E-01   -4.812E-01   -5.076E-01   -5.341E-01   -5.607E-01   -5.874E-01
 Ala      Conc. = 4.87E+01
