 LCModel (Version 6.3-1L) Copyright: S.W. Provencher.          Ref.: Magn. Reson. Med. 30:672-679 (1993).                
 Slice#2 Row#11 Col#3  PD_05_press_1_raw_act
 36 lines in following concentration table = NCONC+1
    Conc.  %SD /Cr+PCr  Metabolite                                         
    0.000 999%   0.000 Ala                                                 
   26.371 100%   0.203 Asp                                                 
    0.000 999%   0.000 Cr                                                  
  129.731  13%   1.000 PCr                                                 
    8.956 177% 6.9E-02 GABA                                                
   16.962  94%   0.131 Glc                                                 
  185.703  39%   1.431 Gln                                                 
   48.858 163%   0.377 Glu                                                 
    0.000 999%   0.000 GPC                                                 
   32.180  21%   0.248 PCh                                                 
    0.000 999%   0.000 GSH                                                 
  519.587  19%   4.005 Ins                                                 
    0.000 999%   0.000 Lac                                                 
  229.068   9%   1.766 NAA                                                 
    0.000 999%   0.000 NAAG                                                
    8.106  60% 6.2E-02 Scyllo                                              
   20.986 126%   0.162 Tau                                                 
    0.000 999%   0.000 -CrCH2                                              
   32.180  21%   0.248 GPC+PCh                                             
  229.068   9%   1.766 NAA+NAAG                                            
  129.731  13%   1.000 Cr+PCr                                              
  234.561  47%   1.808 Glu+Gln                                             
    0.000 999%   0.000 Lip13a                                              
    0.000 999%   0.000 Lip13b                                              
  114.731  60%   0.884 Lip09                                               
   91.135  51%   0.702 MM09                                                
    0.000 999%   0.000 Lip20                                               
    0.000 999%   0.000 MM20                                                
   16.812 149%   0.130 MM12                                                
  346.790  21%   2.673 MM14                                                
   87.786  68%   0.677 MM17                                                
    0.000 999%   0.000 Lip13a+Lip13b                                       
  363.602  22%   2.803 MM14+Lip13a+Lip13b+MM12                             
  205.867  33%   1.587 MM09+Lip09                                          
    0.000 999%   0.000 MM20+Lip20                                          
   6 lines in following misc. output table
  FWHM = 0.054 ppm    S/N =   3                                            
  Data shift = 0.008 ppm                                                   
  Ph:  95 deg       1.2 deg/ppm                                            
  alphaB,S = 3.1E-01,   5.2E+01                                            
   14 spline knots.   Ns = 6(1)                                            
  ( 5) 4 infls.   ( 6) 1 extrs.                                            
  498 points on ppm-axis = NY
      4.000000     3.992357     3.984714     3.977070     3.969427     3.961784     3.954141     3.946497     3.938854     3.931211
      3.923568     3.915925     3.908281     3.900638     3.892995     3.885352     3.877708     3.870065     3.862422     3.854779
      3.847136     3.839492     3.831849     3.824206     3.816563     3.808919     3.801276     3.793633     3.785990     3.778347
      3.770703     3.763060     3.755417     3.747774     3.740130     3.732487     3.724844     3.717201     3.709558     3.701914
      3.694271     3.686628     3.678985     3.671341     3.663698     3.656055     3.648412     3.640769     3.633125     3.625482
      3.617839     3.610196     3.602552     3.594909     3.587266     3.579623     3.571980     3.564336     3.556693     3.549050
      3.541407     3.533763     3.526120     3.518477     3.510834     3.503191     3.495547     3.487904     3.480261     3.472618
      3.464974     3.457331     3.449688     3.442045     3.434402     3.426758     3.419115     3.411472     3.403829     3.396185
      3.388542     3.380899     3.373256     3.365613     3.357969     3.350326     3.342683     3.335040     3.327396     3.319753
      3.312110     3.304467     3.296824     3.289180     3.281537     3.273894     3.266251     3.258607     3.250964     3.243321
      3.235678     3.228034     3.220391     3.212748     3.205105     3.197462     3.189818     3.182175     3.174532     3.166889
      3.159245     3.151602     3.143959     3.136316     3.128673     3.121029     3.113386     3.105743     3.098100     3.090456
      3.082813     3.075170     3.067527     3.059884     3.052240     3.044597     3.036954     3.029311     3.021667     3.014024
      3.006381     2.998738     2.991095     2.983451     2.975808     2.968165     2.960522     2.952878     2.945235     2.937592
      2.929949     2.922306     2.914662     2.907019     2.899376     2.891733     2.884089     2.876446     2.868803     2.861160
      2.853517     2.845873     2.838230     2.830587     2.822944     2.815300     2.807657     2.800014     2.792371     2.784728
      2.777084     2.769441     2.761798     2.754155     2.746511     2.738868     2.731225     2.723582     2.715939     2.708295
      2.700652     2.693009     2.685366     2.677722     2.670079     2.662436     2.654793     2.647150     2.639506     2.631863
      2.624220     2.616577     2.608933     2.601290     2.593647     2.586004     2.578361     2.570717     2.563074     2.555431
      2.547788     2.540144     2.532501     2.524858     2.517215     2.509572     2.501928     2.494285     2.486642     2.478999
      2.471355     2.463712     2.456069     2.448426     2.440783     2.433139     2.425496     2.417853     2.410210     2.402566
      2.394923     2.387280     2.379637     2.371994     2.364350     2.356707     2.349064     2.341421     2.333777     2.326134
      2.318491     2.310848     2.303205     2.295561     2.287918     2.280275     2.272632     2.264988     2.257345     2.249702
      2.242059     2.234416     2.226772     2.219129     2.211486     2.203843     2.196199     2.188556     2.180913     2.173270
      2.165627     2.157983     2.150340     2.142697     2.135054     2.127410     2.119767     2.112124     2.104481     2.096838
      2.089194     2.081551     2.073908     2.066265     2.058621     2.050978     2.043335     2.035692     2.028049     2.020405
      2.012762     2.005119     1.997476     1.989833     1.982190     1.974546     1.966903     1.959260     1.951617     1.943974
      1.936331     1.928688     1.921045     1.913402     1.905759     1.898115     1.890472     1.882829     1.875186     1.867543
      1.859900     1.852257     1.844614     1.836971     1.829327     1.821684     1.814041     1.806398     1.798755     1.791112
      1.783469     1.775826     1.768183     1.760540     1.752896     1.745253     1.737610     1.729967     1.722324     1.714681
      1.707038     1.699395     1.691752     1.684108     1.676465     1.668822     1.661179     1.653536     1.645893     1.638250
      1.630607     1.622964     1.615321     1.607677     1.600034     1.592391     1.584748     1.577105     1.569462     1.561819
      1.554176     1.546533     1.538890     1.531246     1.523603     1.515960     1.508317     1.500674     1.493031     1.485388
      1.477745     1.470102     1.462458     1.454815     1.447172     1.439529     1.431886     1.424243     1.416600     1.408957
      1.401314     1.393671     1.386027     1.378384     1.370741     1.363098     1.355455     1.347812     1.340169     1.332526
      1.324883     1.317240     1.309596     1.301953     1.294310     1.286667     1.279024     1.271381     1.263738     1.256095
      1.248452     1.240808     1.233165     1.225522     1.217879     1.210236     1.202593     1.194950     1.187307     1.179664
      1.172021     1.164377     1.156734     1.149091     1.141448     1.133805     1.126162     1.118519     1.110876     1.103233
      1.095590     1.087946     1.080303     1.072660     1.065017     1.057374     1.049731     1.042088     1.034445     1.026802
      1.019158     1.011515     1.003872     0.996229     0.988586     0.980943     0.973300     0.965657     0.958014     0.950371
      0.942727     0.935084     0.927441     0.919798     0.912155     0.904512     0.896869     0.889226     0.881583     0.873940
      0.866296     0.858653     0.851010     0.843367     0.835724     0.828081     0.820438     0.812795     0.805152     0.797508
      0.789865     0.782222     0.774579     0.766936     0.759293     0.751650     0.744007     0.736364     0.728721     0.721077
      0.713434     0.705791     0.698148     0.690505     0.682862     0.675219     0.667576     0.659933     0.652290     0.644646
      0.637003     0.629360     0.621717     0.614074     0.606431     0.598788     0.591145     0.583502     0.575858     0.568215
      0.560572     0.552929     0.545286     0.537643     0.530000     0.522357     0.514714     0.507071     0.499427     0.491784
      0.484141     0.476498     0.468855     0.461212     0.453569     0.445925     0.438282     0.430639     0.422996     0.415353
      0.407710     0.400067     0.392424     0.384780     0.377137     0.369494     0.361851     0.354208     0.346565     0.338922
      0.331278     0.323635     0.315992     0.308349     0.300706     0.293063     0.285420     0.277777     0.270133     0.262490
      0.254847     0.247204     0.239561     0.231918     0.224275     0.216631     0.208988     0.201345
 NY phased data points follow
   1.33956E+02  1.32260E+02  1.30606E+02  1.28059E+02  1.26637E+02  1.26931E+02  1.25048E+02  1.24198E+02  1.24613E+02  1.21380E+02
   1.21199E+02  1.21428E+02  1.20027E+02  1.17471E+02  1.15714E+02  1.15027E+02  1.12146E+02  1.10144E+02  1.07524E+02  1.09462E+02
   1.06201E+02  1.04040E+02  1.07299E+02  1.02941E+02  1.03648E+02  1.01493E+02  1.02564E+02  1.01468E+02  1.00985E+02  9.94633E+01
   1.01298E+02  9.87197E+01  9.84308E+01  9.78668E+01  9.73383E+01  9.64624E+01  9.72830E+01  9.39942E+01  9.46377E+01  9.44958E+01
   9.40734E+01  9.12709E+01  9.09324E+01  9.03151E+01  9.09384E+01  9.10728E+01  8.91759E+01  8.74285E+01  8.98937E+01  8.71741E+01
   8.48487E+01  8.69212E+01  8.61445E+01  8.14963E+01  8.23271E+01  8.19420E+01  8.12493E+01  8.08729E+01  8.10729E+01  7.84144E+01
   8.05734E+01  7.67767E+01  7.88491E+01  7.91141E+01  8.09073E+01  7.54770E+01  7.50902E+01  7.42001E+01  7.49873E+01  7.26188E+01
   7.39796E+01  7.20931E+01  7.31872E+01  7.44477E+01  7.21249E+01  7.09670E+01  7.06169E+01  6.91708E+01  7.04269E+01  6.70473E+01
   6.93320E+01  6.84547E+01  6.71476E+01  6.63169E+01  6.68586E+01  6.64040E+01  6.60072E+01  6.62659E+01  6.47452E+01  6.27819E+01
   6.17357E+01  6.13512E+01  6.29520E+01  6.24725E+01  6.27816E+01  6.05211E+01  6.07355E+01  5.98705E+01  5.90736E+01  5.83811E+01
   5.93266E+01  5.98296E+01  5.93494E+01  5.92644E+01  5.93574E+01  6.17051E+01  6.10344E+01  5.96264E+01  5.70304E+01  5.74106E+01
   5.78134E+01  5.50002E+01  5.47025E+01  5.42838E+01  5.47606E+01  5.38302E+01  5.42180E+01  5.34027E+01  5.40755E+01  5.30202E+01
   5.28902E+01  5.17362E+01  5.31399E+01  5.22072E+01  5.37094E+01  5.38330E+01  5.30638E+01  5.43307E+01  5.36901E+01  5.58558E+01
   5.43035E+01  5.44385E+01  5.48661E+01  4.99588E+01  4.96807E+01  4.97324E+01  4.80106E+01  4.79216E+01  5.04725E+01  4.86319E+01
   4.87256E+01  4.85724E+01  4.74381E+01  4.80097E+01  4.67242E+01  4.74755E+01  4.78032E+01  4.72756E+01  4.65094E+01  4.78973E+01
   4.73944E+01  4.68932E+01  4.66034E+01  4.42964E+01  4.67672E+01  4.36900E+01  4.55055E+01  4.51335E+01  4.56515E+01  4.34902E+01
   4.31519E+01  4.44359E+01  4.38656E+01  4.27326E+01  4.32499E+01  4.31113E+01  4.41164E+01  4.27625E+01  4.27447E+01  4.34283E+01
   4.33241E+01  4.31033E+01  4.20643E+01  4.23973E+01  4.25719E+01  4.12167E+01  4.23374E+01  4.12588E+01  4.09761E+01  3.94464E+01
   4.07717E+01  4.05089E+01  4.02767E+01  3.96453E+01  3.90141E+01  3.99442E+01  3.99442E+01  3.96122E+01  4.01734E+01  3.88900E+01
   3.97016E+01  3.85027E+01  4.05972E+01  4.00605E+01  3.86503E+01  3.95639E+01  3.96277E+01  3.85850E+01  3.88386E+01  4.07305E+01
   3.75872E+01  3.72808E+01  3.90397E+01  3.88272E+01  3.93685E+01  4.03941E+01  3.93071E+01  3.80845E+01  3.50894E+01  3.85564E+01
   3.70417E+01  3.76193E+01  3.87106E+01  3.83120E+01  3.74786E+01  3.86046E+01  4.02924E+01  4.01781E+01  4.04810E+01  4.00787E+01
   4.18871E+01  3.85205E+01  3.85160E+01  3.97109E+01  3.96010E+01  3.99631E+01  3.83909E+01  4.04482E+01  4.12415E+01  4.05340E+01
   3.98291E+01  3.84565E+01  4.13582E+01  3.84550E+01  4.12452E+01  3.98957E+01  3.92601E+01  3.78979E+01  4.02807E+01  3.99182E+01
   3.97696E+01  4.06976E+01  3.95326E+01  3.92680E+01  3.77481E+01  3.82054E+01  4.04235E+01  4.06198E+01  4.16226E+01  3.83976E+01
   3.98393E+01  3.82971E+01  3.71531E+01  4.01489E+01  4.10989E+01  3.95893E+01  4.22849E+01  4.58237E+01  4.58057E+01  4.98010E+01
   4.71455E+01  4.93493E+01  5.18469E+01  5.54526E+01  5.03266E+01  4.69598E+01  4.59638E+01  4.47349E+01  4.53775E+01  4.54975E+01
   4.58775E+01  4.54041E+01  4.54730E+01  4.68843E+01  4.76194E+01  4.80883E+01  4.86479E+01  4.85888E+01  4.83685E+01  5.13469E+01
   5.03301E+01  4.85071E+01  5.04614E+01  4.84994E+01  4.89078E+01  5.10500E+01  5.12050E+01  4.91784E+01  4.98967E+01  5.01743E+01
   5.14797E+01  5.03216E+01  5.24493E+01  5.04389E+01  5.10362E+01  5.07673E+01  5.06170E+01  5.16724E+01  5.10845E+01  5.24944E+01
   5.32250E+01  5.13064E+01  5.15018E+01  5.20628E+01  5.28351E+01  5.28804E+01  5.43508E+01  5.36873E+01  5.52692E+01  5.49332E+01
   5.28192E+01  5.43013E+01  5.33501E+01  5.29964E+01  5.30109E+01  5.33174E+01  5.50456E+01  5.32746E+01  5.30811E+01  5.46186E+01
   5.58393E+01  5.29938E+01  5.46087E+01  5.45542E+01  5.28871E+01  5.35713E+01  5.35602E+01  5.31146E+01  5.25453E+01  5.23890E+01
   5.26960E+01  5.17169E+01  5.26646E+01  5.30039E+01  5.10191E+01  5.01960E+01  4.85345E+01  4.87740E+01  4.82985E+01  4.77399E+01
   4.76443E+01  4.64436E+01  4.60972E+01  4.60603E+01  4.45118E+01  4.65525E+01  4.45050E+01  4.36967E+01  4.22443E+01  4.28408E+01
   4.40418E+01  4.24752E+01  4.17907E+01  4.14182E+01  4.14181E+01  3.85767E+01  3.97425E+01  4.02067E+01  3.98859E+01  4.03577E+01
   3.65643E+01  3.44790E+01  3.64619E+01  3.52908E+01  3.63523E+01  3.58742E+01  3.55252E+01  3.67820E+01  3.65243E+01  3.45490E+01
   3.55179E+01  3.37388E+01  3.22381E+01  3.30094E+01  3.42562E+01  3.27652E+01  3.39584E+01  3.20949E+01  3.14831E+01  3.12673E+01
   3.32003E+01  3.21938E+01  3.20219E+01  3.16790E+01  2.96134E+01  3.06459E+01  2.97770E+01  2.93523E+01  2.94053E+01  2.94230E+01
   3.10798E+01  3.13202E+01  2.97308E+01  2.91026E+01  3.12585E+01  2.96824E+01  2.91525E+01  3.00243E+01  2.92765E+01  2.95193E+01
   2.93351E+01  2.88986E+01  3.06388E+01  2.83452E+01  2.90285E+01  2.95502E+01  3.12029E+01  2.99507E+01  2.81308E+01  2.88683E+01
   2.81512E+01  2.84863E+01  2.82293E+01  2.74800E+01  2.67847E+01  2.85770E+01  2.75954E+01  2.76223E+01  2.60514E+01  2.90758E+01
   2.77279E+01  2.54557E+01  2.63594E+01  2.47285E+01  2.57330E+01  2.56660E+01  2.66929E+01  2.53954E+01  2.76861E+01  2.47994E+01
   2.57151E+01  2.53002E+01  2.38486E+01  2.58281E+01  2.57935E+01  2.52513E+01  2.39910E+01  2.59389E+01  2.43011E+01  2.45017E+01
   2.34420E+01  2.31578E+01  2.49119E+01  2.34741E+01  2.29239E+01  2.34125E+01  2.53577E+01  2.52993E+01  2.26332E+01  2.21107E+01
   2.27440E+01  2.34755E+01  2.31171E+01  2.28831E+01  2.31665E+01  2.25377E+01  2.06632E+01  2.05514E+01  2.43039E+01  2.21481E+01
   2.27907E+01  2.27635E+01  2.18578E+01  2.24631E+01  2.06133E+01  2.11492E+01  2.08685E+01  2.03263E+01  2.11035E+01  2.09930E+01
   2.03176E+01  1.96495E+01  2.08118E+01  2.08608E+01  2.09783E+01  2.11324E+01  1.77986E+01  1.99620E+01  2.03801E+01  1.90965E+01
   1.83490E+01  1.83014E+01  2.02927E+01  1.82305E+01  1.77762E+01  1.89521E+01  2.01027E+01  1.91515E+01  1.94831E+01  1.61387E+01
   1.85484E+01  1.76575E+01  1.71583E+01  1.82553E+01  1.77445E+01  1.75937E+01  1.78394E+01  1.74202E+01
 NY points of the fit to the data follow
   1.30953E+02  1.29419E+02  1.27984E+02  1.26680E+02  1.25615E+02  1.24833E+02  1.24202E+02  1.23561E+02  1.22853E+02  1.22138E+02
   1.21458E+02  1.20678E+02  1.19568E+02  1.18050E+02  1.16303E+02  1.14599E+02  1.13119E+02  1.11910E+02  1.10878E+02  1.09911E+02
   1.08979E+02  1.08066E+02  1.07152E+02  1.06228E+02  1.05296E+02  1.04361E+02  1.03425E+02  1.02510E+02  1.01641E+02  1.00825E+02
   1.00064E+02  9.93664E+01  9.87381E+01  9.81615E+01  9.75559E+01  9.68044E+01  9.58626E+01  9.48027E+01  9.37444E+01  9.27667E+01
   9.18716E+01  9.10145E+01  9.02477E+01  8.97402E+01  8.95484E+01  8.95067E+01  8.94067E+01  8.91965E+01  8.89489E+01  8.86447E+01
   8.80392E+01  8.68751E+01  8.52029E+01  8.33868E+01  8.18474E+01  8.08348E+01  8.03262E+01  8.01035E+01  7.99380E+01  7.97070E+01
   7.93931E+01  7.90101E+01  7.85381E+01  7.79235E+01  7.71389E+01  7.62314E+01  7.53081E+01  7.45191E+01  7.39609E+01  7.36031E+01
   7.33474E+01  7.30896E+01  7.27781E+01  7.24056E+01  7.19669E+01  7.14472E+01  7.08480E+01  7.02049E+01  6.95632E+01  6.89498E+01
   6.83862E+01  6.78820E+01  6.74113E+01  6.69158E+01  6.63482E+01  6.57178E+01  6.50746E+01  6.44438E+01  6.37975E+01  6.31178E+01
   6.24664E+01  6.19584E+01  6.16663E+01  6.15446E+01  6.14730E+01  6.13294E+01  6.10658E+01  6.07046E+01  6.03350E+01  6.01046E+01
   6.00207E+01  5.99768E+01  5.99172E+01  5.98974E+01  5.99958E+01  6.01298E+01  6.00239E+01  5.94633E+01  5.85153E+01  5.74610E+01
   5.65524E+01  5.58975E+01  5.54665E+01  5.51228E+01  5.48050E+01  5.44942E+01  5.41838E+01  5.38719E+01  5.35609E+01  5.32552E+01
   5.29655E+01  5.27416E+01  5.27609E+01  5.31101E+01  5.36140E+01  5.40506E+01  5.43733E+01  5.47001E+01  5.50639E+01  5.52124E+01
   5.47893E+01  5.37307E+01  5.23591E+01  5.10882E+01  5.01569E+01  4.95992E+01  4.92516E+01  4.89654E+01  4.87029E+01  4.84538E+01
   4.82158E+01  4.79886E+01  4.77684E+01  4.75488E+01  4.73284E+01  4.71122E+01  4.69051E+01  4.67061E+01  4.65073E+01  4.63018E+01
   4.60898E+01  4.58784E+01  4.56747E+01  4.54807E+01  4.52945E+01  4.51086E+01  4.49086E+01  4.46908E+01  4.44672E+01  4.42536E+01
   4.40591E+01  4.38719E+01  4.36779E+01  4.34884E+01  4.33301E+01  4.32128E+01  4.31124E+01  4.29880E+01  4.28152E+01  4.26025E+01
   4.23811E+01  4.21663E+01  4.19596E+01  4.17720E+01  4.16070E+01  4.14574E+01  4.13024E+01  4.11350E+01  4.09813E+01  4.08716E+01
   4.08010E+01  4.07260E+01  4.06065E+01  4.04559E+01  4.03247E+01  4.02444E+01  4.02007E+01  4.01533E+01  4.00850E+01  4.00093E+01
   3.99510E+01  3.99057E+01  3.98448E+01  3.97436E+01  3.95956E+01  3.94201E+01  3.92647E+01  3.91737E+01  3.91598E+01  3.92078E+01
   3.92981E+01  3.94203E+01  3.95617E+01  3.96914E+01  3.97438E+01  3.96299E+01  3.93269E+01  3.89133E+01  3.84718E+01  3.80483E+01
   3.76772E+01  3.74278E+01  3.73970E+01  3.76256E+01  3.80314E+01  3.84637E+01  3.88097E+01  3.90148E+01  3.90648E+01  3.90074E+01
   3.89054E+01  3.87982E+01  3.87187E+01  3.86843E+01  3.87054E+01  3.87842E+01  3.89058E+01  3.90363E+01  3.91438E+01  3.92172E+01
   3.92534E+01  3.92375E+01  3.91801E+01  3.91300E+01  3.91343E+01  3.92059E+01  3.93278E+01  3.94817E+01  3.96602E+01  3.98802E+01
   4.01415E+01  4.03953E+01  4.05680E+01  4.05980E+01  4.04761E+01  4.02833E+01  4.01372E+01  4.01178E+01  4.02434E+01  4.04881E+01
   4.08006E+01  4.11320E+01  4.14631E+01  4.17775E+01  4.20972E+01  4.26872E+01  4.38219E+01  4.52937E+01  4.66930E+01  4.78760E+01
   4.90475E+01  5.03781E+01  5.15285E+01  5.17990E+01  5.08651E+01  4.91627E+01  4.74624E+01  4.62919E+01  4.58058E+01  4.57787E+01
   4.58883E+01  4.60473E+01  4.62361E+01  4.64466E+01  4.66741E+01  4.69144E+01  4.71615E+01  4.74095E+01  4.76545E+01  4.78950E+01
   4.81312E+01  4.83654E+01  4.86002E+01  4.88371E+01  4.90768E+01  4.93191E+01  4.95630E+01  4.98069E+01  5.00491E+01  5.02878E+01
   5.05217E+01  5.07504E+01  5.09736E+01  5.11913E+01  5.14031E+01  5.16088E+01  5.18079E+01  5.20000E+01  5.21845E+01  5.23606E+01
   5.25274E+01  5.26841E+01  5.28299E+01  5.29640E+01  5.30858E+01  5.31949E+01  5.32913E+01  5.33747E+01  5.34452E+01  5.35030E+01
   5.35482E+01  5.35813E+01  5.36028E+01  5.36131E+01  5.36124E+01  5.36008E+01  5.35782E+01  5.35442E+01  5.34987E+01  5.34418E+01
   5.33727E+01  5.32907E+01  5.31944E+01  5.30824E+01  5.29528E+01  5.28038E+01  5.26333E+01  5.24394E+01  5.22204E+01  5.19751E+01
   5.17024E+01  5.14018E+01  5.10732E+01  5.07171E+01  5.03348E+01  4.99279E+01  4.94983E+01  4.90484E+01  4.85809E+01  4.80989E+01
   4.76052E+01  4.71029E+01  4.65947E+01  4.60834E+01  4.55715E+01  4.50610E+01  4.45540E+01  4.40520E+01  4.35562E+01  4.30675E+01
   4.25867E+01  4.21144E+01  4.16508E+01  4.11962E+01  4.07507E+01  4.03141E+01  3.98866E+01  3.94681E+01  3.90587E+01  3.86583E+01
   3.82669E+01  3.78848E+01  3.75120E+01  3.71484E+01  3.67935E+01  3.64471E+01  3.61087E+01  3.57783E+01  3.54555E+01  3.51401E+01
   3.48322E+01  3.45314E+01  3.42379E+01  3.39516E+01  3.36725E+01  3.34006E+01  3.31361E+01  3.28790E+01  3.26294E+01  3.23876E+01
   3.21538E+01  3.19282E+01  3.17111E+01  3.15028E+01  3.13038E+01  3.11143E+01  3.09347E+01  3.07655E+01  3.06069E+01  3.04593E+01
   3.03227E+01  3.01972E+01  3.00827E+01  2.99786E+01  2.98845E+01  2.97995E+01  2.97222E+01  2.96514E+01  2.95852E+01  2.95217E+01
   2.94589E+01  2.93946E+01  2.93266E+01  2.92529E+01  2.91716E+01  2.90811E+01  2.89803E+01  2.88684E+01  2.87449E+01  2.86101E+01
   2.84644E+01  2.83087E+01  2.81444E+01  2.79730E+01  2.77963E+01  2.76158E+01  2.74334E+01  2.72509E+01  2.70697E+01  2.68912E+01
   2.67164E+01  2.65463E+01  2.63815E+01  2.62224E+01  2.60691E+01  2.59217E+01  2.57801E+01  2.56439E+01  2.55128E+01  2.53865E+01
   2.52644E+01  2.51462E+01  2.50313E+01  2.49194E+01  2.48100E+01  2.47027E+01  2.45971E+01  2.44930E+01  2.43899E+01  2.42876E+01
   2.41859E+01  2.40845E+01  2.39832E+01  2.38818E+01  2.37800E+01  2.36777E+01  2.35747E+01  2.34709E+01  2.33662E+01  2.32602E+01
   2.31530E+01  2.30443E+01  2.29342E+01  2.28223E+01  2.27089E+01  2.25939E+01  2.24774E+01  2.23595E+01  2.22402E+01  2.21197E+01
   2.19978E+01  2.18748E+01  2.17507E+01  2.16255E+01  2.14994E+01  2.13723E+01  2.12444E+01  2.11157E+01  2.09863E+01  2.08563E+01
   2.07257E+01  2.05946E+01  2.04631E+01  2.03312E+01  2.01991E+01  2.00667E+01  1.99342E+01  1.98017E+01  1.96691E+01  1.95366E+01
   1.94043E+01  1.92722E+01  1.91404E+01  1.90089E+01  1.88779E+01  1.87474E+01  1.86175E+01  1.84883E+01  1.83598E+01  1.82321E+01
   1.81052E+01  1.79794E+01  1.78545E+01  1.77307E+01  1.76081E+01  1.74867E+01  1.73667E+01  1.72480E+01
 NY background values follow
     1.293E+02    1.282E+02    1.270E+02    1.259E+02    1.248E+02    1.238E+02    1.227E+02    1.216E+02    1.205E+02    1.195E+02
     1.185E+02    1.174E+02    1.164E+02    1.154E+02    1.144E+02    1.134E+02    1.124E+02    1.114E+02    1.104E+02    1.095E+02
     1.085E+02    1.076E+02    1.067E+02    1.057E+02    1.048E+02    1.039E+02    1.030E+02    1.021E+02    1.012E+02    1.004E+02
     9.950E+01    9.865E+01    9.780E+01    9.697E+01    9.614E+01    9.533E+01    9.452E+01    9.372E+01    9.293E+01    9.215E+01
     9.137E+01    9.061E+01    8.985E+01    8.911E+01    8.837E+01    8.764E+01    8.693E+01    8.622E+01    8.552E+01    8.482E+01
     8.414E+01    8.346E+01    8.280E+01    8.214E+01    8.149E+01    8.085E+01    8.021E+01    7.959E+01    7.897E+01    7.836E+01
     7.776E+01    7.717E+01    7.658E+01    7.600E+01    7.543E+01    7.487E+01    7.431E+01    7.376E+01    7.322E+01    7.269E+01
     7.216E+01    7.164E+01    7.113E+01    7.062E+01    7.012E+01    6.962E+01    6.914E+01    6.866E+01    6.818E+01    6.771E+01
     6.725E+01    6.680E+01    6.635E+01    6.590E+01    6.547E+01    6.503E+01    6.461E+01    6.419E+01    6.377E+01    6.336E+01
     6.296E+01    6.256E+01    6.217E+01    6.178E+01    6.139E+01    6.102E+01    6.064E+01    6.027E+01    5.991E+01    5.955E+01
     5.920E+01    5.885E+01    5.850E+01    5.816E+01    5.783E+01    5.749E+01    5.717E+01    5.684E+01    5.653E+01    5.621E+01
     5.590E+01    5.559E+01    5.529E+01    5.499E+01    5.470E+01    5.440E+01    5.412E+01    5.383E+01    5.355E+01    5.327E+01
     5.300E+01    5.273E+01    5.246E+01    5.220E+01    5.194E+01    5.168E+01    5.142E+01    5.117E+01    5.092E+01    5.068E+01
     5.043E+01    5.019E+01    4.995E+01    4.972E+01    4.948E+01    4.925E+01    4.902E+01    4.879E+01    4.857E+01    4.835E+01
     4.813E+01    4.791E+01    4.770E+01    4.748E+01    4.727E+01    4.706E+01    4.686E+01    4.665E+01    4.645E+01    4.625E+01
     4.605E+01    4.586E+01    4.567E+01    4.548E+01    4.529E+01    4.510E+01    4.492E+01    4.474E+01    4.456E+01    4.438E+01
     4.421E+01    4.404E+01    4.387E+01    4.370E+01    4.353E+01    4.337E+01    4.321E+01    4.305E+01    4.289E+01    4.274E+01
     4.259E+01    4.244E+01    4.229E+01    4.215E+01    4.201E+01    4.187E+01    4.173E+01    4.159E+01    4.146E+01    4.133E+01
     4.120E+01    4.107E+01    4.095E+01    4.083E+01    4.071E+01    4.059E+01    4.048E+01    4.036E+01    4.026E+01    4.015E+01
     4.005E+01    3.995E+01    3.985E+01    3.975E+01    3.966E+01    3.958E+01    3.949E+01    3.941E+01    3.933E+01    3.926E+01
     3.919E+01    3.912E+01    3.905E+01    3.899E+01    3.894E+01    3.889E+01    3.884E+01    3.879E+01    3.875E+01    3.872E+01
     3.868E+01    3.866E+01    3.863E+01    3.861E+01    3.860E+01    3.859E+01    3.858E+01    3.858E+01    3.859E+01    3.860E+01
     3.861E+01    3.863E+01    3.865E+01    3.868E+01    3.871E+01    3.875E+01    3.880E+01    3.885E+01    3.890E+01    3.896E+01
     3.903E+01    3.910E+01    3.918E+01    3.926E+01    3.934E+01    3.943E+01    3.953E+01    3.963E+01    3.973E+01    3.985E+01
     3.996E+01    4.008E+01    4.020E+01    4.033E+01    4.047E+01    4.061E+01    4.075E+01    4.090E+01    4.105E+01    4.120E+01
     4.136E+01    4.153E+01    4.170E+01    4.187E+01    4.205E+01    4.223E+01    4.241E+01    4.260E+01    4.279E+01    4.299E+01
     4.319E+01    4.340E+01    4.360E+01    4.382E+01    4.403E+01    4.425E+01    4.447E+01    4.470E+01    4.493E+01    4.516E+01
     4.540E+01    4.564E+01    4.588E+01    4.613E+01    4.638E+01    4.663E+01    4.688E+01    4.713E+01    4.739E+01    4.764E+01
     4.789E+01    4.814E+01    4.839E+01    4.864E+01    4.889E+01    4.913E+01    4.937E+01    4.960E+01    4.983E+01    5.006E+01
     5.028E+01    5.049E+01    5.070E+01    5.090E+01    5.109E+01    5.128E+01    5.145E+01    5.162E+01    5.178E+01    5.193E+01
     5.206E+01    5.219E+01    5.231E+01    5.241E+01    5.250E+01    5.258E+01    5.265E+01    5.270E+01    5.274E+01    5.276E+01
     5.277E+01    5.276E+01    5.274E+01    5.270E+01    5.264E+01    5.256E+01    5.247E+01    5.235E+01    5.222E+01    5.207E+01
     5.191E+01    5.173E+01    5.153E+01    5.131E+01    5.108E+01    5.084E+01    5.058E+01    5.031E+01    5.003E+01    4.974E+01
     4.943E+01    4.912E+01    4.879E+01    4.845E+01    4.811E+01    4.775E+01    4.739E+01    4.702E+01    4.665E+01    4.627E+01
     4.588E+01    4.549E+01    4.509E+01    4.469E+01    4.429E+01    4.388E+01    4.347E+01    4.307E+01    4.266E+01    4.225E+01
     4.184E+01    4.143E+01    4.102E+01    4.061E+01    4.021E+01    3.981E+01    3.942E+01    3.902E+01    3.864E+01    3.826E+01
     3.788E+01    3.751E+01    3.715E+01    3.680E+01    3.646E+01    3.612E+01    3.579E+01    3.546E+01    3.514E+01    3.483E+01
     3.453E+01    3.423E+01    3.394E+01    3.366E+01    3.338E+01    3.311E+01    3.285E+01    3.259E+01    3.234E+01    3.209E+01
     3.185E+01    3.161E+01    3.138E+01    3.116E+01    3.094E+01    3.072E+01    3.051E+01    3.031E+01    3.011E+01    2.991E+01
     2.972E+01    2.954E+01    2.936E+01    2.918E+01    2.901E+01    2.884E+01    2.868E+01    2.852E+01    2.836E+01    2.821E+01
     2.806E+01    2.791E+01    2.777E+01    2.763E+01    2.750E+01    2.737E+01    2.724E+01    2.711E+01    2.699E+01    2.687E+01
     2.675E+01    2.663E+01    2.652E+01    2.641E+01    2.630E+01    2.619E+01    2.609E+01    2.598E+01    2.588E+01    2.578E+01
     2.568E+01    2.559E+01    2.549E+01    2.540E+01    2.530E+01    2.521E+01    2.512E+01    2.503E+01    2.494E+01    2.485E+01
     2.476E+01    2.467E+01    2.459E+01    2.450E+01    2.441E+01    2.432E+01    2.423E+01    2.415E+01    2.406E+01    2.397E+01
     2.388E+01    2.379E+01    2.370E+01    2.360E+01    2.351E+01    2.342E+01    2.332E+01    2.322E+01    2.312E+01    2.302E+01
     2.292E+01    2.282E+01    2.271E+01    2.261E+01    2.250E+01    2.239E+01    2.228E+01    2.216E+01    2.205E+01    2.193E+01
     2.181E+01    2.169E+01    2.157E+01    2.145E+01    2.132E+01    2.120E+01    2.107E+01    2.095E+01    2.082E+01    2.069E+01
     2.057E+01    2.044E+01    2.031E+01    2.018E+01    2.005E+01    1.992E+01    1.979E+01    1.966E+01    1.952E+01    1.939E+01
     1.926E+01    1.913E+01    1.900E+01    1.887E+01    1.874E+01    1.862E+01    1.849E+01    1.836E+01    1.823E+01    1.811E+01
     1.798E+01    1.786E+01    1.773E+01    1.761E+01    1.749E+01    1.737E+01    1.725E+01    1.713E+01
 Asp      Conc. = 2.64E+01
