 LCModel (Version 6.3-1L) Copyright: S.W. Provencher.          Ref.: Magn. Reson. Med. 30:672-679 (1993).                
 Slice#2 Row#14 Col#9  PD_05_press_1_raw_act
 36 lines in following concentration table = NCONC+1
    Conc.  %SD /Cr+PCr  Metabolite                                         
    5.646 512%   0.113 Ala                                                 
    5.409  86%   0.108 Asp                                                 
   14.607 287%   0.293 Cr                                                  
   35.305 119%   0.707 PCr                                                 
    3.434  81% 6.9E-02 GABA                                                
    3.005  93% 6.0E-02 Glc                                                 
   95.237  65%   1.908 Gln                                                 
   80.945  83%   1.622 Glu                                                 
    5.814  82%   0.116 GPC                                                 
    0.000 999%   0.000 PCh                                                 
   18.485 103%   0.370 GSH                                                 
    0.000 999%   0.000 Ins                                                 
   14.820 216%   0.297 Lac                                                 
   41.801  43%   0.838 NAA                                                 
    1.453 999% 2.9E-02 NAAG                                                
    0.968  96% 1.9E-02 Scyllo                                              
    4.218 110% 8.5E-02 Tau                                                 
    0.000 999%   0.000 -CrCH2                                              
    5.814  82%   0.116 GPC+PCh                                             
   43.254  41%   0.867 NAA+NAAG                                            
   49.911  25%   1.000 Cr+PCr                                              
  176.182  55%   3.530 Glu+Gln                                             
    0.000 999%   0.000 Lip13a                                              
    2.273 999% 4.6E-02 Lip13b                                              
    0.606 999% 1.2E-02 Lip09                                               
  151.346  27%   3.032 MM09                                                
    0.341 999% 6.8E-03 Lip20                                               
  256.186  28%   5.133 MM20                                                
   42.384  48%   0.849 MM12                                                
  239.447  22%   4.797 MM14                                                
   94.663  43%   1.897 MM17                                                
    2.273 999% 4.6E-02 Lip13a+Lip13b                                       
  284.104  23%   5.692 MM14+Lip13a+Lip13b+MM12                             
  151.952  27%   3.044 MM09+Lip09                                          
  256.528  28%   5.140 MM20+Lip20                                          
   6 lines in following misc. output table
  FWHM = 0.061 ppm    S/N =   1                                            
  Data shift =-0.054 ppm                                                   
  Ph: 127 deg      11.3 deg/ppm                                            
  alphaB,S = 6.3E-01,   2.4E+01                                            
   14 spline knots.   Ns = 5(1)                                            
  ( 7) 2 infls.   ( 7) 1 extrs.                                            
  498 points on ppm-axis = NY
      4.000000     3.992357     3.984714     3.977070     3.969427     3.961784     3.954141     3.946497     3.938854     3.931211
      3.923568     3.915925     3.908281     3.900638     3.892995     3.885352     3.877708     3.870065     3.862422     3.854779
      3.847136     3.839492     3.831849     3.824206     3.816563     3.808919     3.801276     3.793633     3.785990     3.778347
      3.770703     3.763060     3.755417     3.747774     3.740130     3.732487     3.724844     3.717201     3.709558     3.701914
      3.694271     3.686628     3.678985     3.671341     3.663698     3.656055     3.648412     3.640769     3.633125     3.625482
      3.617839     3.610196     3.602552     3.594909     3.587266     3.579623     3.571980     3.564336     3.556693     3.549050
      3.541407     3.533763     3.526120     3.518477     3.510834     3.503191     3.495547     3.487904     3.480261     3.472618
      3.464974     3.457331     3.449688     3.442045     3.434402     3.426758     3.419115     3.411472     3.403829     3.396185
      3.388542     3.380899     3.373256     3.365613     3.357969     3.350326     3.342683     3.335040     3.327396     3.319753
      3.312110     3.304467     3.296824     3.289180     3.281537     3.273894     3.266251     3.258607     3.250964     3.243321
      3.235678     3.228034     3.220391     3.212748     3.205105     3.197462     3.189818     3.182175     3.174532     3.166889
      3.159245     3.151602     3.143959     3.136316     3.128673     3.121029     3.113386     3.105743     3.098100     3.090456
      3.082813     3.075170     3.067527     3.059884     3.052240     3.044597     3.036954     3.029311     3.021667     3.014024
      3.006381     2.998738     2.991095     2.983451     2.975808     2.968165     2.960522     2.952878     2.945235     2.937592
      2.929949     2.922306     2.914662     2.907019     2.899376     2.891733     2.884089     2.876446     2.868803     2.861160
      2.853517     2.845873     2.838230     2.830587     2.822944     2.815300     2.807657     2.800014     2.792371     2.784728
      2.777084     2.769441     2.761798     2.754155     2.746511     2.738868     2.731225     2.723582     2.715939     2.708295
      2.700652     2.693009     2.685366     2.677722     2.670079     2.662436     2.654793     2.647150     2.639506     2.631863
      2.624220     2.616577     2.608933     2.601290     2.593647     2.586004     2.578361     2.570717     2.563074     2.555431
      2.547788     2.540144     2.532501     2.524858     2.517215     2.509572     2.501928     2.494285     2.486642     2.478999
      2.471355     2.463712     2.456069     2.448426     2.440783     2.433139     2.425496     2.417853     2.410210     2.402566
      2.394923     2.387280     2.379637     2.371994     2.364350     2.356707     2.349064     2.341421     2.333777     2.326134
      2.318491     2.310848     2.303205     2.295561     2.287918     2.280275     2.272632     2.264988     2.257345     2.249702
      2.242059     2.234416     2.226772     2.219129     2.211486     2.203843     2.196199     2.188556     2.180913     2.173270
      2.165627     2.157983     2.150340     2.142697     2.135054     2.127410     2.119767     2.112124     2.104481     2.096838
      2.089194     2.081551     2.073908     2.066265     2.058621     2.050978     2.043335     2.035692     2.028049     2.020405
      2.012762     2.005119     1.997476     1.989833     1.982190     1.974546     1.966903     1.959260     1.951617     1.943974
      1.936331     1.928688     1.921045     1.913402     1.905759     1.898115     1.890472     1.882829     1.875186     1.867543
      1.859900     1.852257     1.844614     1.836971     1.829327     1.821684     1.814041     1.806398     1.798755     1.791112
      1.783469     1.775826     1.768183     1.760540     1.752896     1.745253     1.737610     1.729967     1.722324     1.714681
      1.707038     1.699395     1.691752     1.684108     1.676465     1.668822     1.661179     1.653536     1.645893     1.638250
      1.630607     1.622964     1.615321     1.607677     1.600034     1.592391     1.584748     1.577105     1.569462     1.561819
      1.554176     1.546533     1.538890     1.531246     1.523603     1.515960     1.508317     1.500674     1.493031     1.485388
      1.477745     1.470102     1.462458     1.454815     1.447172     1.439529     1.431886     1.424243     1.416600     1.408957
      1.401314     1.393671     1.386027     1.378384     1.370741     1.363098     1.355455     1.347812     1.340169     1.332526
      1.324883     1.317240     1.309596     1.301953     1.294310     1.286667     1.279024     1.271381     1.263738     1.256095
      1.248452     1.240808     1.233165     1.225522     1.217879     1.210236     1.202593     1.194950     1.187307     1.179664
      1.172021     1.164377     1.156734     1.149091     1.141448     1.133805     1.126162     1.118519     1.110876     1.103233
      1.095590     1.087946     1.080303     1.072660     1.065017     1.057374     1.049731     1.042088     1.034445     1.026802
      1.019158     1.011515     1.003872     0.996229     0.988586     0.980943     0.973300     0.965657     0.958014     0.950371
      0.942727     0.935084     0.927441     0.919798     0.912155     0.904512     0.896869     0.889226     0.881583     0.873940
      0.866296     0.858653     0.851010     0.843367     0.835724     0.828081     0.820438     0.812795     0.805152     0.797508
      0.789865     0.782222     0.774579     0.766936     0.759293     0.751650     0.744007     0.736364     0.728721     0.721077
      0.713434     0.705791     0.698148     0.690505     0.682862     0.675219     0.667576     0.659933     0.652290     0.644646
      0.637003     0.629360     0.621717     0.614074     0.606431     0.598788     0.591145     0.583502     0.575858     0.568215
      0.560572     0.552929     0.545286     0.537643     0.530000     0.522357     0.514714     0.507071     0.499427     0.491784
      0.484141     0.476498     0.468855     0.461212     0.453569     0.445925     0.438282     0.430639     0.422996     0.415353
      0.407710     0.400067     0.392424     0.384780     0.377137     0.369494     0.361851     0.354208     0.346565     0.338922
      0.331278     0.323635     0.315992     0.308349     0.300706     0.293063     0.285420     0.277777     0.270133     0.262490
      0.254847     0.247204     0.239561     0.231918     0.224275     0.216631     0.208988     0.201345
 NY phased data points follow
   1.59995E+01  1.47655E+01  1.33391E+01  1.51165E+01  1.36935E+01  1.32950E+01  1.37664E+01  1.36854E+01  1.28890E+01  1.19310E+01
   1.43785E+01  1.21933E+01  1.25721E+01  1.48727E+01  1.29863E+01  1.13243E+01  1.19707E+01  1.25079E+01  1.21994E+01  1.01812E+01
   1.09321E+01  1.30979E+01  1.16409E+01  1.26166E+01  1.03766E+01  1.14646E+01  1.00337E+01  1.14613E+01  1.07718E+01  1.18539E+01
   1.04210E+01  1.10281E+01  8.63893E+00  9.21504E+00  1.10102E+01  9.21307E+00  1.03468E+01  1.06358E+01  9.30184E+00  8.85633E+00
   8.89215E+00  9.24808E+00  8.91068E+00  8.80379E+00  8.28138E+00  1.03943E+01  8.30581E+00  7.14799E+00  8.08555E+00  7.90622E+00
   9.55895E+00  8.36444E+00  5.99078E+00  8.25609E+00  6.31696E+00  8.60519E+00  7.76216E+00  7.99521E+00  6.76405E+00  7.69498E+00
   8.41671E+00  5.67820E+00  7.29849E+00  7.04918E+00  7.44651E+00  6.44976E+00  7.12409E+00  7.92721E+00  7.82822E+00  7.13116E+00
   6.81074E+00  7.62710E+00  7.35836E+00  6.73543E+00  5.61349E+00  6.77806E+00  6.40952E+00  4.88884E+00  6.17944E+00  4.50339E+00
   6.23523E+00  6.37524E+00  7.70734E+00  9.05681E+00  7.51577E+00  5.20110E+00  5.12939E+00  5.48333E+00  5.62384E+00  7.48718E+00
   5.37902E+00  6.92954E+00  6.42517E+00  5.51061E+00  7.20168E+00  5.98422E+00  6.65501E+00  6.21692E+00  6.57487E+00  4.32724E+00
   6.53510E+00  6.58836E+00  6.17372E+00  6.57299E+00  6.61975E+00  6.37926E+00  5.99937E+00  5.68710E+00  6.84451E+00  5.73959E+00
   5.06296E+00  5.89357E+00  5.92744E+00  4.87332E+00  6.37259E+00  4.02254E+00  5.59312E+00  6.31179E+00  5.47506E+00  6.12923E+00
   5.29343E+00  5.11762E+00  4.13938E+00  4.46511E+00  4.26748E+00  5.42154E+00  7.05707E+00  7.38772E+00  7.08030E+00  5.52984E+00
   4.18344E+00  6.38464E+00  3.43142E+00  5.07429E+00  4.99871E+00  5.80361E+00  1.40979E+00  4.51694E+00  5.55635E+00  4.73677E+00
   3.78711E+00  5.71301E+00  3.74707E+00  3.25176E+00  5.04846E+00  5.34917E+00  4.62631E+00  3.20058E+00  3.46750E+00  3.04104E+00
   2.54921E+00  6.23113E+00  4.15389E+00  5.72608E+00  2.95363E+00  4.37335E+00  4.39258E+00  3.94884E+00  3.07648E+00  4.79821E+00
   3.87707E+00  3.70852E+00  3.84130E+00  4.84781E+00  3.87886E+00  4.05351E+00  4.81093E+00  3.36364E+00  2.99570E+00  4.75181E+00
   4.37008E+00  3.77884E+00  3.21129E+00  3.39093E+00  2.52089E+00  3.08989E+00  2.76147E+00  3.16444E+00  3.62966E+00  3.59499E+00
   2.65544E+00  2.88805E+00  2.64590E+00  4.11021E+00  2.22562E+00  3.19468E+00  2.05290E+00  1.89580E+00  3.62255E+00  3.04336E+00
   2.53001E+00  3.43668E+00  2.05282E+00  3.78788E+00  2.43218E+00  2.29093E+00  3.21268E+00  3.09119E+00  2.87656E+00  3.42174E+00
   3.15821E+00  2.56680E+00  4.69750E+00  3.55665E+00  2.57123E+00  3.79178E+00  2.42245E+00  4.15839E+00  3.87179E+00  2.53639E+00
   7.16392E-01  3.16861E+00  2.82735E+00  3.37769E+00  3.47813E+00  3.92274E+00  3.65973E+00  3.58863E+00  4.25070E+00  3.80689E-01
   3.83307E+00  2.24274E+00  3.29080E+00  3.77460E+00  3.67246E+00  2.77620E+00  3.80450E+00  2.50914E+00  3.38798E+00  2.72969E+00
   4.71903E+00  2.35149E+00  1.32049E+00  2.65763E+00  2.47222E+00  3.35649E+00  2.91371E+00  3.41387E+00  3.36867E+00  2.99964E+00
   3.19212E+00  2.89502E+00  2.49168E+00  2.96867E+00  2.48574E+00  4.99640E+00  2.94876E+00  2.85214E+00  3.89516E+00  2.08469E+00
   3.55301E+00  3.47590E+00  4.25594E+00  3.98726E+00  3.31341E+00  4.22652E+00  2.64815E+00  3.49324E+00  5.20346E+00  4.03240E+00
   4.45016E+00  3.10620E+00  3.85015E+00  5.77576E+00  4.46705E+00  3.07979E+00  1.90840E+00  2.37842E+00  2.24691E+00  4.26745E+00
   3.80931E+00  2.66041E+00  3.46445E+00  2.18979E+00  3.66284E+00  3.28296E+00  4.06524E+00  3.72462E+00  1.88654E+00  1.70583E+00
   2.64676E+00  3.16627E+00  1.12410E+00  1.94193E+00  2.97394E+00  3.01073E+00  1.65797E+00  2.62628E+00  2.11867E+00  1.60643E+00
   3.03969E+00  9.91949E-01  1.99582E+00  2.68036E+00  2.39430E+00  3.11557E+00  3.37668E+00  2.20526E+00  3.88697E+00  1.22789E+00
   2.90476E+00  3.05501E+00  2.43092E+00  3.31366E+00  1.71842E+00  3.70257E+00  8.24604E-01  3.12832E+00  1.81800E+00  2.65646E+00
   1.29347E+00  1.38475E+00  2.43431E+00  2.32198E+00  1.37094E+00  2.51073E+00  2.05578E+00  2.83183E+00  1.24059E+00  2.96426E+00
   2.35976E+00  3.03236E+00  2.03863E+00  9.95724E-01  1.61144E+00  3.35204E+00  1.32171E+00  9.84049E-01  2.40793E+00  2.78078E+00
   2.45906E+00  1.95882E+00  4.29654E+00  2.54391E+00  3.21911E+00  3.17409E+00  2.83055E+00  2.47030E+00  2.90320E+00  4.43974E+00
   3.43825E+00  3.51144E+00  2.11290E+00  3.91689E+00  2.34874E+00  2.38186E+00  3.58705E+00  1.34887E+00  3.09158E+00  3.01549E+00
   1.90552E+00  2.72059E+00  2.69499E+00  4.02389E-01  1.51098E+00  1.86577E+00  2.86989E+00  7.35568E-01  1.81837E+00  1.66731E+00
   1.78869E+00  1.84246E+00  2.10289E+00  2.20744E+00  4.61181E-01  3.20955E-01  1.76892E+00  1.68791E+00  1.24854E+00  2.50922E+00
   1.85617E+00  1.37098E+00 -2.93639E-01  5.45810E-01  1.02020E+00  2.62121E-01  1.15184E-02  2.24872E+00  6.44206E-02  3.50328E-01
   1.41523E+00  9.82721E-01 -6.34150E-01  5.20139E-01  3.01691E+00  1.01357E+00  1.93106E+00  1.32153E+00  1.04301E-01  2.24322E+00
   1.47543E+00  2.61154E-01  1.03358E+00  5.18937E-01  1.03849E+00  1.17691E+00  2.36932E+00  1.10079E-01  2.08258E+00  1.07177E+00
   1.07775E+00  1.09374E+00  2.92848E+00  1.80706E+00  1.45296E+00  1.03611E+00  2.72129E+00  4.61340E-01  2.90319E+00  2.25258E+00
   1.56120E+00  1.32574E+00  1.54616E+00  1.19667E+00  1.88128E+00  2.48952E+00  5.42074E-01  1.41565E+00  2.40848E+00  1.18499E+00
   2.39356E+00  2.45241E+00  1.43193E+00  1.36220E+00 -6.41264E-01 -4.59174E-01  1.10911E-01  1.56774E+00  4.67226E-01  1.39926E+00
   8.56048E-01  3.09076E+00  5.60969E-01  2.21112E+00  1.23247E+00 -5.31238E-01  5.93530E-01 -2.41100E-01  6.34200E-01  1.84488E+00
   2.53104E+00  3.17862E-01 -1.07936E+00  1.29669E+00 -6.83365E-01  1.38454E+00 -5.20237E-01  1.27907E-01 -4.72543E-01  1.34277E+00
  -3.73222E-01 -6.58872E-03  3.90870E-01  7.34107E-01  8.08807E-01  2.12449E+00  2.41655E+00  4.23886E-01  1.83696E-01  1.30344E+00
  -8.58161E-01  6.49476E-01  2.47818E+00  1.24570E+00  3.21886E-01  2.08858E+00  2.15619E+00  1.35540E+00 -3.05051E-01  9.61800E-01
   1.14865E+00  2.43627E-01  1.07031E+00  1.00205E+00  5.22357E-01  1.29913E+00  1.83358E+00  5.00262E-01  1.02878E+00 -4.44583E-01
  -2.30202E-01 -2.56397E-01  1.06813E+00  1.37722E+00 -4.51084E-01  4.75543E-01  8.79728E-01  8.07155E-01  1.38209E+00  4.99620E-01
   1.54892E+00 -1.27791E+00  1.52755E+00  8.86753E-02  1.05303E+00  1.20498E+00  5.78830E-01 -5.34820E-01
 NY points of the fit to the data follow
   1.21496E+01  1.20957E+01  1.20523E+01  1.20385E+01  1.21002E+01  1.22145E+01  1.23505E+01  1.24802E+01  1.25627E+01  1.25723E+01
   1.25066E+01  1.23787E+01  1.22011E+01  1.19712E+01  1.16959E+01  1.14318E+01  1.12385E+01  1.10987E+01  1.10062E+01  1.09501E+01
   1.09094E+01  1.08645E+01  1.07930E+01  1.06867E+01  1.05681E+01  1.04823E+01  1.04361E+01  1.04482E+01  1.05185E+01  1.06057E+01
   1.06626E+01  1.06644E+01  1.06102E+01  1.04827E+01  1.02789E+01  1.00303E+01  9.78906E+00  9.59236E+00  9.44108E+00  9.35806E+00
   9.33620E+00  9.34286E+00  9.35347E+00  9.34535E+00  9.29898E+00  9.21076E+00  9.11079E+00  9.02143E+00  8.93914E+00  8.86217E+00
   8.79024E+00  8.71993E+00  8.64995E+00  8.58177E+00  8.51388E+00  8.44412E+00  8.37400E+00  8.30608E+00  8.24041E+00  8.17636E+00
   8.11335E+00  8.05173E+00  7.99205E+00  7.93333E+00  7.87508E+00  7.81620E+00  7.75641E+00  7.69654E+00  7.63724E+00  7.57858E+00
   7.52223E+00  7.46929E+00  7.41813E+00  7.36723E+00  7.31514E+00  7.26056E+00  7.20396E+00  7.14607E+00  7.08817E+00  7.03121E+00
   6.97560E+00  6.92545E+00  6.88325E+00  6.84525E+00  6.80654E+00  6.76448E+00  6.71760E+00  6.66568E+00  6.60983E+00  6.55135E+00
   6.48998E+00  6.42538E+00  6.36193E+00  6.30769E+00  6.26369E+00  6.22531E+00  6.19285E+00  6.18036E+00  6.22371E+00  6.30552E+00
   6.38647E+00  6.44281E+00  6.46070E+00  6.43260E+00  6.36294E+00  6.26657E+00  6.15316E+00  6.01453E+00  5.85027E+00  5.70326E+00
   5.62008E+00  5.57484E+00  5.53827E+00  5.50491E+00  5.47348E+00  5.44296E+00  5.41316E+00  5.38505E+00  5.35978E+00  5.34081E+00
   5.33863E+00  5.40132E+00  5.62599E+00  5.95208E+00  6.27253E+00  6.52437E+00  6.66875E+00  6.68439E+00  6.58865E+00  6.41656E+00
   6.17801E+00  5.84688E+00  5.42987E+00  5.05661E+00  4.85750E+00  4.75965E+00  4.69217E+00  4.64356E+00  4.60539E+00  4.57604E+00
   4.55978E+00  4.55218E+00  4.53943E+00  4.51574E+00  4.47924E+00  4.42955E+00  4.37247E+00  4.31427E+00  4.26037E+00  4.21237E+00
   4.16622E+00  4.12204E+00  4.08109E+00  4.04372E+00  4.00874E+00  3.97428E+00  3.93754E+00  3.89840E+00  3.85942E+00  3.82356E+00
   3.79359E+00  3.76671E+00  3.74037E+00  3.71451E+00  3.68899E+00  3.66426E+00  3.64095E+00  3.61671E+00  3.58833E+00  3.55640E+00
   3.52235E+00  3.48727E+00  3.45366E+00  3.42304E+00  3.39569E+00  3.37129E+00  3.34678E+00  3.32166E+00  3.29744E+00  3.27615E+00
   3.25777E+00  3.24094E+00  3.22101E+00  3.19721E+00  3.17727E+00  3.17120E+00  3.18153E+00  3.20274E+00  3.22182E+00  3.22670E+00
   3.21595E+00  3.18622E+00  3.13133E+00  3.05328E+00  2.96725E+00  2.89246E+00  2.85122E+00  2.86348E+00  2.93281E+00  3.04260E+00
   3.17471E+00  3.30541E+00  3.40444E+00  3.44319E+00  3.39342E+00  3.22186E+00  2.96656E+00  2.70712E+00  2.50036E+00  2.38710E+00
   2.38438E+00  2.50166E+00  2.70408E+00  2.93583E+00  3.15859E+00  3.34788E+00  3.43612E+00  3.35621E+00  3.16549E+00  2.96160E+00
   2.78022E+00  2.64095E+00  2.58502E+00  2.63221E+00  2.73666E+00  2.85812E+00  2.97752E+00  3.08301E+00  3.15490E+00  3.16738E+00
   3.12724E+00  3.05748E+00  2.99104E+00  2.95179E+00  2.94788E+00  2.98069E+00  3.05763E+00  3.15902E+00  3.22231E+00  3.23780E+00
   3.23112E+00  3.21608E+00  3.17729E+00  3.10853E+00  3.04123E+00  2.99422E+00  2.96699E+00  2.97629E+00  3.04271E+00  3.14004E+00
   3.22394E+00  3.29943E+00  3.36226E+00  3.39849E+00  3.42398E+00  3.53103E+00  3.75050E+00  3.98946E+00  4.19147E+00  4.32647E+00
   4.36788E+00  4.30747E+00  4.17320E+00  3.99283E+00  3.75392E+00  3.42583E+00  3.06633E+00  2.82008E+00  2.70712E+00  2.63583E+00
   2.58324E+00  2.54619E+00  2.51647E+00  2.48964E+00  2.46646E+00  2.44435E+00  2.42105E+00  2.39572E+00  2.36723E+00  2.33552E+00
   2.30468E+00  2.27864E+00  2.25798E+00  2.24246E+00  2.23204E+00  2.22658E+00  2.22538E+00  2.22711E+00  2.23100E+00  2.23722E+00
   2.24555E+00  2.25558E+00  2.26720E+00  2.28027E+00  2.29417E+00  2.30804E+00  2.32135E+00  2.33358E+00  2.34395E+00  2.35190E+00
   2.35696E+00  2.35858E+00  2.35643E+00  2.35036E+00  2.34038E+00  2.32667E+00  2.30959E+00  2.28966E+00  2.26753E+00  2.24401E+00
   2.22003E+00  2.19651E+00  2.17438E+00  2.15461E+00  2.13810E+00  2.12569E+00  2.11815E+00  2.11618E+00  2.12043E+00  2.13150E+00
   2.15013E+00  2.17781E+00  2.21665E+00  2.26075E+00  2.30245E+00  2.33974E+00  2.37243E+00  2.40080E+00  2.42585E+00  2.44879E+00
   2.47535E+00  2.51033E+00  2.55226E+00  2.60269E+00  2.66062E+00  2.71398E+00  2.75337E+00  2.77825E+00  2.79007E+00  2.78904E+00
   2.77292E+00  2.74523E+00  2.72281E+00  2.70230E+00  2.66035E+00  2.59095E+00  2.49564E+00  2.37835E+00  2.24520E+00  2.10580E+00
   1.98410E+00  1.89237E+00  1.82710E+00  1.79511E+00  1.80144E+00  1.82110E+00  1.82773E+00  1.82094E+00  1.80473E+00  1.77646E+00
   1.72630E+00  1.65795E+00  1.59687E+00  1.55203E+00  1.51590E+00  1.48487E+00  1.45738E+00  1.43252E+00  1.40969E+00  1.38850E+00
   1.36867E+00  1.35003E+00  1.33250E+00  1.31606E+00  1.30075E+00  1.28668E+00  1.27396E+00  1.26276E+00  1.25325E+00  1.24563E+00
   1.24012E+00  1.23695E+00  1.23636E+00  1.23860E+00  1.24393E+00  1.25261E+00  1.26491E+00  1.28105E+00  1.30124E+00  1.32565E+00
   1.35436E+00  1.38738E+00  1.42459E+00  1.46574E+00  1.51043E+00  1.55810E+00  1.60799E+00  1.65918E+00  1.71060E+00  1.76103E+00
   1.80916E+00  1.85361E+00  1.89304E+00  1.92614E+00  1.95175E+00  1.96888E+00  1.97680E+00  1.97504E+00  1.96344E+00  1.94217E+00
   1.91167E+00  1.87270E+00  1.82621E+00  1.77338E+00  1.71548E+00  1.65387E+00  1.58989E+00  1.52484E+00  1.45990E+00  1.39612E+00
   1.33440E+00  1.27545E+00  1.21979E+00  1.16778E+00  1.11963E+00  1.07540E+00  1.03505E+00  9.98443E-01  9.65372E-01  9.35593E-01
   9.08833E-01  8.84809E-01  8.63237E-01  8.43847E-01  8.26385E-01  8.10616E-01  7.96332E-01  7.83343E-01  7.71484E-01  7.60609E-01
   7.50595E-01  7.41334E-01  7.32732E-01  7.24710E-01  7.17197E-01  7.10135E-01  7.03474E-01  6.97169E-01  6.91184E-01  6.85482E-01
   6.80037E-01  6.74822E-01  6.69817E-01  6.65002E-01  6.60361E-01  6.55877E-01  6.51538E-01  6.47333E-01  6.43252E-01  6.39285E-01
   6.35422E-01  6.31657E-01  6.27982E-01  6.24392E-01  6.20882E-01  6.17445E-01  6.14076E-01  6.10770E-01  6.07524E-01  6.04333E-01
   6.01196E-01  5.98106E-01  5.95061E-01  5.92059E-01  5.89097E-01  5.86174E-01  5.83286E-01  5.80429E-01  5.77602E-01  5.74804E-01
   5.72033E-01  5.69287E-01  5.66563E-01  5.63859E-01  5.61174E-01  5.58508E-01  5.55859E-01  5.53226E-01  5.50605E-01  5.47995E-01
   5.45397E-01  5.42810E-01  5.40233E-01  5.37662E-01  5.35097E-01  5.32538E-01  5.29984E-01  5.27435E-01
 NY background values follow
     1.207E+01    1.200E+01    1.193E+01    1.186E+01    1.179E+01    1.172E+01    1.165E+01    1.159E+01    1.152E+01    1.145E+01
     1.138E+01    1.131E+01    1.124E+01    1.117E+01    1.110E+01    1.103E+01    1.096E+01    1.089E+01    1.082E+01    1.075E+01
     1.068E+01    1.061E+01    1.054E+01    1.048E+01    1.041E+01    1.034E+01    1.027E+01    1.020E+01    1.013E+01    1.007E+01
     9.998E+00    9.930E+00    9.863E+00    9.795E+00    9.728E+00    9.661E+00    9.594E+00    9.528E+00    9.461E+00    9.395E+00
     9.329E+00    9.263E+00    9.198E+00    9.132E+00    9.067E+00    9.003E+00    8.938E+00    8.874E+00    8.810E+00    8.746E+00
     8.683E+00    8.620E+00    8.557E+00    8.494E+00    8.432E+00    8.370E+00    8.308E+00    8.246E+00    8.185E+00    8.124E+00
     8.064E+00    8.003E+00    7.943E+00    7.884E+00    7.824E+00    7.765E+00    7.707E+00    7.648E+00    7.590E+00    7.532E+00
     7.475E+00    7.418E+00    7.361E+00    7.305E+00    7.249E+00    7.193E+00    7.138E+00    7.083E+00    7.028E+00    6.974E+00
     6.920E+00    6.866E+00    6.813E+00    6.760E+00    6.708E+00    6.655E+00    6.604E+00    6.552E+00    6.501E+00    6.451E+00
     6.401E+00    6.351E+00    6.301E+00    6.252E+00    6.204E+00    6.155E+00    6.108E+00    6.060E+00    6.013E+00    5.966E+00
     5.920E+00    5.874E+00    5.828E+00    5.783E+00    5.738E+00    5.694E+00    5.650E+00    5.606E+00    5.563E+00    5.520E+00
     5.477E+00    5.435E+00    5.393E+00    5.352E+00    5.311E+00    5.270E+00    5.229E+00    5.189E+00    5.150E+00    5.110E+00
     5.071E+00    5.033E+00    4.994E+00    4.956E+00    4.919E+00    4.882E+00    4.845E+00    4.808E+00    4.772E+00    4.736E+00
     4.701E+00    4.666E+00    4.631E+00    4.596E+00    4.562E+00    4.529E+00    4.495E+00    4.462E+00    4.429E+00    4.397E+00
     4.365E+00    4.333E+00    4.301E+00    4.270E+00    4.239E+00    4.209E+00    4.178E+00    4.149E+00    4.119E+00    4.090E+00
     4.061E+00    4.032E+00    4.003E+00    3.975E+00    3.947E+00    3.920E+00    3.893E+00    3.866E+00    3.839E+00    3.813E+00
     3.786E+00    3.761E+00    3.735E+00    3.710E+00    3.685E+00    3.660E+00    3.635E+00    3.611E+00    3.587E+00    3.563E+00
     3.540E+00    3.516E+00    3.493E+00    3.470E+00    3.448E+00    3.426E+00    3.404E+00    3.382E+00    3.360E+00    3.339E+00
     3.317E+00    3.297E+00    3.276E+00    3.255E+00    3.235E+00    3.215E+00    3.195E+00    3.175E+00    3.156E+00    3.137E+00
     3.118E+00    3.099E+00    3.080E+00    3.062E+00    3.043E+00    3.025E+00    3.007E+00    2.990E+00    2.972E+00    2.955E+00
     2.937E+00    2.920E+00    2.904E+00    2.887E+00    2.870E+00    2.854E+00    2.838E+00    2.822E+00    2.806E+00    2.790E+00
     2.774E+00    2.759E+00    2.743E+00    2.728E+00    2.713E+00    2.698E+00    2.683E+00    2.669E+00    2.654E+00    2.640E+00
     2.625E+00    2.611E+00    2.597E+00    2.583E+00    2.569E+00    2.555E+00    2.542E+00    2.528E+00    2.515E+00    2.501E+00
     2.488E+00    2.475E+00    2.462E+00    2.449E+00    2.436E+00    2.423E+00    2.411E+00    2.398E+00    2.385E+00    2.373E+00
     2.360E+00    2.348E+00    2.336E+00    2.324E+00    2.312E+00    2.299E+00    2.287E+00    2.276E+00    2.264E+00    2.252E+00
     2.240E+00    2.228E+00    2.217E+00    2.205E+00    2.194E+00    2.182E+00    2.171E+00    2.159E+00    2.148E+00    2.137E+00
     2.125E+00    2.114E+00    2.103E+00    2.092E+00    2.081E+00    2.069E+00    2.058E+00    2.047E+00    2.036E+00    2.025E+00
     2.014E+00    2.003E+00    1.992E+00    1.981E+00    1.970E+00    1.959E+00    1.948E+00    1.938E+00    1.927E+00    1.916E+00
     1.905E+00    1.894E+00    1.883E+00    1.872E+00    1.862E+00    1.851E+00    1.840E+00    1.829E+00    1.819E+00    1.808E+00
     1.797E+00    1.786E+00    1.776E+00    1.765E+00    1.754E+00    1.744E+00    1.733E+00    1.722E+00    1.712E+00    1.701E+00
     1.691E+00    1.680E+00    1.670E+00    1.659E+00    1.648E+00    1.638E+00    1.627E+00    1.617E+00    1.606E+00    1.596E+00
     1.585E+00    1.575E+00    1.565E+00    1.554E+00    1.544E+00    1.533E+00    1.523E+00    1.513E+00    1.502E+00    1.492E+00
     1.481E+00    1.471E+00    1.461E+00    1.451E+00    1.440E+00    1.430E+00    1.420E+00    1.410E+00    1.399E+00    1.389E+00
     1.379E+00    1.369E+00    1.359E+00    1.349E+00    1.339E+00    1.329E+00    1.319E+00    1.309E+00    1.299E+00    1.289E+00
     1.280E+00    1.270E+00    1.260E+00    1.250E+00    1.241E+00    1.231E+00    1.222E+00    1.212E+00    1.203E+00    1.193E+00
     1.184E+00    1.175E+00    1.166E+00    1.156E+00    1.147E+00    1.138E+00    1.129E+00    1.120E+00    1.111E+00    1.102E+00
     1.094E+00    1.085E+00    1.076E+00    1.068E+00    1.059E+00    1.051E+00    1.042E+00    1.034E+00    1.026E+00    1.018E+00
     1.010E+00    1.002E+00    9.936E-01    9.857E-01    9.779E-01    9.702E-01    9.625E-01    9.549E-01    9.474E-01    9.399E-01
     9.326E-01    9.253E-01    9.181E-01    9.109E-01    9.039E-01    8.969E-01    8.900E-01    8.832E-01    8.764E-01    8.698E-01
     8.632E-01    8.567E-01    8.503E-01    8.440E-01    8.378E-01    8.316E-01    8.255E-01    8.195E-01    8.137E-01    8.078E-01
     8.021E-01    7.965E-01    7.910E-01    7.855E-01    7.801E-01    7.749E-01    7.697E-01    7.646E-01    7.596E-01    7.547E-01
     7.499E-01    7.452E-01    7.405E-01    7.360E-01    7.315E-01    7.271E-01    7.228E-01    7.186E-01    7.144E-01    7.104E-01
     7.063E-01    7.024E-01    6.985E-01    6.947E-01    6.910E-01    6.873E-01    6.837E-01    6.802E-01    6.767E-01    6.733E-01
     6.699E-01    6.666E-01    6.634E-01    6.601E-01    6.570E-01    6.539E-01    6.508E-01    6.478E-01    6.449E-01    6.419E-01
     6.390E-01    6.362E-01    6.334E-01    6.306E-01    6.279E-01    6.252E-01    6.225E-01    6.199E-01    6.173E-01    6.147E-01
     6.121E-01    6.096E-01    6.070E-01    6.045E-01    6.021E-01    5.996E-01    5.972E-01    5.947E-01    5.923E-01    5.900E-01
     5.876E-01    5.852E-01    5.829E-01    5.806E-01    5.782E-01    5.759E-01    5.736E-01    5.714E-01    5.691E-01    5.668E-01
     5.646E-01    5.623E-01    5.601E-01    5.579E-01    5.557E-01    5.534E-01    5.512E-01    5.490E-01    5.468E-01    5.447E-01
     5.425E-01    5.403E-01    5.381E-01    5.359E-01    5.337E-01    5.315E-01    5.293E-01    5.272E-01    5.250E-01    5.228E-01
     5.206E-01    5.184E-01    5.162E-01    5.140E-01    5.118E-01    5.095E-01    5.073E-01    5.051E-01
 Ala      Conc. = 5.65E+00
