 LCModel (Version 6.3-1L) Copyright: S.W. Provencher.          Ref.: Magn. Reson. Med. 30:672-679 (1993).                
 Slice#2 Row#1 Col#6  PD_05_press_1_raw_act
 36 lines in following concentration table = NCONC+1
    Conc.  %SD /Cr+PCr  Metabolite                                         
    0.000 999%   0.000 Ala                                                 
   16.063  90%   0.152 Asp                                                 
   86.189  52%   0.818 Cr                                                  
   19.186 239%   0.182 PCr                                                 
   10.196  85% 9.7E-02 GABA                                                
   11.257  77%   0.107 Glc                                                 
   54.794 107%   0.520 Gln                                                 
  104.231  63%   0.989 Glu                                                 
   38.293  18%   0.363 GPC                                                 
    0.000 999%   0.000 PCh                                                 
    6.305 349% 6.0E-02 GSH                                                 
   27.022 254%   0.256 Ins                                                 
    0.000 999%   0.000 Lac                                                 
   68.773  31%   0.653 NAA                                                 
   80.108  26%   0.760 NAAG                                                
    4.544  62% 4.3E-02 Scyllo                                              
   17.521  81%   0.166 Tau                                                 
    5.247 302% 5.0E-02 -CrCH2                                              
   38.293  18%   0.363 GPC+PCh                                             
  148.881  16%   1.413 NAA+NAAG                                            
  105.374  18%   1.000 Cr+PCr                                              
  159.025  51%   1.509 Glu+Gln                                             
 2.09E+03   7%  19.805 Lip13a                                              
    0.000 999%   0.000 Lip13b                                              
    0.000 999%   0.000 Lip09                                               
    0.000 999%   0.000 MM09                                                
    0.000 999%   0.000 Lip20                                               
    0.000 999%   0.000 MM20                                                
 7.74E-04 999% 7.3E-06 MM12                                                
 1.62E-02 999% 1.5E-04 MM14                                                
    0.000 999%   0.000 MM17                                                
 2.09E+03   7%  19.805 Lip13a+Lip13b                                       
 2.09E+03   7%  19.805 MM14+Lip13a+Lip13b+MM12                             
    0.000 999%   0.000 MM09+Lip09                                          
    0.000 999%   0.000 MM20+Lip20                                          
   6 lines in following misc. output table
  FWHM = 0.038 ppm    S/N =   3                                            
  Data shift = 0.000 ppm                                                   
  Ph:-124 deg       7.8 deg/ppm                                            
  alphaB,S = 8.5E+01,   2.6E+01                                            
   14 spline knots.   Ns = 5(1)                                            
   2 inflections.     1 extrema                                            
  498 points on ppm-axis = NY
      4.000000     3.992357     3.984714     3.977070     3.969427     3.961784     3.954141     3.946497     3.938854     3.931211
      3.923568     3.915925     3.908281     3.900638     3.892995     3.885352     3.877708     3.870065     3.862422     3.854779
      3.847136     3.839492     3.831849     3.824206     3.816563     3.808919     3.801276     3.793633     3.785990     3.778347
      3.770703     3.763060     3.755417     3.747774     3.740130     3.732487     3.724844     3.717201     3.709558     3.701914
      3.694271     3.686628     3.678985     3.671341     3.663698     3.656055     3.648412     3.640769     3.633125     3.625482
      3.617839     3.610196     3.602552     3.594909     3.587266     3.579623     3.571980     3.564336     3.556693     3.549050
      3.541407     3.533763     3.526120     3.518477     3.510834     3.503191     3.495547     3.487904     3.480261     3.472618
      3.464974     3.457331     3.449688     3.442045     3.434402     3.426758     3.419115     3.411472     3.403829     3.396185
      3.388542     3.380899     3.373256     3.365613     3.357969     3.350326     3.342683     3.335040     3.327396     3.319753
      3.312110     3.304467     3.296824     3.289180     3.281537     3.273894     3.266251     3.258607     3.250964     3.243321
      3.235678     3.228034     3.220391     3.212748     3.205105     3.197462     3.189818     3.182175     3.174532     3.166889
      3.159245     3.151602     3.143959     3.136316     3.128673     3.121029     3.113386     3.105743     3.098100     3.090456
      3.082813     3.075170     3.067527     3.059884     3.052240     3.044597     3.036954     3.029311     3.021667     3.014024
      3.006381     2.998738     2.991095     2.983451     2.975808     2.968165     2.960522     2.952878     2.945235     2.937592
      2.929949     2.922306     2.914662     2.907019     2.899376     2.891733     2.884089     2.876446     2.868803     2.861160
      2.853517     2.845873     2.838230     2.830587     2.822944     2.815300     2.807657     2.800014     2.792371     2.784728
      2.777084     2.769441     2.761798     2.754155     2.746511     2.738868     2.731225     2.723582     2.715939     2.708295
      2.700652     2.693009     2.685366     2.677722     2.670079     2.662436     2.654793     2.647150     2.639506     2.631863
      2.624220     2.616577     2.608933     2.601290     2.593647     2.586004     2.578361     2.570717     2.563074     2.555431
      2.547788     2.540144     2.532501     2.524858     2.517215     2.509572     2.501928     2.494285     2.486642     2.478999
      2.471355     2.463712     2.456069     2.448426     2.440783     2.433139     2.425496     2.417853     2.410210     2.402566
      2.394923     2.387280     2.379637     2.371994     2.364350     2.356707     2.349064     2.341421     2.333777     2.326134
      2.318491     2.310848     2.303205     2.295561     2.287918     2.280275     2.272632     2.264988     2.257345     2.249702
      2.242059     2.234416     2.226772     2.219129     2.211486     2.203843     2.196199     2.188556     2.180913     2.173270
      2.165627     2.157983     2.150340     2.142697     2.135054     2.127410     2.119767     2.112124     2.104481     2.096838
      2.089194     2.081551     2.073908     2.066265     2.058621     2.050978     2.043335     2.035692     2.028049     2.020405
      2.012762     2.005119     1.997476     1.989833     1.982190     1.974546     1.966903     1.959260     1.951617     1.943974
      1.936331     1.928688     1.921045     1.913402     1.905759     1.898115     1.890472     1.882829     1.875186     1.867543
      1.859900     1.852257     1.844614     1.836971     1.829327     1.821684     1.814041     1.806398     1.798755     1.791112
      1.783469     1.775826     1.768183     1.760540     1.752896     1.745253     1.737610     1.729967     1.722324     1.714681
      1.707038     1.699395     1.691752     1.684108     1.676465     1.668822     1.661179     1.653536     1.645893     1.638250
      1.630607     1.622964     1.615321     1.607677     1.600034     1.592391     1.584748     1.577105     1.569462     1.561819
      1.554176     1.546533     1.538890     1.531246     1.523603     1.515960     1.508317     1.500674     1.493031     1.485388
      1.477745     1.470102     1.462458     1.454815     1.447172     1.439529     1.431886     1.424243     1.416600     1.408957
      1.401314     1.393671     1.386027     1.378384     1.370741     1.363098     1.355455     1.347812     1.340169     1.332526
      1.324883     1.317240     1.309596     1.301953     1.294310     1.286667     1.279024     1.271381     1.263738     1.256095
      1.248452     1.240808     1.233165     1.225522     1.217879     1.210236     1.202593     1.194950     1.187307     1.179664
      1.172021     1.164377     1.156734     1.149091     1.141448     1.133805     1.126162     1.118519     1.110876     1.103233
      1.095590     1.087946     1.080303     1.072660     1.065017     1.057374     1.049731     1.042088     1.034445     1.026802
      1.019158     1.011515     1.003872     0.996229     0.988586     0.980943     0.973300     0.965657     0.958014     0.950371
      0.942727     0.935084     0.927441     0.919798     0.912155     0.904512     0.896869     0.889226     0.881583     0.873940
      0.866296     0.858653     0.851010     0.843367     0.835724     0.828081     0.820438     0.812795     0.805152     0.797508
      0.789865     0.782222     0.774579     0.766936     0.759293     0.751650     0.744007     0.736364     0.728721     0.721077
      0.713434     0.705791     0.698148     0.690505     0.682862     0.675219     0.667576     0.659933     0.652290     0.644646
      0.637003     0.629360     0.621717     0.614074     0.606431     0.598788     0.591145     0.583502     0.575858     0.568215
      0.560572     0.552929     0.545286     0.537643     0.530000     0.522357     0.514714     0.507071     0.499427     0.491784
      0.484141     0.476498     0.468855     0.461212     0.453569     0.445925     0.438282     0.430639     0.422996     0.415353
      0.407710     0.400067     0.392424     0.384780     0.377137     0.369494     0.361851     0.354208     0.346565     0.338922
      0.331278     0.323635     0.315992     0.308349     0.300706     0.293063     0.285420     0.277777     0.270133     0.262490
      0.254847     0.247204     0.239561     0.231918     0.224275     0.216631     0.208988     0.201345
 NY phased data points follow
  -4.54765E+00 -2.77477E+00 -4.61182E+00 -6.03626E+00 -5.54535E+00 -6.87560E+00 -4.68339E+00 -2.36435E+00 -2.97111E+00 -2.77832E+00
  -1.42315E-01  1.02747E+00 -1.41602E+00 -1.01072E+00 -2.15152E+00 -3.08146E+00 -3.51885E+00 -3.29074E+00 -3.19447E+00 -3.93196E+00
  -3.08446E+00 -3.30650E+00 -7.14182E+00 -1.46343E+00 -5.03699E+00 -5.70024E+00 -5.19265E+00 -2.86427E+00 -5.85867E+00 -2.20604E+00
  -3.72927E+00 -3.73027E+00 -3.11258E+00 -3.07676E+00 -2.68750E+00 -2.89911E+00 -4.42864E+00 -3.44775E+00 -4.39473E+00 -4.33502E+00
  -3.20461E+00 -3.39794E+00 -4.78869E+00 -1.38814E+00 -4.00921E+00 -3.47760E+00 -3.06523E+00 -2.64238E+00 -3.79899E+00 -5.27083E+00
  -4.21841E+00 -6.09642E+00 -2.83125E+00 -7.77690E-01 -1.67741E+00 -2.43987E+00 -2.46712E+00 -1.83771E+00 -2.61658E+00 -3.66532E+00
  -1.90927E+00 -2.26705E+00 -1.52888E+00 -4.40800E+00 -6.18900E+00 -4.32836E+00 -3.10807E+00 -1.02893E+00 -1.78017E+00 -4.39753E+00
  -2.62170E+00 -1.45089E+00 -3.23123E+00  3.34382E-01 -3.91476E+00 -2.23159E+00 -3.89973E+00 -4.32048E+00 -3.86041E+00 -1.34554E+00
  -3.64507E+00 -3.22301E+00 -1.35298E+00 -3.55498E+00 -2.49432E+00 -3.69793E+00  7.07421E-01 -4.58671E+00 -3.71332E+00 -1.98325E-01
  -2.35009E+00 -5.81334E+00 -2.54613E+00 -3.86527E+00 -4.74610E+00 -5.09432E+00 -4.52139E+00 -3.31459E+00 -5.08225E+00 -3.59183E+00
  -2.88610E-01 -2.55007E+00  1.76921E+00  3.75384E+00  2.84783E+00 -7.21467E-01 -2.12088E-01 -3.16589E+00 -3.58151E+00 -2.20231E+00
  -6.70207E+00 -5.64810E+00 -4.29365E+00 -3.39038E+00 -2.75272E+00 -3.10235E+00 -4.56537E+00 -5.04565E+00 -6.43552E+00 -6.74874E+00
  -4.28659E+00 -6.25144E+00 -2.85437E-01 -4.91497E+00 -2.85856E+00 -2.11023E+00 -6.76455E-01  1.40863E+00  2.79699E+00  3.02789E+00
  -7.11029E-01 -3.43886E+00 -1.73013E-01 -3.71463E+00 -3.59560E+00 -1.90700E+00 -6.39028E+00 -3.52630E+00 -6.24575E+00 -2.90396E+00
  -4.35433E+00 -4.26508E+00 -4.56910E+00 -1.86241E+00 -3.67645E+00 -6.85522E+00 -6.77965E+00 -3.11575E+00 -3.38808E+00 -3.27687E+00
  -1.48047E+00 -3.20328E+00 -5.55548E+00 -7.78149E-01 -2.92275E+00 -3.61502E+00 -1.83186E+00 -1.97725E+00 -2.76349E+00 -3.02193E+00
  -2.19594E+00 -1.26570E+00 -2.07881E+00 -5.17175E+00 -4.13230E+00 -3.34804E+00  1.62532E+00 -3.93741E+00 -4.53523E+00 -2.87828E+00
  -2.60287E+00 -1.98511E+00 -4.23613E+00 -3.05325E+00 -2.73640E+00 -4.69587E+00 -2.26115E+00 -1.81189E+00 -2.88279E+00 -5.11063E+00
  -1.43807E+00 -2.41441E+00 -3.86196E+00 -4.23511E+00  2.86244E-01 -2.88173E+00 -2.72585E+00 -1.64429E+00 -2.38721E+00 -1.96424E+00
  -2.03610E+00 -2.18423E+00 -1.34946E+00 -1.94722E+00 -2.19763E+00 -3.32129E+00 -2.55278E+00 -3.01743E+00 -3.68458E+00 -1.79130E+00
  -1.27945E+00 -1.88807E+00 -2.37132E+00  4.61613E-01 -8.79005E-02 -3.67587E+00 -3.78271E+00 -8.58637E-01 -3.60775E+00 -3.54544E+00
  -1.34300E+00 -2.14127E+00 -2.05816E+00  3.28448E-01 -2.52419E+00 -2.18194E+00  1.50367E+00 -2.92374E+00 -5.99162E-01 -5.79905E+00
  -1.30081E+00 -2.07734E+00 -2.21998E+00 -6.69807E+00 -2.50137E+00 -9.55745E-01 -8.00256E-01 -1.48768E+00 -1.87017E+00 -3.63609E-01
   1.41259E+00 -3.64074E+00 -2.09036E+00 -9.77850E-01 -1.50903E+00 -2.01710E+00 -1.57883E+00 -3.48391E+00 -4.41157E+00 -3.61811E+00
  -1.10524E+00 -1.71613E+00 -1.16791E+00 -2.91687E+00 -3.64041E+00 -2.29907E+00 -3.61429E+00 -3.28150E+00 -2.28153E+00 -2.01318E-01
   2.92680E-02 -2.59103E+00 -3.72508E+00 -2.37676E+00 -4.65918E-02  1.66586E+00  3.60593E+00  2.22884E+00  2.19602E+00  1.40581E+00
   2.76649E+00  4.33371E+00 -2.52351E-01 -6.96752E-01 -6.44317E-01 -3.76336E+00 -8.11193E+00 -6.34649E+00 -3.64006E+00 -4.53930E+00
  -3.63789E+00 -3.17739E+00 -5.03788E+00 -1.74576E+00 -5.16638E+00 -2.22078E+00 -4.54841E-01 -4.53677E+00 -2.03437E+00  5.25575E-01
  -1.99627E+00 -3.43246E+00 -1.81862E+00 -2.69221E+00 -2.59592E+00 -2.66998E+00 -2.66826E+00  1.46552E-01 -2.26807E+00 -5.34406E+00
  -2.60240E+00 -1.72209E+00 -1.10019E+00 -3.17122E+00 -3.68687E+00 -7.02163E-01 -1.29985E+00 -2.31341E+00 -8.30450E-01 -2.42794E+00
  -8.93095E-01 -4.58767E+00 -7.58229E-01 -7.16139E-01 -1.87583E+00 -2.65148E+00 -3.62999E+00 -3.00504E+00 -3.52501E+00 -2.58904E+00
  -3.33665E+00 -2.19387E+00 -1.33231E+00 -7.91152E-02 -6.46897E-01  3.48068E-01  2.90646E-01  5.05386E-01  6.46080E-01 -1.07481E-01
  -1.65689E+00 -2.40537E+00 -1.07654E+00 -1.37424E+00  1.16229E-02 -1.51918E+00 -1.54368E+00  1.52859E+00 -9.00689E-01 -6.86859E-01
   1.55689E+00  1.36984E+00  6.65001E-01  2.22979E+00  1.66242E+00  2.97198E+00  4.99601E-01  3.05423E+00  4.00220E+00  5.45230E-01
   2.22757E+00  1.12968E+00  4.60540E+00  5.69188E+00  4.41752E+00  4.08675E+00  3.87088E+00  4.89080E+00  6.12287E+00  6.57008E+00
   7.20479E+00  6.29107E+00  8.15681E+00  7.35841E+00  9.04473E+00  7.44873E+00  6.73998E+00  6.79850E+00  6.59486E+00  8.54590E+00
   6.68898E+00  7.16561E+00  6.25031E+00  6.87070E+00  5.62590E+00  5.45679E+00  6.17683E+00  6.80493E+00  6.78920E+00  5.87325E+00
   2.48538E+00  2.60293E+00  6.67956E+00  9.18859E+00  7.58206E+00  3.76195E+00  1.20145E+00  6.79999E+00  1.81281E+00  2.20795E+00
   1.12145E+00  3.70173E+00 -1.51992E+00 -5.67326E-01  1.56307E+00  8.80315E-01  1.26326E-01 -6.74194E-01 -1.30869E+00 -7.43316E-01
  -1.02895E+00 -1.74164E+00 -2.15641E+00 -4.05549E+00 -4.92373E+00 -4.07378E+00 -2.38795E+00 -1.40782E+00 -3.22360E+00 -2.06215E+00
  -3.82277E-01 -4.63759E-01 -1.72142E+00 -1.00877E+00 -3.01026E+00 -2.61273E+00 -1.15297E+00 -1.31669E+00 -7.64418E-01  7.16994E-01
  -1.75499E+00 -9.02993E-01  7.29980E-01 -1.46131E-01 -1.77534E+00  7.97333E-01 -1.06855E+00 -2.44112E+00 -2.64101E+00 -1.81863E+00
  -1.43572E-01 -3.27597E+00 -2.47269E+00  1.39900E+00  1.97636E-01 -1.90992E+00  6.48356E-01  2.64333E+00  1.46112E+00  1.13196E-01
  -2.25705E+00 -2.04943E+00  8.16910E-01 -2.97943E-01  1.70319E+00  1.78617E-01 -1.68982E+00  1.24204E+00 -7.32222E-01  1.68818E+00
   1.29232E+00  8.12889E-01  3.02242E-01  5.71139E-01  1.85123E+00  6.40747E-01 -5.65031E-01 -7.85132E-01 -9.97891E-01  4.24221E-01
   2.45864E+00 -1.03860E+00 -6.82204E-01 -1.82512E+00 -1.76225E+00 -2.30764E+00 -1.62246E+00  8.39410E-01 -7.23453E-01  5.20779E-01
  -2.87492E-01  1.54002E-01  9.03801E-01  1.29983E-01 -1.38274E+00 -4.20683E-01  4.04147E-01  5.13122E-02  1.53617E-01  5.55895E-01
  -6.62167E-01  2.63116E-01  1.75643E+00 -1.92198E+00 -2.75007E-01 -5.48985E-02  1.46884E+00  3.97596E-02 -3.73968E-02  3.26500E+00
  -1.61531E+00 -7.66142E-01  1.02539E-01  1.03602E-01 -2.98375E+00  4.11117E-02 -2.04524E-01 -1.05606E+00  1.23151E+00 -2.05845E-01
  -2.62588E+00 -9.61585E-01 -6.94272E-01 -3.17395E-01 -2.12098E+00  1.73939E+00 -1.50428E-02  5.20659E-01
 NY points of the fit to the data follow
  -4.05194E+00 -4.03992E+00 -4.00584E+00 -3.95006E+00 -3.87660E+00 -3.77980E+00 -3.65596E+00 -3.45219E+00 -3.01116E+00 -2.29094E+00
  -1.44455E+00 -7.77113E-01 -6.25493E-01 -1.09429E+00 -1.93870E+00 -2.76804E+00 -3.33389E+00 -3.58845E+00 -3.65648E+00 -3.70909E+00
  -3.73977E+00 -3.72581E+00 -3.67469E+00 -3.61816E+00 -3.60605E+00 -3.67191E+00 -3.80609E+00 -3.95426E+00 -4.01949E+00 -3.91759E+00
  -3.64630E+00 -3.29702E+00 -3.01648E+00 -2.93019E+00 -3.07788E+00 -3.38191E+00 -3.69585E+00 -3.89575E+00 -3.92272E+00 -3.80643E+00
  -3.63378E+00 -3.49344E+00 -3.41817E+00 -3.38941E+00 -3.37562E+00 -3.34597E+00 -3.29532E+00 -3.25502E+00 -3.24502E+00 -3.27014E+00
  -3.32796E+00 -3.39911E+00 -3.45919E+00 -3.50175E+00 -3.53037E+00 -3.54608E+00 -3.54873E+00 -3.54312E+00 -3.52672E+00 -3.50118E+00
  -3.47771E+00 -3.47088E+00 -3.48721E+00 -3.51657E+00 -3.54210E+00 -3.54831E+00 -3.53553E+00 -3.51715E+00 -3.50230E+00 -3.49259E+00
  -3.48520E+00 -3.47131E+00 -3.43900E+00 -3.38857E+00 -3.33252E+00 -3.28832E+00 -3.28133E+00 -3.32034E+00 -3.38588E+00 -3.44628E+00
  -3.47472E+00 -3.46150E+00 -3.40500E+00 -3.30895E+00 -3.18851E+00 -3.07521E+00 -3.01514E+00 -3.04258E+00 -3.14263E+00 -3.25981E+00
  -3.34269E+00 -3.37509E+00 -3.37296E+00 -3.37207E+00 -3.37997E+00 -3.36942E+00 -3.32406E+00 -3.25857E+00 -3.16781E+00 -2.76881E+00
  -1.78104E+00 -2.52082E-01  1.38718E+00  2.39214E+00  2.18977E+00  8.95679E-01 -8.01390E-01 -2.19762E+00 -2.95062E+00 -3.13143E+00
  -3.15158E+00 -3.17413E+00 -3.18848E+00 -3.19529E+00 -3.19583E+00 -3.19342E+00 -3.19011E+00 -3.18742E+00 -3.18486E+00 -3.18090E+00
  -3.17208E+00 -3.15712E+00 -3.14089E+00 -2.95151E+00 -2.26084E+00 -9.83826E-01  6.00825E-01  1.88016E+00  2.18752E+00  1.34942E+00
  -1.52032E-01 -1.61268E+00 -2.57108E+00 -2.94086E+00 -3.01040E+00 -3.06682E+00 -3.11156E+00 -3.12981E+00 -3.11933E+00 -3.08805E+00
  -3.05217E+00 -3.02667E+00 -3.01291E+00 -3.00458E+00 -2.99509E+00 -2.98291E+00 -2.97448E+00 -2.97574E+00 -2.98493E+00 -2.99412E+00
  -2.99961E+00 -3.00865E+00 -3.02728E+00 -3.05451E+00 -3.07638E+00 -3.06858E+00 -3.02466E+00 -2.96916E+00 -2.93889E+00 -2.95805E+00
  -3.02047E+00 -3.08371E+00 -3.10602E+00 -3.08159E+00 -3.03314E+00 -2.99444E+00 -2.99402E+00 -3.02928E+00 -3.07184E+00 -3.09414E+00
  -3.07703E+00 -3.02248E+00 -2.96846E+00 -2.95383E+00 -2.98737E+00 -3.04235E+00 -3.07300E+00 -3.05140E+00 -2.99880E+00 -2.96565E+00
  -2.97224E+00 -2.99506E+00 -2.99030E+00 -2.93086E+00 -2.83443E+00 -2.74272E+00 -2.67976E+00 -2.63667E+00 -2.58488E+00 -2.51383E+00
  -2.44374E+00 -2.41102E+00 -2.43881E+00 -2.51983E+00 -2.62184E+00 -2.71078E+00 -2.75988E+00 -2.75206E+00 -2.67982E+00 -2.55046E+00
  -2.38602E+00 -2.21600E+00 -2.07472E+00 -1.99296E+00 -1.99148E+00 -2.08321E+00 -2.29756E+00 -2.62945E+00 -3.00057E+00 -3.29696E+00
  -3.40188E+00 -3.25529E+00 -2.87815E+00 -2.37634E+00 -1.88863E+00 -1.55288E+00 -1.46933E+00 -1.64551E+00 -2.02789E+00 -2.51730E+00
  -2.97740E+00 -3.28135E+00 -3.34088E+00 -3.14625E+00 -2.75829E+00 -2.32377E+00 -1.99182E+00 -1.84020E+00 -1.86039E+00 -1.97617E+00
  -2.10923E+00 -2.21044E+00 -2.25592E+00 -2.24109E+00 -2.19380E+00 -2.14164E+00 -2.09573E+00 -2.04774E+00 -1.99226E+00 -1.96937E+00
  -2.01589E+00 -2.12743E+00 -2.26241E+00 -2.34733E+00 -2.33828E+00 -2.25644E+00 -2.16379E+00 -2.10710E+00 -2.10302E+00 -2.12249E+00
  -2.11196E+00 -2.03599E+00 -1.70215E+00 -9.30940E-01  2.07441E-01  1.37809E+00  2.18908E+00  2.47741E+00  2.39166E+00  2.24500E+00
   2.13102E+00  1.84122E+00  1.19901E+00  2.23336E-01 -7.59275E-01 -1.42655E+00 -1.70323E+00 -1.77427E+00 -1.82835E+00 -1.86718E+00
  -1.87856E+00 -1.85790E+00 -1.80455E+00 -1.73439E+00 -1.67669E+00 -1.65244E+00 -1.66576E+00 -1.70287E+00 -1.74252E+00 -1.76751E+00
  -1.77062E+00 -1.75496E+00 -1.72694E+00 -1.69438E+00 -1.66444E+00 -1.64279E+00 -1.63170E+00 -1.63043E+00 -1.63324E+00 -1.63227E+00
  -1.62209E+00 -1.60071E+00 -1.56987E+00 -1.53780E+00 -1.51197E+00 -1.49572E+00 -1.48850E+00 -1.48642E+00 -1.48397E+00 -1.47752E+00
  -1.46401E+00 -1.44264E+00 -1.41602E+00 -1.38798E+00 -1.36136E+00 -1.33704E+00 -1.31336E+00 -1.28918E+00 -1.26411E+00 -1.23765E+00
  -1.20967E+00 -1.18008E+00 -1.14886E+00 -1.11594E+00 -1.08115E+00 -1.04420E+00 -1.00472E+00 -9.62361E-01 -9.16788E-01 -8.67663E-01
  -8.14613E-01 -7.57161E-01 -6.94765E-01 -6.26805E-01 -5.52567E-01 -4.71229E-01 -3.81871E-01 -2.83487E-01 -1.74973E-01 -5.51031E-02
   7.74628E-02  2.24175E-01  3.86540E-01  5.66087E-01  7.64319E-01  9.82690E-01  1.22253E+00  1.48495E+00  1.77074E+00  2.08027E+00
   2.41334E+00  2.76916E+00  3.14619E+00  3.54206E+00  3.95350E+00  4.37632E+00  4.80542E+00  5.23489E+00  5.65807E+00  6.06772E+00
   6.45622E+00  6.81580E+00  7.13887E+00  7.41830E+00  7.64768E+00  7.82164E+00  7.93600E+00  7.98806E+00  7.97670E+00  7.90240E+00
   7.76726E+00  7.57485E+00  7.33007E+00  7.03896E+00  6.70839E+00  6.34584E+00  5.95903E+00  5.55563E+00  5.14306E+00  4.72825E+00
   4.31745E+00  3.91611E+00  3.52877E+00  3.15904E+00  2.80964E+00  2.48246E+00  2.17859E+00  1.89846E+00  1.64189E+00  1.40824E+00
   1.19651E+00  1.00548E+00  8.33744E-01  6.79792E-01  5.42073E-01  4.19065E-01  3.09312E-01  2.11454E-01  1.24216E-01  4.64199E-02
  -2.30080E-02 -8.50188E-02 -1.40451E-01 -1.90041E-01 -2.34452E-01 -2.74276E-01 -3.10034E-01 -3.42166E-01 -3.71052E-01 -3.97023E-01
  -4.20388E-01 -4.41422E-01 -4.60360E-01 -4.77395E-01 -4.92696E-01 -5.06420E-01 -5.18720E-01 -5.29729E-01 -5.39559E-01 -5.48296E-01
  -5.56023E-01 -5.62822E-01 -5.68781E-01 -5.73969E-01 -5.78440E-01 -5.82232E-01 -5.85393E-01 -5.87974E-01 -5.90029E-01 -5.91593E-01
  -5.92691E-01 -5.93341E-01 -5.93578E-01 -5.93436E-01 -5.92949E-01 -5.92131E-01 -5.90993E-01 -5.89546E-01 -5.87819E-01 -5.85838E-01
  -5.83621E-01 -5.81170E-01 -5.78488E-01 -5.75588E-01 -5.72493E-01 -5.69222E-01 -5.65781E-01 -5.62167E-01 -5.58382E-01 -5.54441E-01
  -5.50364E-01 -5.46159E-01 -5.41826E-01 -5.37359E-01 -5.32764E-01 -5.28056E-01 -5.23253E-01 -5.18353E-01 -5.13353E-01 -5.08248E-01
  -5.03048E-01 -4.97769E-01 -4.92419E-01 -4.86993E-01 -4.81484E-01 -4.75891E-01 -4.70228E-01 -4.64508E-01 -4.58734E-01 -4.52897E-01
  -4.46992E-01 -4.41022E-01 -4.35003E-01 -4.28942E-01 -4.22835E-01 -4.16672E-01 -4.10452E-01 -4.04184E-01 -3.97883E-01 -3.91550E-01
  -3.85177E-01 -3.78754E-01 -3.72285E-01 -3.65782E-01 -3.59256E-01 -3.52700E-01 -3.46107E-01 -3.39470E-01 -3.32799E-01 -3.26106E-01
  -3.19396E-01 -3.12658E-01 -3.05884E-01 -2.99073E-01 -2.92240E-01 -2.85391E-01 -2.78526E-01 -2.71632E-01 -2.64705E-01 -2.57749E-01
  -2.50779E-01 -2.43798E-01 -2.36800E-01 -2.29770E-01 -2.22711E-01 -2.15630E-01 -2.08541E-01 -2.01440E-01
 NY background values follow
    -4.187E+00   -4.179E+00   -4.171E+00   -4.163E+00   -4.155E+00   -4.147E+00   -4.139E+00   -4.131E+00   -4.123E+00   -4.116E+00
    -4.108E+00   -4.100E+00   -4.092E+00   -4.084E+00   -4.076E+00   -4.068E+00   -4.060E+00   -4.052E+00   -4.044E+00   -4.037E+00
    -4.029E+00   -4.021E+00   -4.013E+00   -4.005E+00   -3.997E+00   -3.989E+00   -3.981E+00   -3.973E+00   -3.965E+00   -3.958E+00
    -3.950E+00   -3.942E+00   -3.934E+00   -3.926E+00   -3.918E+00   -3.910E+00   -3.902E+00   -3.894E+00   -3.886E+00   -3.879E+00
    -3.871E+00   -3.863E+00   -3.855E+00   -3.847E+00   -3.839E+00   -3.831E+00   -3.823E+00   -3.815E+00   -3.808E+00   -3.800E+00
    -3.792E+00   -3.784E+00   -3.776E+00   -3.768E+00   -3.760E+00   -3.752E+00   -3.744E+00   -3.736E+00   -3.729E+00   -3.721E+00
    -3.713E+00   -3.705E+00   -3.697E+00   -3.689E+00   -3.681E+00   -3.673E+00   -3.665E+00   -3.657E+00   -3.650E+00   -3.642E+00
    -3.634E+00   -3.626E+00   -3.618E+00   -3.610E+00   -3.602E+00   -3.594E+00   -3.586E+00   -3.578E+00   -3.571E+00   -3.563E+00
    -3.555E+00   -3.547E+00   -3.539E+00   -3.531E+00   -3.523E+00   -3.515E+00   -3.507E+00   -3.499E+00   -3.492E+00   -3.484E+00
    -3.476E+00   -3.468E+00   -3.460E+00   -3.452E+00   -3.444E+00   -3.436E+00   -3.428E+00   -3.421E+00   -3.413E+00   -3.405E+00
    -3.397E+00   -3.389E+00   -3.381E+00   -3.373E+00   -3.365E+00   -3.357E+00   -3.349E+00   -3.342E+00   -3.334E+00   -3.326E+00
    -3.318E+00   -3.310E+00   -3.302E+00   -3.294E+00   -3.286E+00   -3.278E+00   -3.270E+00   -3.263E+00   -3.255E+00   -3.247E+00
    -3.239E+00   -3.231E+00   -3.223E+00   -3.215E+00   -3.207E+00   -3.199E+00   -3.191E+00   -3.184E+00   -3.176E+00   -3.168E+00
    -3.160E+00   -3.152E+00   -3.144E+00   -3.136E+00   -3.128E+00   -3.120E+00   -3.112E+00   -3.105E+00   -3.097E+00   -3.089E+00
    -3.081E+00   -3.073E+00   -3.065E+00   -3.057E+00   -3.049E+00   -3.041E+00   -3.034E+00   -3.026E+00   -3.018E+00   -3.010E+00
    -3.002E+00   -2.994E+00   -2.986E+00   -2.978E+00   -2.970E+00   -2.962E+00   -2.955E+00   -2.947E+00   -2.939E+00   -2.931E+00
    -2.923E+00   -2.915E+00   -2.907E+00   -2.899E+00   -2.891E+00   -2.883E+00   -2.876E+00   -2.868E+00   -2.860E+00   -2.852E+00
    -2.844E+00   -2.836E+00   -2.828E+00   -2.820E+00   -2.812E+00   -2.804E+00   -2.797E+00   -2.789E+00   -2.781E+00   -2.773E+00
    -2.765E+00   -2.757E+00   -2.749E+00   -2.741E+00   -2.733E+00   -2.725E+00   -2.718E+00   -2.710E+00   -2.702E+00   -2.694E+00
    -2.686E+00   -2.678E+00   -2.670E+00   -2.662E+00   -2.654E+00   -2.647E+00   -2.639E+00   -2.631E+00   -2.623E+00   -2.615E+00
    -2.607E+00   -2.599E+00   -2.591E+00   -2.583E+00   -2.575E+00   -2.568E+00   -2.560E+00   -2.552E+00   -2.544E+00   -2.536E+00
    -2.528E+00   -2.520E+00   -2.512E+00   -2.504E+00   -2.496E+00   -2.489E+00   -2.481E+00   -2.473E+00   -2.465E+00   -2.457E+00
    -2.449E+00   -2.441E+00   -2.433E+00   -2.425E+00   -2.417E+00   -2.410E+00   -2.402E+00   -2.394E+00   -2.386E+00   -2.378E+00
    -2.370E+00   -2.362E+00   -2.354E+00   -2.346E+00   -2.338E+00   -2.331E+00   -2.323E+00   -2.315E+00   -2.307E+00   -2.299E+00
    -2.291E+00   -2.283E+00   -2.275E+00   -2.267E+00   -2.259E+00   -2.252E+00   -2.244E+00   -2.236E+00   -2.228E+00   -2.220E+00
    -2.212E+00   -2.204E+00   -2.196E+00   -2.188E+00   -2.181E+00   -2.173E+00   -2.165E+00   -2.157E+00   -2.149E+00   -2.141E+00
    -2.133E+00   -2.125E+00   -2.117E+00   -2.109E+00   -2.102E+00   -2.094E+00   -2.086E+00   -2.078E+00   -2.070E+00   -2.062E+00
    -2.054E+00   -2.046E+00   -2.038E+00   -2.030E+00   -2.023E+00   -2.015E+00   -2.007E+00   -1.999E+00   -1.991E+00   -1.983E+00
    -1.975E+00   -1.967E+00   -1.959E+00   -1.951E+00   -1.944E+00   -1.936E+00   -1.928E+00   -1.920E+00   -1.912E+00   -1.904E+00
    -1.896E+00   -1.888E+00   -1.880E+00   -1.872E+00   -1.865E+00   -1.857E+00   -1.849E+00   -1.841E+00   -1.833E+00   -1.825E+00
    -1.817E+00   -1.809E+00   -1.801E+00   -1.793E+00   -1.786E+00   -1.778E+00   -1.770E+00   -1.762E+00   -1.754E+00   -1.746E+00
    -1.738E+00   -1.730E+00   -1.722E+00   -1.714E+00   -1.707E+00   -1.699E+00   -1.691E+00   -1.683E+00   -1.675E+00   -1.667E+00
    -1.659E+00   -1.651E+00   -1.643E+00   -1.635E+00   -1.628E+00   -1.620E+00   -1.612E+00   -1.604E+00   -1.596E+00   -1.588E+00
    -1.580E+00   -1.572E+00   -1.564E+00   -1.557E+00   -1.549E+00   -1.541E+00   -1.533E+00   -1.525E+00   -1.517E+00   -1.509E+00
    -1.501E+00   -1.493E+00   -1.485E+00   -1.478E+00   -1.470E+00   -1.462E+00   -1.454E+00   -1.446E+00   -1.438E+00   -1.430E+00
    -1.422E+00   -1.414E+00   -1.406E+00   -1.399E+00   -1.391E+00   -1.383E+00   -1.375E+00   -1.367E+00   -1.359E+00   -1.351E+00
    -1.343E+00   -1.335E+00   -1.327E+00   -1.320E+00   -1.312E+00   -1.304E+00   -1.296E+00   -1.288E+00   -1.280E+00   -1.272E+00
    -1.264E+00   -1.256E+00   -1.248E+00   -1.241E+00   -1.233E+00   -1.225E+00   -1.217E+00   -1.209E+00   -1.201E+00   -1.193E+00
    -1.185E+00   -1.177E+00   -1.169E+00   -1.162E+00   -1.154E+00   -1.146E+00   -1.138E+00   -1.130E+00   -1.122E+00   -1.114E+00
    -1.106E+00   -1.098E+00   -1.090E+00   -1.083E+00   -1.075E+00   -1.067E+00   -1.059E+00   -1.051E+00   -1.043E+00   -1.035E+00
    -1.027E+00   -1.019E+00   -1.011E+00   -1.004E+00   -9.957E-01   -9.878E-01   -9.799E-01   -9.720E-01   -9.641E-01   -9.562E-01
    -9.483E-01   -9.404E-01   -9.325E-01   -9.246E-01   -9.167E-01   -9.088E-01   -9.009E-01   -8.930E-01   -8.851E-01   -8.772E-01
    -8.693E-01   -8.614E-01   -8.535E-01   -8.456E-01   -8.377E-01   -8.298E-01   -8.219E-01   -8.140E-01   -8.061E-01   -7.982E-01
    -7.903E-01   -7.824E-01   -7.745E-01   -7.666E-01   -7.587E-01   -7.508E-01   -7.429E-01   -7.350E-01   -7.271E-01   -7.192E-01
    -7.113E-01   -7.034E-01   -6.955E-01   -6.876E-01   -6.797E-01   -6.718E-01   -6.639E-01   -6.560E-01   -6.481E-01   -6.402E-01
    -6.323E-01   -6.244E-01   -6.165E-01   -6.086E-01   -6.007E-01   -5.928E-01   -5.849E-01   -5.770E-01   -5.691E-01   -5.612E-01
    -5.533E-01   -5.454E-01   -5.375E-01   -5.296E-01   -5.217E-01   -5.138E-01   -5.059E-01   -4.980E-01   -4.901E-01   -4.822E-01
    -4.743E-01   -4.664E-01   -4.585E-01   -4.506E-01   -4.427E-01   -4.348E-01   -4.269E-01   -4.190E-01   -4.111E-01   -4.032E-01
    -3.953E-01   -3.874E-01   -3.795E-01   -3.716E-01   -3.637E-01   -3.558E-01   -3.479E-01   -3.400E-01   -3.321E-01   -3.242E-01
    -3.163E-01   -3.084E-01   -3.005E-01   -2.926E-01   -2.847E-01   -2.768E-01   -2.689E-01   -2.610E-01
 Asp      Conc. = 1.61E+01
