 LCModel (Version 6.3-1L) Copyright: S.W. Provencher.          Ref.: Magn. Reson. Med. 30:672-679 (1993).                
 Slice#2 Row#3 Col#11  PD_05_press_1_raw_act
 36 lines in following concentration table = NCONC+1
    Conc.  %SD /Cr+PCr  Metabolite                                         
  792.028  35%   1.408 Ala                                                 
   10.511 999% 1.9E-02 Asp                                                 
    0.000 999%   0.000 Cr                                                  
  562.632  10%   1.000 PCr                                                 
   58.295 136%   0.104 GABA                                                
   29.318 263% 5.2E-02 Glc                                                 
 2.13E+03  25%   3.786 Gln                                                 
 2.69E+03  25%   4.780 Glu                                                 
  226.462  10%   0.403 GPC                                                 
    0.000 999%   0.000 PCh                                                 
  310.199  30%   0.551 GSH                                                 
 1.15E+03  22%   2.045 Ins                                                 
    0.000 999%   0.000 Lac                                                 
  907.402   7%   1.613 NAA                                                 
    0.000 999%   0.000 NAAG                                                
   70.699  29%   0.126 Scyllo                                              
   74.269 157%   0.132 Tau                                                 
    0.000 999%   0.000 -CrCH2                                              
  226.462  10%   0.403 GPC+PCh                                             
  907.402   7%   1.613 NAA+NAAG                                            
  562.632  10%   1.000 Cr+PCr                                              
 4.82E+03  23%   8.566 Glu+Gln                                             
 5.69E+03  10%  10.115 Lip13a                                              
  113.808  81%   0.202 Lip13b                                              
    0.000 999%   0.000 Lip09                                               
  441.024  27%   0.784 MM09                                                
 1.39E+03  29%   2.466 Lip20                                               
 2.25E+03  17%   4.004 MM20                                                
  211.628  87%   0.376 MM12                                                
    0.000 999%   0.000 MM14                                                
 2.15E+03  15%   3.814+MM17                                                
 5.80E+03  10%  10.317 Lip13a+Lip13b                                       
 6.02E+03   9%  10.693 MM14+Lip13a+Lip13b+MM12                             
  441.024  27%   0.784 MM09+Lip09                                          
 3.64E+03  10%   6.470 MM20+Lip20                                          
   6 lines in following misc. output table
  FWHM = 0.153 ppm    S/N =   7                                            
  Data shift = 0.046 ppm                                                   
  Ph:   5 deg      -3.6 deg/ppm                                            
  alphaB,S = 4.3E-01,   3.2E+02                                            
   14 spline knots.   Ns = 7(2)                                            
  ( 9) 4 infls.   ( 5) 1 extrs.                                            
  498 points on ppm-axis = NY
      4.000000     3.992357     3.984714     3.977070     3.969427     3.961784     3.954141     3.946497     3.938854     3.931211
      3.923568     3.915925     3.908281     3.900638     3.892995     3.885352     3.877708     3.870065     3.862422     3.854779
      3.847136     3.839492     3.831849     3.824206     3.816563     3.808919     3.801276     3.793633     3.785990     3.778347
      3.770703     3.763060     3.755417     3.747774     3.740130     3.732487     3.724844     3.717201     3.709558     3.701914
      3.694271     3.686628     3.678985     3.671341     3.663698     3.656055     3.648412     3.640769     3.633125     3.625482
      3.617839     3.610196     3.602552     3.594909     3.587266     3.579623     3.571980     3.564336     3.556693     3.549050
      3.541407     3.533763     3.526120     3.518477     3.510834     3.503191     3.495547     3.487904     3.480261     3.472618
      3.464974     3.457331     3.449688     3.442045     3.434402     3.426758     3.419115     3.411472     3.403829     3.396185
      3.388542     3.380899     3.373256     3.365613     3.357969     3.350326     3.342683     3.335040     3.327396     3.319753
      3.312110     3.304467     3.296824     3.289180     3.281537     3.273894     3.266251     3.258607     3.250964     3.243321
      3.235678     3.228034     3.220391     3.212748     3.205105     3.197462     3.189818     3.182175     3.174532     3.166889
      3.159245     3.151602     3.143959     3.136316     3.128673     3.121029     3.113386     3.105743     3.098100     3.090456
      3.082813     3.075170     3.067527     3.059884     3.052240     3.044597     3.036954     3.029311     3.021667     3.014024
      3.006381     2.998738     2.991095     2.983451     2.975808     2.968165     2.960522     2.952878     2.945235     2.937592
      2.929949     2.922306     2.914662     2.907019     2.899376     2.891733     2.884089     2.876446     2.868803     2.861160
      2.853517     2.845873     2.838230     2.830587     2.822944     2.815300     2.807657     2.800014     2.792371     2.784728
      2.777084     2.769441     2.761798     2.754155     2.746511     2.738868     2.731225     2.723582     2.715939     2.708295
      2.700652     2.693009     2.685366     2.677722     2.670079     2.662436     2.654793     2.647150     2.639506     2.631863
      2.624220     2.616577     2.608933     2.601290     2.593647     2.586004     2.578361     2.570717     2.563074     2.555431
      2.547788     2.540144     2.532501     2.524858     2.517215     2.509572     2.501928     2.494285     2.486642     2.478999
      2.471355     2.463712     2.456069     2.448426     2.440783     2.433139     2.425496     2.417853     2.410210     2.402566
      2.394923     2.387280     2.379637     2.371994     2.364350     2.356707     2.349064     2.341421     2.333777     2.326134
      2.318491     2.310848     2.303205     2.295561     2.287918     2.280275     2.272632     2.264988     2.257345     2.249702
      2.242059     2.234416     2.226772     2.219129     2.211486     2.203843     2.196199     2.188556     2.180913     2.173270
      2.165627     2.157983     2.150340     2.142697     2.135054     2.127410     2.119767     2.112124     2.104481     2.096838
      2.089194     2.081551     2.073908     2.066265     2.058621     2.050978     2.043335     2.035692     2.028049     2.020405
      2.012762     2.005119     1.997476     1.989833     1.982190     1.974546     1.966903     1.959260     1.951617     1.943974
      1.936331     1.928688     1.921045     1.913402     1.905759     1.898115     1.890472     1.882829     1.875186     1.867543
      1.859900     1.852257     1.844614     1.836971     1.829327     1.821684     1.814041     1.806398     1.798755     1.791112
      1.783469     1.775826     1.768183     1.760540     1.752896     1.745253     1.737610     1.729967     1.722324     1.714681
      1.707038     1.699395     1.691752     1.684108     1.676465     1.668822     1.661179     1.653536     1.645893     1.638250
      1.630607     1.622964     1.615321     1.607677     1.600034     1.592391     1.584748     1.577105     1.569462     1.561819
      1.554176     1.546533     1.538890     1.531246     1.523603     1.515960     1.508317     1.500674     1.493031     1.485388
      1.477745     1.470102     1.462458     1.454815     1.447172     1.439529     1.431886     1.424243     1.416600     1.408957
      1.401314     1.393671     1.386027     1.378384     1.370741     1.363098     1.355455     1.347812     1.340169     1.332526
      1.324883     1.317240     1.309596     1.301953     1.294310     1.286667     1.279024     1.271381     1.263738     1.256095
      1.248452     1.240808     1.233165     1.225522     1.217879     1.210236     1.202593     1.194950     1.187307     1.179664
      1.172021     1.164377     1.156734     1.149091     1.141448     1.133805     1.126162     1.118519     1.110876     1.103233
      1.095590     1.087946     1.080303     1.072660     1.065017     1.057374     1.049731     1.042088     1.034445     1.026802
      1.019158     1.011515     1.003872     0.996229     0.988586     0.980943     0.973300     0.965657     0.958014     0.950371
      0.942727     0.935084     0.927441     0.919798     0.912155     0.904512     0.896869     0.889226     0.881583     0.873940
      0.866296     0.858653     0.851010     0.843367     0.835724     0.828081     0.820438     0.812795     0.805152     0.797508
      0.789865     0.782222     0.774579     0.766936     0.759293     0.751650     0.744007     0.736364     0.728721     0.721077
      0.713434     0.705791     0.698148     0.690505     0.682862     0.675219     0.667576     0.659933     0.652290     0.644646
      0.637003     0.629360     0.621717     0.614074     0.606431     0.598788     0.591145     0.583502     0.575858     0.568215
      0.560572     0.552929     0.545286     0.537643     0.530000     0.522357     0.514714     0.507071     0.499427     0.491784
      0.484141     0.476498     0.468855     0.461212     0.453569     0.445925     0.438282     0.430639     0.422996     0.415353
      0.407710     0.400067     0.392424     0.384780     0.377137     0.369494     0.361851     0.354208     0.346565     0.338922
      0.331278     0.323635     0.315992     0.308349     0.300706     0.293063     0.285420     0.277777     0.270133     0.262490
      0.254847     0.247204     0.239561     0.231918     0.224275     0.216631     0.208988     0.201345
 NY phased data points follow
   7.03192E+00  9.51370E+00  7.80150E+00  7.61920E+00  7.36468E+00  9.86624E+00  9.57706E+00  1.13186E+01  9.71814E+00  8.09772E+00
   9.63783E+00  1.11688E+01  8.96076E+00  9.17078E+00  8.30088E+00  8.34448E+00  9.44791E+00  1.05860E+01  8.04240E+00  8.64824E+00
   7.84978E+00  8.21038E+00  8.10563E+00  9.29285E+00  7.97759E+00  8.87006E+00  8.67183E+00  6.33739E+00  8.93733E+00  8.53917E+00
   7.84758E+00  9.63327E+00  1.00794E+01  9.59221E+00  7.84898E+00  9.30890E+00  1.12568E+01  8.74427E+00  9.22577E+00  1.02273E+01
   8.43373E+00  1.05252E+01  7.79039E+00  7.31306E+00  9.18750E+00  8.56097E+00  8.30055E+00  8.45161E+00  8.31975E+00  7.85173E+00
   9.28383E+00  1.06630E+01  8.76378E+00  8.96692E+00  9.09628E+00  7.45958E+00  7.60786E+00  4.98942E+00  7.77202E+00  7.36948E+00
   7.99920E+00  6.88229E+00  6.40613E+00  4.49033E+00  4.51885E+00  5.44762E+00  2.05897E+00  6.76544E+00  6.29125E+00  4.01569E+00
   2.74838E+00  6.03502E+00  4.73404E+00  4.90380E+00  1.69326E+00  4.86171E+00  6.00482E+00  3.52665E+00  3.73624E+00  4.94372E+00
   5.75069E+00  6.87446E+00  6.85474E+00  4.56439E+00  5.45097E+00  5.14051E+00  5.56637E+00  6.95368E+00  7.50266E+00  5.69020E+00
   6.34186E+00  7.32693E+00  8.14784E+00  8.66707E+00  9.57807E+00  1.05841E+01  7.59792E+00  1.18761E+01  9.28267E+00  8.26117E+00
   9.62543E+00  1.01947E+01  9.57545E+00  1.09138E+01  1.27930E+01  1.26665E+01  1.31335E+01  1.38703E+01  1.31379E+01  1.18109E+01
   1.12310E+01  8.76578E+00  9.65141E+00  1.10175E+01  8.84037E+00  1.12898E+01  7.93735E+00  9.95482E+00  9.47519E+00  1.14961E+01
   9.82915E+00  1.30361E+01  1.01586E+01  1.06682E+01  8.96751E+00  1.28801E+01  1.06882E+01  1.46076E+01  1.37207E+01  1.22118E+01
   1.53362E+01  1.57115E+01  1.19914E+01  1.35056E+01  1.22141E+01  1.22548E+01  1.28046E+01  1.04371E+01  1.14876E+01  8.63251E+00
   8.74434E+00  6.83022E+00  8.79647E+00  5.90334E+00  6.12610E+00  7.12917E+00  5.31058E+00  6.18583E+00  7.68276E+00  3.32326E+00
   1.11476E+01  6.66800E+00  7.22315E+00  8.56022E+00  6.69217E+00  7.94872E+00  8.94444E+00  7.27519E+00  6.54191E+00  3.62702E+00
   6.61429E+00  8.07915E+00  6.10282E+00  5.22716E+00  5.92982E+00  7.24930E+00  7.29185E+00  4.37371E+00  1.96662E+00  6.03273E+00
   4.27417E+00  5.67839E+00  1.26989E+00  1.58181E+00  4.32739E+00  5.68388E+00  2.27413E+00  2.75831E+00  3.81132E+00  2.69590E+00
   2.38777E+00  3.27322E+00  3.12622E+00  4.61409E+00  3.36533E+00  4.05039E+00  4.45426E+00  3.39338E+00  4.34942E+00  4.69891E+00
   2.58478E+00  5.06452E+00  5.71871E+00  5.55771E+00  7.65423E+00  5.34576E+00  1.13549E+01  1.00607E+01  8.01266E+00  8.82061E+00
   1.04636E+01  5.63844E+00  7.01971E+00  9.84207E+00  8.10056E+00  1.06443E+01  1.18004E+01  8.39494E+00  1.17882E+01  9.57040E+00
   1.06336E+01  9.75260E+00  9.93912E+00  1.06395E+01  1.16140E+01  1.20433E+01  1.47224E+01  1.26434E+01  1.11943E+01  1.25004E+01
   1.28265E+01  1.01108E+01  1.49599E+01  1.55000E+01  1.33332E+01  1.23784E+01  1.32513E+01  1.36035E+01  1.28363E+01  1.73082E+01
   1.56995E+01  1.46302E+01  1.72903E+01  1.66432E+01  1.50478E+01  1.51934E+01  1.70358E+01  1.79630E+01  1.76126E+01  1.99040E+01
   1.83652E+01  1.94005E+01  1.64320E+01  2.00207E+01  2.04982E+01  2.03672E+01  2.06267E+01  2.17030E+01  2.40875E+01  2.34203E+01
   2.44077E+01  2.68482E+01  2.80327E+01  2.88388E+01  2.83508E+01  3.05612E+01  2.90485E+01  2.58852E+01  2.90093E+01  3.14355E+01
   3.38701E+01  3.25898E+01  3.44892E+01  3.33710E+01  3.43707E+01  2.98852E+01  3.05878E+01  3.34276E+01  3.16160E+01  2.74157E+01
   2.25433E+01  2.52959E+01  2.13519E+01  2.40811E+01  2.10143E+01  1.84795E+01  1.99643E+01  1.94271E+01  1.99609E+01  1.98202E+01
   2.10540E+01  1.56519E+01  1.78304E+01  1.78608E+01  1.86209E+01  1.76499E+01  1.90513E+01  1.92287E+01  1.95148E+01  2.02661E+01
   1.64658E+01  1.92191E+01  1.57042E+01  2.03364E+01  1.72954E+01  1.79113E+01  1.92826E+01  1.73830E+01  1.79394E+01  1.97479E+01
   1.72696E+01  1.69310E+01  1.77320E+01  1.66063E+01  1.74947E+01  1.77517E+01  1.82757E+01  1.50063E+01  1.83106E+01  1.48884E+01
   1.80324E+01  1.75043E+01  1.57816E+01  1.49459E+01  1.43653E+01  1.45917E+01  1.15840E+01  1.15644E+01  1.54722E+01  1.33719E+01
   1.63773E+01  1.26829E+01  1.09432E+01  1.13403E+01  1.45928E+01  1.26240E+01  1.29878E+01  1.28540E+01  1.17748E+01  1.27437E+01
   1.17730E+01  1.29117E+01  9.93439E+00  1.40243E+01  1.35321E+01  1.17466E+01  1.20746E+01  1.31327E+01  1.58907E+01  1.30887E+01
   1.63511E+01  1.59574E+01  1.85603E+01  1.71811E+01  1.91154E+01  1.96951E+01  2.09834E+01  2.13669E+01  2.47370E+01  2.26804E+01
   2.11966E+01  2.15632E+01  2.37413E+01  2.54728E+01  2.33208E+01  2.56775E+01  2.72077E+01  2.27588E+01  2.46005E+01  2.19046E+01
   2.48958E+01  2.42292E+01  2.33408E+01  2.09904E+01  2.18358E+01  2.09949E+01  2.28919E+01  1.90012E+01  1.75134E+01  1.79755E+01
   1.62475E+01  1.66659E+01  1.66785E+01  1.56056E+01  1.70277E+01  1.21216E+01  1.29279E+01  1.22213E+01  1.30659E+01  1.10729E+01
   1.27561E+01  1.13608E+01  1.08619E+01  1.37600E+01  9.27865E+00  8.26865E+00  7.19070E+00  1.01509E+01  7.95196E+00  8.36674E+00
   5.69148E+00  8.45832E+00  6.93105E+00  3.80938E+00  4.94456E+00  5.69105E+00  5.74861E+00  2.46547E+00  3.97133E+00  4.00549E+00
   5.98234E+00  1.92201E+00  5.00715E+00  7.36974E+00  4.38767E+00  5.82469E+00  4.45407E+00  3.10132E+00  1.55818E+00  1.71887E+00
   1.91529E+00  2.91888E+00  1.71656E+00  2.56702E+00  1.21826E+00  1.65845E+00  1.00745E+00  3.15226E+00 -3.28901E-01  1.51646E+00
  -1.70091E+00 -6.35412E-01 -2.19263E+00 -2.25283E+00  1.30397E+00  2.20417E+00  2.77337E-01 -1.78211E+00 -4.86912E+00 -4.53281E-01
  -1.30252E+00 -4.97688E+00 -2.72402E+00 -2.64068E+00 -3.54565E+00 -2.35804E+00 -2.88853E+00 -2.81097E+00 -4.64720E+00 -3.87241E+00
  -4.08202E+00 -2.31575E+00 -1.83076E+00 -3.10509E+00 -3.42480E+00 -5.12102E+00 -2.83162E+00 -4.53390E+00 -2.99737E+00 -3.10258E+00
  -2.84139E+00 -5.23210E+00 -2.69323E+00 -3.96750E+00 -2.53567E+00 -2.93491E+00 -3.52485E+00 -2.15725E+00 -4.76670E+00 -4.30006E+00
  -6.56270E+00 -2.35787E+00 -3.46112E+00 -5.28695E+00 -4.48746E+00 -2.10653E+00 -2.55849E+00 -3.83700E+00 -3.60232E+00 -2.80565E+00
  -5.19381E+00 -6.37919E+00 -3.15272E+00 -3.68417E+00 -3.50350E+00 -4.56405E+00 -5.31492E+00 -3.93312E+00 -6.72804E+00 -1.73499E+00
  -4.23707E+00 -4.73564E+00 -3.58382E+00 -3.11793E+00 -2.42101E+00 -5.20907E+00 -5.28664E+00 -2.79838E+00 -2.08117E+00 -4.41609E+00
   1.48900E-02 -2.62981E+00 -2.98337E+00 -3.77453E+00 -3.42073E+00 -1.93933E+00 -4.57616E+00 -5.29285E+00
 NY points of the fit to the data follow
   7.55716E+00  8.20648E+00  7.96966E+00  8.57407E+00  8.16762E+00  8.81276E+00  8.32587E+00  9.11427E+00  8.60765E+00  9.52754E+00
   9.00405E+00  1.00910E+01  9.42994E+00  1.02674E+01  9.35357E+00  9.87506E+00  8.87179E+00  9.20696E+00  8.46496E+00  8.80598E+00
   8.41630E+00  8.68163E+00  8.48685E+00  8.52949E+00  8.36475E+00  8.32970E+00  8.29562E+00  8.44750E+00  8.49836E+00  8.60630E+00
   8.80454E+00  8.88002E+00  9.20557E+00  9.25143E+00  9.68228E+00  9.64523E+00  1.00060E+01  9.83142E+00  1.00964E+01  9.78306E+00
   9.96223E+00  9.56600E+00  9.66732E+00  9.22783E+00  9.12413E+00  8.49738E+00  8.32153E+00  7.79890E+00  7.93929E+00  7.65443E+00
   8.10466E+00  7.92957E+00  8.30413E+00  7.89539E+00  7.95698E+00  7.35125E+00  7.18426E+00  6.64354E+00  6.52586E+00  6.02035E+00
   5.96659E+00  5.53416E+00  5.53984E+00  5.18110E+00  5.29923E+00  5.10602E+00  5.38338E+00  5.24165E+00  5.47984E+00  5.28602E+00
   5.47961E+00  5.28753E+00  5.53727E+00  5.35898E+00  5.59551E+00  5.41129E+00  5.59473E+00  5.42742E+00  5.60863E+00  5.44660E+00
   5.59413E+00  5.40754E+00  5.50656E+00  5.31951E+00  5.37784E+00  5.20764E+00  5.21758E+00  5.09563E+00  5.20510E+00  5.61121E+00
   5.81690E+00  6.61464E+00  6.76585E+00  7.77784E+00  7.79526E+00  8.88026E+00  8.72327E+00  9.80241E+00  9.50866E+00  1.06386E+01
   1.02812E+01  1.15236E+01  1.11240E+01  1.23468E+01  1.19180E+01  1.28669E+01  1.22130E+01  1.27268E+01  1.19167E+01  1.19976E+01
   1.11307E+01  1.08516E+01  1.02122E+01  1.00893E+01  9.57205E+00  9.67078E+00  9.13965E+00  9.48349E+00  8.93843E+00  9.72513E+00
   9.30659E+00  1.08480E+01  1.03538E+01  1.20148E+01  1.13398E+01  1.31251E+01  1.22364E+01  1.40323E+01  1.29220E+01  1.45480E+01
   1.32418E+01  1.45260E+01  1.30992E+01  1.39223E+01  1.24641E+01  1.27750E+01  1.14072E+01  1.12426E+01  1.00933E+01  9.55134E+00
   8.73879E+00  7.95953E+00  7.59348E+00  6.86665E+00  7.03542E+00  6.77811E+00  7.00585E+00  6.78414E+00  6.98343E+00  6.79882E+00
   6.97103E+00  6.84353E+00  6.96605E+00  6.83129E+00  6.84048E+00  6.70709E+00  6.62923E+00  6.52186E+00  6.42748E+00  6.34335E+00
   6.26442E+00  6.17517E+00  6.07411E+00  5.98507E+00  5.87679E+00  5.79223E+00  5.67768E+00  5.58089E+00  5.47098E+00  5.36282E+00
   5.27068E+00  5.14466E+00  5.05893E+00  4.90992E+00  4.86382E+00  4.72819E+00  4.75895E+00  4.65843E+00  4.78121E+00  4.68734E+00
   4.85616E+00  4.78754E+00  4.92717E+00  4.86115E+00  4.90129E+00  4.85727E+00  4.86604E+00  4.98615E+00  5.10671E+00  5.46205E+00
   5.69321E+00  6.31420E+00  6.54680E+00  7.22670E+00  7.30231E+00  7.75605E+00  7.36190E+00  7.69393E+00  7.08328E+00  7.47197E+00
   6.99645E+00  7.72620E+00  7.74562E+00  8.55034E+00  8.96113E+00  9.47678E+00  1.00400E+01  9.95147E+00  1.02972E+01  9.65984E+00
   1.00497E+01  9.19003E+00  9.83450E+00  9.01208E+00  1.00539E+01  9.28473E+00  1.06692E+01  9.90485E+00  1.14725E+01  1.07554E+01
   1.23803E+01  1.17092E+01  1.30810E+01  1.26591E+01  1.37502E+01  1.35172E+01  1.41753E+01  1.42055E+01  1.41765E+01  1.46067E+01
   1.45543E+01  1.53379E+01  1.54263E+01  1.64745E+01  1.68653E+01  1.76201E+01  1.79838E+01  1.83693E+01  1.86394E+01  1.86201E+01
   1.87772E+01  1.85560E+01  1.90667E+01  1.88097E+01  1.95605E+01  1.94227E+01  2.09663E+01  2.10909E+01  2.30187E+01  2.32920E+01
   2.52451E+01  2.56350E+01  2.73567E+01  2.78021E+01  2.89997E+01  2.96266E+01  3.05401E+01  3.13440E+01  3.19551E+01  3.28622E+01
   3.29872E+01  3.35572E+01  3.31719E+01  3.33893E+01  3.24079E+01  3.22252E+01  3.07505E+01  3.01687E+01  2.82765E+01  2.74522E+01
   2.54203E+01  2.45148E+01  2.25425E+01  2.16403E+01  1.98776E+01  1.90868E+01  1.78468E+01  1.74561E+01  1.73205E+01  1.73441E+01
   1.73628E+01  1.74966E+01  1.76203E+01  1.77680E+01  1.79391E+01  1.81101E+01  1.82885E+01  1.84448E+01  1.85996E+01  1.87230E+01
   1.88387E+01  1.89412E+01  1.90243E+01  1.90763E+01  1.90934E+01  1.90708E+01  1.89993E+01  1.88853E+01  1.87136E+01  1.85069E+01
   1.82522E+01  1.79704E+01  1.76530E+01  1.73203E+01  1.69673E+01  1.66112E+01  1.62500E+01  1.59010E+01  1.55655E+01  1.52573E+01
   1.49864E+01  1.47741E+01  1.46636E+01  1.46926E+01  1.45487E+01  1.46138E+01  1.43463E+01  1.43392E+01  1.39201E+01  1.37707E+01
   1.31830E+01  1.31223E+01  1.26710E+01  1.27531E+01  1.25088E+01  1.26789E+01  1.25723E+01  1.26918E+01  1.26644E+01  1.26379E+01
   1.26748E+01  1.25299E+01  1.27120E+01  1.25622E+01  1.30204E+01  1.29210E+01  1.37121E+01  1.36844E+01  1.47781E+01  1.48269E+01
   1.61431E+01  1.62899E+01  1.77522E+01  1.80515E+01  1.95377E+01  2.00119E+01  2.11473E+01  2.14501E+01  2.22850E+01  2.25021E+01
   2.30489E+01  2.32429E+01  2.35541E+01  2.39229E+01  2.42536E+01  2.44991E+01  2.46326E+01  2.46409E+01  2.45225E+01  2.42851E+01
   2.39430E+01  2.35132E+01  2.30132E+01  2.24579E+01  2.18591E+01  2.12251E+01  2.05613E+01  1.98715E+01  1.91589E+01  1.84268E+01
   1.76793E+01  1.69215E+01  1.61590E+01  1.53981E+01  1.46451E+01  1.39061E+01  1.31868E+01  1.24923E+01  1.18272E+01  1.11950E+01
   1.05986E+01  1.00402E+01  9.52126E+00  9.04254E+00  8.60420E+00  8.20577E+00  7.84621E+00  7.52395E+00  7.23686E+00  6.98231E+00
   6.75715E+00  6.55780E+00  6.38026E+00  6.22017E+00  6.07296E+00  5.93389E+00  5.79823E+00  5.66138E+00  5.51907E+00  5.36743E+00
   5.20324E+00  5.02394E+00  4.82780E+00  4.61391E+00  4.38225E+00  4.13361E+00  3.86951E+00  3.59212E+00  3.30409E+00  3.00842E+00
   2.70826E+00  2.40683E+00  2.10717E+00  1.81211E+00  1.52415E+00  1.24536E+00  9.77398E-01  7.21482E-01  4.78389E-01  2.48520E-01
   3.19224E-02 -1.71629E-01 -3.62591E-01 -5.41584E-01 -7.09341E-01 -8.66671E-01 -1.01439E+00 -1.15333E+00 -1.28427E+00 -1.40796E+00
  -1.52507E+00 -1.63626E+00 -1.74205E+00 -1.84298E+00 -1.93944E+00 -2.03186E+00 -2.12054E+00 -2.20580E+00 -2.28788E+00 -2.36699E+00
  -2.44333E+00 -2.51707E+00 -2.58834E+00 -2.65726E+00 -2.72396E+00 -2.78851E+00 -2.85101E+00 -2.91151E+00 -2.97012E+00 -3.02685E+00
  -3.08178E+00 -3.13492E+00 -3.18635E+00 -3.23608E+00 -3.28420E+00 -3.33075E+00 -3.37582E+00 -3.41942E+00 -3.46166E+00 -3.50255E+00
  -3.54217E+00 -3.58054E+00 -3.61773E+00 -3.65377E+00 -3.68871E+00 -3.72259E+00 -3.75546E+00 -3.78735E+00 -3.81830E+00 -3.84836E+00
  -3.87756E+00 -3.90593E+00 -3.93352E+00 -3.96036E+00 -3.98647E+00 -4.01191E+00 -4.03669E+00 -4.06086E+00 -4.08444E+00 -4.10747E+00
  -4.12997E+00 -4.15199E+00 -4.17353E+00 -4.19465E+00 -4.21535E+00 -4.23567E+00 -4.25563E+00 -4.27527E+00 -4.29460E+00 -4.31365E+00
  -4.33244E+00 -4.35098E+00 -4.36930E+00 -4.38740E+00 -4.40530E+00 -4.42301E+00 -4.44052E+00 -4.45783E+00
 NY background values follow
     5.009E-01    5.182E-01    5.355E-01    5.528E-01    5.702E-01    5.876E-01    6.051E-01    6.225E-01    6.401E-01    6.576E-01
     6.752E-01    6.928E-01    7.104E-01    7.281E-01    7.458E-01    7.636E-01    7.814E-01    7.992E-01    8.171E-01    8.350E-01
     8.530E-01    8.710E-01    8.890E-01    9.071E-01    9.253E-01    9.434E-01    9.617E-01    9.800E-01    9.983E-01    1.017E+00
     1.035E+00    1.054E+00    1.072E+00    1.091E+00    1.109E+00    1.128E+00    1.147E+00    1.166E+00    1.184E+00    1.203E+00
     1.222E+00    1.241E+00    1.260E+00    1.280E+00    1.299E+00    1.318E+00    1.337E+00    1.357E+00    1.376E+00    1.396E+00
     1.415E+00    1.435E+00    1.455E+00    1.475E+00    1.495E+00    1.514E+00    1.534E+00    1.554E+00    1.574E+00    1.595E+00
     1.615E+00    1.635E+00    1.655E+00    1.676E+00    1.696E+00    1.717E+00    1.737E+00    1.758E+00    1.778E+00    1.799E+00
     1.820E+00    1.841E+00    1.862E+00    1.883E+00    1.904E+00    1.925E+00    1.946E+00    1.967E+00    1.988E+00    2.009E+00
     2.031E+00    2.052E+00    2.073E+00    2.095E+00    2.116E+00    2.138E+00    2.160E+00    2.181E+00    2.203E+00    2.225E+00
     2.246E+00    2.268E+00    2.290E+00    2.312E+00    2.334E+00    2.356E+00    2.378E+00    2.401E+00    2.423E+00    2.445E+00
     2.468E+00    2.491E+00    2.513E+00    2.536E+00    2.559E+00    2.582E+00    2.606E+00    2.629E+00    2.653E+00    2.676E+00
     2.700E+00    2.724E+00    2.748E+00    2.773E+00    2.797E+00    2.822E+00    2.847E+00    2.872E+00    2.897E+00    2.923E+00
     2.949E+00    2.975E+00    3.001E+00    3.028E+00    3.054E+00    3.081E+00    3.108E+00    3.136E+00    3.164E+00    3.192E+00
     3.220E+00    3.249E+00    3.277E+00    3.307E+00    3.336E+00    3.366E+00    3.396E+00    3.426E+00    3.457E+00    3.488E+00
     3.520E+00    3.551E+00    3.583E+00    3.616E+00    3.648E+00    3.682E+00    3.715E+00    3.749E+00    3.783E+00    3.817E+00
     3.852E+00    3.887E+00    3.922E+00    3.958E+00    3.994E+00    4.031E+00    4.068E+00    4.105E+00    4.142E+00    4.180E+00
     4.219E+00    4.257E+00    4.296E+00    4.336E+00    4.375E+00    4.416E+00    4.456E+00    4.497E+00    4.538E+00    4.580E+00
     4.622E+00    4.664E+00    4.707E+00    4.750E+00    4.794E+00    4.838E+00    4.882E+00    4.927E+00    4.972E+00    5.018E+00
     5.064E+00    5.110E+00    5.157E+00    5.204E+00    5.252E+00    5.299E+00    5.347E+00    5.396E+00    5.444E+00    5.493E+00
     5.542E+00    5.591E+00    5.640E+00    5.689E+00    5.738E+00    5.787E+00    5.836E+00    5.885E+00    5.934E+00    5.983E+00
     6.032E+00    6.080E+00    6.128E+00    6.176E+00    6.224E+00    6.271E+00    6.318E+00    6.365E+00    6.411E+00    6.457E+00
     6.502E+00    6.547E+00    6.592E+00    6.635E+00    6.678E+00    6.721E+00    6.763E+00    6.804E+00    6.845E+00    6.884E+00
     6.923E+00    6.961E+00    6.999E+00    7.035E+00    7.071E+00    7.105E+00    7.139E+00    7.172E+00    7.203E+00    7.234E+00
     7.264E+00    7.292E+00    7.320E+00    7.347E+00    7.372E+00    7.397E+00    7.420E+00    7.443E+00    7.464E+00    7.485E+00
     7.504E+00    7.522E+00    7.539E+00    7.556E+00    7.571E+00    7.585E+00    7.598E+00    7.610E+00    7.620E+00    7.630E+00
     7.639E+00    7.646E+00    7.652E+00    7.658E+00    7.662E+00    7.665E+00    7.667E+00    7.668E+00    7.667E+00    7.666E+00
     7.663E+00    7.659E+00    7.654E+00    7.648E+00    7.641E+00    7.632E+00    7.623E+00    7.612E+00    7.600E+00    7.587E+00
     7.572E+00    7.557E+00    7.540E+00    7.522E+00    7.503E+00    7.483E+00    7.461E+00    7.439E+00    7.415E+00    7.390E+00
     7.364E+00    7.337E+00    7.309E+00    7.279E+00    7.249E+00    7.217E+00    7.185E+00    7.151E+00    7.117E+00    7.081E+00
     7.044E+00    7.007E+00    6.968E+00    6.928E+00    6.888E+00    6.846E+00    6.804E+00    6.760E+00    6.716E+00    6.670E+00
     6.624E+00    6.577E+00    6.529E+00    6.479E+00    6.430E+00    6.379E+00    6.327E+00    6.275E+00    6.221E+00    6.167E+00
     6.112E+00    6.057E+00    6.000E+00    5.943E+00    5.885E+00    5.826E+00    5.766E+00    5.706E+00    5.644E+00    5.583E+00
     5.520E+00    5.457E+00    5.393E+00    5.328E+00    5.263E+00    5.197E+00    5.130E+00    5.063E+00    4.995E+00    4.927E+00
     4.858E+00    4.788E+00    4.718E+00    4.647E+00    4.576E+00    4.504E+00    4.432E+00    4.359E+00    4.286E+00    4.212E+00
     4.138E+00    4.063E+00    3.988E+00    3.913E+00    3.837E+00    3.760E+00    3.684E+00    3.607E+00    3.529E+00    3.451E+00
     3.373E+00    3.295E+00    3.216E+00    3.137E+00    3.057E+00    2.978E+00    2.898E+00    2.817E+00    2.737E+00    2.656E+00
     2.575E+00    2.494E+00    2.413E+00    2.332E+00    2.250E+00    2.168E+00    2.086E+00    2.004E+00    1.922E+00    1.840E+00
     1.758E+00    1.675E+00    1.593E+00    1.511E+00    1.429E+00    1.346E+00    1.264E+00    1.182E+00    1.100E+00    1.018E+00
     9.360E-01    8.543E-01    7.727E-01    6.913E-01    6.101E-01    5.291E-01    4.483E-01    3.678E-01    2.875E-01    2.074E-01
     1.277E-01    4.828E-02   -3.083E-02   -1.096E-01   -1.880E-01   -2.660E-01   -3.437E-01   -4.209E-01   -4.977E-01   -5.741E-01
    -6.500E-01   -7.254E-01   -8.003E-01   -8.747E-01   -9.486E-01   -1.022E+00   -1.095E+00   -1.167E+00   -1.238E+00   -1.309E+00
    -1.380E+00   -1.450E+00   -1.519E+00   -1.587E+00   -1.655E+00   -1.722E+00   -1.789E+00   -1.854E+00   -1.919E+00   -1.984E+00
    -2.047E+00   -2.110E+00   -2.173E+00   -2.234E+00   -2.295E+00   -2.355E+00   -2.414E+00   -2.472E+00   -2.530E+00   -2.587E+00
    -2.643E+00   -2.698E+00   -2.752E+00   -2.806E+00   -2.859E+00   -2.910E+00   -2.961E+00   -3.012E+00   -3.061E+00   -3.109E+00
    -3.156E+00   -3.203E+00   -3.248E+00   -3.293E+00   -3.337E+00   -3.379E+00   -3.421E+00   -3.462E+00   -3.502E+00   -3.541E+00
    -3.578E+00   -3.615E+00   -3.651E+00   -3.686E+00   -3.719E+00   -3.752E+00   -3.784E+00   -3.815E+00   -3.845E+00   -3.874E+00
    -3.902E+00   -3.930E+00   -3.957E+00   -3.983E+00   -4.008E+00   -4.032E+00   -4.056E+00   -4.079E+00   -4.102E+00   -4.124E+00
    -4.145E+00   -4.166E+00   -4.186E+00   -4.206E+00   -4.225E+00   -4.244E+00   -4.263E+00   -4.281E+00   -4.298E+00   -4.316E+00
    -4.333E+00   -4.349E+00   -4.366E+00   -4.382E+00   -4.398E+00   -4.414E+00   -4.430E+00   -4.445E+00   -4.461E+00   -4.476E+00
    -4.491E+00   -4.507E+00   -4.522E+00   -4.537E+00   -4.553E+00   -4.568E+00   -4.584E+00   -4.599E+00
 Ala      Conc. = 7.92E+02
