 LCModel (Version 6.3-1L) Copyright: S.W. Provencher.          Ref.: Magn. Reson. Med. 30:672-679 (1993).                
 Slice#1 Row#2 Col#7  PD_05_press_1_raw_act
 36 lines in following concentration table = NCONC+1
    Conc.  %SD /Cr+PCr  Metabolite                                         
    0.000 999%   0.000 Ala                                                 
   47.560 175%   0.112 Asp                                                 
  184.765 181%   0.434 Cr                                                  
  241.298 139%   0.566 PCr                                                 
   57.446  90%   0.135 GABA                                                
   52.931  97%   0.124 Glc                                                 
  786.817  61%   1.847 Gln                                                 
  435.137 133%   1.021 Glu                                                 
  163.387  11%   0.383 GPC                                                 
    0.000 999%   0.000 PCh                                                 
  120.261  72%   0.282 GSH                                                 
  658.796  30%   1.546 Ins                                                 
    0.000 999%   0.000 Lac                                                 
  749.360   8%   1.759 NAA                                                 
    0.000 999%   0.000 NAAG                                                
   35.172  42% 8.3E-02 Scyllo                                              
  100.082  79%   0.235 Tau                                                 
   92.042  80%   0.216 -CrCH2                                              
  163.387  11%   0.383 GPC+PCh                                             
  749.360   8%   1.759 NAA+NAAG                                            
  426.064  11%   1.000 Cr+PCr                                              
 1.22E+03  77%   2.868 Glu+Gln                                             
    0.000 999%   0.000 Lip13a                                              
  340.973  17%   0.800 Lip13b                                              
    0.000 999%   0.000 Lip09                                               
  709.392  12%   1.665 MM09                                                
   28.571 268% 6.7E-02 Lip20                                               
  898.746  20%   2.109 MM20                                                
  236.593  22%   0.555 MM12                                                
  565.146  23%   1.326 MM14                                                
  540.705  20%   1.269 MM17                                                
  340.973  17%   0.800 Lip13a+Lip13b                                       
 1.14E+03  13%   2.682 MM14+Lip13a+Lip13b+MM12                             
  709.392  12%   1.665 MM09+Lip09                                          
  927.317  19%   2.176 MM20+Lip20                                          
   6 lines in following misc. output table
  FWHM = 0.122 ppm    S/N =   4                                            
  Data shift =-0.023 ppm                                                   
  Ph: -29 deg     -11.6 deg/ppm                                            
  alphaB,S = 8.5E+01,   2.0E+02                                            
   14 spline knots.   Ns = 7(2)                                            
   2 inflections.     1 extrema                                            
  498 points on ppm-axis = NY
      4.000000     3.992357     3.984714     3.977070     3.969427     3.961784     3.954141     3.946497     3.938854     3.931211
      3.923568     3.915925     3.908281     3.900638     3.892995     3.885352     3.877708     3.870065     3.862422     3.854779
      3.847136     3.839492     3.831849     3.824206     3.816563     3.808919     3.801276     3.793633     3.785990     3.778347
      3.770703     3.763060     3.755417     3.747774     3.740130     3.732487     3.724844     3.717201     3.709558     3.701914
      3.694271     3.686628     3.678985     3.671341     3.663698     3.656055     3.648412     3.640769     3.633125     3.625482
      3.617839     3.610196     3.602552     3.594909     3.587266     3.579623     3.571980     3.564336     3.556693     3.549050
      3.541407     3.533763     3.526120     3.518477     3.510834     3.503191     3.495547     3.487904     3.480261     3.472618
      3.464974     3.457331     3.449688     3.442045     3.434402     3.426758     3.419115     3.411472     3.403829     3.396185
      3.388542     3.380899     3.373256     3.365613     3.357969     3.350326     3.342683     3.335040     3.327396     3.319753
      3.312110     3.304467     3.296824     3.289180     3.281537     3.273894     3.266251     3.258607     3.250964     3.243321
      3.235678     3.228034     3.220391     3.212748     3.205105     3.197462     3.189818     3.182175     3.174532     3.166889
      3.159245     3.151602     3.143959     3.136316     3.128673     3.121029     3.113386     3.105743     3.098100     3.090456
      3.082813     3.075170     3.067527     3.059884     3.052240     3.044597     3.036954     3.029311     3.021667     3.014024
      3.006381     2.998738     2.991095     2.983451     2.975808     2.968165     2.960522     2.952878     2.945235     2.937592
      2.929949     2.922306     2.914662     2.907019     2.899376     2.891733     2.884089     2.876446     2.868803     2.861160
      2.853517     2.845873     2.838230     2.830587     2.822944     2.815300     2.807657     2.800014     2.792371     2.784728
      2.777084     2.769441     2.761798     2.754155     2.746511     2.738868     2.731225     2.723582     2.715939     2.708295
      2.700652     2.693009     2.685366     2.677722     2.670079     2.662436     2.654793     2.647150     2.639506     2.631863
      2.624220     2.616577     2.608933     2.601290     2.593647     2.586004     2.578361     2.570717     2.563074     2.555431
      2.547788     2.540144     2.532501     2.524858     2.517215     2.509572     2.501928     2.494285     2.486642     2.478999
      2.471355     2.463712     2.456069     2.448426     2.440783     2.433139     2.425496     2.417853     2.410210     2.402566
      2.394923     2.387280     2.379637     2.371994     2.364350     2.356707     2.349064     2.341421     2.333777     2.326134
      2.318491     2.310848     2.303205     2.295561     2.287918     2.280275     2.272632     2.264988     2.257345     2.249702
      2.242059     2.234416     2.226772     2.219129     2.211486     2.203843     2.196199     2.188556     2.180913     2.173270
      2.165627     2.157983     2.150340     2.142697     2.135054     2.127410     2.119767     2.112124     2.104481     2.096838
      2.089194     2.081551     2.073908     2.066265     2.058621     2.050978     2.043335     2.035692     2.028049     2.020405
      2.012762     2.005119     1.997476     1.989833     1.982190     1.974546     1.966903     1.959260     1.951617     1.943974
      1.936331     1.928688     1.921045     1.913402     1.905759     1.898115     1.890472     1.882829     1.875186     1.867543
      1.859900     1.852257     1.844614     1.836971     1.829327     1.821684     1.814041     1.806398     1.798755     1.791112
      1.783469     1.775826     1.768183     1.760540     1.752896     1.745253     1.737610     1.729967     1.722324     1.714681
      1.707038     1.699395     1.691752     1.684108     1.676465     1.668822     1.661179     1.653536     1.645893     1.638250
      1.630607     1.622964     1.615321     1.607677     1.600034     1.592391     1.584748     1.577105     1.569462     1.561819
      1.554176     1.546533     1.538890     1.531246     1.523603     1.515960     1.508317     1.500674     1.493031     1.485388
      1.477745     1.470102     1.462458     1.454815     1.447172     1.439529     1.431886     1.424243     1.416600     1.408957
      1.401314     1.393671     1.386027     1.378384     1.370741     1.363098     1.355455     1.347812     1.340169     1.332526
      1.324883     1.317240     1.309596     1.301953     1.294310     1.286667     1.279024     1.271381     1.263738     1.256095
      1.248452     1.240808     1.233165     1.225522     1.217879     1.210236     1.202593     1.194950     1.187307     1.179664
      1.172021     1.164377     1.156734     1.149091     1.141448     1.133805     1.126162     1.118519     1.110876     1.103233
      1.095590     1.087946     1.080303     1.072660     1.065017     1.057374     1.049731     1.042088     1.034445     1.026802
      1.019158     1.011515     1.003872     0.996229     0.988586     0.980943     0.973300     0.965657     0.958014     0.950371
      0.942727     0.935084     0.927441     0.919798     0.912155     0.904512     0.896869     0.889226     0.881583     0.873940
      0.866296     0.858653     0.851010     0.843367     0.835724     0.828081     0.820438     0.812795     0.805152     0.797508
      0.789865     0.782222     0.774579     0.766936     0.759293     0.751650     0.744007     0.736364     0.728721     0.721077
      0.713434     0.705791     0.698148     0.690505     0.682862     0.675219     0.667576     0.659933     0.652290     0.644646
      0.637003     0.629360     0.621717     0.614074     0.606431     0.598788     0.591145     0.583502     0.575858     0.568215
      0.560572     0.552929     0.545286     0.537643     0.530000     0.522357     0.514714     0.507071     0.499427     0.491784
      0.484141     0.476498     0.468855     0.461212     0.453569     0.445925     0.438282     0.430639     0.422996     0.415353
      0.407710     0.400067     0.392424     0.384780     0.377137     0.369494     0.361851     0.354208     0.346565     0.338922
      0.331278     0.323635     0.315992     0.308349     0.300706     0.293063     0.285420     0.277777     0.270133     0.262490
      0.254847     0.247204     0.239561     0.231918     0.224275     0.216631     0.208988     0.201345
 NY phased data points follow
   3.60408E+00  4.12516E+00  2.52055E+00  9.00181E-01  2.97592E+00  4.67294E+00  5.56409E+00  7.85914E+00  7.59407E+00  6.45684E+00
   5.67811E+00  6.15900E-01  1.91617E+00  4.58656E+00  3.42145E+00  1.64734E+00  2.69073E+00  6.09952E+00  2.89840E+00  5.07056E+00
   4.90823E+00  3.80429E+00  1.25142E+00  2.52983E+00  6.41081E-02  2.03356E+00  3.03381E+00  1.98317E+00  2.55650E+00  2.04222E+00
   5.16955E+00  3.08269E+00  2.59385E+00  4.90230E+00  3.14187E+00  3.21096E+00  5.93571E+00  4.49057E+00  3.76566E+00  5.84101E-01
   4.46387E+00  2.82275E+00  2.99571E+00  2.43814E+00  4.69388E+00  2.43260E+00  2.32416E+00  9.70407E-01  7.05595E+00  2.32555E+00
   5.86042E+00  2.94977E+00 -4.80771E-01  2.71818E+00  1.61622E+00  2.46104E+00  8.85625E-01  1.54685E+00  4.15807E-01  4.20478E+00
   3.22565E+00  9.68407E-01 -2.24852E+00  3.02482E+00  1.48091E+00 -6.07834E-03  2.42236E+00 -2.78104E-01  2.07840E+00  6.37099E+00
  -1.99441E+00  1.21528E+00  1.91823E+00  1.33122E+00  2.72084E+00  2.85182E-01  3.24644E+00  6.16883E-01  7.49282E-02  3.46815E+00
   3.14544E+00  2.55579E+00  1.63303E+00 -4.23496E+00  1.55882E+00  5.08209E+00  1.65344E+00  6.45043E+00  6.40295E-01  3.41807E+00
   3.35186E+00  3.60849E+00  1.54379E+00  6.63555E+00  4.00451E+00  6.76121E+00  4.70964E+00  4.93270E+00  5.89559E+00  6.18605E+00
   6.05830E+00  9.79726E+00  9.28282E+00  8.29016E+00  8.30603E+00  5.55386E+00  6.86783E+00  2.85795E+00  7.51641E-01  1.73465E+00
   1.15815E-01  4.25545E-01  2.37379E+00  4.21253E+00  1.14664E+00  4.16988E+00  3.27836E+00  5.03666E+00  3.81968E+00  1.43659E+00
   5.04236E+00  7.97376E+00  2.49607E+00  1.00084E+01  7.45585E+00  8.04717E+00  4.42630E+00  5.79614E+00  8.84480E+00  8.57307E+00
   6.62405E+00  4.77149E+00  1.24647E+00  1.18990E+00  2.82486E+00 -6.77333E-01  1.60913E-01 -3.53549E-01 -1.80987E+00  1.74778E+00
  -5.81345E-01  1.92421E-01  1.10031E-01  3.07119E-01 -7.03893E-01  4.71497E+00  2.71779E+00 -1.61082E+00 -1.05103E-01 -2.74947E+00
   2.08154E+00  5.73641E-01  3.63482E-01 -2.80725E+00 -1.75555E+00 -1.50092E+00 -1.00661E-01  1.09932E+00 -4.50909E-01  2.16168E+00
  -1.19584E+00 -5.08843E-01  1.56299E+00 -8.45089E-01 -8.37924E-02 -1.80374E+00 -3.34902E+00 -1.00432E+00 -3.19263E+00 -3.67944E+00
   6.39653E-02 -2.70613E+00 -3.33048E-01 -2.09162E+00 -1.81748E+00 -2.56903E+00 -2.55805E+00 -2.95004E-01  5.28557E-01 -1.32434E+00
  -6.85012E-01 -2.47659E-01 -4.59868E+00 -2.44827E+00 -3.16126E+00  1.06932E+00 -5.26773E-01 -2.30277E+00 -5.71892E+00  1.47906E+00
  -1.55517E+00 -1.38692E+00  1.08068E+00  1.15178E+00  6.60492E-01 -2.06189E+00 -8.29279E-01 -9.32678E-01  2.66491E-01 -2.89922E+00
  -2.32042E+00 -9.91426E-01  1.27718E+00  1.41685E+00  2.24412E+00 -1.03323E+00  1.15161E+00 -1.34321E+00 -1.83993E+00 -2.37759E+00
   6.57687E-01 -1.79470E+00  1.49645E+00 -2.86953E-01 -8.60290E-01  2.83418E-01  1.58332E+00  3.19251E+00  4.68542E-01  3.47452E+00
   3.21325E-01  1.31771E+00 -6.01429E-01  3.01053E-01  1.46959E+00  4.02855E-01 -3.65236E-01 -1.46999E-01  4.77720E+00 -1.29841E-01
   1.84212E+00 -1.20121E+00 -1.53592E+00 -1.45529E+00  6.66913E-01  2.16851E+00  1.62674E+00  1.35966E+00  3.29447E+00  3.06802E+00
   5.95114E+00  3.23374E+00  2.57633E+00  3.94708E+00  4.61420E+00  5.10708E+00  2.06672E+00  3.08123E+00  6.78103E+00  8.69267E+00
   5.77552E+00  1.12803E+01  1.43357E+01  9.25587E+00  1.23788E+01  1.02480E+01  1.48757E+01  1.77361E+01  1.35715E+01  1.48864E+01
   1.58728E+01  1.29018E+01  1.47685E+01  1.48558E+01  1.08572E+01  7.05556E+00  4.27795E+00  6.70716E+00  1.65836E+00  9.08943E+00
   7.74985E+00  3.91675E+00  4.18646E+00  1.92548E+00  2.91256E+00  8.57447E-01 -2.70198E+00 -5.20083E-03  2.24453E+00  1.27466E+00
  -8.85559E-02  6.11836E-01  9.03650E-01 -2.16783E+00  1.04428E+00  2.80797E+00 -2.67288E-01 -1.11103E+00  1.53702E+00  3.02545E+00
   1.06345E+00  2.56829E+00 -9.35497E-01  1.81270E+00  1.11721E+00 -7.04910E-01 -3.64643E-01  1.85126E+00  2.53002E+00  4.56406E+00
   3.12359E+00  1.36631E+00  1.34842E+00  4.08869E+00  3.82068E+00  4.39646E+00  4.46941E+00  3.75449E+00  5.21453E+00  6.26175E+00
   4.65240E+00  2.30265E+00  5.32786E+00  6.40169E+00  3.61567E+00  7.13665E+00  3.64431E+00  5.55453E+00  2.82414E+00  2.42988E+00
   2.52963E+00  6.59256E+00  2.68045E+00  4.36034E+00  3.24463E+00  5.82813E+00  1.36877E+00  4.20223E+00  2.02026E+00  4.44196E+00
   3.80732E+00  1.97436E+00  4.51675E+00  3.19056E+00  4.99867E+00  2.72588E+00  3.42671E+00  2.91327E+00  4.40773E-01  3.84647E+00
   3.71989E-01 -3.44493E+00  8.24778E-01 -2.82760E+00  1.02532E+00  1.28886E+00  2.95760E+00 -9.23668E-01  2.81504E+00  1.54075E+00
  -3.05047E-01  4.75806E+00  1.54524E+00  6.42449E-01  4.37979E+00 -1.47043E+00  5.66187E+00  1.60326E+00  1.07356E+00  8.02370E+00
   8.00976E+00  8.68645E+00  6.30502E+00  6.66361E+00  8.13186E+00  7.24628E+00  4.49428E+00  3.52845E+00  2.90197E+00  3.61613E+00
   2.22054E+00  3.37991E+00  2.78539E+00  5.71918E-01  1.51634E+00  3.24118E+00  4.44074E+00  3.19502E+00  6.25246E+00  7.13624E+00
   4.26116E+00  8.29585E+00  3.43905E+00  3.85961E+00  5.66984E+00  8.11088E+00 -6.24910E-02  4.42472E+00  3.17493E+00  5.22965E+00
   4.81309E+00  4.32101E+00  3.62509E+00  2.01631E+00  2.25798E+00  6.03779E+00  2.90599E+00  4.76092E+00  3.91784E+00  5.23792E+00
   1.41205E+00  1.45850E+00  5.39366E+00  3.15617E+00  2.65937E+00  2.44586E+00  2.55669E+00  2.63102E+00  2.67614E+00  1.42269E+00
   3.37351E+00 -2.62081E-01  1.96253E-02  1.09037E+00  3.26085E+00  1.78337E+00 -1.56933E+00  2.78984E+00 -2.10200E-01 -1.05762E+00
  -1.75162E+00 -1.19892E+00  1.37580E+00 -6.68894E-01 -1.32098E+00  3.00138E+00  7.94313E-02 -2.12135E+00  4.36867E-02 -2.10608E+00
  -2.08821E+00 -2.43396E+00 -3.80568E-03 -4.10028E-01 -8.81833E-01 -1.97041E+00 -1.00902E+00 -3.42589E+00 -2.62237E+00 -2.13960E+00
   2.48371E+00 -1.89161E+00 -1.15870E+00 -1.08573E+00  9.10336E-01 -1.09202E+00 -1.16440E-01 -2.23590E+00 -1.56979E+00 -8.01879E-01
   1.14501E-01 -1.37681E+00  1.61021E+00 -2.24552E+00  1.85126E+00  3.03526E-02 -1.13021E+00  8.13442E-01  4.65724E-01  1.21121E+00
   8.91725E-01  2.32141E+00  1.73264E+00 -2.15903E+00  3.50365E+00 -3.36735E+00  2.77115E-01 -5.12117E+00  7.48533E-01  1.37098E+00
  -1.26049E+00  2.08876E+00  1.92414E+00 -5.47887E-01 -8.81777E-01 -1.57889E+00  1.80588E+00  5.49143E+00  2.30210E-01  1.33651E+00
  -8.52675E-01  8.70607E-01 -2.26756E+00 -2.14361E-01 -2.46162E+00  1.02865E+00  5.30566E-01 -6.40099E-01  1.08144E+00 -7.33063E-01
  -3.14644E-01 -2.27992E+00 -9.93213E-01  3.77938E-01  1.83868E-01  2.81154E+00 -3.59199E-01  9.38727E-01
 NY points of the fit to the data follow
   3.57879E+00  4.07134E+00  3.92747E+00  4.49361E+00  4.26782E+00  4.86775E+00  4.54125E+00  5.10736E+00  4.68013E+00  5.12368E+00
   4.61509E+00  4.90873E+00  4.32034E+00  4.37841E+00  3.77370E+00  3.67549E+00  3.22812E+00  3.08897E+00  2.92735E+00  2.83844E+00
   2.86401E+00  2.76698E+00  2.86675E+00  2.72099E+00  2.84857E+00  2.70792E+00  2.89623E+00  2.80010E+00  3.00626E+00  2.95813E+00
   3.08480E+00  3.02908E+00  3.07211E+00  3.09516E+00  3.08933E+00  3.13742E+00  3.08543E+00  3.11762E+00  3.08847E+00  3.11539E+00
   3.15012E+00  3.17807E+00  3.24102E+00  3.23257E+00  3.24514E+00  3.17639E+00  3.13490E+00  3.02766E+00  2.97314E+00  2.80440E+00
   2.72761E+00  2.51466E+00  2.39867E+00  2.19247E+00  2.07928E+00  1.94759E+00  1.85148E+00  1.79625E+00  1.73131E+00  1.69318E+00
   1.63296E+00  1.61215E+00  1.56374E+00  1.56094E+00  1.54462E+00  1.58166E+00  1.58740E+00  1.62543E+00  1.63734E+00  1.66055E+00
   1.67961E+00  1.67971E+00  1.74397E+00  1.69401E+00  1.74466E+00  1.64130E+00  1.66533E+00  1.55089E+00  1.56861E+00  1.45449E+00
   1.47044E+00  1.35258E+00  1.37595E+00  1.25195E+00  1.27485E+00  1.16670E+00  1.18737E+00  1.15663E+00  1.40517E+00  1.90712E+00
   2.17108E+00  3.10280E+00  3.19330E+00  4.41808E+00  4.25748E+00  5.67373E+00  5.22849E+00  6.78752E+00  6.02929E+00  7.63881E+00
   6.53230E+00  7.99174E+00  6.57809E+00  7.70223E+00  6.10187E+00  6.76422E+00  5.13051E+00  5.35685E+00  3.93246E+00  3.92164E+00
   2.86010E+00  2.84612E+00  2.32835E+00  2.75642E+00  2.49406E+00  3.23436E+00  3.00988E+00  3.96892E+00  3.70909E+00  4.90619E+00
   4.59657E+00  6.06516E+00  5.49849E+00  6.97664E+00  6.07287E+00  7.37826E+00  6.16813E+00  7.14773E+00  5.73664E+00  6.28306E+00
   4.83749E+00  4.96233E+00  3.69201E+00  3.56223E+00  2.59256E+00  2.38403E+00  1.69806E+00  1.46279E+00  9.86778E-01  7.11380E-01
   4.11529E-01  1.17423E-01 -1.30436E-02 -2.54231E-01 -2.32273E-01 -3.33038E-01 -3.25207E-01 -4.36141E-01 -4.47143E-01 -5.55016E-01
  -5.57137E-01 -6.42191E-01 -6.50719E-01 -7.29174E-01 -7.56307E-01 -8.28907E-01 -8.71837E-01 -9.30937E-01 -9.79384E-01 -1.01934E+00
  -1.07624E+00 -1.10660E+00 -1.19611E+00 -1.21026E+00 -1.30501E+00 -1.30746E+00 -1.40371E+00 -1.42920E+00 -1.51025E+00 -1.56078E+00
  -1.60523E+00 -1.67629E+00 -1.68394E+00 -1.77656E+00 -1.71780E+00 -1.80743E+00 -1.67210E+00 -1.74523E+00 -1.54174E+00 -1.60582E+00
  -1.37395E+00 -1.42878E+00 -1.20373E+00 -1.26730E+00 -1.08419E+00 -1.13852E+00 -9.83100E-01 -9.84881E-01 -8.00038E-01 -7.22935E-01
  -5.12660E-01 -3.69550E-01 -1.56442E-01 -2.89547E-02  1.45142E-01  1.77644E-01  1.93688E-01  1.41246E-01  1.41403E-01  3.07817E-02
   1.02811E-01 -3.34073E-02  1.56460E-01 -8.91705E-02  1.54818E-01 -2.35450E-01  5.75968E-02 -4.38052E-01 -7.45136E-02 -5.78373E-01
  -4.66473E-02 -4.59070E-01  2.19434E-01 -9.19377E-02  6.17737E-01  3.55314E-01  9.37437E-01  6.88366E-01  1.08004E+00  8.99302E-01
   1.17667E+00  1.10998E+00  1.26934E+00  1.32785E+00  1.45179E+00  1.58084E+00  1.66684E+00  1.83686E+00  1.86128E+00  1.94068E+00
   2.00129E+00  1.97126E+00  2.10453E+00  1.98632E+00  2.25668E+00  2.04021E+00  2.41696E+00  2.12146E+00  2.59315E+00  2.23092E+00
   2.76624E+00  2.39099E+00  2.96537E+00  2.64442E+00  3.24038E+00  3.20721E+00  4.50873E+00  4.94337E+00  6.53982E+00  7.26944E+00
   8.79715E+00  9.63643E+00  1.09061E+01  1.17405E+01  1.26852E+01  1.34570E+01  1.40161E+01  1.46317E+01  1.45813E+01  1.49286E+01
   1.41697E+01  1.41480E+01  1.27238E+01  1.23693E+01  1.05087E+01  9.94367E+00  8.08272E+00  7.49121E+00  5.95049E+00  5.44940E+00
   4.25547E+00  3.83911E+00  2.87598E+00  2.51362E+00  1.76182E+00  1.46928E+00  1.00232E+00  8.38692E-01  7.51401E-01  6.91630E-01
   6.36900E-01  5.95477E-01  5.64122E-01  5.40553E-01  5.31031E-01  5.30836E-01  5.43533E-01  5.67557E-01  6.03373E-01  6.56152E-01
   7.20794E-01  8.09254E-01  9.11121E-01  1.03988E+00  1.18277E+00  1.35374E+00  1.53715E+00  1.74660E+00  1.96551E+00  2.20431E+00
   2.44740E+00  2.70093E+00  2.95001E+00  3.19804E+00  3.43077E+00  3.64955E+00  3.84203E+00  4.00958E+00  4.14257E+00  4.24332E+00
   4.30586E+00  4.33495E+00  4.32760E+00  4.29159E+00  4.22632E+00  4.14157E+00  4.03810E+00  3.92639E+00  3.80716E+00  3.69024E+00
   3.57504E+00  3.46975E+00  3.37169E+00  3.28697E+00  3.21081E+00  3.14734E+00  3.09012E+00  3.04200E+00  2.99563E+00  2.95341E+00
   2.90793E+00  2.86188E+00  2.80847E+00  2.75124E+00  2.68437E+00  2.61252E+00  2.53092E+00  2.44525E+00  2.35169E+00  2.25678E+00
   2.15739E+00  2.06077E+00  1.96453E+00  1.87683E+00  1.79661E+00  1.73403E+00  1.69082E+00  1.68091E+00  1.71047E+00  1.79791E+00
   1.95268E+00  2.19348E+00  2.52501E+00  2.95447E+00  3.46759E+00  4.04622E+00  4.64768E+00  5.22770E+00  5.72601E+00  6.09498E+00
   6.28841E+00  6.28948E+00  6.09476E+00  5.73415E+00  5.24590E+00  4.68882E+00  4.11285E+00  3.57119E+00  3.09446E+00  2.70875E+00
   2.41620E+00  2.21829E+00  2.09952E+00  2.05151E+00  2.05566E+00  2.10533E+00  2.18623E+00  2.29680E+00  2.42733E+00  2.57970E+00
   2.74629E+00  2.92985E+00  3.12270E+00  3.32691E+00  3.53374E+00  3.74408E+00  3.94807E+00  4.14568E+00  4.32645E+00  4.49013E+00
   4.62652E+00  4.73612E+00  4.80990E+00  4.84999E+00  4.84934E+00  4.81230E+00  4.73421E+00  4.62180E+00  4.47264E+00  4.29553E+00
   4.08971E+00  3.86525E+00  3.62225E+00  3.37110E+00  3.11180E+00  2.85428E+00  2.59769E+00  2.35086E+00  2.11169E+00  1.88767E+00
   1.67532E+00  1.48086E+00  1.29963E+00  1.13681E+00  9.86865E-01  8.54304E-01  7.33082E-01  6.27343E-01  5.30832E-01  4.47597E-01
   3.71378E-01  3.06287E-01  2.46181E-01  1.95325E-01  1.47744E-01  1.07875E-01  6.99124E-02  3.84545E-02  7.84645E-03 -1.71718E-02
  -4.21353E-02 -6.21951E-02 -8.27972E-02 -9.90086E-02 -1.16207E-01 -1.29394E-01 -1.43902E-01 -1.54684E-01 -1.67042E-01 -1.75893E-01
  -1.86514E-01 -1.93792E-01 -2.02989E-01 -2.08975E-01 -2.17000E-01 -2.21916E-01 -2.28964E-01 -2.32982E-01 -2.39208E-01 -2.42472E-01
  -2.48005E-01 -2.50629E-01 -2.55569E-01 -2.57643E-01 -2.62073E-01 -2.63676E-01 -2.67669E-01 -2.68864E-01 -2.72474E-01 -2.73312E-01
  -2.76590E-01 -2.77118E-01 -2.80107E-01 -2.80360E-01 -2.83090E-01 -2.83099E-01 -2.85603E-01 -2.85399E-01 -2.87702E-01 -2.87305E-01
  -2.89426E-01 -2.88858E-01 -2.90819E-01 -2.90098E-01 -2.91913E-01 -2.91050E-01 -2.92730E-01 -2.91740E-01 -2.93301E-01 -2.92194E-01
  -2.93642E-01 -2.92423E-01 -2.93765E-01 -2.92445E-01 -2.93688E-01 -2.92269E-01 -2.93413E-01 -2.91895E-01 -2.92943E-01 -2.91329E-01
  -2.92280E-01 -2.90562E-01 -2.91404E-01 -2.89572E-01 -2.90297E-01 -2.88338E-01 -2.88920E-01 -2.86796E-01
 NY background values follow
    -8.056E-01   -8.047E-01   -8.038E-01   -8.029E-01   -8.020E-01   -8.012E-01   -8.003E-01   -7.994E-01   -7.985E-01   -7.976E-01
    -7.967E-01   -7.958E-01   -7.950E-01   -7.941E-01   -7.932E-01   -7.923E-01   -7.914E-01   -7.905E-01   -7.896E-01   -7.888E-01
    -7.879E-01   -7.870E-01   -7.861E-01   -7.852E-01   -7.843E-01   -7.834E-01   -7.825E-01   -7.817E-01   -7.808E-01   -7.799E-01
    -7.790E-01   -7.781E-01   -7.772E-01   -7.763E-01   -7.754E-01   -7.746E-01   -7.737E-01   -7.728E-01   -7.719E-01   -7.710E-01
    -7.701E-01   -7.692E-01   -7.683E-01   -7.674E-01   -7.665E-01   -7.657E-01   -7.648E-01   -7.639E-01   -7.630E-01   -7.621E-01
    -7.612E-01   -7.603E-01   -7.594E-01   -7.585E-01   -7.576E-01   -7.567E-01   -7.559E-01   -7.550E-01   -7.541E-01   -7.532E-01
    -7.523E-01   -7.514E-01   -7.505E-01   -7.496E-01   -7.487E-01   -7.478E-01   -7.469E-01   -7.460E-01   -7.451E-01   -7.443E-01
    -7.434E-01   -7.425E-01   -7.416E-01   -7.407E-01   -7.398E-01   -7.389E-01   -7.380E-01   -7.371E-01   -7.362E-01   -7.353E-01
    -7.344E-01   -7.335E-01   -7.326E-01   -7.317E-01   -7.308E-01   -7.299E-01   -7.290E-01   -7.281E-01   -7.273E-01   -7.264E-01
    -7.255E-01   -7.246E-01   -7.237E-01   -7.228E-01   -7.219E-01   -7.210E-01   -7.201E-01   -7.192E-01   -7.183E-01   -7.174E-01
    -7.165E-01   -7.156E-01   -7.147E-01   -7.138E-01   -7.129E-01   -7.120E-01   -7.111E-01   -7.102E-01   -7.093E-01   -7.084E-01
    -7.075E-01   -7.066E-01   -7.057E-01   -7.048E-01   -7.039E-01   -7.030E-01   -7.021E-01   -7.012E-01   -7.003E-01   -6.994E-01
    -6.985E-01   -6.976E-01   -6.967E-01   -6.958E-01   -6.949E-01   -6.940E-01   -6.931E-01   -6.922E-01   -6.913E-01   -6.904E-01
    -6.895E-01   -6.886E-01   -6.877E-01   -6.868E-01   -6.859E-01   -6.850E-01   -6.841E-01   -6.832E-01   -6.823E-01   -6.814E-01
    -6.805E-01   -6.796E-01   -6.787E-01   -6.778E-01   -6.769E-01   -6.760E-01   -6.751E-01   -6.742E-01   -6.733E-01   -6.724E-01
    -6.715E-01   -6.706E-01   -6.697E-01   -6.687E-01   -6.678E-01   -6.669E-01   -6.660E-01   -6.651E-01   -6.642E-01   -6.633E-01
    -6.624E-01   -6.615E-01   -6.606E-01   -6.597E-01   -6.588E-01   -6.579E-01   -6.570E-01   -6.561E-01   -6.552E-01   -6.543E-01
    -6.534E-01   -6.525E-01   -6.515E-01   -6.506E-01   -6.497E-01   -6.488E-01   -6.479E-01   -6.470E-01   -6.461E-01   -6.452E-01
    -6.443E-01   -6.434E-01   -6.425E-01   -6.416E-01   -6.407E-01   -6.398E-01   -6.388E-01   -6.379E-01   -6.370E-01   -6.361E-01
    -6.352E-01   -6.343E-01   -6.334E-01   -6.325E-01   -6.316E-01   -6.307E-01   -6.298E-01   -6.289E-01   -6.279E-01   -6.270E-01
    -6.261E-01   -6.252E-01   -6.243E-01   -6.234E-01   -6.225E-01   -6.216E-01   -6.207E-01   -6.198E-01   -6.188E-01   -6.179E-01
    -6.170E-01   -6.161E-01   -6.152E-01   -6.143E-01   -6.134E-01   -6.125E-01   -6.116E-01   -6.107E-01   -6.097E-01   -6.088E-01
    -6.079E-01   -6.070E-01   -6.061E-01   -6.052E-01   -6.043E-01   -6.034E-01   -6.024E-01   -6.015E-01   -6.006E-01   -5.997E-01
    -5.988E-01   -5.979E-01   -5.970E-01   -5.961E-01   -5.951E-01   -5.942E-01   -5.933E-01   -5.924E-01   -5.915E-01   -5.906E-01
    -5.897E-01   -5.888E-01   -5.878E-01   -5.869E-01   -5.860E-01   -5.851E-01   -5.842E-01   -5.833E-01   -5.824E-01   -5.814E-01
    -5.805E-01   -5.796E-01   -5.787E-01   -5.778E-01   -5.769E-01   -5.759E-01   -5.750E-01   -5.741E-01   -5.732E-01   -5.723E-01
    -5.714E-01   -5.705E-01   -5.695E-01   -5.686E-01   -5.677E-01   -5.668E-01   -5.659E-01   -5.650E-01   -5.640E-01   -5.631E-01
    -5.622E-01   -5.613E-01   -5.604E-01   -5.595E-01   -5.585E-01   -5.576E-01   -5.567E-01   -5.558E-01   -5.549E-01   -5.540E-01
    -5.530E-01   -5.521E-01   -5.512E-01   -5.503E-01   -5.494E-01   -5.485E-01   -5.475E-01   -5.466E-01   -5.457E-01   -5.448E-01
    -5.439E-01   -5.429E-01   -5.420E-01   -5.411E-01   -5.402E-01   -5.393E-01   -5.383E-01   -5.374E-01   -5.365E-01   -5.356E-01
    -5.347E-01   -5.338E-01   -5.328E-01   -5.319E-01   -5.310E-01   -5.301E-01   -5.292E-01   -5.282E-01   -5.273E-01   -5.264E-01
    -5.255E-01   -5.246E-01   -5.236E-01   -5.227E-01   -5.218E-01   -5.209E-01   -5.200E-01   -5.190E-01   -5.181E-01   -5.172E-01
    -5.163E-01   -5.153E-01   -5.144E-01   -5.135E-01   -5.126E-01   -5.117E-01   -5.107E-01   -5.098E-01   -5.089E-01   -5.080E-01
    -5.071E-01   -5.061E-01   -5.052E-01   -5.043E-01   -5.034E-01   -5.024E-01   -5.015E-01   -5.006E-01   -4.997E-01   -4.988E-01
    -4.978E-01   -4.969E-01   -4.960E-01   -4.951E-01   -4.941E-01   -4.932E-01   -4.923E-01   -4.914E-01   -4.905E-01   -4.895E-01
    -4.886E-01   -4.877E-01   -4.868E-01   -4.858E-01   -4.849E-01   -4.840E-01   -4.831E-01   -4.821E-01   -4.812E-01   -4.803E-01
    -4.794E-01   -4.784E-01   -4.775E-01   -4.766E-01   -4.757E-01   -4.747E-01   -4.738E-01   -4.729E-01   -4.720E-01   -4.711E-01
    -4.701E-01   -4.692E-01   -4.683E-01   -4.674E-01   -4.664E-01   -4.655E-01   -4.646E-01   -4.637E-01   -4.627E-01   -4.618E-01
    -4.609E-01   -4.600E-01   -4.590E-01   -4.581E-01   -4.572E-01   -4.562E-01   -4.553E-01   -4.544E-01   -4.535E-01   -4.525E-01
    -4.516E-01   -4.507E-01   -4.498E-01   -4.488E-01   -4.479E-01   -4.470E-01   -4.461E-01   -4.451E-01   -4.442E-01   -4.433E-01
    -4.424E-01   -4.414E-01   -4.405E-01   -4.396E-01   -4.386E-01   -4.377E-01   -4.368E-01   -4.359E-01   -4.349E-01   -4.340E-01
    -4.331E-01   -4.322E-01   -4.312E-01   -4.303E-01   -4.294E-01   -4.284E-01   -4.275E-01   -4.266E-01   -4.257E-01   -4.247E-01
    -4.238E-01   -4.229E-01   -4.220E-01   -4.210E-01   -4.201E-01   -4.192E-01   -4.182E-01   -4.173E-01   -4.164E-01   -4.155E-01
    -4.145E-01   -4.136E-01   -4.127E-01   -4.117E-01   -4.108E-01   -4.099E-01   -4.090E-01   -4.080E-01   -4.071E-01   -4.062E-01
    -4.052E-01   -4.043E-01   -4.034E-01   -4.024E-01   -4.015E-01   -4.006E-01   -3.997E-01   -3.987E-01   -3.978E-01   -3.969E-01
    -3.959E-01   -3.950E-01   -3.941E-01   -3.932E-01   -3.922E-01   -3.913E-01   -3.904E-01   -3.894E-01   -3.885E-01   -3.876E-01
    -3.866E-01   -3.857E-01   -3.848E-01   -3.839E-01   -3.829E-01   -3.820E-01   -3.811E-01   -3.801E-01   -3.792E-01   -3.783E-01
    -3.773E-01   -3.764E-01   -3.755E-01   -3.745E-01   -3.736E-01   -3.727E-01   -3.718E-01   -3.708E-01   -3.699E-01   -3.690E-01
    -3.680E-01   -3.671E-01   -3.662E-01   -3.652E-01   -3.643E-01   -3.634E-01   -3.624E-01   -3.615E-01   -3.606E-01   -3.597E-01
    -3.587E-01   -3.578E-01   -3.569E-01   -3.559E-01   -3.550E-01   -3.541E-01   -3.531E-01   -3.522E-01
 Asp      Conc. = 4.76E+01
