 LCModel (Version 6.3-1L) Copyright: S.W. Provencher.          Ref.: Magn. Reson. Med. 30:672-679 (1993).                
 Slice#1 Row#5 Col#13  PD_05_press_1_raw_act
 36 lines in following concentration table = NCONC+1
    Conc.  %SD /Cr+PCr  Metabolite                                         
 3.30E+03  28%   0.000 Ala                                                 
    3.540 284%   0.000 Asp                                                 
    0.000 999%   0.000 Cr                                                  
    0.000 999%   0.000 PCr                                                 
    1.424 424%   0.000 GABA                                                
    1.640 368%   0.000 Glc                                                 
  567.400  84%   0.000 Gln                                                 
 2.11E+03  27%   0.000 Glu                                                 
    0.000 999%   0.000 GPC                                                 
    0.000 999%   0.000 PCh                                                 
    0.000 999%   0.000 GSH                                                 
  239.215  79%   0.000 Ins                                                 
    0.000 999%   0.000 Lac                                                 
   53.315 141%   0.000 NAA                                                 
    0.000 999%   0.000 NAAG                                                
    0.646 311%   0.000 Scyllo                                              
    2.937 342%   0.000 Tau                                                 
    0.000 999%   0.000 -CrCH2                                              
    0.000 999%   0.000 GPC+PCh                                             
   53.315 141%   0.000 NAA+NAAG                                            
    0.000 999%   0.000 Cr+PCr                                              
 2.68E+03  33%   0.000 Glu+Gln                                             
 7.40E+03  38%   0.000 Lip13a                                              
  462.269  36%   0.000 Lip13b                                              
 5.94E+03  16%   0.000 Lip09                                               
 5.61E+03  17%   0.000 MM09                                                
 1.48E+03  34%   0.000 Lip20                                               
  663.070  53%   0.000 MM20                                                
 4.06E+03  28%   0.000 MM12                                                
 5.03E+03  27%   0.000 MM14                                                
 3.84E+03  21%   0.000 MM17                                                
 7.87E+03  35%   0.000 Lip13a+Lip13b                                       
 1.70E+04  11%   0.000 MM14+Lip13a+Lip13b+MM12                             
 1.16E+04   8%   0.000 MM09+Lip09                                          
 2.14E+03  20%   0.000 MM20+Lip20                                          
   6 lines in following misc. output table
  FWHM = 0.153 ppm    S/N =  16                                            
  Data shift = 0.008 ppm                                                   
  Ph: 177 deg     -34.7 deg/ppm                                            
  alphaB,S = 9.2E+00,   3.7E+02                                            
    6 spline knots.   Ns = 9(2)                                            
  (11) 2 infls.   ( 7) 1 extrs.                                            
  498 points on ppm-axis = NY
      4.000000     3.992357     3.984714     3.977070     3.969427     3.961784     3.954141     3.946497     3.938854     3.931211
      3.923568     3.915925     3.908281     3.900638     3.892995     3.885352     3.877708     3.870065     3.862422     3.854779
      3.847136     3.839492     3.831849     3.824206     3.816563     3.808919     3.801276     3.793633     3.785990     3.778347
      3.770703     3.763060     3.755417     3.747774     3.740130     3.732487     3.724844     3.717201     3.709558     3.701914
      3.694271     3.686628     3.678985     3.671341     3.663698     3.656055     3.648412     3.640769     3.633125     3.625482
      3.617839     3.610196     3.602552     3.594909     3.587266     3.579623     3.571980     3.564336     3.556693     3.549050
      3.541407     3.533763     3.526120     3.518477     3.510834     3.503191     3.495547     3.487904     3.480261     3.472618
      3.464974     3.457331     3.449688     3.442045     3.434402     3.426758     3.419115     3.411472     3.403829     3.396185
      3.388542     3.380899     3.373256     3.365613     3.357969     3.350326     3.342683     3.335040     3.327396     3.319753
      3.312110     3.304467     3.296824     3.289180     3.281537     3.273894     3.266251     3.258607     3.250964     3.243321
      3.235678     3.228034     3.220391     3.212748     3.205105     3.197462     3.189818     3.182175     3.174532     3.166889
      3.159245     3.151602     3.143959     3.136316     3.128673     3.121029     3.113386     3.105743     3.098100     3.090456
      3.082813     3.075170     3.067527     3.059884     3.052240     3.044597     3.036954     3.029311     3.021667     3.014024
      3.006381     2.998738     2.991095     2.983451     2.975808     2.968165     2.960522     2.952878     2.945235     2.937592
      2.929949     2.922306     2.914662     2.907019     2.899376     2.891733     2.884089     2.876446     2.868803     2.861160
      2.853517     2.845873     2.838230     2.830587     2.822944     2.815300     2.807657     2.800014     2.792371     2.784728
      2.777084     2.769441     2.761798     2.754155     2.746511     2.738868     2.731225     2.723582     2.715939     2.708295
      2.700652     2.693009     2.685366     2.677722     2.670079     2.662436     2.654793     2.647150     2.639506     2.631863
      2.624220     2.616577     2.608933     2.601290     2.593647     2.586004     2.578361     2.570717     2.563074     2.555431
      2.547788     2.540144     2.532501     2.524858     2.517215     2.509572     2.501928     2.494285     2.486642     2.478999
      2.471355     2.463712     2.456069     2.448426     2.440783     2.433139     2.425496     2.417853     2.410210     2.402566
      2.394923     2.387280     2.379637     2.371994     2.364350     2.356707     2.349064     2.341421     2.333777     2.326134
      2.318491     2.310848     2.303205     2.295561     2.287918     2.280275     2.272632     2.264988     2.257345     2.249702
      2.242059     2.234416     2.226772     2.219129     2.211486     2.203843     2.196199     2.188556     2.180913     2.173270
      2.165627     2.157983     2.150340     2.142697     2.135054     2.127410     2.119767     2.112124     2.104481     2.096838
      2.089194     2.081551     2.073908     2.066265     2.058621     2.050978     2.043335     2.035692     2.028049     2.020405
      2.012762     2.005119     1.997476     1.989833     1.982190     1.974546     1.966903     1.959260     1.951617     1.943974
      1.936331     1.928688     1.921045     1.913402     1.905759     1.898115     1.890472     1.882829     1.875186     1.867543
      1.859900     1.852257     1.844614     1.836971     1.829327     1.821684     1.814041     1.806398     1.798755     1.791112
      1.783469     1.775826     1.768183     1.760540     1.752896     1.745253     1.737610     1.729967     1.722324     1.714681
      1.707038     1.699395     1.691752     1.684108     1.676465     1.668822     1.661179     1.653536     1.645893     1.638250
      1.630607     1.622964     1.615321     1.607677     1.600034     1.592391     1.584748     1.577105     1.569462     1.561819
      1.554176     1.546533     1.538890     1.531246     1.523603     1.515960     1.508317     1.500674     1.493031     1.485388
      1.477745     1.470102     1.462458     1.454815     1.447172     1.439529     1.431886     1.424243     1.416600     1.408957
      1.401314     1.393671     1.386027     1.378384     1.370741     1.363098     1.355455     1.347812     1.340169     1.332526
      1.324883     1.317240     1.309596     1.301953     1.294310     1.286667     1.279024     1.271381     1.263738     1.256095
      1.248452     1.240808     1.233165     1.225522     1.217879     1.210236     1.202593     1.194950     1.187307     1.179664
      1.172021     1.164377     1.156734     1.149091     1.141448     1.133805     1.126162     1.118519     1.110876     1.103233
      1.095590     1.087946     1.080303     1.072660     1.065017     1.057374     1.049731     1.042088     1.034445     1.026802
      1.019158     1.011515     1.003872     0.996229     0.988586     0.980943     0.973300     0.965657     0.958014     0.950371
      0.942727     0.935084     0.927441     0.919798     0.912155     0.904512     0.896869     0.889226     0.881583     0.873940
      0.866296     0.858653     0.851010     0.843367     0.835724     0.828081     0.820438     0.812795     0.805152     0.797508
      0.789865     0.782222     0.774579     0.766936     0.759293     0.751650     0.744007     0.736364     0.728721     0.721077
      0.713434     0.705791     0.698148     0.690505     0.682862     0.675219     0.667576     0.659933     0.652290     0.644646
      0.637003     0.629360     0.621717     0.614074     0.606431     0.598788     0.591145     0.583502     0.575858     0.568215
      0.560572     0.552929     0.545286     0.537643     0.530000     0.522357     0.514714     0.507071     0.499427     0.491784
      0.484141     0.476498     0.468855     0.461212     0.453569     0.445925     0.438282     0.430639     0.422996     0.415353
      0.407710     0.400067     0.392424     0.384780     0.377137     0.369494     0.361851     0.354208     0.346565     0.338922
      0.331278     0.323635     0.315992     0.308349     0.300706     0.293063     0.285420     0.277777     0.270133     0.262490
      0.254847     0.247204     0.239561     0.231918     0.224275     0.216631     0.208988     0.201345
 NY phased data points follow
  -2.57089E+00 -3.18139E+00 -2.49613E+00 -3.58986E+00 -1.75366E+00 -2.39405E+00 -2.25866E+00 -2.35852E+00 -4.08148E+00 -5.36475E-01
  -3.20608E+00 -5.44485E+00 -3.20872E+00 -3.99156E+00 -3.58542E+00 -1.69118E+00 -4.21412E+00 -1.16267E+00 -4.52104E-01 -3.28907E-01
  -2.18689E+00  5.70398E-01 -2.46012E+00 -3.03224E+00 -1.70649E+00 -3.17951E+00  9.37111E-01 -3.93302E+00 -2.95943E+00 -1.89445E+00
  -2.09188E+00 -1.38925E+00  2.39547E-01 -4.40825E+00 -2.51527E+00  6.66292E-01  5.57940E-01 -2.65182E+00 -1.16248E+00 -8.61796E-01
  -2.37340E+00 -2.34297E+00 -6.76701E-01 -1.00628E+00 -1.00621E+00 -2.60672E+00 -1.16886E+00  1.23019E-01  6.36472E-02  1.38739E-01
  -1.04111E+00 -7.69604E-01 -1.04405E+00 -1.68459E+00  7.59714E-01 -4.77436E-01 -2.43123E+00 -2.54296E+00 -2.46671E-01 -2.84649E-01
   7.16716E-01  6.53081E-01 -9.87142E-01 -1.62123E-01 -1.32838E+00  1.12059E+00  2.50177E+00 -2.75276E+00  6.98083E-02  1.06764E+00
   8.58946E-02 -1.63007E+00  5.37741E-01 -8.11426E-01  1.34913E+00 -2.92128E-01  1.96972E+00 -1.02162E-01  1.31694E-01  5.91365E-01
   2.12017E+00  1.26352E+00  1.53650E+00 -7.31819E-01  1.71783E+00 -6.42637E-01 -1.22900E-01 -9.37593E-03 -7.24618E-01  3.19682E+00
   5.48202E-02 -1.81680E-01  1.83258E+00  1.36234E+00 -1.19198E+00  1.13970E+00  1.70455E+00  1.80860E+00 -8.73251E-01  1.33752E+00
   2.42891E+00  2.83632E+00  1.63694E+00  1.60252E+00  8.94194E-01 -5.27562E-01  2.07890E-01  1.99928E+00  1.34354E+00  4.46017E-01
   3.75893E+00  1.19894E+00  2.04678E+00  2.38368E+00  4.49019E+00  3.99887E+00  2.03716E+00  2.32216E+00  1.94905E+00  2.60132E+00
   3.44752E+00  4.03632E+00  3.80173E+00  3.98897E+00  3.91785E+00  3.40454E+00  1.31742E+00  3.17983E+00  3.61128E+00  1.04852E+00
   3.28474E+00  4.63754E+00  2.42757E+00  5.18585E+00  3.82945E+00  3.58823E+00  3.29668E+00  3.45358E+00  4.17887E+00  6.96807E+00
   2.34733E+00  3.77085E+00  4.71267E+00  4.11781E+00  6.10565E+00  6.66595E+00  4.49267E+00  5.10897E+00  4.52096E+00  5.45709E+00
   4.99182E+00  5.37211E+00  7.69136E+00  6.88707E+00  4.18102E+00  3.55021E+00  8.34350E+00  6.25312E+00  3.28804E+00  6.73739E+00
   4.84113E+00  6.04208E+00  5.01009E+00  4.14084E+00  5.66477E+00  6.19592E+00  5.84195E+00  6.18308E+00  6.49749E+00  4.78394E+00
   8.54510E+00  7.98853E+00  7.09079E+00  7.14703E+00  6.85494E+00  5.02574E+00  5.73305E+00  5.98386E+00  8.54638E+00  8.75430E+00
   7.82786E+00  7.80845E+00  4.52495E+00  7.98960E+00  5.55270E+00  7.95175E+00  5.50664E+00  6.82865E+00  5.31862E+00  8.91654E+00
   6.70615E+00  7.13761E+00  8.88924E+00  7.34874E+00  8.67499E+00  6.29843E+00  8.40262E+00  9.07260E+00  6.35683E+00  9.35096E+00
   1.06402E+01  1.00308E+01  1.05549E+01  8.24577E+00  8.72885E+00  9.48322E+00  8.29377E+00  9.42772E+00  6.23659E+00  8.78108E+00
   1.02343E+01  8.27390E+00  9.82964E+00  1.11856E+01  9.85545E+00  9.33795E+00  9.51460E+00  9.29220E+00  9.83407E+00  9.46517E+00
   1.00079E+01  9.99830E+00  1.06376E+01  1.10521E+01  1.01550E+01  9.64855E+00  1.08024E+01  1.14332E+01  8.04241E+00  1.14061E+01
   9.85026E+00  1.12000E+01  1.29110E+01  1.18364E+01  1.05301E+01  1.35091E+01  1.36848E+01  1.38357E+01  1.34375E+01  1.12042E+01
   1.56410E+01  1.36680E+01  1.28665E+01  1.39840E+01  1.64556E+01  1.32422E+01  1.50388E+01  1.38868E+01  1.38688E+01  1.36275E+01
   1.45834E+01  1.47929E+01  1.55604E+01  1.33115E+01  1.34792E+01  1.26426E+01  1.46601E+01  1.47483E+01  1.44092E+01  1.82650E+01
   1.44372E+01  1.57225E+01  1.86245E+01  1.49178E+01  1.78089E+01  1.68613E+01  1.84848E+01  1.60563E+01  1.55933E+01  1.58931E+01
   1.56080E+01  1.71698E+01  1.64160E+01  1.44183E+01  1.73849E+01  1.64243E+01  1.41453E+01  1.36781E+01  1.61723E+01  1.54020E+01
   1.74783E+01  1.78630E+01  1.71454E+01  2.09515E+01  1.86616E+01  1.99381E+01  2.04283E+01  1.88321E+01  1.86351E+01  1.93774E+01
   1.94460E+01  2.05034E+01  2.07216E+01  2.08150E+01  2.18428E+01  2.35097E+01  2.28683E+01  2.09278E+01  2.16481E+01  2.19885E+01
   2.28084E+01  2.40921E+01  2.66896E+01  2.57480E+01  2.74039E+01  2.69642E+01  2.65665E+01  2.59848E+01  2.79939E+01  2.81647E+01
   2.56354E+01  2.94416E+01  2.98720E+01  2.81235E+01  2.89458E+01  3.02208E+01  3.01346E+01  3.22250E+01  3.07976E+01  3.18451E+01
   3.18246E+01  3.39978E+01  3.20719E+01  3.54589E+01  3.41395E+01  3.52491E+01  3.50494E+01  3.65654E+01  3.62990E+01  3.81578E+01
   3.86126E+01  3.75611E+01  3.97875E+01  4.34419E+01  4.12940E+01  3.99863E+01  4.30595E+01  4.34008E+01  4.51278E+01  4.51339E+01
   4.45182E+01  4.80179E+01  4.47786E+01  4.95426E+01  5.08456E+01  5.11672E+01  4.89852E+01  5.07466E+01  4.83856E+01  5.13901E+01
   5.11057E+01  5.37116E+01  4.98773E+01  5.10333E+01  5.18413E+01  4.97942E+01  5.20274E+01  5.04126E+01  4.85927E+01  4.89856E+01
   4.82639E+01  4.82387E+01  4.78394E+01  4.75777E+01  4.33815E+01  4.42696E+01  4.55414E+01  4.40663E+01  4.45205E+01  4.88811E+01
   4.52256E+01  4.66684E+01  4.52071E+01  4.58338E+01  4.69488E+01  4.54600E+01  4.85123E+01  4.56940E+01  4.69510E+01  4.63461E+01
   4.57355E+01  4.75829E+01  4.66586E+01  4.55229E+01  4.59104E+01  4.52597E+01  4.45717E+01  4.67958E+01  4.42348E+01  4.22776E+01
   4.46218E+01  4.30153E+01  4.16185E+01  4.34205E+01  4.13478E+01  4.04691E+01  4.14788E+01  4.01821E+01  3.80993E+01  3.92204E+01
   3.97916E+01  3.71746E+01  3.69819E+01  3.58281E+01  3.44870E+01  3.36273E+01  3.57933E+01  3.36752E+01  3.40756E+01  3.28147E+01
   3.20520E+01  3.26404E+01  3.06233E+01  3.23887E+01  2.97013E+01  2.77845E+01  2.56589E+01  2.47002E+01  2.51241E+01  2.28025E+01
   2.20900E+01  2.35656E+01  2.12027E+01  1.89801E+01  1.93251E+01  1.67674E+01  1.64873E+01  1.21049E+01  1.33263E+01  1.24608E+01
   1.14149E+01  1.08755E+01  8.78208E+00  8.14546E+00  8.00673E+00  6.93021E+00  4.50299E+00  2.42261E+00  2.73268E+00  7.94711E-01
  -6.76733E-01 -2.17477E+00 -2.01327E+00 -4.80252E+00 -5.22026E+00 -5.29471E+00 -5.40911E+00 -7.93127E+00 -7.86300E+00 -9.77283E+00
  -9.53053E+00 -1.05148E+01 -1.05417E+01 -1.17682E+01 -1.26677E+01 -1.51711E+01 -1.53144E+01 -1.43942E+01 -1.59285E+01 -1.72011E+01
  -1.58513E+01 -1.87384E+01 -1.84937E+01 -1.83509E+01 -2.08779E+01 -2.00209E+01 -2.08361E+01 -2.14782E+01 -2.15747E+01 -2.10297E+01
  -2.29270E+01 -2.10958E+01 -2.20484E+01 -2.48520E+01 -2.31888E+01 -2.07782E+01 -2.47455E+01 -2.47656E+01 -2.21947E+01 -2.29245E+01
  -2.25742E+01 -2.39603E+01 -2.24718E+01 -2.36645E+01 -2.19203E+01 -2.44877E+01 -2.23521E+01 -2.52887E+01 -2.18797E+01 -2.44550E+01
  -2.32328E+01 -2.28544E+01 -2.38672E+01 -2.09066E+01 -2.37608E+01 -2.46335E+01 -2.24278E+01 -2.31558E+01
 NY points of the fit to the data follow
  -3.41017E+00 -3.40673E+00 -3.47061E+00 -3.42808E+00 -3.48272E+00 -3.36117E+00 -3.34153E+00 -3.06253E+00 -3.11066E+00 -2.79621E+00
  -3.02793E+00 -2.69532E+00 -3.10474E+00 -2.71169E+00 -3.20751E+00 -2.55955E+00 -3.02756E+00 -2.20310E+00 -2.72972E+00 -1.86416E+00
  -2.53787E+00 -1.66697E+00 -2.45144E+00 -1.61166E+00 -2.38818E+00 -1.56736E+00 -2.23249E+00 -1.45910E+00 -1.98836E+00 -1.33081E+00
  -1.71350E+00 -1.24172E+00 -1.50498E+00 -1.25814E+00 -1.35203E+00 -1.27809E+00 -1.14483E+00 -1.20858E+00 -8.63980E-01 -1.03716E+00
  -5.75018E-01 -8.50639E-01 -3.41789E-01 -7.07612E-01 -2.12015E-01 -6.11734E-01 -1.42375E-01 -5.10913E-01 -1.68499E-01 -5.55108E-01
  -3.34738E-01 -6.63415E-01 -5.12688E-01 -7.43523E-01 -5.97392E-01 -6.69736E-01 -5.01545E-01 -5.40885E-01 -4.27728E-01 -4.66164E-01
  -4.01257E-01 -4.23720E-01 -3.69696E-01 -3.91185E-01 -3.22490E-01 -3.32903E-01 -2.51122E-01 -2.53167E-01 -1.63201E-01 -1.59370E-01
  -6.66819E-02 -6.94709E-02  1.25957E-02  3.70796E-03  7.99770E-02  6.97576E-02  1.43063E-01  1.32898E-01  2.05404E-01  1.95376E-01
   2.62675E-01  2.53976E-01  3.18473E-01  3.11146E-01  3.73556E-01  3.67975E-01  4.29597E-01  4.29935E-01  4.93848E-01  5.03125E-01
   5.71057E-01  5.90459E-01  6.62217E-01  6.91948E-01  7.68747E-01  8.09589E-01  8.90038E-01  9.42625E-01  1.02632E+00  1.08959E+00
   1.17496E+00  1.24629E+00  1.33249E+00  1.40976E+00  1.49686E+00  1.57868E+00  1.66831E+00  1.75425E+00  1.84800E+00  1.93565E+00
   2.03359E+00  2.12429E+00  2.22844E+00  2.32384E+00  2.43325E+00  2.53315E+00  2.64601E+00  2.74916E+00  2.86308E+00  2.96819E+00
   3.07960E+00  3.18520E+00  3.29423E+00  3.40027E+00  3.50729E+00  3.61321E+00  3.71883E+00  3.82474E+00  3.93004E+00  4.03525E+00
   4.13995E+00  4.24415E+00  4.34807E+00  4.45123E+00  4.55428E+00  4.65642E+00  4.75844E+00  4.85948E+00  4.96028E+00  5.06014E+00
   5.15949E+00  5.25785E+00  5.35510E+00  5.45070E+00  5.54529E+00  5.63759E+00  5.72897E+00  5.81750E+00  5.90385E+00  5.98679E+00
   6.06639E+00  6.14199E+00  6.21334E+00  6.27995E+00  6.34164E+00  6.39810E+00  6.44906E+00  6.49477E+00  6.53386E+00  6.56866E+00
   6.59651E+00  6.62060E+00  6.63777E+00  6.65106E+00  6.65921E+00  6.66360E+00  6.66501E+00  6.66255E+00  6.65875E+00  6.65121E+00
   6.64572E+00  6.63556E+00  6.63121E+00  6.62038E+00  6.61965E+00  6.60798E+00  6.60565E+00  6.59577E+00  6.58322E+00  6.57779E+00
   6.55956E+00  6.56396E+00  6.54661E+00  6.58099E+00  6.58011E+00  6.65244E+00  6.66563E+00  6.79154E+00  6.81114E+00  6.95457E+00
   6.96757E+00  7.08464E+00  7.01654E+00  7.14859E+00  7.03654E+00  7.22705E+00  7.13973E+00  7.44946E+00  7.50354E+00  7.81951E+00
   7.94764E+00  8.17858E+00  8.31944E+00  8.39248E+00  8.46907E+00  8.38786E+00  8.54459E+00  8.39483E+00  8.69866E+00  8.48463E+00
   8.90730E+00  8.58868E+00  9.06655E+00  8.61131E+00  9.10248E+00  8.56761E+00  9.07602E+00  8.55203E+00  9.09398E+00  8.65971E+00
   9.23359E+00  8.93235E+00  9.47190E+00  9.29885E+00  9.70347E+00  9.63430E+00  9.93252E+00  1.00200E+01  1.02375E+01  1.04832E+01
   1.06881E+01  1.10497E+01  1.11981E+01  1.16204E+01  1.17712E+01  1.21890E+01  1.23804E+01  1.27429E+01  1.30127E+01  1.32084E+01
   1.34472E+01  1.34946E+01  1.37339E+01  1.36884E+01  1.39093E+01  1.38460E+01  1.41446E+01  1.41256E+01  1.44470E+01  1.44816E+01
   1.47829E+01  1.48760E+01  1.51064E+01  1.52456E+01  1.53735E+01  1.55737E+01  1.55988E+01  1.58442E+01  1.57613E+01  1.60448E+01
   1.58748E+01  1.61653E+01  1.59184E+01  1.61861E+01  1.58856E+01  1.60958E+01  1.58114E+01  1.59875E+01  1.57290E+01  1.58679E+01
   1.56590E+01  1.57642E+01  1.56014E+01  1.56983E+01  1.56150E+01  1.57452E+01  1.57569E+01  1.59302E+01  1.60354E+01  1.62570E+01
   1.64454E+01  1.67289E+01  1.70226E+01  1.73741E+01  1.77403E+01  1.81414E+01  1.85677E+01  1.89973E+01  1.94584E+01  1.99141E+01
   2.03898E+01  2.08519E+01  2.13214E+01  2.17696E+01  2.22117E+01  2.26322E+01  2.30352E+01  2.34093E+01  2.37561E+01  2.40726E+01
   2.43593E+01  2.46204E+01  2.48574E+01  2.50837E+01  2.53074E+01  2.55502E+01  2.58365E+01  2.62198E+01  2.68122E+01  2.76498E+01
   2.80615E+01  2.89592E+01  2.90328E+01  2.98760E+01  2.96273E+01  3.03950E+01  2.97625E+01  3.10495E+01  3.04661E+01  3.22172E+01
   3.16224E+01  3.35694E+01  3.27990E+01  3.47735E+01  3.38319E+01  3.57795E+01  3.48598E+01  3.68319E+01  3.61379E+01  3.81270E+01
   3.77376E+01  3.95818E+01  3.95544E+01  4.10857E+01  4.13101E+01  4.23723E+01  4.29136E+01  4.36177E+01  4.45626E+01  4.49749E+01
   4.62345E+01  4.64557E+01  4.78888E+01  4.78284E+01  4.92100E+01  4.89246E+01  5.01459E+01  4.98363E+01  5.09429E+01  5.08500E+01
   5.15503E+01  5.13616E+01  5.17349E+01  5.14534E+01  5.14283E+01  5.09252E+01  5.04591E+01  4.99725E+01  4.94093E+01  4.87862E+01
   4.81492E+01  4.75511E+01  4.70368E+01  4.66356E+01  4.63577E+01  4.61959E+01  4.61297E+01  4.61319E+01  4.61730E+01  4.62264E+01
   4.62709E+01  4.62914E+01  4.62799E+01  4.62339E+01  4.61558E+01  4.60514E+01  4.59284E+01  4.57958E+01  4.56622E+01  4.55350E+01
   4.54199E+01  4.53201E+01  4.52357E+01  4.51642E+01  4.51000E+01  4.50348E+01  4.49586E+01  4.48599E+01  4.47267E+01  4.45473E+01
   4.43112E+01  4.40097E+01  4.36367E+01  4.31892E+01  4.26671E+01  4.20739E+01  4.14159E+01  4.07021E+01  3.99438E+01  3.91534E+01
   3.83443E+01  3.75294E+01  3.67210E+01  3.59297E+01  3.51641E+01  3.44300E+01  3.37304E+01  3.30654E+01  3.24322E+01  3.18252E+01
   3.12365E+01  3.06562E+01  3.00732E+01  2.94755E+01  2.88512E+01  2.81885E+01  2.74769E+01  2.67072E+01  2.58721E+01  2.49665E+01
   2.39877E+01  2.29350E+01  2.18105E+01  2.06183E+01  1.93642E+01  1.80560E+01  1.67025E+01  1.53135E+01  1.38992E+01  1.24702E+01
   1.10367E+01  9.60841E+00  8.19442E+00  6.80284E+00  5.44078E+00  4.11421E+00  2.82798E+00  1.58581E+00  3.90396E-01 -7.56579E-01
  -1.85430E+00 -2.90268E+00 -3.90231E+00 -4.85428E+00 -5.76012E+00 -6.62165E+00 -7.44093E+00 -8.22014E+00 -8.96156E+00 -9.66746E+00
  -1.03401E+01 -1.09817E+01 -1.15945E+01 -1.21803E+01 -1.27411E+01 -1.32788E+01 -1.37950E+01 -1.42913E+01 -1.47691E+01 -1.52297E+01
  -1.56744E+01 -1.61043E+01 -1.65204E+01 -1.69238E+01 -1.73152E+01 -1.76955E+01 -1.80654E+01 -1.84256E+01 -1.87767E+01 -1.91193E+01
  -1.94538E+01 -1.97809E+01 -2.01008E+01 -2.04140E+01 -2.07209E+01 -2.10219E+01 -2.13172E+01 -2.16071E+01 -2.18919E+01 -2.21719E+01
  -2.24472E+01 -2.27181E+01 -2.29848E+01 -2.32475E+01 -2.35063E+01 -2.37614E+01 -2.40130E+01 -2.42611E+01 -2.45059E+01 -2.47475E+01
  -2.49860E+01 -2.52215E+01 -2.54541E+01 -2.56839E+01 -2.59109E+01 -2.61352E+01 -2.63569E+01 -2.65759E+01
 NY background values follow
    -4.614E+00   -4.580E+00   -4.545E+00   -4.510E+00   -4.474E+00   -4.438E+00   -4.401E+00   -4.363E+00   -4.325E+00   -4.286E+00
    -4.247E+00   -4.207E+00   -4.167E+00   -4.126E+00   -4.084E+00   -4.042E+00   -3.999E+00   -3.956E+00   -3.913E+00   -3.868E+00
    -3.824E+00   -3.778E+00   -3.733E+00   -3.687E+00   -3.640E+00   -3.593E+00   -3.545E+00   -3.497E+00   -3.449E+00   -3.400E+00
    -3.350E+00   -3.301E+00   -3.250E+00   -3.200E+00   -3.149E+00   -3.097E+00   -3.046E+00   -2.993E+00   -2.941E+00   -2.888E+00
    -2.835E+00   -2.781E+00   -2.727E+00   -2.673E+00   -2.618E+00   -2.563E+00   -2.508E+00   -2.452E+00   -2.396E+00   -2.340E+00
    -2.283E+00   -2.227E+00   -2.170E+00   -2.112E+00   -2.055E+00   -1.997E+00   -1.939E+00   -1.880E+00   -1.822E+00   -1.763E+00
    -1.704E+00   -1.645E+00   -1.585E+00   -1.526E+00   -1.466E+00   -1.406E+00   -1.346E+00   -1.285E+00   -1.225E+00   -1.164E+00
    -1.103E+00   -1.042E+00   -9.814E-01   -9.202E-01   -8.589E-01   -7.975E-01   -7.360E-01   -6.743E-01   -6.126E-01   -5.508E-01
    -4.890E-01   -4.270E-01   -3.650E-01   -3.030E-01   -2.409E-01   -1.788E-01   -1.166E-01   -5.440E-02    7.814E-03    7.003E-02
     1.323E-01    1.945E-01    2.567E-01    3.189E-01    3.810E-01    4.432E-01    5.053E-01    5.673E-01    6.293E-01    6.912E-01
     7.531E-01    8.149E-01    8.766E-01    9.382E-01    9.997E-01    1.061E+00    1.122E+00    1.184E+00    1.245E+00    1.306E+00
     1.366E+00    1.427E+00    1.488E+00    1.548E+00    1.608E+00    1.668E+00    1.728E+00    1.787E+00    1.847E+00    1.906E+00
     1.965E+00    2.024E+00    2.082E+00    2.141E+00    2.199E+00    2.256E+00    2.314E+00    2.371E+00    2.428E+00    2.485E+00
     2.542E+00    2.598E+00    2.654E+00    2.709E+00    2.765E+00    2.820E+00    2.874E+00    2.929E+00    2.982E+00    3.036E+00
     3.089E+00    3.142E+00    3.195E+00    3.247E+00    3.299E+00    3.350E+00    3.401E+00    3.452E+00    3.502E+00    3.552E+00
     3.601E+00    3.650E+00    3.698E+00    3.746E+00    3.794E+00    3.841E+00    3.887E+00    3.934E+00    3.979E+00    4.024E+00
     4.069E+00    4.113E+00    4.157E+00    4.200E+00    4.243E+00    4.285E+00    4.326E+00    4.367E+00    4.407E+00    4.447E+00
     4.487E+00    4.525E+00    4.564E+00    4.601E+00    4.638E+00    4.675E+00    4.710E+00    4.746E+00    4.780E+00    4.814E+00
     4.848E+00    4.880E+00    4.913E+00    4.944E+00    4.975E+00    5.005E+00    5.035E+00    5.064E+00    5.092E+00    5.120E+00
     5.147E+00    5.173E+00    5.199E+00    5.224E+00    5.248E+00    5.271E+00    5.294E+00    5.316E+00    5.338E+00    5.359E+00
     5.379E+00    5.398E+00    5.417E+00    5.434E+00    5.451E+00    5.468E+00    5.483E+00    5.498E+00    5.512E+00    5.526E+00
     5.538E+00    5.550E+00    5.561E+00    5.571E+00    5.581E+00    5.590E+00    5.597E+00    5.605E+00    5.611E+00    5.616E+00
     5.621E+00    5.625E+00    5.628E+00    5.630E+00    5.631E+00    5.631E+00    5.631E+00    5.630E+00    5.628E+00    5.625E+00
     5.621E+00    5.616E+00    5.611E+00    5.604E+00    5.597E+00    5.588E+00    5.579E+00    5.569E+00    5.558E+00    5.546E+00
     5.533E+00    5.520E+00    5.505E+00    5.489E+00    5.473E+00    5.455E+00    5.437E+00    5.417E+00    5.397E+00    5.375E+00
     5.353E+00    5.330E+00    5.305E+00    5.280E+00    5.254E+00    5.226E+00    5.198E+00    5.169E+00    5.139E+00    5.107E+00
     5.075E+00    5.041E+00    5.007E+00    4.972E+00    4.935E+00    4.897E+00    4.859E+00    4.819E+00    4.778E+00    4.737E+00
     4.694E+00    4.650E+00    4.605E+00    4.558E+00    4.511E+00    4.463E+00    4.413E+00    4.363E+00    4.311E+00    4.258E+00
     4.204E+00    4.149E+00    4.093E+00    4.036E+00    3.977E+00    3.918E+00    3.857E+00    3.795E+00    3.732E+00    3.667E+00
     3.602E+00    3.535E+00    3.467E+00    3.398E+00    3.328E+00    3.257E+00    3.184E+00    3.110E+00    3.035E+00    2.959E+00
     2.881E+00    2.802E+00    2.722E+00    2.641E+00    2.558E+00    2.475E+00    2.389E+00    2.303E+00    2.216E+00    2.127E+00
     2.037E+00    1.945E+00    1.852E+00    1.758E+00    1.663E+00    1.566E+00    1.468E+00    1.369E+00    1.269E+00    1.167E+00
     1.063E+00    9.588E-01    8.529E-01    7.456E-01    6.370E-01    5.270E-01    4.157E-01    3.030E-01    1.889E-01    7.340E-02
    -4.346E-02   -1.617E-01   -2.813E-01   -4.024E-01   -5.248E-01   -6.485E-01   -7.736E-01   -9.001E-01   -1.028E+00   -1.157E+00
    -1.287E+00   -1.419E+00   -1.552E+00   -1.686E+00   -1.821E+00   -1.958E+00   -2.096E+00   -2.235E+00   -2.375E+00   -2.517E+00
    -2.659E+00   -2.803E+00   -2.948E+00   -3.094E+00   -3.241E+00   -3.389E+00   -3.538E+00   -3.689E+00   -3.840E+00   -3.992E+00
    -4.146E+00   -4.300E+00   -4.456E+00   -4.612E+00   -4.770E+00   -4.928E+00   -5.088E+00   -5.248E+00   -5.409E+00   -5.571E+00
    -5.734E+00   -5.898E+00   -6.063E+00   -6.228E+00   -6.395E+00   -6.562E+00   -6.730E+00   -6.899E+00   -7.069E+00   -7.239E+00
    -7.411E+00   -7.583E+00   -7.755E+00   -7.929E+00   -8.103E+00   -8.278E+00   -8.453E+00   -8.630E+00   -8.807E+00   -8.984E+00
    -9.162E+00   -9.341E+00   -9.520E+00   -9.700E+00   -9.881E+00   -1.006E+01   -1.024E+01   -1.043E+01   -1.061E+01   -1.079E+01
    -1.098E+01   -1.116E+01   -1.134E+01   -1.153E+01   -1.172E+01   -1.190E+01   -1.209E+01   -1.227E+01   -1.246E+01   -1.265E+01
    -1.284E+01   -1.303E+01   -1.321E+01   -1.340E+01   -1.359E+01   -1.378E+01   -1.397E+01   -1.416E+01   -1.435E+01   -1.454E+01
    -1.473E+01   -1.493E+01   -1.512E+01   -1.531E+01   -1.550E+01   -1.569E+01   -1.588E+01   -1.608E+01   -1.627E+01   -1.646E+01
    -1.665E+01   -1.685E+01   -1.704E+01   -1.723E+01   -1.742E+01   -1.762E+01   -1.781E+01   -1.800E+01   -1.819E+01   -1.839E+01
    -1.858E+01   -1.877E+01   -1.897E+01   -1.916E+01   -1.935E+01   -1.954E+01   -1.974E+01   -1.993E+01   -2.012E+01   -2.031E+01
    -2.050E+01   -2.069E+01   -2.089E+01   -2.108E+01   -2.127E+01   -2.146E+01   -2.165E+01   -2.184E+01   -2.203E+01   -2.222E+01
    -2.241E+01   -2.260E+01   -2.278E+01   -2.297E+01   -2.316E+01   -2.335E+01   -2.354E+01   -2.372E+01   -2.391E+01   -2.410E+01
    -2.428E+01   -2.447E+01   -2.465E+01   -2.483E+01   -2.502E+01   -2.520E+01   -2.538E+01   -2.557E+01   -2.575E+01   -2.593E+01
    -2.611E+01   -2.629E+01   -2.647E+01   -2.665E+01   -2.683E+01   -2.700E+01   -2.718E+01   -2.736E+01   -2.753E+01   -2.771E+01
    -2.788E+01   -2.805E+01   -2.823E+01   -2.840E+01   -2.857E+01   -2.874E+01   -2.891E+01   -2.908E+01
 Ala      Conc. = 3.30E+03
