 LCModel (Version 6.3-1L) Copyright: S.W. Provencher.          Ref.: Magn. Reson. Med. 30:672-679 (1993).                
 Slice#3 Row#12 Col#14  PD_05_press_1_raw_act
 36 lines in following concentration table = NCONC+1
    Conc.  %SD /Cr+PCr  Metabolite                                         
    8.784 101%   8.048 Ala                                                 
    2.153 113%   1.973 Asp                                                 
    0.000 999%   0.000 Cr                                                  
    1.092 423%   1.000 PCr                                                 
    1.337 109%   1.225 GABA                                                
    1.190 123%   1.091 Glc                                                 
    3.836 393%   3.515 Gln                                                 
    0.000 999%   0.000 Glu                                                 
    4.241  54%   3.886 GPC                                                 
    0.000 999%   0.000 PCh                                                 
    2.281 277%   2.090 GSH                                                 
   29.166  74%  26.721 Ins                                                 
    6.488 137%   5.944 Lac                                                 
   27.906  35%  25.567 NAA                                                 
    0.000 999%   0.000 NAAG                                                
    0.532  91%   0.488 Scyllo                                              
    1.954 124%   1.790 Tau                                                 
    0.000 999%   0.000 -CrCH2                                              
    4.241  54%   3.886 GPC+PCh                                             
   27.906  35%  25.567 NAA+NAAG                                            
    1.092 423%   1.000 Cr+PCr                                              
    3.836 393%   3.515 Glu+Gln                                             
 4.32E+03   6% 4.0E+03 Lip13a                                              
    0.000 999%   0.000 Lip13b                                              
  424.579  31% 388.983 Lip09                                               
   54.159 161%  49.619 MM09                                                
   13.042 684%  11.949 Lip20                                               
   96.433  86%  88.348 MM20                                                
   27.654 208%  25.335 MM12                                                
  768.202  22% 703.797 MM14                                                
  259.479  33% 237.725 MM17                                                
 4.32E+03   6% 4.0E+03 Lip13a+Lip13b                                       
 5.12E+03   3% 4.7E+03 MM14+Lip13a+Lip13b+MM12                             
  478.739  17% 438.602 MM09+Lip09                                          
  109.475  62% 100.297 MM20+Lip20                                          
   6 lines in following misc. output table
  FWHM = 0.038 ppm    S/N =  13                                            
  Data shift =-0.046 ppm                                                   
  Ph: -23 deg     -19.8 deg/ppm                                            
  alphaB,S = 8.5E+01,   5.1E+00                                            
   14 spline knots.   Ns = 5(1)                                            
   2 inflections.     2 extrema                                            
  498 points on ppm-axis = NY
      4.000000     3.992357     3.984714     3.977070     3.969427     3.961784     3.954141     3.946497     3.938854     3.931211
      3.923568     3.915925     3.908281     3.900638     3.892995     3.885352     3.877708     3.870065     3.862422     3.854779
      3.847136     3.839492     3.831849     3.824206     3.816563     3.808919     3.801276     3.793633     3.785990     3.778347
      3.770703     3.763060     3.755417     3.747774     3.740130     3.732487     3.724844     3.717201     3.709558     3.701914
      3.694271     3.686628     3.678985     3.671341     3.663698     3.656055     3.648412     3.640769     3.633125     3.625482
      3.617839     3.610196     3.602552     3.594909     3.587266     3.579623     3.571980     3.564336     3.556693     3.549050
      3.541407     3.533763     3.526120     3.518477     3.510834     3.503191     3.495547     3.487904     3.480261     3.472618
      3.464974     3.457331     3.449688     3.442045     3.434402     3.426758     3.419115     3.411472     3.403829     3.396185
      3.388542     3.380899     3.373256     3.365613     3.357969     3.350326     3.342683     3.335040     3.327396     3.319753
      3.312110     3.304467     3.296824     3.289180     3.281537     3.273894     3.266251     3.258607     3.250964     3.243321
      3.235678     3.228034     3.220391     3.212748     3.205105     3.197462     3.189818     3.182175     3.174532     3.166889
      3.159245     3.151602     3.143959     3.136316     3.128673     3.121029     3.113386     3.105743     3.098100     3.090456
      3.082813     3.075170     3.067527     3.059884     3.052240     3.044597     3.036954     3.029311     3.021667     3.014024
      3.006381     2.998738     2.991095     2.983451     2.975808     2.968165     2.960522     2.952878     2.945235     2.937592
      2.929949     2.922306     2.914662     2.907019     2.899376     2.891733     2.884089     2.876446     2.868803     2.861160
      2.853517     2.845873     2.838230     2.830587     2.822944     2.815300     2.807657     2.800014     2.792371     2.784728
      2.777084     2.769441     2.761798     2.754155     2.746511     2.738868     2.731225     2.723582     2.715939     2.708295
      2.700652     2.693009     2.685366     2.677722     2.670079     2.662436     2.654793     2.647150     2.639506     2.631863
      2.624220     2.616577     2.608933     2.601290     2.593647     2.586004     2.578361     2.570717     2.563074     2.555431
      2.547788     2.540144     2.532501     2.524858     2.517215     2.509572     2.501928     2.494285     2.486642     2.478999
      2.471355     2.463712     2.456069     2.448426     2.440783     2.433139     2.425496     2.417853     2.410210     2.402566
      2.394923     2.387280     2.379637     2.371994     2.364350     2.356707     2.349064     2.341421     2.333777     2.326134
      2.318491     2.310848     2.303205     2.295561     2.287918     2.280275     2.272632     2.264988     2.257345     2.249702
      2.242059     2.234416     2.226772     2.219129     2.211486     2.203843     2.196199     2.188556     2.180913     2.173270
      2.165627     2.157983     2.150340     2.142697     2.135054     2.127410     2.119767     2.112124     2.104481     2.096838
      2.089194     2.081551     2.073908     2.066265     2.058621     2.050978     2.043335     2.035692     2.028049     2.020405
      2.012762     2.005119     1.997476     1.989833     1.982190     1.974546     1.966903     1.959260     1.951617     1.943974
      1.936331     1.928688     1.921045     1.913402     1.905759     1.898115     1.890472     1.882829     1.875186     1.867543
      1.859900     1.852257     1.844614     1.836971     1.829327     1.821684     1.814041     1.806398     1.798755     1.791112
      1.783469     1.775826     1.768183     1.760540     1.752896     1.745253     1.737610     1.729967     1.722324     1.714681
      1.707038     1.699395     1.691752     1.684108     1.676465     1.668822     1.661179     1.653536     1.645893     1.638250
      1.630607     1.622964     1.615321     1.607677     1.600034     1.592391     1.584748     1.577105     1.569462     1.561819
      1.554176     1.546533     1.538890     1.531246     1.523603     1.515960     1.508317     1.500674     1.493031     1.485388
      1.477745     1.470102     1.462458     1.454815     1.447172     1.439529     1.431886     1.424243     1.416600     1.408957
      1.401314     1.393671     1.386027     1.378384     1.370741     1.363098     1.355455     1.347812     1.340169     1.332526
      1.324883     1.317240     1.309596     1.301953     1.294310     1.286667     1.279024     1.271381     1.263738     1.256095
      1.248452     1.240808     1.233165     1.225522     1.217879     1.210236     1.202593     1.194950     1.187307     1.179664
      1.172021     1.164377     1.156734     1.149091     1.141448     1.133805     1.126162     1.118519     1.110876     1.103233
      1.095590     1.087946     1.080303     1.072660     1.065017     1.057374     1.049731     1.042088     1.034445     1.026802
      1.019158     1.011515     1.003872     0.996229     0.988586     0.980943     0.973300     0.965657     0.958014     0.950371
      0.942727     0.935084     0.927441     0.919798     0.912155     0.904512     0.896869     0.889226     0.881583     0.873940
      0.866296     0.858653     0.851010     0.843367     0.835724     0.828081     0.820438     0.812795     0.805152     0.797508
      0.789865     0.782222     0.774579     0.766936     0.759293     0.751650     0.744007     0.736364     0.728721     0.721077
      0.713434     0.705791     0.698148     0.690505     0.682862     0.675219     0.667576     0.659933     0.652290     0.644646
      0.637003     0.629360     0.621717     0.614074     0.606431     0.598788     0.591145     0.583502     0.575858     0.568215
      0.560572     0.552929     0.545286     0.537643     0.530000     0.522357     0.514714     0.507071     0.499427     0.491784
      0.484141     0.476498     0.468855     0.461212     0.453569     0.445925     0.438282     0.430639     0.422996     0.415353
      0.407710     0.400067     0.392424     0.384780     0.377137     0.369494     0.361851     0.354208     0.346565     0.338922
      0.331278     0.323635     0.315992     0.308349     0.300706     0.293063     0.285420     0.277777     0.270133     0.262490
      0.254847     0.247204     0.239561     0.231918     0.224275     0.216631     0.208988     0.201345
 NY phased data points follow
   3.08099E+00  2.90175E+00  2.69372E+00  2.72052E+00  3.71167E+00  3.37306E+00  2.71350E+00  1.89284E+00  3.02961E+00  2.84465E+00
   2.42909E+00  3.95642E+00  1.56897E+00  2.54451E+00  3.11086E+00  3.12985E+00  2.30293E+00  2.46603E+00  2.99983E+00  2.94333E+00
   3.69933E+00  2.28708E+00  1.37850E+00  2.15721E+00  2.26462E+00  1.96469E+00  2.06067E+00  2.53339E+00  1.47458E+00  1.89408E+00
   1.83325E+00  1.86438E+00  1.99401E+00  2.14180E+00  1.78119E+00  1.97384E+00  2.55548E+00  1.79632E+00  1.92121E+00  2.10066E+00
   2.60725E+00  2.13365E+00  2.51608E+00  1.56722E+00  2.08466E+00  1.88276E+00  2.03902E+00  1.79509E+00  2.14355E+00  2.36301E+00
   1.92483E+00  2.91464E+00  2.19692E+00  2.46505E+00  2.69803E+00  1.07420E+00  1.78869E+00  2.65100E+00  1.89607E+00  1.36423E+00
   2.51523E+00  2.36134E+00  2.05942E+00  1.77513E+00  1.14279E+00  1.92073E+00  1.68399E+00  1.49936E+00  1.67773E+00  1.56908E+00
   2.09721E+00  1.96321E+00  5.25452E-01  1.21427E+00  2.60870E+00  1.17769E+00  3.04807E+00  1.63303E+00  1.43562E+00  1.90271E+00
   1.71342E+00  1.77447E+00  2.79848E+00  1.00108E+00  2.31819E+00  2.31237E+00  1.03144E+00  2.53389E+00  2.44199E+00  2.12881E+00
   2.12309E+00  2.64385E+00  1.95420E+00  2.77686E+00  1.01077E+00  1.33035E+00  1.64597E+00  1.95211E+00  1.42769E+00  1.83446E+00
   1.79467E+00  1.36065E+00  9.45399E-01  1.93087E+00  1.99613E+00  3.06720E+00  1.70769E+00  1.68664E+00  3.07801E+00  1.97561E+00
   2.03976E+00  2.93715E+00  1.85056E+00  2.22435E+00  2.10553E+00  1.17205E+00  1.02690E+00  2.69368E-01  1.19003E+00  4.95252E-01
   1.93510E+00  1.82784E+00  2.18084E+00  1.80791E+00  8.52589E-01  1.38189E+00  1.63185E+00  1.46302E+00  1.38732E+00  5.73462E-01
   1.11311E+00  1.45454E+00  2.56745E+00  1.37070E+00  1.88572E+00  2.22419E+00  2.66852E+00  2.03751E+00  9.27372E-01  1.07742E+00
   1.05802E+00  1.49793E+00  2.01524E+00  1.10388E+00  1.54278E+00  1.83416E+00  1.19639E+00  2.06818E+00  2.14045E+00  9.26515E-01
   1.45587E+00  1.45006E+00  1.20697E+00  2.08977E+00  1.33421E+00  1.14502E+00  1.36346E+00  2.19686E+00  1.57921E+00  1.20836E+00
   1.52409E+00  2.07117E+00  1.07777E+00  9.73499E-01  1.28693E+00  1.71364E+00  1.00390E+00  3.17354E+00  1.25805E+00  2.07115E+00
   1.48522E+00  5.91811E-01  2.17429E+00  1.55613E+00  1.44224E+00  8.48277E-01  2.67557E+00  5.68897E-01  1.92744E+00  1.44641E+00
   2.49448E+00  1.27982E+00  7.32431E-01  1.55208E+00  7.67574E-01  1.03730E+00  1.27556E+00  4.37465E-01  1.70822E+00  1.69618E+00
   1.22768E+00  1.34124E+00  1.21998E+00  1.98447E+00  1.87569E+00  1.55311E+00  1.87173E+00  7.63159E-01  1.86281E+00  1.51093E+00
   1.19110E+00  1.90805E+00  1.01633E+00  1.26911E+00  8.17383E-01  1.58183E+00  1.66351E+00  2.02543E+00  1.04553E+00  1.33523E+00
   8.47700E-01  1.22346E+00  2.94662E+00  1.19538E+00  9.73904E-01  1.24089E+00  1.93071E+00  9.83822E-01  1.24919E+00  2.08518E+00
   1.38709E+00  1.36002E+00  2.14138E+00  1.39358E+00  1.20655E+00  1.75273E+00  1.60301E+00  1.94993E+00  1.22744E+00  1.77553E+00
   2.54418E-01  9.27875E-01  1.55048E+00  1.90238E+00  1.67582E+00  2.22258E+00  2.54935E+00  1.26583E+00  2.43171E+00  1.55486E+00
   2.23981E+00  1.78141E+00  1.33032E+00  1.99515E+00  2.20558E+00  1.92062E+00  1.21481E+00  1.77579E+00  2.05785E+00  1.07397E+00
   2.73084E+00  8.29923E-01  2.24490E+00  1.98961E+00  1.62004E+00  2.51158E+00  1.88918E+00  1.36826E+00  1.14222E+00  1.86252E+00
   1.53288E+00  1.92954E+00  3.02804E+00  3.30685E+00  2.94243E+00  3.72835E+00  2.82453E+00  2.95366E+00  4.03818E+00  3.38485E+00
   4.23762E+00  3.52144E+00  3.56852E+00  2.14841E+00  1.47250E+00  2.22296E+00  1.01310E+00  1.97266E+00  7.82443E-01  2.46615E+00
   1.76015E+00  1.98600E+00  1.94743E+00  2.08799E+00  1.35894E+00  2.18907E+00  2.20158E+00  3.45751E+00  2.17783E+00  1.55673E+00
   2.74079E+00  2.59164E+00  2.63775E+00  1.07527E+00  2.42627E+00  2.41405E+00  3.32260E+00  3.49318E+00  3.16401E+00  2.97404E+00
   2.48320E+00  2.77690E+00  3.32769E+00  3.91305E+00  3.24620E+00  3.82233E+00  3.71516E+00  4.03602E+00  4.08274E+00  3.62677E+00
   4.36494E+00  4.17109E+00  5.13741E+00  3.14051E+00  4.92525E+00  5.32867E+00  5.00309E+00  6.16923E+00  4.96088E+00  5.75571E+00
   5.33862E+00  5.84336E+00  6.15849E+00  6.55093E+00  5.58211E+00  7.36387E+00  7.48014E+00  8.95840E+00  8.76100E+00  9.31018E+00
   8.97500E+00  1.04970E+01  9.57060E+00  1.02194E+01  1.09553E+01  1.22972E+01  1.12910E+01  1.32136E+01  1.17158E+01  1.30299E+01
   1.37087E+01  1.45884E+01  1.55288E+01  1.54302E+01  1.59530E+01  1.56903E+01  1.60094E+01  1.72386E+01  1.75745E+01  1.73040E+01
   1.79728E+01  1.79196E+01  1.85137E+01  1.81331E+01  1.78350E+01  1.93525E+01  1.87216E+01  1.79529E+01  1.89694E+01  1.79460E+01
   1.78004E+01  1.71397E+01  1.75967E+01  1.72294E+01  1.64280E+01  1.58174E+01  1.46529E+01  1.44293E+01  1.36525E+01  1.25867E+01
   1.21111E+01  1.22276E+01  1.08531E+01  9.68886E+00  9.48005E+00  9.72171E+00  9.05808E+00  6.97436E+00  6.74636E+00  7.27485E+00
   6.28930E+00  5.71939E+00  4.24002E+00  4.94137E+00  4.48445E+00  5.13057E+00  4.33004E+00  3.77307E+00  4.49418E+00  4.12232E+00
   5.38331E+00  4.80336E+00  5.48619E+00  4.67337E+00  5.35938E+00  3.88010E+00  4.79499E+00  4.83634E+00  3.48484E+00  4.51378E+00
   4.46179E+00  3.46350E+00  4.48768E+00  2.97497E+00  4.37627E+00  4.45622E+00  4.02876E+00  4.64552E+00  4.59964E+00  4.63263E+00
   4.20104E+00  4.30355E+00  3.33291E+00  3.14130E+00  4.37278E+00  3.74683E+00  3.49823E+00  3.29502E+00  3.28252E+00  2.75615E+00
   3.24485E+00  3.67066E+00  3.46634E+00  3.65843E+00  2.85336E+00  2.40748E+00  2.76638E+00  1.65555E+00  2.20314E+00  2.99278E+00
   2.19092E+00  1.47048E+00  2.23642E+00  1.70035E+00  1.77590E+00  2.10617E+00  2.32427E+00  2.09180E+00  1.93377E+00  3.18304E-01
   1.52492E+00  1.84954E+00  2.06383E+00  1.67917E+00  2.62605E+00  9.05125E-01  1.86358E+00  1.12435E+00  1.44338E+00  2.00307E+00
   1.20109E+00  1.06439E+00  1.16676E+00  1.98959E+00  5.72130E-01  7.93630E-01  7.62765E-01  1.22275E+00  6.08976E-01  6.73865E-01
   8.23960E-01  1.38679E+00  7.15236E-01  3.75951E-01 -2.26709E-01  6.35574E-01  1.00355E+00  1.56281E+00  6.87515E-01  6.38517E-01
   7.89569E-01  4.23756E-02  1.22706E+00  5.71127E-01  1.26295E+00  7.90816E-01  5.00294E-01 -3.83418E-01  4.31727E-01 -2.46485E-01
   4.94358E-01  1.17412E+00  9.56544E-01  7.47018E-01  4.62831E-01  3.96771E-01  4.85320E-01  8.26576E-01 -1.13697E-02  8.61543E-01
   7.79642E-01  1.14513E+00  7.96719E-01  5.92524E-01  8.35549E-01  7.76225E-01  2.48263E+00  5.15819E-01
 NY points of the fit to the data follow
   2.30072E+00  2.26585E+00  2.20579E+00  2.16521E+00  2.15359E+00  2.14442E+00  2.13650E+00  2.13720E+00  2.14534E+00  2.15750E+00
   2.17121E+00  2.17984E+00  2.18017E+00  2.17536E+00  2.16309E+00  2.14333E+00  2.13589E+00  2.13324E+00  2.12102E+00  2.10628E+00
   2.09633E+00  2.08318E+00  2.07096E+00  2.07724E+00  2.10423E+00  2.13070E+00  2.13210E+00  2.10326E+00  2.06949E+00  2.04914E+00
   2.03607E+00  2.03225E+00  2.05766E+00  2.09817E+00  2.12880E+00  2.12708E+00  2.09900E+00  2.10569E+00  2.14019E+00  2.15300E+00
   2.13661E+00  2.11116E+00  2.08381E+00  2.03348E+00  1.93897E+00  1.85339E+00  1.85334E+00  1.95150E+00  2.10173E+00  2.24841E+00
   2.35756E+00  2.41608E+00  2.39288E+00  2.25318E+00  2.06070E+00  1.93800E+00  1.89779E+00  1.89162E+00  1.89209E+00  1.90961E+00
   1.95527E+00  2.01571E+00  2.06852E+00  2.10747E+00  2.12448E+00  2.09006E+00  2.01778E+00  1.95327E+00  1.90547E+00  1.88879E+00
   1.89796E+00  1.92363E+00  1.95507E+00  1.98176E+00  1.99822E+00  2.00497E+00  2.01344E+00  2.01448E+00  1.98787E+00  1.96277E+00
   1.94814E+00  1.93218E+00  1.91072E+00  1.89618E+00  1.89885E+00  1.91873E+00  1.94380E+00  1.95234E+00  1.92924E+00  1.88511E+00
   1.83685E+00  1.78508E+00  1.73738E+00  1.73076E+00  1.76546E+00  1.81283E+00  1.85068E+00  1.88029E+00  1.90540E+00  1.84997E+00
   1.71529E+00  1.63052E+00  1.67051E+00  1.84984E+00  2.11426E+00  2.33547E+00  2.47555E+00  2.55391E+00  2.45364E+00  2.12096E+00
   1.88540E+00  1.83216E+00  1.81592E+00  1.81024E+00  1.80672E+00  1.80633E+00  1.80754E+00  1.80881E+00  1.80837E+00  1.80642E+00
   1.80330E+00  1.80004E+00  1.79709E+00  1.78649E+00  1.77210E+00  1.76778E+00  1.77921E+00  1.80104E+00  1.82666E+00  1.84720E+00
   1.85770E+00  1.86179E+00  1.85060E+00  1.82423E+00  1.81306E+00  1.81071E+00  1.80002E+00  1.78218E+00  1.76036E+00  1.73657E+00
   1.72086E+00  1.72103E+00  1.72743E+00  1.73578E+00  1.74369E+00  1.74469E+00  1.73972E+00  1.73202E+00  1.72310E+00  1.71674E+00
   1.71011E+00  1.70218E+00  1.69292E+00  1.68557E+00  1.67978E+00  1.67320E+00  1.66685E+00  1.66561E+00  1.67080E+00  1.67462E+00
   1.67056E+00  1.65205E+00  1.62279E+00  1.59960E+00  1.59031E+00  1.59170E+00  1.60476E+00  1.62824E+00  1.64288E+00  1.64037E+00
   1.62305E+00  1.59393E+00  1.57902E+00  1.58313E+00  1.58283E+00  1.57005E+00  1.54777E+00  1.52757E+00  1.52131E+00  1.52543E+00
   1.52761E+00  1.52758E+00  1.53652E+00  1.54729E+00  1.54229E+00  1.52915E+00  1.51565E+00  1.51135E+00  1.50742E+00  1.50204E+00
   1.50838E+00  1.52602E+00  1.55695E+00  1.59302E+00  1.60966E+00  1.60380E+00  1.59580E+00  1.58674E+00  1.57732E+00  1.56943E+00
   1.55864E+00  1.54559E+00  1.53504E+00  1.53554E+00  1.56071E+00  1.59493E+00  1.62476E+00  1.64476E+00  1.64767E+00  1.63043E+00
   1.59640E+00  1.56493E+00  1.54333E+00  1.52698E+00  1.51431E+00  1.51811E+00  1.53864E+00  1.55046E+00  1.56046E+00  1.58702E+00
   1.60822E+00  1.61383E+00  1.61845E+00  1.62683E+00  1.63847E+00  1.65070E+00  1.66233E+00  1.67389E+00  1.68444E+00  1.68861E+00
   1.68466E+00  1.67748E+00  1.67531E+00  1.67930E+00  1.68506E+00  1.69307E+00  1.70856E+00  1.73272E+00  1.75870E+00  1.78108E+00
   1.80243E+00  1.82874E+00  1.85494E+00  1.86281E+00  1.85902E+00  1.86162E+00  1.86673E+00  1.86886E+00  1.87681E+00  1.89443E+00
   1.91170E+00  1.92540E+00  1.93527E+00  1.94324E+00  1.95299E+00  1.98552E+00  1.96501E+00  1.74215E+00  1.51321E+00  1.52502E+00
   1.84752E+00  2.40865E+00  2.97574E+00  3.34608E+00  3.55878E+00  3.53731E+00  2.97812E+00  2.23817E+00  1.97163E+00  1.90581E+00
   1.87661E+00  1.85935E+00  1.84901E+00  1.84292E+00  1.84056E+00  1.84374E+00  1.85173E+00  1.86205E+00  1.87446E+00  1.88860E+00
   1.90461E+00  1.92273E+00  1.94210E+00  1.96410E+00  1.99128E+00  2.02381E+00  2.06159E+00  2.10552E+00  2.15561E+00  2.21184E+00
   2.27433E+00  2.34224E+00  2.41534E+00  2.49432E+00  2.57900E+00  2.66856E+00  2.76267E+00  2.86100E+00  2.96252E+00  3.06621E+00
   3.17134E+00  3.27662E+00  3.38098E+00  3.48354E+00  3.58363E+00  3.68085E+00  3.77515E+00  3.86687E+00  3.95677E+00  4.04608E+00
   4.13645E+00  4.22998E+00  4.32911E+00  4.43658E+00  4.55530E+00  4.68825E+00  4.83833E+00  5.00830E+00  5.20057E+00  5.41711E+00
   5.65941E+00  5.92872E+00  6.22349E+00  6.52619E+00  6.85374E+00  7.24475E+00  7.69566E+00  8.17576E+00  8.64540E+00  9.07317E+00
   9.47625E+00  9.85551E+00  1.01540E+01  1.04093E+01  1.07648E+01  1.12255E+01  1.17314E+01  1.22615E+01  1.27917E+01  1.33328E+01
   1.38621E+01  1.42948E+01  1.46670E+01  1.50607E+01  1.54714E+01  1.59177E+01  1.63947E+01  1.68760E+01  1.73271E+01  1.77172E+01
   1.80487E+01  1.83083E+01  1.84569E+01  1.85161E+01  1.85863E+01  1.86774E+01  1.87259E+01  1.87038E+01  1.85984E+01  1.84192E+01
   1.81353E+01  1.76984E+01  1.71749E+01  1.66166E+01  1.60185E+01  1.53837E+01  1.47201E+01  1.40366E+01  1.33425E+01  1.26469E+01
   1.19581E+01  1.12834E+01  1.06294E+01  1.00014E+01  9.40356E+00  8.83919E+00  8.31048E+00  7.81875E+00  7.36456E+00  6.94780E+00
   6.56785E+00  6.22369E+00  5.91398E+00  5.63720E+00  5.39168E+00  5.17570E+00  4.98751E+00  4.82536E+00  4.68755E+00  4.57238E+00
   4.47818E+00  4.40327E+00  4.34596E+00  4.30454E+00  4.27724E+00  4.26222E+00  4.25759E+00  4.26136E+00  4.27152E+00  4.28599E+00
   4.30269E+00  4.31956E+00  4.33459E+00  4.34589E+00  4.35172E+00  4.35051E+00  4.34096E+00  4.32199E+00  4.29283E+00  4.25300E+00
   4.20231E+00  4.14087E+00  4.06906E+00  3.98750E+00  3.89704E+00  3.79867E+00  3.69353E+00  3.58285E+00  3.46791E+00  3.34996E+00
   3.23026E+00  3.10997E+00  2.99020E+00  2.87193E+00  2.75601E+00  2.64318E+00  2.53404E+00  2.42905E+00  2.32858E+00  2.23284E+00
   2.14198E+00  2.05603E+00  1.97496E+00  1.89867E+00  1.82700E+00  1.75979E+00  1.69680E+00  1.63781E+00  1.58257E+00  1.53085E+00
   1.48240E+00  1.43698E+00  1.39436E+00  1.35434E+00  1.31670E+00  1.28126E+00  1.24785E+00  1.21630E+00  1.18647E+00  1.15820E+00
   1.13139E+00  1.10592E+00  1.08169E+00  1.05859E+00  1.03655E+00  1.01549E+00  9.95325E-01  9.76005E-01  9.57466E-01  9.39653E-01
   9.22515E-01  9.06009E-01  8.90093E-01  8.74730E-01  8.59886E-01  8.45525E-01  8.31619E-01  8.18141E-01  8.05066E-01  7.92373E-01
   7.80038E-01  7.68040E-01  7.56360E-01  7.44984E-01  7.33895E-01  7.23078E-01  7.12519E-01  7.02202E-01  6.92118E-01  6.82256E-01
   6.72606E-01  6.63156E-01  6.53896E-01  6.44818E-01  6.35914E-01  6.27178E-01  6.18601E-01  6.10176E-01  6.01896E-01  5.93755E-01
   5.85748E-01  5.77870E-01  5.70116E-01  5.62479E-01  5.54955E-01  5.47540E-01  5.40230E-01  5.33022E-01
 NY background values follow
     2.101E+00    2.098E+00    2.094E+00    2.091E+00    2.087E+00    2.083E+00    2.080E+00    2.076E+00    2.073E+00    2.069E+00
     2.065E+00    2.062E+00    2.058E+00    2.055E+00    2.051E+00    2.047E+00    2.044E+00    2.040E+00    2.037E+00    2.033E+00
     2.029E+00    2.026E+00    2.022E+00    2.019E+00    2.015E+00    2.011E+00    2.008E+00    2.004E+00    2.001E+00    1.997E+00
     1.993E+00    1.990E+00    1.986E+00    1.983E+00    1.979E+00    1.975E+00    1.972E+00    1.968E+00    1.965E+00    1.961E+00
     1.957E+00    1.954E+00    1.950E+00    1.947E+00    1.943E+00    1.940E+00    1.936E+00    1.932E+00    1.929E+00    1.925E+00
     1.922E+00    1.918E+00    1.914E+00    1.911E+00    1.907E+00    1.904E+00    1.900E+00    1.896E+00    1.893E+00    1.889E+00
     1.886E+00    1.882E+00    1.878E+00    1.875E+00    1.871E+00    1.868E+00    1.864E+00    1.860E+00    1.857E+00    1.853E+00
     1.850E+00    1.846E+00    1.842E+00    1.839E+00    1.835E+00    1.832E+00    1.828E+00    1.824E+00    1.821E+00    1.817E+00
     1.814E+00    1.810E+00    1.807E+00    1.803E+00    1.799E+00    1.796E+00    1.792E+00    1.789E+00    1.785E+00    1.781E+00
     1.778E+00    1.774E+00    1.771E+00    1.767E+00    1.763E+00    1.760E+00    1.756E+00    1.753E+00    1.749E+00    1.745E+00
     1.742E+00    1.738E+00    1.735E+00    1.731E+00    1.727E+00    1.724E+00    1.720E+00    1.717E+00    1.713E+00    1.709E+00
     1.706E+00    1.702E+00    1.699E+00    1.695E+00    1.692E+00    1.688E+00    1.684E+00    1.681E+00    1.677E+00    1.674E+00
     1.670E+00    1.666E+00    1.663E+00    1.659E+00    1.656E+00    1.652E+00    1.648E+00    1.645E+00    1.641E+00    1.638E+00
     1.634E+00    1.630E+00    1.627E+00    1.623E+00    1.620E+00    1.616E+00    1.613E+00    1.609E+00    1.605E+00    1.602E+00
     1.598E+00    1.595E+00    1.591E+00    1.587E+00    1.584E+00    1.580E+00    1.577E+00    1.573E+00    1.569E+00    1.566E+00
     1.562E+00    1.559E+00    1.555E+00    1.551E+00    1.548E+00    1.544E+00    1.541E+00    1.537E+00    1.534E+00    1.530E+00
     1.526E+00    1.523E+00    1.519E+00    1.516E+00    1.512E+00    1.508E+00    1.505E+00    1.501E+00    1.498E+00    1.494E+00
     1.490E+00    1.487E+00    1.483E+00    1.480E+00    1.476E+00    1.473E+00    1.469E+00    1.465E+00    1.462E+00    1.458E+00
     1.455E+00    1.451E+00    1.447E+00    1.444E+00    1.440E+00    1.437E+00    1.433E+00    1.429E+00    1.426E+00    1.422E+00
     1.419E+00    1.415E+00    1.412E+00    1.408E+00    1.404E+00    1.401E+00    1.397E+00    1.394E+00    1.390E+00    1.386E+00
     1.383E+00    1.379E+00    1.376E+00    1.372E+00    1.368E+00    1.365E+00    1.361E+00    1.358E+00    1.354E+00    1.351E+00
     1.347E+00    1.343E+00    1.340E+00    1.336E+00    1.333E+00    1.329E+00    1.325E+00    1.322E+00    1.318E+00    1.315E+00
     1.311E+00    1.308E+00    1.304E+00    1.300E+00    1.297E+00    1.293E+00    1.290E+00    1.286E+00    1.282E+00    1.279E+00
     1.275E+00    1.272E+00    1.268E+00    1.265E+00    1.261E+00    1.257E+00    1.254E+00    1.250E+00    1.247E+00    1.243E+00
     1.239E+00    1.236E+00    1.232E+00    1.229E+00    1.225E+00    1.222E+00    1.218E+00    1.214E+00    1.211E+00    1.207E+00
     1.204E+00    1.200E+00    1.196E+00    1.193E+00    1.189E+00    1.186E+00    1.182E+00    1.179E+00    1.175E+00    1.171E+00
     1.168E+00    1.164E+00    1.161E+00    1.157E+00    1.153E+00    1.150E+00    1.146E+00    1.143E+00    1.139E+00    1.136E+00
     1.132E+00    1.128E+00    1.125E+00    1.121E+00    1.118E+00    1.114E+00    1.110E+00    1.107E+00    1.103E+00    1.100E+00
     1.096E+00    1.093E+00    1.089E+00    1.085E+00    1.082E+00    1.078E+00    1.075E+00    1.071E+00    1.067E+00    1.064E+00
     1.060E+00    1.057E+00    1.053E+00    1.050E+00    1.046E+00    1.042E+00    1.039E+00    1.035E+00    1.032E+00    1.028E+00
     1.024E+00    1.021E+00    1.017E+00    1.014E+00    1.010E+00    1.007E+00    1.003E+00    9.994E-01    9.958E-01    9.922E-01
     9.887E-01    9.851E-01    9.815E-01    9.779E-01    9.743E-01    9.707E-01    9.672E-01    9.636E-01    9.600E-01    9.564E-01
     9.528E-01    9.493E-01    9.457E-01    9.421E-01    9.385E-01    9.349E-01    9.313E-01    9.278E-01    9.242E-01    9.206E-01
     9.170E-01    9.134E-01    9.099E-01    9.063E-01    9.027E-01    8.991E-01    8.955E-01    8.920E-01    8.884E-01    8.848E-01
     8.812E-01    8.776E-01    8.740E-01    8.705E-01    8.669E-01    8.633E-01    8.597E-01    8.561E-01    8.526E-01    8.490E-01
     8.454E-01    8.418E-01    8.382E-01    8.347E-01    8.311E-01    8.275E-01    8.239E-01    8.203E-01    8.168E-01    8.132E-01
     8.096E-01    8.060E-01    8.024E-01    7.989E-01    7.953E-01    7.917E-01    7.881E-01    7.845E-01    7.810E-01    7.774E-01
     7.738E-01    7.702E-01    7.666E-01    7.630E-01    7.595E-01    7.559E-01    7.523E-01    7.487E-01    7.451E-01    7.416E-01
     7.380E-01    7.344E-01    7.308E-01    7.272E-01    7.237E-01    7.201E-01    7.165E-01    7.129E-01    7.093E-01    7.058E-01
     7.022E-01    6.986E-01    6.950E-01    6.914E-01    6.879E-01    6.843E-01    6.807E-01    6.771E-01    6.735E-01    6.700E-01
     6.664E-01    6.628E-01    6.592E-01    6.556E-01    6.521E-01    6.485E-01    6.449E-01    6.413E-01    6.377E-01    6.342E-01
     6.306E-01    6.270E-01    6.234E-01    6.198E-01    6.163E-01    6.127E-01    6.091E-01    6.055E-01    6.019E-01    5.984E-01
     5.948E-01    5.912E-01    5.876E-01    5.840E-01    5.805E-01    5.769E-01    5.733E-01    5.697E-01    5.661E-01    5.626E-01
     5.590E-01    5.554E-01    5.518E-01    5.483E-01    5.447E-01    5.411E-01    5.375E-01    5.339E-01    5.304E-01    5.268E-01
     5.232E-01    5.196E-01    5.160E-01    5.125E-01    5.089E-01    5.053E-01    5.017E-01    4.981E-01    4.946E-01    4.910E-01
     4.874E-01    4.838E-01    4.802E-01    4.767E-01    4.731E-01    4.695E-01    4.659E-01    4.623E-01    4.588E-01    4.552E-01
     4.516E-01    4.480E-01    4.444E-01    4.409E-01    4.373E-01    4.337E-01    4.301E-01    4.265E-01    4.230E-01    4.194E-01
     4.158E-01    4.122E-01    4.086E-01    4.051E-01    4.015E-01    3.979E-01    3.943E-01    3.908E-01    3.872E-01    3.836E-01
     3.800E-01    3.764E-01    3.729E-01    3.693E-01    3.657E-01    3.621E-01    3.585E-01    3.550E-01    3.514E-01    3.478E-01
     3.442E-01    3.406E-01    3.371E-01    3.335E-01    3.299E-01    3.263E-01    3.227E-01    3.192E-01
 Ala      Conc. = 8.78E+00
