 LCModel (Version 6.3-1L) Copyright: S.W. Provencher.          Ref.: Magn. Reson. Med. 30:672-679 (1993).                
 Slice#2 Row#2 Col#13  PD_05_press_1_raw_act
 36 lines in following concentration table = NCONC+1
    Conc.  %SD /Cr+PCr  Metabolite                                         
 1.93E+04   6% 199.126 Ala                                                 
   13.740  49%   0.142 Asp                                                 
   96.948 342%   1.000 Cr                                                  
    0.000 999%   0.000 PCr                                                 
    8.229  50% 8.5E-02 GABA                                                
    8.316  49% 8.6E-02 Glc                                                 
 4.12E+03  16%  42.448 Gln                                                 
 3.67E+03  22%  37.871 Glu                                                 
   59.310  38%   0.612 GPC                                                 
    0.000 999%   0.000 PCh                                                 
   68.047 174%   0.702 GSH                                                 
 1.02E+03  27%  10.475 Ins                                                 
 1.64E+03  34%  16.943 Lac                                                 
    0.000 999%   0.000 NAA                                                 
    0.000 999%   0.000 NAAG                                                
    2.842  48% 2.9E-02 Scyllo                                              
   13.940  49%   0.144 Tau                                                 
    0.000 999%   0.000 -CrCH2                                              
   59.310  38%   0.612 GPC+PCh                                             
    0.000 999%   0.000 NAA+NAAG                                            
   96.948  52%   1.000 Cr+PCr                                              
 7.79E+03  17%  80.319 Glu+Gln                                             
 3.73E+04   4% 384.787 Lip13a                                              
 3.81E+03   8%  39.327 Lip13b                                              
 3.00E+03   6%  30.962 Lip09                                               
    0.000 999%   0.000 MM09                                                
    0.000 999%   0.000 Lip20                                               
    0.000 999%   0.000 MM20                                                
    0.000 999%   0.000 MM12                                                
 7.17E+04   3% 739.923 MM14                                                
 7.02E+03   6%  72.434 MM17                                                
 4.11E+04   4% 424.113 Lip13a+Lip13b                                       
 1.13E+05   1% 1.2E+03 MM14+Lip13a+Lip13b+MM12                             
 3.00E+03   6%  30.962 MM09+Lip09                                          
    0.000 999%   0.000 MM20+Lip20                                          
   6 lines in following misc. output table
  FWHM = 0.153 ppm    S/N =  98                                            
  Data shift = 0.084 ppm                                                   
  Ph: -94 deg      71.0 deg/ppm                                            
  alphaB,S = 3.2E+01,   1.0E+02                                            
    6 spline knots.   Ns = 9(2)                                            
  ( 7) 2 infls.   ( 1) 1 extrs.                                            
  498 points on ppm-axis = NY
      4.000000     3.992357     3.984714     3.977070     3.969427     3.961784     3.954141     3.946497     3.938854     3.931211
      3.923568     3.915925     3.908281     3.900638     3.892995     3.885352     3.877708     3.870065     3.862422     3.854779
      3.847136     3.839492     3.831849     3.824206     3.816563     3.808919     3.801276     3.793633     3.785990     3.778347
      3.770703     3.763060     3.755417     3.747774     3.740130     3.732487     3.724844     3.717201     3.709558     3.701914
      3.694271     3.686628     3.678985     3.671341     3.663698     3.656055     3.648412     3.640769     3.633125     3.625482
      3.617839     3.610196     3.602552     3.594909     3.587266     3.579623     3.571980     3.564336     3.556693     3.549050
      3.541407     3.533763     3.526120     3.518477     3.510834     3.503191     3.495547     3.487904     3.480261     3.472618
      3.464974     3.457331     3.449688     3.442045     3.434402     3.426758     3.419115     3.411472     3.403829     3.396185
      3.388542     3.380899     3.373256     3.365613     3.357969     3.350326     3.342683     3.335040     3.327396     3.319753
      3.312110     3.304467     3.296824     3.289180     3.281537     3.273894     3.266251     3.258607     3.250964     3.243321
      3.235678     3.228034     3.220391     3.212748     3.205105     3.197462     3.189818     3.182175     3.174532     3.166889
      3.159245     3.151602     3.143959     3.136316     3.128673     3.121029     3.113386     3.105743     3.098100     3.090456
      3.082813     3.075170     3.067527     3.059884     3.052240     3.044597     3.036954     3.029311     3.021667     3.014024
      3.006381     2.998738     2.991095     2.983451     2.975808     2.968165     2.960522     2.952878     2.945235     2.937592
      2.929949     2.922306     2.914662     2.907019     2.899376     2.891733     2.884089     2.876446     2.868803     2.861160
      2.853517     2.845873     2.838230     2.830587     2.822944     2.815300     2.807657     2.800014     2.792371     2.784728
      2.777084     2.769441     2.761798     2.754155     2.746511     2.738868     2.731225     2.723582     2.715939     2.708295
      2.700652     2.693009     2.685366     2.677722     2.670079     2.662436     2.654793     2.647150     2.639506     2.631863
      2.624220     2.616577     2.608933     2.601290     2.593647     2.586004     2.578361     2.570717     2.563074     2.555431
      2.547788     2.540144     2.532501     2.524858     2.517215     2.509572     2.501928     2.494285     2.486642     2.478999
      2.471355     2.463712     2.456069     2.448426     2.440783     2.433139     2.425496     2.417853     2.410210     2.402566
      2.394923     2.387280     2.379637     2.371994     2.364350     2.356707     2.349064     2.341421     2.333777     2.326134
      2.318491     2.310848     2.303205     2.295561     2.287918     2.280275     2.272632     2.264988     2.257345     2.249702
      2.242059     2.234416     2.226772     2.219129     2.211486     2.203843     2.196199     2.188556     2.180913     2.173270
      2.165627     2.157983     2.150340     2.142697     2.135054     2.127410     2.119767     2.112124     2.104481     2.096838
      2.089194     2.081551     2.073908     2.066265     2.058621     2.050978     2.043335     2.035692     2.028049     2.020405
      2.012762     2.005119     1.997476     1.989833     1.982190     1.974546     1.966903     1.959260     1.951617     1.943974
      1.936331     1.928688     1.921045     1.913402     1.905759     1.898115     1.890472     1.882829     1.875186     1.867543
      1.859900     1.852257     1.844614     1.836971     1.829327     1.821684     1.814041     1.806398     1.798755     1.791112
      1.783469     1.775826     1.768183     1.760540     1.752896     1.745253     1.737610     1.729967     1.722324     1.714681
      1.707038     1.699395     1.691752     1.684108     1.676465     1.668822     1.661179     1.653536     1.645893     1.638250
      1.630607     1.622964     1.615321     1.607677     1.600034     1.592391     1.584748     1.577105     1.569462     1.561819
      1.554176     1.546533     1.538890     1.531246     1.523603     1.515960     1.508317     1.500674     1.493031     1.485388
      1.477745     1.470102     1.462458     1.454815     1.447172     1.439529     1.431886     1.424243     1.416600     1.408957
      1.401314     1.393671     1.386027     1.378384     1.370741     1.363098     1.355455     1.347812     1.340169     1.332526
      1.324883     1.317240     1.309596     1.301953     1.294310     1.286667     1.279024     1.271381     1.263738     1.256095
      1.248452     1.240808     1.233165     1.225522     1.217879     1.210236     1.202593     1.194950     1.187307     1.179664
      1.172021     1.164377     1.156734     1.149091     1.141448     1.133805     1.126162     1.118519     1.110876     1.103233
      1.095590     1.087946     1.080303     1.072660     1.065017     1.057374     1.049731     1.042088     1.034445     1.026802
      1.019158     1.011515     1.003872     0.996229     0.988586     0.980943     0.973300     0.965657     0.958014     0.950371
      0.942727     0.935084     0.927441     0.919798     0.912155     0.904512     0.896869     0.889226     0.881583     0.873940
      0.866296     0.858653     0.851010     0.843367     0.835724     0.828081     0.820438     0.812795     0.805152     0.797508
      0.789865     0.782222     0.774579     0.766936     0.759293     0.751650     0.744007     0.736364     0.728721     0.721077
      0.713434     0.705791     0.698148     0.690505     0.682862     0.675219     0.667576     0.659933     0.652290     0.644646
      0.637003     0.629360     0.621717     0.614074     0.606431     0.598788     0.591145     0.583502     0.575858     0.568215
      0.560572     0.552929     0.545286     0.537643     0.530000     0.522357     0.514714     0.507071     0.499427     0.491784
      0.484141     0.476498     0.468855     0.461212     0.453569     0.445925     0.438282     0.430639     0.422996     0.415353
      0.407710     0.400067     0.392424     0.384780     0.377137     0.369494     0.361851     0.354208     0.346565     0.338922
      0.331278     0.323635     0.315992     0.308349     0.300706     0.293063     0.285420     0.277777     0.270133     0.262490
      0.254847     0.247204     0.239561     0.231918     0.224275     0.216631     0.208988     0.201345
 NY phased data points follow
  -8.57193E+00 -7.47084E+00 -7.45763E+00 -5.30464E+00 -7.50506E+00 -8.81247E+00 -1.03511E+01 -7.34165E+00 -8.41039E+00 -6.96553E+00
  -9.54144E+00 -1.16370E+01 -8.83334E+00 -9.77184E+00 -9.63308E+00 -1.04105E+01 -1.10279E+01 -1.26900E+01 -9.52481E+00 -1.31874E+01
  -1.21450E+01 -1.15067E+01 -1.33223E+01 -1.18422E+01 -1.24876E+01 -1.13477E+01 -1.10171E+01 -1.46432E+01 -1.37209E+01 -1.31464E+01
  -1.17705E+01 -1.23304E+01 -1.52100E+01 -1.61610E+01 -1.27562E+01 -1.37791E+01 -1.47201E+01 -1.53905E+01 -1.56236E+01 -1.50673E+01
  -1.76139E+01 -1.63742E+01 -1.53317E+01 -1.57392E+01 -1.71751E+01 -1.80800E+01 -1.77654E+01 -1.75956E+01 -1.75512E+01 -1.62655E+01
  -1.75803E+01 -1.58399E+01 -1.72881E+01 -1.92876E+01 -1.83830E+01 -1.90192E+01 -1.83183E+01 -1.88939E+01 -1.90971E+01 -2.14527E+01
  -1.97491E+01 -1.95217E+01 -1.85894E+01 -1.93766E+01 -1.80080E+01 -2.30657E+01 -2.20870E+01 -2.37296E+01 -2.05896E+01 -2.26470E+01
  -2.18403E+01 -2.31051E+01 -2.38613E+01 -2.24187E+01 -2.22274E+01 -2.32245E+01 -2.35476E+01 -2.27242E+01 -2.57701E+01 -2.37426E+01
  -2.22701E+01 -2.44946E+01 -2.41366E+01 -2.55609E+01 -2.48801E+01 -2.74786E+01 -2.52169E+01 -2.58571E+01 -2.59076E+01 -2.55115E+01
  -2.56950E+01 -2.74172E+01 -2.81031E+01 -2.76154E+01 -2.71366E+01 -2.85392E+01 -2.80840E+01 -2.68880E+01 -2.78714E+01 -2.76273E+01
  -2.75791E+01 -2.87105E+01 -2.89402E+01 -2.95773E+01 -3.07634E+01 -3.07595E+01 -2.82312E+01 -3.03390E+01 -3.12604E+01 -3.04587E+01
  -3.18318E+01 -3.05736E+01 -2.94467E+01 -2.91267E+01 -3.07575E+01 -3.24740E+01 -3.25933E+01 -3.18356E+01 -3.18399E+01 -3.17095E+01
  -3.40428E+01 -3.10382E+01 -3.29746E+01 -3.36708E+01 -3.14071E+01 -3.44006E+01 -3.34968E+01 -3.34305E+01 -3.41750E+01 -3.39899E+01
  -3.37316E+01 -3.49568E+01 -3.53880E+01 -3.43567E+01 -3.49540E+01 -3.52112E+01 -3.36683E+01 -3.57779E+01 -3.57736E+01 -3.61074E+01
  -3.53047E+01 -3.74958E+01 -3.62250E+01 -3.70766E+01 -3.84161E+01 -3.53135E+01 -3.80471E+01 -3.63595E+01 -3.64514E+01 -3.63809E+01
  -3.56434E+01 -3.70550E+01 -3.83341E+01 -3.79121E+01 -3.91319E+01 -3.80678E+01 -3.97780E+01 -3.92235E+01 -3.84967E+01 -3.58850E+01
  -3.95646E+01 -3.91159E+01 -3.85802E+01 -4.04092E+01 -4.07558E+01 -3.95043E+01 -3.97215E+01 -4.09674E+01 -4.01412E+01 -4.04774E+01
  -4.05764E+01 -3.98003E+01 -3.96552E+01 -4.00761E+01 -4.18379E+01 -4.17896E+01 -4.01801E+01 -3.92856E+01 -4.25347E+01 -4.12457E+01
  -4.39552E+01 -4.08657E+01 -4.27058E+01 -4.20385E+01 -4.36350E+01 -4.14036E+01 -4.32504E+01 -4.29391E+01 -4.38749E+01 -4.21113E+01
  -4.16945E+01 -4.44501E+01 -4.46767E+01 -4.40111E+01 -4.32562E+01 -4.34835E+01 -4.47758E+01 -4.42897E+01 -4.42597E+01 -4.12429E+01
  -4.45670E+01 -4.37134E+01 -4.47615E+01 -4.49169E+01 -4.21202E+01 -4.24443E+01 -4.37099E+01 -4.41401E+01 -4.42812E+01 -4.38768E+01
  -4.41749E+01 -4.53119E+01 -4.43254E+01 -4.10304E+01 -4.19673E+01 -4.31674E+01 -4.38044E+01 -4.27679E+01 -4.43522E+01 -4.27744E+01
  -4.14653E+01 -4.51084E+01 -4.52744E+01 -4.37928E+01 -4.27626E+01 -4.41166E+01 -4.25477E+01 -4.11689E+01 -4.21056E+01 -4.23572E+01
  -4.06204E+01 -4.03196E+01 -4.30469E+01 -4.02570E+01 -4.28931E+01 -4.26122E+01 -4.24489E+01 -4.19734E+01 -4.40753E+01 -4.27192E+01
  -4.33047E+01 -4.02602E+01 -4.39076E+01 -4.33183E+01 -4.25369E+01 -4.32801E+01 -4.21039E+01 -4.44826E+01 -4.39304E+01 -4.33874E+01
  -4.30686E+01 -4.09742E+01 -4.20109E+01 -4.24431E+01 -4.16593E+01 -4.02032E+01 -4.08295E+01 -4.28481E+01 -4.00671E+01 -4.22059E+01
  -4.04358E+01 -4.04616E+01 -4.21124E+01 -3.88208E+01 -4.01551E+01 -3.77571E+01 -3.79468E+01 -3.88133E+01 -3.62364E+01 -3.55765E+01
  -3.64801E+01 -3.41237E+01 -3.25864E+01 -3.30257E+01 -3.08060E+01 -3.02289E+01 -2.82986E+01 -2.80865E+01 -2.57379E+01 -2.23796E+01
  -2.46909E+01 -2.39213E+01 -1.94520E+01 -1.86856E+01 -1.91091E+01 -1.54619E+01 -1.63068E+01 -1.26472E+01 -9.84224E+00 -9.22576E+00
  -5.52512E+00 -4.01412E+00 -2.98642E+00 -1.15392E+00  2.37772E+00  4.58031E+00  9.11582E+00  1.04596E+01  1.44601E+01  1.78294E+01
   2.00424E+01  2.47911E+01  2.51744E+01  3.27493E+01  3.54854E+01  4.30518E+01  4.85998E+01  5.43692E+01  5.89424E+01  6.41073E+01
   7.18560E+01  7.99721E+01  8.74135E+01  9.36396E+01  1.02458E+02  1.09873E+02  1.19706E+02  1.28197E+02  1.38229E+02  1.50483E+02
   1.58875E+02  1.70447E+02  1.78135E+02  1.90161E+02  2.01413E+02  2.11999E+02  2.23974E+02  2.33173E+02  2.45828E+02  2.59025E+02
   2.66452E+02  2.77819E+02  2.88187E+02  2.98525E+02  3.10373E+02  3.12939E+02  3.21685E+02  3.27513E+02  3.32766E+02  3.39222E+02
   3.40484E+02  3.42934E+02  3.45231E+02  3.46986E+02  3.47793E+02  3.46434E+02  3.44869E+02  3.41340E+02  3.34548E+02  3.31183E+02
   3.25717E+02  3.15740E+02  3.04326E+02  2.93761E+02  2.76987E+02  2.64473E+02  2.47172E+02  2.30263E+02  2.15667E+02  1.98224E+02
   1.82964E+02  1.68020E+02  1.53351E+02  1.41006E+02  1.29059E+02  1.18012E+02  1.06094E+02  9.68762E+01  8.61274E+01  7.89905E+01
   7.00607E+01  6.17990E+01  5.46232E+01  4.63778E+01  4.01138E+01  3.59412E+01  3.01140E+01  2.52583E+01  2.11382E+01  1.68342E+01
   1.05621E+01  8.81935E+00  3.50896E+00  2.45097E+00  7.15524E-01 -2.17371E+00 -5.85380E+00 -6.73441E+00 -9.46906E+00 -9.95400E+00
  -1.28787E+01 -1.22803E+01 -1.69077E+01 -1.66219E+01 -1.92037E+01 -1.93879E+01 -2.14201E+01 -2.21611E+01 -2.11099E+01 -2.14070E+01
  -2.27306E+01 -2.25600E+01 -2.38304E+01 -2.62344E+01 -2.62934E+01 -2.72325E+01 -2.80267E+01 -2.87938E+01 -2.96367E+01 -3.04431E+01
  -3.07510E+01 -3.22012E+01 -3.31644E+01 -3.39035E+01 -3.43769E+01 -3.70043E+01 -3.61381E+01 -3.79620E+01 -3.79968E+01 -3.80927E+01
  -3.77216E+01 -3.95811E+01 -4.03979E+01 -4.14806E+01 -4.52164E+01 -4.38846E+01 -4.56883E+01 -4.58644E+01 -4.55797E+01 -4.86660E+01
  -4.99881E+01 -4.69818E+01 -5.01769E+01 -5.05092E+01 -4.92624E+01 -5.09310E+01 -5.06497E+01 -5.37978E+01 -5.25123E+01 -5.18403E+01
  -5.43041E+01 -5.40752E+01 -5.74948E+01 -5.63064E+01 -5.54460E+01 -5.84789E+01 -5.74088E+01 -5.99218E+01 -5.93335E+01 -5.98256E+01
  -5.82054E+01 -6.07860E+01 -5.86589E+01 -6.13833E+01 -5.98347E+01 -6.18323E+01 -6.29426E+01 -6.04223E+01 -6.33452E+01 -6.24768E+01
  -6.24357E+01 -6.15729E+01 -6.35490E+01 -6.38992E+01 -6.30279E+01 -6.36425E+01 -6.20725E+01 -6.61854E+01 -6.24881E+01 -6.44222E+01
  -6.46024E+01 -6.41177E+01 -6.28542E+01 -6.53503E+01 -6.56268E+01 -6.50949E+01 -6.16687E+01 -6.29309E+01 -6.44847E+01 -6.23654E+01
  -6.39812E+01 -6.21444E+01 -6.25384E+01 -6.34514E+01 -6.28501E+01 -6.18894E+01 -6.15636E+01 -6.05942E+01 -6.42717E+01 -5.92950E+01
  -6.10234E+01 -6.03118E+01 -6.19798E+01 -5.85603E+01 -6.11772E+01 -6.05813E+01 -6.17556E+01 -5.92984E+01
 NY points of the fit to the data follow
  -8.75339E+00 -8.47176E+00 -9.39822E+00 -9.11965E+00 -9.86129E+00 -9.47115E+00 -9.97856E+00 -9.06554E+00 -1.00564E+01 -9.27650E+00
  -1.07481E+01 -9.86193E+00 -1.14393E+01 -1.01128E+01 -1.20815E+01 -1.00303E+01 -1.21022E+01 -9.83746E+00 -1.23329E+01 -1.03594E+01
  -1.31187E+01 -1.07200E+01 -1.34792E+01 -1.13356E+01 -1.40102E+01 -1.22414E+01 -1.43479E+01 -1.28980E+01 -1.46386E+01 -1.37593E+01
  -1.45658E+01 -1.41736E+01 -1.44061E+01 -1.49972E+01 -1.46267E+01 -1.57399E+01 -1.45404E+01 -1.61308E+01 -1.42267E+01 -1.60416E+01
  -1.38187E+01 -1.57333E+01 -1.33853E+01 -1.54759E+01 -1.33822E+01 -1.55004E+01 -1.35522E+01 -1.52694E+01 -1.41625E+01 -1.61517E+01
  -1.56322E+01 -1.74048E+01 -1.72195E+01 -1.87402E+01 -1.86483E+01 -1.93546E+01 -1.89636E+01 -1.94204E+01 -1.91821E+01 -1.96555E+01
  -1.95751E+01 -1.99373E+01 -2.00690E+01 -2.05556E+01 -2.06813E+01 -2.11445E+01 -2.12326E+01 -2.16762E+01 -2.17351E+01 -2.21421E+01
  -2.21665E+01 -2.25953E+01 -2.26663E+01 -2.31185E+01 -2.32147E+01 -2.36832E+01 -2.38106E+01 -2.42924E+01 -2.44297E+01 -2.49207E+01
  -2.50872E+01 -2.55665E+01 -2.57345E+01 -2.61972E+01 -2.63342E+01 -2.67213E+01 -2.68765E+01 -2.72115E+01 -2.73860E+01 -2.76551E+01
  -2.78194E+01 -2.79636E+01 -2.81370E+01 -2.81651E+01 -2.83592E+01 -2.82837E+01 -2.85309E+01 -2.83752E+01 -2.86679E+01 -2.84289E+01
  -2.87901E+01 -2.85126E+01 -2.89533E+01 -2.86878E+01 -2.91839E+01 -2.89400E+01 -2.94906E+01 -2.93111E+01 -2.98607E+01 -2.97128E+01
  -3.02602E+01 -3.01966E+01 -3.07163E+01 -3.07346E+01 -3.11875E+01 -3.12352E+01 -3.16012E+01 -3.16673E+01 -3.19598E+01 -3.20411E+01
  -3.22816E+01 -3.23670E+01 -3.25687E+01 -3.26502E+01 -3.27952E+01 -3.28317E+01 -3.29876E+01 -3.30569E+01 -3.32245E+01 -3.33194E+01
  -3.34977E+01 -3.36420E+01 -3.38290E+01 -3.40090E+01 -3.42029E+01 -3.44251E+01 -3.46240E+01 -3.48860E+01 -3.50837E+01 -3.53649E+01
  -3.55529E+01 -3.58338E+01 -3.60105E+01 -3.62833E+01 -3.64455E+01 -3.66939E+01 -3.68427E+01 -3.70696E+01 -3.72002E+01 -3.73750E+01
  -3.74994E+01 -3.76649E+01 -3.77948E+01 -3.79539E+01 -3.80881E+01 -3.82365E+01 -3.83730E+01 -3.85171E+01 -3.86579E+01 -3.87973E+01
  -3.89401E+01 -3.90726E+01 -3.92116E+01 -3.93365E+01 -3.94685E+01 -3.95887E+01 -3.97150E+01 -3.98329E+01 -3.99552E+01 -4.00687E+01
  -4.01839E+01 -4.02951E+01 -4.04005E+01 -4.05082E+01 -4.06035E+01 -4.07214E+01 -4.08595E+01 -4.09860E+01 -4.12166E+01 -4.13630E+01
  -4.16430E+01 -4.17886E+01 -4.21145E+01 -4.21400E+01 -4.24551E+01 -4.23801E+01 -4.27431E+01 -4.24905E+01 -4.29121E+01 -4.25528E+01
  -4.30298E+01 -4.27246E+01 -4.35965E+01 -4.30268E+01 -4.39391E+01 -4.31378E+01 -4.40662E+01 -4.30595E+01 -4.40332E+01 -4.30011E+01
  -4.40374E+01 -4.29993E+01 -4.40781E+01 -4.30508E+01 -4.40304E+01 -4.32417E+01 -4.40147E+01 -4.33248E+01 -4.37942E+01 -4.33443E+01
  -4.35898E+01 -4.34642E+01 -4.34809E+01 -4.36338E+01 -4.32946E+01 -4.37407E+01 -4.32031E+01 -4.37733E+01 -4.31573E+01 -4.37118E+01
  -4.28797E+01 -4.32509E+01 -4.22633E+01 -4.24170E+01 -4.17729E+01 -4.19058E+01 -4.15413E+01 -4.14906E+01 -4.15766E+01 -4.12619E+01
  -4.15513E+01 -4.12963E+01 -4.20316E+01 -4.15838E+01 -4.22514E+01 -4.17559E+01 -4.22428E+01 -4.17875E+01 -4.20615E+01 -4.19873E+01
  -4.21514E+01 -4.24944E+01 -4.24669E+01 -4.30496E+01 -4.29297E+01 -4.37062E+01 -4.31858E+01 -4.39423E+01 -4.31945E+01 -4.39129E+01
  -4.29915E+01 -4.35857E+01 -4.25681E+01 -4.30017E+01 -4.20111E+01 -4.21731E+01 -4.11957E+01 -4.11798E+01 -4.03894E+01 -4.00812E+01
  -3.93629E+01 -3.88823E+01 -3.81994E+01 -3.75555E+01 -3.70456E+01 -3.65198E+01 -3.60067E+01 -3.55190E+01 -3.50363E+01 -3.45131E+01
  -3.39645E+01 -3.34109E+01 -3.28108E+01 -3.21476E+01 -3.14359E+01 -3.06140E+01 -2.97754E+01 -2.88081E+01 -2.78383E+01 -2.67340E+01
  -2.56292E+01 -2.43548E+01 -2.30090E+01 -2.15038E+01 -1.99041E+01 -1.81446E+01 -1.62646E+01 -1.42698E+01 -1.21189E+01 -9.85753E+00
  -7.44803E+00 -4.93269E+00 -2.28381E+00  4.52639E-01  3.30050E+00  6.23853E+00  9.26615E+00  1.23648E+01  1.55348E+01  1.87749E+01
   2.20918E+01  2.55038E+01  2.90314E+01  3.27284E+01  3.66506E+01  4.08988E+01  4.56130E+01  5.10590E+01  5.77880E+01  6.59450E+01
   7.21658E+01  8.03705E+01  8.63084E+01  9.51049E+01  1.01614E+02  1.11779E+02  1.17177E+02  1.30101E+02  1.36680E+02  1.50764E+02
   1.57153E+02  1.70824E+02  1.76954E+02  1.92071E+02  1.98883E+02  2.14133E+02  2.21516E+02  2.35978E+02  2.45034E+02  2.58425E+02
   2.67240E+02  2.78501E+02  2.88615E+02  2.98186E+02  3.08499E+02  3.14093E+02  3.23355E+02  3.26314E+02  3.35487E+02  3.35505E+02
   3.43239E+02  3.41709E+02  3.48012E+02  3.44813E+02  3.48851E+02  3.44186E+02  3.44673E+02  3.38762E+02  3.36659E+02  3.31363E+02
   3.24200E+02  3.15979E+02  3.04171E+02  2.93801E+02  2.78048E+02  2.64637E+02  2.45333E+02  2.32232E+02  2.13577E+02  2.00191E+02
   1.82382E+02  1.69564E+02  1.53477E+02  1.41828E+02  1.27960E+02  1.17632E+02  1.05876E+02  9.66898E+01  8.68687E+01  7.87618E+01
   7.01640E+01  6.26954E+01  5.51939E+01  4.84242E+01  4.18853E+01  3.57312E+01  3.01323E+01  2.49807E+01  2.02246E+01  1.58336E+01
   1.17844E+01  8.05688E+00  4.63247E+00  1.49369E+00 -1.37618E+00 -3.99326E+00 -6.37311E+00 -8.53088E+00 -1.04814E+01 -1.22392E+01
  -1.38186E+01 -1.52338E+01 -1.64993E+01 -1.76294E+01 -1.86388E+01 -1.95425E+01 -2.03556E+01 -2.10934E+01 -2.17712E+01 -2.24044E+01
  -2.30079E+01 -2.35963E+01 -2.41831E+01 -2.47808E+01 -2.54007E+01 -2.60523E+01 -2.67434E+01 -2.74796E+01 -2.82647E+01 -2.91002E+01
  -2.99855E+01 -3.09184E+01 -3.18946E+01 -3.29086E+01 -3.39538E+01 -3.50225E+01 -3.61068E+01 -3.71985E+01 -3.82896E+01 -3.93723E+01
  -4.04396E+01 -4.14851E+01 -4.25036E+01 -4.34905E+01 -4.44423E+01 -4.53565E+01 -4.62312E+01 -4.70657E+01 -4.78598E+01 -4.86138E+01
  -4.93286E+01 -5.00056E+01 -5.06462E+01 -5.12522E+01 -5.18255E+01 -5.23681E+01 -5.28820E+01 -5.33689E+01 -5.38309E+01 -5.42697E+01
  -5.46869E+01 -5.50842E+01 -5.54631E+01 -5.58248E+01 -5.61707E+01 -5.65018E+01 -5.68193E+01 -5.71242E+01 -5.74172E+01 -5.76992E+01
  -5.79710E+01 -5.82331E+01 -5.84864E+01 -5.87312E+01 -5.89681E+01 -5.91976E+01 -5.94201E+01 -5.96361E+01 -5.98458E+01 -6.00497E+01
  -6.02480E+01 -6.04411E+01 -6.06291E+01 -6.08125E+01 -6.09913E+01 -6.11658E+01 -6.13362E+01 -6.15028E+01 -6.16656E+01 -6.18249E+01
  -6.19807E+01 -6.21333E+01 -6.22828E+01 -6.24293E+01 -6.25729E+01 -6.27137E+01 -6.28519E+01 -6.29876E+01 -6.31207E+01 -6.32516E+01
  -6.33801E+01 -6.35064E+01 -6.36306E+01 -6.37527E+01 -6.38728E+01 -6.39909E+01 -6.41072E+01 -6.42216E+01 -6.43343E+01 -6.44451E+01
  -6.45543E+01 -6.46617E+01 -6.47675E+01 -6.48716E+01 -6.49739E+01 -6.50745E+01 -6.51734E+01 -6.52703E+01
 NY background values follow
    -1.376E+01   -1.394E+01   -1.411E+01   -1.429E+01   -1.446E+01   -1.464E+01   -1.481E+01   -1.499E+01   -1.516E+01   -1.534E+01
    -1.551E+01   -1.569E+01   -1.586E+01   -1.604E+01   -1.621E+01   -1.639E+01   -1.656E+01   -1.674E+01   -1.691E+01   -1.709E+01
    -1.726E+01   -1.744E+01   -1.761E+01   -1.779E+01   -1.796E+01   -1.814E+01   -1.831E+01   -1.849E+01   -1.866E+01   -1.884E+01
    -1.901E+01   -1.919E+01   -1.936E+01   -1.954E+01   -1.971E+01   -1.989E+01   -2.006E+01   -2.023E+01   -2.041E+01   -2.058E+01
    -2.076E+01   -2.093E+01   -2.111E+01   -2.128E+01   -2.145E+01   -2.163E+01   -2.180E+01   -2.197E+01   -2.215E+01   -2.232E+01
    -2.249E+01   -2.267E+01   -2.284E+01   -2.301E+01   -2.318E+01   -2.336E+01   -2.353E+01   -2.370E+01   -2.387E+01   -2.405E+01
    -2.422E+01   -2.439E+01   -2.456E+01   -2.473E+01   -2.490E+01   -2.508E+01   -2.525E+01   -2.542E+01   -2.559E+01   -2.576E+01
    -2.593E+01   -2.610E+01   -2.627E+01   -2.644E+01   -2.661E+01   -2.678E+01   -2.695E+01   -2.712E+01   -2.729E+01   -2.746E+01
    -2.762E+01   -2.779E+01   -2.796E+01   -2.813E+01   -2.830E+01   -2.846E+01   -2.863E+01   -2.880E+01   -2.897E+01   -2.913E+01
    -2.930E+01   -2.947E+01   -2.963E+01   -2.980E+01   -2.996E+01   -3.013E+01   -3.029E+01   -3.046E+01   -3.062E+01   -3.079E+01
    -3.095E+01   -3.112E+01   -3.128E+01   -3.144E+01   -3.161E+01   -3.177E+01   -3.193E+01   -3.209E+01   -3.226E+01   -3.242E+01
    -3.258E+01   -3.274E+01   -3.290E+01   -3.306E+01   -3.322E+01   -3.338E+01   -3.354E+01   -3.370E+01   -3.386E+01   -3.402E+01
    -3.418E+01   -3.434E+01   -3.449E+01   -3.465E+01   -3.481E+01   -3.497E+01   -3.512E+01   -3.528E+01   -3.544E+01   -3.559E+01
    -3.575E+01   -3.590E+01   -3.606E+01   -3.621E+01   -3.636E+01   -3.652E+01   -3.667E+01   -3.682E+01   -3.698E+01   -3.713E+01
    -3.728E+01   -3.743E+01   -3.758E+01   -3.773E+01   -3.788E+01   -3.803E+01   -3.818E+01   -3.833E+01   -3.848E+01   -3.863E+01
    -3.878E+01   -3.893E+01   -3.907E+01   -3.922E+01   -3.937E+01   -3.951E+01   -3.966E+01   -3.980E+01   -3.995E+01   -4.009E+01
    -4.024E+01   -4.038E+01   -4.052E+01   -4.067E+01   -4.081E+01   -4.095E+01   -4.109E+01   -4.123E+01   -4.137E+01   -4.151E+01
    -4.165E+01   -4.179E+01   -4.193E+01   -4.207E+01   -4.221E+01   -4.234E+01   -4.248E+01   -4.262E+01   -4.275E+01   -4.289E+01
    -4.302E+01   -4.316E+01   -4.329E+01   -4.343E+01   -4.356E+01   -4.369E+01   -4.383E+01   -4.396E+01   -4.409E+01   -4.422E+01
    -4.435E+01   -4.448E+01   -4.461E+01   -4.474E+01   -4.487E+01   -4.500E+01   -4.513E+01   -4.526E+01   -4.538E+01   -4.551E+01
    -4.564E+01   -4.576E+01   -4.589E+01   -4.602E+01   -4.614E+01   -4.627E+01   -4.639E+01   -4.651E+01   -4.664E+01   -4.676E+01
    -4.688E+01   -4.701E+01   -4.713E+01   -4.725E+01   -4.737E+01   -4.749E+01   -4.761E+01   -4.773E+01   -4.785E+01   -4.797E+01
    -4.809E+01   -4.821E+01   -4.832E+01   -4.844E+01   -4.856E+01   -4.868E+01   -4.879E+01   -4.891E+01   -4.902E+01   -4.914E+01
    -4.925E+01   -4.937E+01   -4.948E+01   -4.959E+01   -4.971E+01   -4.982E+01   -4.993E+01   -5.005E+01   -5.016E+01   -5.027E+01
    -5.038E+01   -5.049E+01   -5.060E+01   -5.071E+01   -5.082E+01   -5.093E+01   -5.104E+01   -5.114E+01   -5.125E+01   -5.136E+01
    -5.147E+01   -5.157E+01   -5.168E+01   -5.179E+01   -5.189E+01   -5.200E+01   -5.210E+01   -5.221E+01   -5.231E+01   -5.241E+01
    -5.252E+01   -5.262E+01   -5.272E+01   -5.283E+01   -5.293E+01   -5.303E+01   -5.313E+01   -5.323E+01   -5.333E+01   -5.343E+01
    -5.353E+01   -5.363E+01   -5.373E+01   -5.383E+01   -5.393E+01   -5.403E+01   -5.412E+01   -5.422E+01   -5.432E+01   -5.442E+01
    -5.451E+01   -5.461E+01   -5.470E+01   -5.480E+01   -5.489E+01   -5.499E+01   -5.508E+01   -5.518E+01   -5.527E+01   -5.536E+01
    -5.546E+01   -5.555E+01   -5.564E+01   -5.573E+01   -5.582E+01   -5.591E+01   -5.601E+01   -5.610E+01   -5.619E+01   -5.628E+01
    -5.637E+01   -5.645E+01   -5.654E+01   -5.663E+01   -5.672E+01   -5.681E+01   -5.690E+01   -5.698E+01   -5.707E+01   -5.716E+01
    -5.724E+01   -5.733E+01   -5.741E+01   -5.750E+01   -5.758E+01   -5.767E+01   -5.775E+01   -5.784E+01   -5.792E+01   -5.800E+01
    -5.809E+01   -5.817E+01   -5.825E+01   -5.833E+01   -5.842E+01   -5.850E+01   -5.858E+01   -5.866E+01   -5.874E+01   -5.882E+01
    -5.890E+01   -5.898E+01   -5.906E+01   -5.914E+01   -5.922E+01   -5.930E+01   -5.937E+01   -5.945E+01   -5.953E+01   -5.961E+01
    -5.968E+01   -5.976E+01   -5.984E+01   -5.991E+01   -5.999E+01   -6.006E+01   -6.014E+01   -6.021E+01   -6.029E+01   -6.036E+01
    -6.044E+01   -6.051E+01   -6.058E+01   -6.066E+01   -6.073E+01   -6.080E+01   -6.088E+01   -6.095E+01   -6.102E+01   -6.109E+01
    -6.116E+01   -6.123E+01   -6.130E+01   -6.137E+01   -6.144E+01   -6.151E+01   -6.158E+01   -6.165E+01   -6.172E+01   -6.179E+01
    -6.186E+01   -6.193E+01   -6.200E+01   -6.207E+01   -6.213E+01   -6.220E+01   -6.227E+01   -6.233E+01   -6.240E+01   -6.247E+01
    -6.253E+01   -6.260E+01   -6.267E+01   -6.273E+01   -6.280E+01   -6.286E+01   -6.293E+01   -6.299E+01   -6.306E+01   -6.312E+01
    -6.318E+01   -6.325E+01   -6.331E+01   -6.337E+01   -6.344E+01   -6.350E+01   -6.356E+01   -6.363E+01   -6.369E+01   -6.375E+01
    -6.381E+01   -6.387E+01   -6.393E+01   -6.400E+01   -6.406E+01   -6.412E+01   -6.418E+01   -6.424E+01   -6.430E+01   -6.436E+01
    -6.442E+01   -6.448E+01   -6.454E+01   -6.460E+01   -6.466E+01   -6.471E+01   -6.477E+01   -6.483E+01   -6.489E+01   -6.495E+01
    -6.501E+01   -6.506E+01   -6.512E+01   -6.518E+01   -6.523E+01   -6.529E+01   -6.535E+01   -6.541E+01   -6.546E+01   -6.552E+01
    -6.557E+01   -6.563E+01   -6.569E+01   -6.574E+01   -6.580E+01   -6.585E+01   -6.591E+01   -6.596E+01   -6.602E+01   -6.607E+01
    -6.613E+01   -6.618E+01   -6.623E+01   -6.629E+01   -6.634E+01   -6.640E+01   -6.645E+01   -6.650E+01   -6.656E+01   -6.661E+01
    -6.666E+01   -6.672E+01   -6.677E+01   -6.682E+01   -6.687E+01   -6.693E+01   -6.698E+01   -6.703E+01   -6.708E+01   -6.713E+01
    -6.719E+01   -6.724E+01   -6.729E+01   -6.734E+01   -6.739E+01   -6.744E+01   -6.749E+01   -6.754E+01   -6.759E+01   -6.764E+01
    -6.770E+01   -6.775E+01   -6.780E+01   -6.785E+01   -6.790E+01   -6.795E+01   -6.800E+01   -6.805E+01   -6.809E+01   -6.814E+01
    -6.819E+01   -6.824E+01   -6.829E+01   -6.834E+01   -6.839E+01   -6.844E+01   -6.849E+01   -6.854E+01   -6.859E+01   -6.863E+01
    -6.868E+01   -6.873E+01   -6.878E+01   -6.883E+01   -6.888E+01   -6.892E+01   -6.897E+01   -6.902E+01
 Ala      Conc. = 1.93E+04
