 LCModel (Version 6.3-1L) Copyright: S.W. Provencher.          Ref.: Magn. Reson. Med. 30:672-679 (1993).                
 Slice#1 Row#4 Col#11  PD_05_press_1_raw_act
 36 lines in following concentration table = NCONC+1
    Conc.  %SD /Cr+PCr  Metabolite                                         
 2.60E+03  14%   3.169 Ala                                                 
    0.000 999%   0.000 Asp                                                 
    0.000 999%   0.000 Cr                                                  
  820.807   7%   1.000 PCr                                                 
  148.680  90%   0.181 GABA                                                
  129.023  99%   0.157 Glc                                                 
 4.03E+03  13%   4.909 Gln                                                 
 3.72E+03  17%   4.533 Glu                                                 
  220.313  11%   0.268 GPC                                                 
    0.000 999%   0.000 PCh                                                 
    0.000 999%   0.000 GSH                                                 
  175.312 148%   0.214 Ins                                                 
    0.000 999%   0.000 Lac                                                 
 2.07E+03   4%   2.518 NAA                                                 
    0.000 999%   0.000 NAAG                                                
  102.631  26%   0.125 Scyllo                                              
  314.147  56%   0.383 Tau                                                 
  545.886  23%   0.665 -CrCH2                                              
  220.313  11%   0.268 GPC+PCh                                             
 2.07E+03   4%   2.518 NAA+NAAG                                            
  820.807   7%   1.000 Cr+PCr                                              
 7.75E+03  13%   9.442 Glu+Gln                                             
    0.000 999%   0.000 Lip13a                                              
 2.04E-02 999% 2.5E-05 Lip13b                                              
    0.000 999%   0.000 Lip09                                               
  698.442  17%   0.851 MM09                                                
 1.54E-02 999% 1.9E-05 Lip20                                               
 1.25E+03  19%   1.520 MM20                                                
  163.127  40%   0.199 MM12                                                
 1.33E+03  14%   1.620 MM14                                                
  781.622  18%   0.952 MM17                                                
 2.04E-02 999% 2.5E-05 Lip13a+Lip13b                                       
 1.49E+03  14%   1.819 MM14+Lip13a+Lip13b+MM12                             
  698.442  17%   0.851 MM09+Lip09                                          
 1.25E+03  19%   1.520 MM20+Lip20                                          
   6 lines in following misc. output table
  FWHM = 0.122 ppm    S/N =   8                                            
  Data shift = 0.076 ppm                                                   
  Ph: -47 deg     -25.4 deg/ppm                                            
  alphaB,S = 7.3E-01,   2.2E+02                                            
   14 spline knots.   Ns = 7(2)                                            
  ( 9) 2 infls.   ( 1) 1 extrs.                                            
  498 points on ppm-axis = NY
      4.000000     3.992357     3.984714     3.977070     3.969427     3.961784     3.954141     3.946497     3.938854     3.931211
      3.923568     3.915925     3.908281     3.900638     3.892995     3.885352     3.877708     3.870065     3.862422     3.854779
      3.847136     3.839492     3.831849     3.824206     3.816563     3.808919     3.801276     3.793633     3.785990     3.778347
      3.770703     3.763060     3.755417     3.747774     3.740130     3.732487     3.724844     3.717201     3.709558     3.701914
      3.694271     3.686628     3.678985     3.671341     3.663698     3.656055     3.648412     3.640769     3.633125     3.625482
      3.617839     3.610196     3.602552     3.594909     3.587266     3.579623     3.571980     3.564336     3.556693     3.549050
      3.541407     3.533763     3.526120     3.518477     3.510834     3.503191     3.495547     3.487904     3.480261     3.472618
      3.464974     3.457331     3.449688     3.442045     3.434402     3.426758     3.419115     3.411472     3.403829     3.396185
      3.388542     3.380899     3.373256     3.365613     3.357969     3.350326     3.342683     3.335040     3.327396     3.319753
      3.312110     3.304467     3.296824     3.289180     3.281537     3.273894     3.266251     3.258607     3.250964     3.243321
      3.235678     3.228034     3.220391     3.212748     3.205105     3.197462     3.189818     3.182175     3.174532     3.166889
      3.159245     3.151602     3.143959     3.136316     3.128673     3.121029     3.113386     3.105743     3.098100     3.090456
      3.082813     3.075170     3.067527     3.059884     3.052240     3.044597     3.036954     3.029311     3.021667     3.014024
      3.006381     2.998738     2.991095     2.983451     2.975808     2.968165     2.960522     2.952878     2.945235     2.937592
      2.929949     2.922306     2.914662     2.907019     2.899376     2.891733     2.884089     2.876446     2.868803     2.861160
      2.853517     2.845873     2.838230     2.830587     2.822944     2.815300     2.807657     2.800014     2.792371     2.784728
      2.777084     2.769441     2.761798     2.754155     2.746511     2.738868     2.731225     2.723582     2.715939     2.708295
      2.700652     2.693009     2.685366     2.677722     2.670079     2.662436     2.654793     2.647150     2.639506     2.631863
      2.624220     2.616577     2.608933     2.601290     2.593647     2.586004     2.578361     2.570717     2.563074     2.555431
      2.547788     2.540144     2.532501     2.524858     2.517215     2.509572     2.501928     2.494285     2.486642     2.478999
      2.471355     2.463712     2.456069     2.448426     2.440783     2.433139     2.425496     2.417853     2.410210     2.402566
      2.394923     2.387280     2.379637     2.371994     2.364350     2.356707     2.349064     2.341421     2.333777     2.326134
      2.318491     2.310848     2.303205     2.295561     2.287918     2.280275     2.272632     2.264988     2.257345     2.249702
      2.242059     2.234416     2.226772     2.219129     2.211486     2.203843     2.196199     2.188556     2.180913     2.173270
      2.165627     2.157983     2.150340     2.142697     2.135054     2.127410     2.119767     2.112124     2.104481     2.096838
      2.089194     2.081551     2.073908     2.066265     2.058621     2.050978     2.043335     2.035692     2.028049     2.020405
      2.012762     2.005119     1.997476     1.989833     1.982190     1.974546     1.966903     1.959260     1.951617     1.943974
      1.936331     1.928688     1.921045     1.913402     1.905759     1.898115     1.890472     1.882829     1.875186     1.867543
      1.859900     1.852257     1.844614     1.836971     1.829327     1.821684     1.814041     1.806398     1.798755     1.791112
      1.783469     1.775826     1.768183     1.760540     1.752896     1.745253     1.737610     1.729967     1.722324     1.714681
      1.707038     1.699395     1.691752     1.684108     1.676465     1.668822     1.661179     1.653536     1.645893     1.638250
      1.630607     1.622964     1.615321     1.607677     1.600034     1.592391     1.584748     1.577105     1.569462     1.561819
      1.554176     1.546533     1.538890     1.531246     1.523603     1.515960     1.508317     1.500674     1.493031     1.485388
      1.477745     1.470102     1.462458     1.454815     1.447172     1.439529     1.431886     1.424243     1.416600     1.408957
      1.401314     1.393671     1.386027     1.378384     1.370741     1.363098     1.355455     1.347812     1.340169     1.332526
      1.324883     1.317240     1.309596     1.301953     1.294310     1.286667     1.279024     1.271381     1.263738     1.256095
      1.248452     1.240808     1.233165     1.225522     1.217879     1.210236     1.202593     1.194950     1.187307     1.179664
      1.172021     1.164377     1.156734     1.149091     1.141448     1.133805     1.126162     1.118519     1.110876     1.103233
      1.095590     1.087946     1.080303     1.072660     1.065017     1.057374     1.049731     1.042088     1.034445     1.026802
      1.019158     1.011515     1.003872     0.996229     0.988586     0.980943     0.973300     0.965657     0.958014     0.950371
      0.942727     0.935084     0.927441     0.919798     0.912155     0.904512     0.896869     0.889226     0.881583     0.873940
      0.866296     0.858653     0.851010     0.843367     0.835724     0.828081     0.820438     0.812795     0.805152     0.797508
      0.789865     0.782222     0.774579     0.766936     0.759293     0.751650     0.744007     0.736364     0.728721     0.721077
      0.713434     0.705791     0.698148     0.690505     0.682862     0.675219     0.667576     0.659933     0.652290     0.644646
      0.637003     0.629360     0.621717     0.614074     0.606431     0.598788     0.591145     0.583502     0.575858     0.568215
      0.560572     0.552929     0.545286     0.537643     0.530000     0.522357     0.514714     0.507071     0.499427     0.491784
      0.484141     0.476498     0.468855     0.461212     0.453569     0.445925     0.438282     0.430639     0.422996     0.415353
      0.407710     0.400067     0.392424     0.384780     0.377137     0.369494     0.361851     0.354208     0.346565     0.338922
      0.331278     0.323635     0.315992     0.308349     0.300706     0.293063     0.285420     0.277777     0.270133     0.262490
      0.254847     0.247204     0.239561     0.231918     0.224275     0.216631     0.208988     0.201345
 NY phased data points follow
   7.34339E+00  7.95822E+00  4.82289E+00  4.17332E+00  8.86087E+00  7.63360E+00  1.07325E+01  6.02971E+00  2.29347E+00  5.71582E+00
   6.01115E+00  5.36401E+00  5.61751E+00  7.34093E+00  5.88306E+00  5.61446E+00  4.48068E+00  6.07750E+00  4.05934E+00  9.13253E+00
   5.47689E+00  7.87524E+00  6.27985E+00  7.22923E+00  7.31769E+00  6.79110E+00  7.51468E+00  3.71180E+00  7.79706E+00  3.29270E+00
   8.02421E+00  6.96976E+00  6.64248E+00  6.91839E+00  9.18430E+00  6.64133E+00  5.48776E+00  5.00177E+00  5.90484E+00  6.63073E+00
   6.38110E+00  5.89557E+00  5.35867E+00  8.05718E+00  5.88315E+00  6.24775E+00  6.15343E+00  3.64578E+00  5.72973E+00  6.64204E+00
   5.14968E+00  6.61021E+00  3.92908E+00  5.07957E+00  5.11094E+00  4.62975E+00  7.00395E+00  2.75605E+00  5.27570E+00  2.09825E+00
   4.94580E+00  4.96905E+00  2.78303E+00  5.81528E+00  8.43678E-01  1.86003E+00  6.02677E+00  5.98326E+00 -7.54442E-01  3.31889E+00
   2.35618E+00  1.39537E+00  3.42430E+00  3.78412E+00  4.43541E+00  4.17907E+00  4.68839E+00  6.34374E+00  7.70372E+00  6.34910E+00
   2.94132E+00  7.54438E+00  1.85462E+00  2.17799E+00  5.44882E+00  3.83867E+00  6.45941E+00  7.30612E+00  8.86585E+00  8.97190E+00
   7.08241E+00  6.86227E+00  5.02063E+00  9.58341E+00  8.68585E+00  1.01748E+01  1.04187E+01  1.45166E+01  1.46834E+01  1.50398E+01
   1.46511E+01  1.29138E+01  1.35435E+01  1.22270E+01  7.22896E+00  1.04040E+01  1.13514E+01  9.13615E+00  9.79029E+00  7.11147E+00
   8.11482E+00  7.53616E+00  5.40302E+00  6.64023E+00  3.49292E+00  8.02279E+00  7.13170E+00  5.58931E+00  8.28458E+00  1.34020E+01
   1.18474E+01  2.15312E+01  1.15935E+01  1.47190E+01  1.77339E+01  1.44624E+01  1.38887E+01  1.71401E+01  1.61829E+01  1.48064E+01
   1.06041E+01  8.57450E+00  9.86806E+00  8.68131E+00  7.62813E+00  6.13107E+00  6.99333E+00  3.75881E+00  5.18438E+00  7.19866E+00
   5.29438E+00  4.92269E+00  2.56656E+00  3.13441E+00  3.06264E+00  4.95444E+00  3.36265E+00  3.73932E-01  3.50543E+00  6.85251E+00
   3.34228E+00  2.63813E+00  4.46798E+00  5.81430E+00  3.41175E+00  3.13374E+00  4.20193E+00  5.29827E+00  2.24925E+00  3.45244E+00
   3.83846E+00  1.00432E+00 -9.26550E-01 -2.29819E+00 -1.53460E+00  1.25948E+00 -3.00313E+00  2.03828E-01 -2.90402E+00 -3.24243E+00
  -2.65020E+00 -4.13622E+00 -3.90726E+00 -3.80253E+00 -4.85822E+00 -5.51526E+00 -5.98370E+00 -1.18033E+00 -5.50020E+00 -1.79805E+00
  -2.64157E+00 -6.10171E+00 -2.71200E+00 -2.81971E+00 -2.07648E+00 -4.44104E-02 -4.35267E+00  2.02139E-01  7.53866E-01  4.65521E-02
   7.69561E-01 -2.96905E+00  1.31739E+00 -5.09661E-01  4.27843E-02  5.77733E-01 -2.18678E+00 -2.17799E+00 -1.38642E+00  1.86717E+00
   8.07598E-01  2.02802E+00  5.39113E-01 -8.02435E-01  8.71484E-01  2.08679E+00  1.39787E-01  2.36313E+00  6.62224E-01  1.10712E+00
   3.49456E+00  3.90028E+00  4.25637E+00  4.55628E+00  2.89684E+00  3.28380E+00  3.21673E+00  3.69991E+00  3.06890E+00  3.09645E+00
   3.64615E+00  4.07564E+00  5.74511E+00  2.73465E+00  4.58565E+00  3.90944E+00  5.72470E+00  1.39865E+00  4.87478E+00  5.39524E+00
   3.48557E+00  3.21193E+00  6.60216E+00  7.88789E+00  5.30380E+00  6.79897E+00  7.16225E+00  6.48544E+00  4.90250E+00  3.18908E+00
   8.11349E+00  4.90083E+00  6.67340E+00  5.50816E+00  9.09670E+00  1.08249E+01  1.03352E+01  1.11075E+01  1.37205E+01  1.31272E+01
   1.52674E+01  1.98442E+01  1.95292E+01  2.49030E+01  2.96347E+01  3.29224E+01  3.72836E+01  4.01409E+01  4.32711E+01  4.06328E+01
   4.16539E+01  3.94105E+01  3.81194E+01  3.44125E+01  3.53741E+01  2.79801E+01  2.52191E+01  2.47080E+01  2.15408E+01  1.51954E+01
   1.02707E+01  1.18650E+01  1.06346E+01  1.26974E+01  8.79205E+00  9.06567E+00  9.88469E+00  8.25467E+00  8.93803E+00  7.57908E+00
   4.73992E+00  9.10440E+00  9.09377E+00  7.50360E+00  9.14559E+00  5.96632E+00  3.85172E+00  4.93051E+00  5.22143E+00  9.39818E+00
   7.71564E+00  9.09171E+00  7.63056E+00  5.93330E+00  6.85857E+00  6.29129E+00  6.51766E+00  8.97824E+00  5.08353E+00  6.11504E+00
   8.13414E+00  1.07555E+01  9.62812E+00  7.18569E+00  1.27618E+01  1.11849E+01  1.15625E+01  1.30892E+01  1.10259E+01  7.78496E+00
   1.26020E+01  1.18372E+01  1.26886E+01  1.36773E+01  1.21476E+01  1.27045E+01  1.38155E+01  1.05287E+01  1.27444E+01  9.39913E+00
   1.46451E+01  9.92199E+00  9.90681E+00  1.23174E+01  1.33497E+01  7.71480E+00  1.09477E+01  8.54527E+00  8.83616E+00  8.82815E+00
   1.22030E+01  1.05240E+01  1.31815E+01  1.22521E+01  1.25555E+01  1.25047E+01  1.25096E+01  9.83976E+00  1.07738E+01  1.11735E+01
   1.12830E+01  1.25060E+01  1.38465E+01  9.85062E+00  1.61364E+01  1.48821E+01  1.43454E+01  1.53592E+01  1.27326E+01  1.07541E+01
   9.53902E+00  9.31496E+00  1.09468E+01  6.90273E+00  3.48614E+00  5.16506E+00  1.52043E+00  3.15887E+00  5.79154E-01 -1.74670E+00
   1.30822E+00 -1.62354E+00  7.57329E-01 -2.62533E-01  1.59856E-02 -1.84765E+00 -7.82162E-02 -1.89094E-01  7.23712E-01 -1.30509E+00
   1.26911E+00  6.83101E-01  3.54654E+00  4.14853E-02  2.99722E+00 -1.29917E+00  2.53053E+00  3.14967E+00 -1.33293E+00  9.62497E-01
  -6.04110E-01 -1.08273E+00 -1.74363E+00 -3.70032E-01  3.34225E-01  1.08683E+00 -1.64523E+00  2.98039E+00 -1.32541E+00 -1.67981E+00
  -6.29927E-01  2.19179E+00 -1.65039E+00 -3.20986E+00 -1.35784E+00  1.89548E+00 -3.24802E-01  5.18177E+00  2.28071E+00  2.06502E+00
   2.87019E+00  5.58625E+00  4.19017E+00  4.05088E+00  5.49387E+00  7.07069E+00  3.00165E+00  6.34867E+00  3.06129E+00  5.00772E+00
   5.75889E+00  3.57080E+00  2.00088E+00  6.21290E+00  2.92713E+00  3.94874E+00 -2.22657E-01  1.20725E+00  4.09066E+00 -6.39859E-01
   2.58120E+00  4.37586E+00  5.12171E+00  2.00362E+00  2.03131E+00  3.79847E+00  7.85987E-01 -6.18546E-01  1.59914E+00  1.30592E+00
   4.52951E-02 -1.98984E+00  1.79060E+00  7.45491E-01 -4.75842E+00  7.68983E-01 -4.08451E-01 -4.56914E-02 -1.06946E+00 -2.69636E+00
  -4.38393E-01 -1.76819E+00  9.66452E-02  1.75726E+00  8.96408E-01 -7.43559E-01 -4.44470E+00 -3.51647E-01 -3.03727E+00 -2.04204E+00
  -2.21250E-01 -3.79153E+00 -1.16781E+00 -2.86055E+00 -9.11179E-01 -3.18961E-01 -5.62930E-01  3.25733E+00 -3.80386E-01 -8.78744E-01
  -3.18864E+00  8.63619E-01  1.82715E+00 -9.58576E-01 -1.73125E+00  4.86029E-01 -1.15362E+00 -2.39874E+00  5.44104E-01  2.44352E+00
  -3.40139E-01 -2.82407E+00 -3.04259E+00 -3.72764E-01  1.23367E+00  2.49590E+00  1.18302E-01  1.50622E+00  2.69647E-01 -3.46020E+00
  -4.40807E-01 -8.81510E-01 -7.36081E-01  9.40662E-01  1.09205E+00  8.34134E-01  2.12258E-01 -5.30966E-01  2.29344E+00 -1.06093E+00
  -1.87161E+00  1.04140E+00  1.75149E-01 -2.58100E+00  2.19769E+00  1.19201E-01 -4.22639E-01 -2.23422E+00
 NY points of the fit to the data follow
   4.45052E+00  4.54709E+00  5.18504E+00  5.45115E+00  5.67143E+00  6.05563E+00  5.84363E+00  6.44374E+00  5.94102E+00  6.80553E+00
   6.30054E+00  7.30148E+00  6.77229E+00  7.60343E+00  6.61215E+00  7.23401E+00  6.05300E+00  7.04415E+00  6.01583E+00  7.01276E+00
   6.24760E+00  7.15525E+00  6.08592E+00  6.81291E+00  5.76760E+00  6.57732E+00  6.08209E+00  6.92029E+00  6.65386E+00  7.32670E+00
   7.03616E+00  7.38510E+00  7.04497E+00  7.16172E+00  6.92801E+00  7.02109E+00  6.99269E+00  7.09019E+00  7.21565E+00  7.26076E+00
   7.29974E+00  7.21105E+00  7.09614E+00  6.97583E+00  6.68604E+00  6.54272E+00  6.12332E+00  6.05802E+00  5.61291E+00  5.68515E+00
   5.28624E+00  5.32717E+00  5.00894E+00  5.01620E+00  4.63728E+00  4.57579E+00  4.20407E+00  4.15231E+00  3.85278E+00  3.83391E+00
   3.55624E+00  3.65670E+00  3.41727E+00  3.57994E+00  3.35037E+00  3.52909E+00  3.29656E+00  3.49367E+00  3.30104E+00  3.49331E+00
   3.33416E+00  3.51003E+00  3.53456E+00  3.77948E+00  3.81285E+00  4.07356E+00  4.09393E+00  4.40110E+00  4.46344E+00  4.82827E+00
   4.84339E+00  5.23748E+00  5.10373E+00  5.48504E+00  5.20222E+00  5.56667E+00  5.12347E+00  5.60426E+00  5.73344E+00  6.40837E+00
   6.67155E+00  7.42441E+00  7.73395E+00  8.56596E+00  9.09556E+00  9.96238E+00  1.05921E+01  1.13764E+01  1.18499E+01  1.24330E+01
   1.25187E+01  1.28222E+01  1.24868E+01  1.25312E+01  1.19229E+01  1.17687E+01  1.09154E+01  1.05767E+01  9.51686E+00  9.02978E+00
   7.88086E+00  7.48085E+00  7.10675E+00  7.13476E+00  7.16237E+00  7.51198E+00  7.86025E+00  8.56096E+00  9.33495E+00  1.04218E+01
   1.14939E+01  1.27773E+01  1.34726E+01  1.46320E+01  1.46349E+01  1.54847E+01  1.48006E+01  1.52903E+01  1.41346E+01  1.43135E+01
   1.28860E+01  1.28035E+01  1.11736E+01  1.08586E+01  9.13007E+00  8.63233E+00  6.93576E+00  6.36545E+00  5.02859E+00  4.53674E+00
   3.60158E+00  3.23788E+00  2.68096E+00  2.49005E+00  2.34178E+00  2.29888E+00  2.16460E+00  2.07784E+00  1.96382E+00  1.85456E+00
   1.80234E+00  1.70703E+00  1.63501E+00  1.50092E+00  1.41062E+00  1.24169E+00  1.15116E+00  9.89862E-01  8.86458E-01  7.49709E-01
   5.91735E-01  4.51623E-01  1.74643E-01  6.04575E-02 -2.43541E-01 -3.35789E-01 -6.65696E-01 -7.93004E-01 -1.10309E+00 -1.21174E+00
  -1.46392E+00 -1.55431E+00 -1.75194E+00 -1.89274E+00 -1.92143E+00 -2.07296E+00 -1.90641E+00 -2.05258E+00 -1.75131E+00 -2.00578E+00
  -1.60478E+00 -1.98011E+00 -1.56821E+00 -1.92403E+00 -1.58908E+00 -1.90225E+00 -1.49142E+00 -1.48381E+00 -1.02799E+00 -7.34682E-01
  -1.15549E-01  5.00311E-01  1.13675E+00  1.86196E+00  2.16695E+00  2.30999E+00  2.32365E+00  2.54111E+00  2.25468E+00  2.30969E+00
   1.76203E+00  1.69408E+00  1.34076E+00  1.23354E+00  8.41147E-01  9.71042E-01  7.78627E-01  1.17511E+00  1.05752E+00  1.40583E+00
   1.60291E+00  1.94379E+00  2.09663E+00  2.33420E+00  2.15904E+00  2.39582E+00  2.08399E+00  2.50412E+00  2.39751E+00  3.27469E+00
   3.25181E+00  3.82408E+00  3.79328E+00  4.32280E+00  4.17393E+00  4.70388E+00  4.54720E+00  4.92310E+00  4.59178E+00  5.12889E+00
   4.89275E+00  5.68122E+00  5.65196E+00  6.59526E+00  6.45043E+00  7.14355E+00  6.53338E+00  6.82232E+00  5.83453E+00  5.94764E+00
   4.95240E+00  5.17469E+00  4.56531E+00  5.17933E+00  4.86521E+00  6.47131E+00  8.45184E+00  1.05946E+01  1.33180E+01  1.54709E+01
   1.86683E+01  2.08683E+01  2.49056E+01  2.69968E+01  3.14897E+01  3.30768E+01  3.69659E+01  3.75036E+01  3.98119E+01  3.91217E+01
   3.95288E+01  3.78861E+01  3.68986E+01  3.46962E+01  3.27947E+01  3.03041E+01  2.76933E+01  2.51053E+01  2.20329E+01  1.95548E+01
   1.62401E+01  1.42508E+01  1.15083E+01  1.01259E+01  8.09216E+00  7.27314E+00  5.99939E+00  5.71472E+00  5.44182E+00  5.37229E+00
   5.26334E+00  5.21769E+00  5.20308E+00  5.16315E+00  5.17883E+00  5.17880E+00  5.23603E+00  5.29136E+00  5.40082E+00  5.53342E+00
   5.70464E+00  5.92887E+00  6.17176E+00  6.47051E+00  6.76115E+00  7.10294E+00  7.41093E+00  7.76036E+00  8.05404E+00  8.37307E+00
   8.62448E+00  8.88646E+00  9.07146E+00  9.25825E+00  9.36788E+00  9.47941E+00  9.52518E+00  9.58886E+00  9.61537E+00  9.69545E+00
   9.79311E+00  1.00236E+01  1.04124E+01  1.12358E+01  1.23419E+01  1.24623E+01  1.35261E+01  1.29409E+01  1.39970E+01  1.27354E+01
   1.37056E+01  1.13626E+01  1.32834E+01  1.03057E+01  1.24577E+01  8.81321E+00  1.09110E+01  7.08996E+00  9.57347E+00  6.34186E+00
   9.43913E+00  7.12453E+00  1.04311E+01  8.85377E+00  1.16958E+01  1.06267E+01  1.26472E+01  1.19811E+01  1.32450E+01  1.31130E+01
   1.38976E+01  1.40219E+01  1.42167E+01  1.43077E+01  1.38778E+01  1.37280E+01  1.26774E+01  1.18688E+01  1.04372E+01  9.41266E+00
   7.99266E+00  6.98358E+00  5.78278E+00  4.94553E+00  4.29689E+00  3.80837E+00  3.38380E+00  3.06037E+00  2.76518E+00  2.54561E+00
   2.33483E+00  2.18370E+00  2.02841E+00  1.92174E+00  1.80201E+00  1.72331E+00  1.62569E+00  1.56424E+00  1.48040E+00  1.42994E+00
   1.35542E+00  1.31306E+00  1.24625E+00  1.21142E+00  1.15261E+00  1.12629E+00  1.07697E+00  1.06104E+00  1.02339E+00  1.02027E+00
   9.96937E-01  1.00949E+00  1.00351E+00  1.03499E+00  1.04987E+00  1.10403E+00  1.14378E+00  1.22483E+00  1.29379E+00  1.40609E+00
   1.50846E+00  1.65583E+00  1.79471E+00  1.97918E+00  2.15511E+00  2.37529E+00  2.58455E+00  2.83397E+00  3.06699E+00  3.33280E+00
   3.57339E+00  3.83622E+00  4.06223E+00  4.29774E+00  4.48347E+00  4.66562E+00  4.78584E+00  4.89145E+00  4.92624E+00  4.93971E+00
   4.87870E+00  4.79554E+00  4.64041E+00  4.46847E+00  4.23282E+00  3.99072E+00  3.69721E+00  3.41050E+00  3.08630E+00  2.78249E+00
   2.45426E+00  2.15811E+00  1.84789E+00  1.57811E+00  1.30094E+00  1.06884E+00  8.32389E-01  6.42229E-01  4.47779E-01  2.98377E-01
   1.42780E-01  2.95340E-02 -9.28022E-02 -1.76068E-01 -2.71537E-01 -3.31144E-01 -4.05792E-01 -4.47375E-01 -5.06354E-01 -5.34536E-01
  -5.81926E-01 -6.00254E-01 -6.39111E-01 -6.50203E-01 -6.82764E-01 -6.88520E-01 -7.16384E-01 -7.18140E-01 -7.42434E-01 -7.41144E-01
  -7.62681E-01 -7.59032E-01 -7.78391E-01 -7.72870E-01 -7.90472E-01 -7.83445E-01 -7.99610E-01 -7.91347E-01 -8.06301E-01 -7.96999E-01
  -8.10917E-01 -8.00738E-01 -8.13763E-01 -8.02827E-01 -8.15059E-01 -8.03458E-01 -8.14984E-01 -8.02797E-01 -8.13684E-01 -8.00963E-01
  -8.11252E-01 -7.98039E-01 -8.07773E-01 -7.94103E-01 -8.03309E-01 -7.89194E-01 -7.97883E-01 -7.83334E-01 -7.91515E-01 -7.76532E-01
  -7.84195E-01 -7.68755E-01 -7.75877E-01 -7.59957E-01 -7.66509E-01 -7.50065E-01 -7.55986E-01 -7.38946E-01 -7.44159E-01 -7.26434E-01
  -7.30828E-01 -7.12279E-01 -7.15685E-01 -6.96114E-01 -6.98302E-01 -6.77428E-01 -6.78048E-01 -6.55432E-01
 NY background values follow
     1.821E+00    1.823E+00    1.825E+00    1.826E+00    1.828E+00    1.830E+00    1.832E+00    1.833E+00    1.835E+00    1.837E+00
     1.839E+00    1.841E+00    1.843E+00    1.844E+00    1.846E+00    1.848E+00    1.850E+00    1.852E+00    1.854E+00    1.856E+00
     1.858E+00    1.860E+00    1.862E+00    1.864E+00    1.866E+00    1.868E+00    1.870E+00    1.872E+00    1.874E+00    1.876E+00
     1.878E+00    1.881E+00    1.883E+00    1.885E+00    1.887E+00    1.889E+00    1.891E+00    1.894E+00    1.896E+00    1.898E+00
     1.900E+00    1.903E+00    1.905E+00    1.907E+00    1.910E+00    1.912E+00    1.914E+00    1.917E+00    1.919E+00    1.922E+00
     1.924E+00    1.926E+00    1.929E+00    1.931E+00    1.934E+00    1.936E+00    1.939E+00    1.941E+00    1.944E+00    1.946E+00
     1.948E+00    1.951E+00    1.953E+00    1.956E+00    1.958E+00    1.960E+00    1.963E+00    1.965E+00    1.968E+00    1.970E+00
     1.972E+00    1.975E+00    1.977E+00    1.979E+00    1.981E+00    1.983E+00    1.986E+00    1.988E+00    1.990E+00    1.992E+00
     1.994E+00    1.996E+00    1.998E+00    2.000E+00    2.002E+00    2.004E+00    2.006E+00    2.007E+00    2.009E+00    2.011E+00
     2.012E+00    2.014E+00    2.016E+00    2.017E+00    2.018E+00    2.020E+00    2.021E+00    2.022E+00    2.024E+00    2.025E+00
     2.026E+00    2.027E+00    2.028E+00    2.029E+00    2.030E+00    2.031E+00    2.032E+00    2.032E+00    2.033E+00    2.033E+00
     2.034E+00    2.034E+00    2.035E+00    2.035E+00    2.035E+00    2.036E+00    2.036E+00    2.036E+00    2.036E+00    2.036E+00
     2.036E+00    2.035E+00    2.035E+00    2.035E+00    2.034E+00    2.034E+00    2.033E+00    2.033E+00    2.032E+00    2.031E+00
     2.030E+00    2.029E+00    2.028E+00    2.027E+00    2.026E+00    2.025E+00    2.023E+00    2.022E+00    2.020E+00    2.019E+00
     2.017E+00    2.015E+00    2.014E+00    2.012E+00    2.010E+00    2.008E+00    2.006E+00    2.004E+00    2.001E+00    1.999E+00
     1.997E+00    1.995E+00    1.992E+00    1.990E+00    1.988E+00    1.985E+00    1.983E+00    1.980E+00    1.978E+00    1.975E+00
     1.973E+00    1.970E+00    1.967E+00    1.965E+00    1.962E+00    1.960E+00    1.957E+00    1.954E+00    1.952E+00    1.949E+00
     1.946E+00    1.944E+00    1.941E+00    1.939E+00    1.936E+00    1.934E+00    1.931E+00    1.929E+00    1.926E+00    1.924E+00
     1.921E+00    1.919E+00    1.917E+00    1.914E+00    1.912E+00    1.910E+00    1.908E+00    1.905E+00    1.903E+00    1.901E+00
     1.899E+00    1.897E+00    1.895E+00    1.893E+00    1.891E+00    1.889E+00    1.887E+00    1.885E+00    1.883E+00    1.881E+00
     1.878E+00    1.876E+00    1.874E+00    1.872E+00    1.870E+00    1.868E+00    1.866E+00    1.864E+00    1.862E+00    1.859E+00
     1.857E+00    1.855E+00    1.853E+00    1.850E+00    1.848E+00    1.846E+00    1.843E+00    1.841E+00    1.838E+00    1.835E+00
     1.833E+00    1.830E+00    1.827E+00    1.825E+00    1.822E+00    1.819E+00    1.816E+00    1.813E+00    1.809E+00    1.806E+00
     1.803E+00    1.800E+00    1.796E+00    1.793E+00    1.789E+00    1.785E+00    1.781E+00    1.777E+00    1.773E+00    1.769E+00
     1.765E+00    1.761E+00    1.756E+00    1.752E+00    1.747E+00    1.742E+00    1.737E+00    1.732E+00    1.727E+00    1.722E+00
     1.716E+00    1.710E+00    1.705E+00    1.699E+00    1.693E+00    1.687E+00    1.680E+00    1.674E+00    1.667E+00    1.660E+00
     1.653E+00    1.646E+00    1.639E+00    1.631E+00    1.623E+00    1.615E+00    1.607E+00    1.599E+00    1.591E+00    1.582E+00
     1.573E+00    1.564E+00    1.555E+00    1.545E+00    1.536E+00    1.526E+00    1.516E+00    1.506E+00    1.495E+00    1.485E+00
     1.474E+00    1.463E+00    1.452E+00    1.440E+00    1.429E+00    1.417E+00    1.405E+00    1.393E+00    1.380E+00    1.368E+00
     1.355E+00    1.342E+00    1.329E+00    1.316E+00    1.303E+00    1.289E+00    1.276E+00    1.262E+00    1.248E+00    1.233E+00
     1.219E+00    1.204E+00    1.190E+00    1.175E+00    1.160E+00    1.145E+00    1.129E+00    1.114E+00    1.098E+00    1.082E+00
     1.066E+00    1.050E+00    1.034E+00    1.017E+00    1.001E+00    9.839E-01    9.670E-01    9.499E-01    9.328E-01    9.155E-01
     8.980E-01    8.805E-01    8.628E-01    8.451E-01    8.272E-01    8.093E-01    7.912E-01    7.731E-01    7.550E-01    7.367E-01
     7.184E-01    7.001E-01    6.817E-01    6.633E-01    6.448E-01    6.264E-01    6.079E-01    5.894E-01    5.709E-01    5.524E-01
     5.339E-01    5.155E-01    4.971E-01    4.787E-01    4.604E-01    4.421E-01    4.238E-01    4.057E-01    3.875E-01    3.695E-01
     3.516E-01    3.337E-01    3.160E-01    2.983E-01    2.808E-01    2.633E-01    2.460E-01    2.289E-01    2.118E-01    1.949E-01
     1.782E-01    1.616E-01    1.452E-01    1.290E-01    1.129E-01    9.704E-02    8.132E-02    6.578E-02    5.042E-02    3.525E-02
     2.025E-02    5.443E-03   -9.180E-03   -2.361E-02   -3.786E-02   -5.191E-02   -6.577E-02   -7.943E-02   -9.289E-02   -1.062E-01
    -1.192E-01   -1.321E-01   -1.447E-01   -1.572E-01   -1.694E-01   -1.814E-01   -1.933E-01   -2.049E-01   -2.162E-01   -2.274E-01
    -2.384E-01   -2.491E-01   -2.596E-01   -2.699E-01   -2.799E-01   -2.897E-01   -2.993E-01   -3.087E-01   -3.178E-01   -3.267E-01
    -3.353E-01   -3.438E-01   -3.519E-01   -3.599E-01   -3.675E-01   -3.750E-01   -3.822E-01   -3.891E-01   -3.958E-01   -4.022E-01
    -4.084E-01   -4.144E-01   -4.201E-01   -4.256E-01   -4.308E-01   -4.359E-01   -4.407E-01   -4.453E-01   -4.497E-01   -4.538E-01
    -4.578E-01   -4.616E-01   -4.651E-01   -4.685E-01   -4.717E-01   -4.746E-01   -4.774E-01   -4.800E-01   -4.825E-01   -4.847E-01
    -4.868E-01   -4.887E-01   -4.905E-01   -4.921E-01   -4.935E-01   -4.948E-01   -4.959E-01   -4.969E-01   -4.977E-01   -4.984E-01
    -4.990E-01   -4.994E-01   -4.997E-01   -4.999E-01   -4.999E-01   -4.999E-01   -4.997E-01   -4.994E-01   -4.990E-01   -4.985E-01
    -4.978E-01   -4.971E-01   -4.963E-01   -4.954E-01   -4.944E-01   -4.934E-01   -4.922E-01   -4.910E-01   -4.897E-01   -4.883E-01
    -4.868E-01   -4.853E-01   -4.837E-01   -4.820E-01   -4.803E-01   -4.785E-01   -4.767E-01   -4.748E-01   -4.728E-01   -4.708E-01
    -4.687E-01   -4.666E-01   -4.645E-01   -4.623E-01   -4.601E-01   -4.578E-01   -4.556E-01   -4.532E-01   -4.509E-01   -4.485E-01
    -4.461E-01   -4.437E-01   -4.413E-01   -4.388E-01   -4.364E-01   -4.339E-01   -4.314E-01   -4.289E-01   -4.264E-01   -4.239E-01
    -4.215E-01   -4.190E-01   -4.165E-01   -4.140E-01   -4.116E-01   -4.091E-01   -4.067E-01   -4.043E-01
 Ala      Conc. = 2.60E+03
