 LCModel (Version 6.3-1L) Copyright: S.W. Provencher.          Ref.: Magn. Reson. Med. 30:672-679 (1993).                
 Slice#3 Row#5 Col#13  PD_05_press_1_raw_act
 36 lines in following concentration table = NCONC+1
    Conc.  %SD /Cr+PCr  Metabolite                                         
 8.74E+03  38%   0.000 Ala                                                 
   21.302  66%   0.000 Asp                                                 
    0.000 999%   0.000 Cr                                                  
    0.000 999%   0.000 PCr                                                 
   13.049  65%   0.000 GABA                                                
   13.360  64%   0.000 Glc                                                 
  430.312 177%   0.000 Gln                                                 
  920.118  97%   0.000 Glu                                                 
    0.000 999%   0.000 GPC                                                 
   88.294  26%   0.000 PCh                                                 
    0.000 999%   0.000 GSH                                                 
  145.558 164%   0.000 Ins                                                 
  898.604 171%   0.000 Lac                                                 
  163.939  70%   0.000 NAA                                                 
    0.000 999%   0.000 NAAG                                                
    4.765  59%   0.000 Scyllo                                              
   23.507  60%   0.000 Tau                                                 
    4.016 264%   0.000 -CrCH2                                              
   88.294  26%   0.000 GPC+PCh                                             
  163.939  70%   0.000 NAA+NAAG                                            
    0.000 999%   0.000 Cr+PCr                                              
 1.35E+03 110%   0.000 Glu+Gln                                             
 5.72E+04  10%   0.000 Lip13a                                              
 2.30E+03  77%   0.000 Lip13b                                              
 1.18E+04  18%   0.000 Lip09                                               
 5.72E+03  17%   0.000 MM09                                                
 2.22E+03  41%   0.000-Lip20                                               
 2.37E+03  25%   0.000-MM20                                                
 2.55E+03  20%   0.000 MM12                                                
 1.58E+04  15%   0.000+MM14                                                
 7.63E+03  20%   0.000+MM17                                                
 5.95E+04   9%   0.000 Lip13a+Lip13b                                       
 7.79E+04   6%   0.000 MM14+Lip13a+Lip13b+MM12                             
 1.75E+04  12%   0.000 MM09+Lip09                                          
 4.59E+03  18%   0.000 MM20+Lip20                                          
   6 lines in following misc. output table
  FWHM = 0.153 ppm    S/N =  65                                            
  Data shift = 0.176 ppm                                                   
  Ph: 172 deg      31.8 deg/ppm                                            
  alphaB,S = 3.3E+01,   2.0E+02                                            
    6 spline knots.   Ns = 9(2)                                            
  (13) 2 infls.   ( 5) 1 extrs.                                            
  498 points on ppm-axis = NY
      4.000000     3.992357     3.984714     3.977070     3.969427     3.961784     3.954141     3.946497     3.938854     3.931211
      3.923568     3.915925     3.908281     3.900638     3.892995     3.885352     3.877708     3.870065     3.862422     3.854779
      3.847136     3.839492     3.831849     3.824206     3.816563     3.808919     3.801276     3.793633     3.785990     3.778347
      3.770703     3.763060     3.755417     3.747774     3.740130     3.732487     3.724844     3.717201     3.709558     3.701914
      3.694271     3.686628     3.678985     3.671341     3.663698     3.656055     3.648412     3.640769     3.633125     3.625482
      3.617839     3.610196     3.602552     3.594909     3.587266     3.579623     3.571980     3.564336     3.556693     3.549050
      3.541407     3.533763     3.526120     3.518477     3.510834     3.503191     3.495547     3.487904     3.480261     3.472618
      3.464974     3.457331     3.449688     3.442045     3.434402     3.426758     3.419115     3.411472     3.403829     3.396185
      3.388542     3.380899     3.373256     3.365613     3.357969     3.350326     3.342683     3.335040     3.327396     3.319753
      3.312110     3.304467     3.296824     3.289180     3.281537     3.273894     3.266251     3.258607     3.250964     3.243321
      3.235678     3.228034     3.220391     3.212748     3.205105     3.197462     3.189818     3.182175     3.174532     3.166889
      3.159245     3.151602     3.143959     3.136316     3.128673     3.121029     3.113386     3.105743     3.098100     3.090456
      3.082813     3.075170     3.067527     3.059884     3.052240     3.044597     3.036954     3.029311     3.021667     3.014024
      3.006381     2.998738     2.991095     2.983451     2.975808     2.968165     2.960522     2.952878     2.945235     2.937592
      2.929949     2.922306     2.914662     2.907019     2.899376     2.891733     2.884089     2.876446     2.868803     2.861160
      2.853517     2.845873     2.838230     2.830587     2.822944     2.815300     2.807657     2.800014     2.792371     2.784728
      2.777084     2.769441     2.761798     2.754155     2.746511     2.738868     2.731225     2.723582     2.715939     2.708295
      2.700652     2.693009     2.685366     2.677722     2.670079     2.662436     2.654793     2.647150     2.639506     2.631863
      2.624220     2.616577     2.608933     2.601290     2.593647     2.586004     2.578361     2.570717     2.563074     2.555431
      2.547788     2.540144     2.532501     2.524858     2.517215     2.509572     2.501928     2.494285     2.486642     2.478999
      2.471355     2.463712     2.456069     2.448426     2.440783     2.433139     2.425496     2.417853     2.410210     2.402566
      2.394923     2.387280     2.379637     2.371994     2.364350     2.356707     2.349064     2.341421     2.333777     2.326134
      2.318491     2.310848     2.303205     2.295561     2.287918     2.280275     2.272632     2.264988     2.257345     2.249702
      2.242059     2.234416     2.226772     2.219129     2.211486     2.203843     2.196199     2.188556     2.180913     2.173270
      2.165627     2.157983     2.150340     2.142697     2.135054     2.127410     2.119767     2.112124     2.104481     2.096838
      2.089194     2.081551     2.073908     2.066265     2.058621     2.050978     2.043335     2.035692     2.028049     2.020405
      2.012762     2.005119     1.997476     1.989833     1.982190     1.974546     1.966903     1.959260     1.951617     1.943974
      1.936331     1.928688     1.921045     1.913402     1.905759     1.898115     1.890472     1.882829     1.875186     1.867543
      1.859900     1.852257     1.844614     1.836971     1.829327     1.821684     1.814041     1.806398     1.798755     1.791112
      1.783469     1.775826     1.768183     1.760540     1.752896     1.745253     1.737610     1.729967     1.722324     1.714681
      1.707038     1.699395     1.691752     1.684108     1.676465     1.668822     1.661179     1.653536     1.645893     1.638250
      1.630607     1.622964     1.615321     1.607677     1.600034     1.592391     1.584748     1.577105     1.569462     1.561819
      1.554176     1.546533     1.538890     1.531246     1.523603     1.515960     1.508317     1.500674     1.493031     1.485388
      1.477745     1.470102     1.462458     1.454815     1.447172     1.439529     1.431886     1.424243     1.416600     1.408957
      1.401314     1.393671     1.386027     1.378384     1.370741     1.363098     1.355455     1.347812     1.340169     1.332526
      1.324883     1.317240     1.309596     1.301953     1.294310     1.286667     1.279024     1.271381     1.263738     1.256095
      1.248452     1.240808     1.233165     1.225522     1.217879     1.210236     1.202593     1.194950     1.187307     1.179664
      1.172021     1.164377     1.156734     1.149091     1.141448     1.133805     1.126162     1.118519     1.110876     1.103233
      1.095590     1.087946     1.080303     1.072660     1.065017     1.057374     1.049731     1.042088     1.034445     1.026802
      1.019158     1.011515     1.003872     0.996229     0.988586     0.980943     0.973300     0.965657     0.958014     0.950371
      0.942727     0.935084     0.927441     0.919798     0.912155     0.904512     0.896869     0.889226     0.881583     0.873940
      0.866296     0.858653     0.851010     0.843367     0.835724     0.828081     0.820438     0.812795     0.805152     0.797508
      0.789865     0.782222     0.774579     0.766936     0.759293     0.751650     0.744007     0.736364     0.728721     0.721077
      0.713434     0.705791     0.698148     0.690505     0.682862     0.675219     0.667576     0.659933     0.652290     0.644646
      0.637003     0.629360     0.621717     0.614074     0.606431     0.598788     0.591145     0.583502     0.575858     0.568215
      0.560572     0.552929     0.545286     0.537643     0.530000     0.522357     0.514714     0.507071     0.499427     0.491784
      0.484141     0.476498     0.468855     0.461212     0.453569     0.445925     0.438282     0.430639     0.422996     0.415353
      0.407710     0.400067     0.392424     0.384780     0.377137     0.369494     0.361851     0.354208     0.346565     0.338922
      0.331278     0.323635     0.315992     0.308349     0.300706     0.293063     0.285420     0.277777     0.270133     0.262490
      0.254847     0.247204     0.239561     0.231918     0.224275     0.216631     0.208988     0.201345
 NY phased data points follow
  -9.49130E+00 -9.34390E+00 -9.57586E+00 -1.19506E+01 -8.68725E+00 -9.27624E+00 -9.17927E+00 -9.41279E+00 -8.51192E+00 -8.23369E+00
  -7.53200E+00 -8.81514E+00 -9.26474E+00 -8.42575E+00 -8.45021E+00 -9.93923E+00 -8.52098E+00 -8.85882E+00 -1.03717E+01 -8.96404E+00
  -1.01808E+01 -9.57271E+00 -9.91374E+00 -8.51938E+00 -7.26298E+00 -6.51419E+00 -8.54974E+00 -9.35646E+00 -1.03431E+01 -9.25258E+00
  -1.09643E+01 -8.91803E+00 -1.02396E+01 -9.35883E+00 -8.54928E+00 -9.38559E+00 -1.02785E+01 -1.01079E+01 -1.03032E+01 -1.06891E+01
  -9.80703E+00 -1.12283E+01 -9.22811E+00 -7.66564E+00 -1.10663E+01 -9.95397E+00 -9.28683E+00 -9.53168E+00 -1.01740E+01 -1.22472E+01
  -1.01629E+01 -9.14842E+00 -8.23233E+00 -1.05706E+01 -9.30128E+00 -1.00416E+01 -1.27117E+01 -1.06166E+01 -8.18100E+00 -1.07893E+01
  -9.86782E+00 -9.77994E+00 -1.09586E+01 -1.04677E+01 -1.07121E+01 -1.10927E+01 -1.09974E+01 -1.05265E+01 -9.73554E+00 -1.14024E+01
  -1.10798E+01 -1.02688E+01 -1.12943E+01 -9.74794E+00 -1.06733E+01 -1.22194E+01 -9.67617E+00 -1.19883E+01 -9.54085E+00 -8.68023E+00
  -1.12373E+01 -1.00272E+01 -1.19469E+01 -1.18434E+01 -1.27308E+01 -1.20472E+01 -1.03650E+01 -1.13922E+01 -9.88449E+00 -1.04994E+01
  -1.26592E+01 -9.83828E+00 -1.17997E+01 -1.16346E+01 -1.23751E+01 -1.08744E+01 -1.24514E+01 -1.00163E+01 -1.05334E+01 -9.17904E+00
  -9.48313E+00 -1.09820E+01 -1.04969E+01 -1.06082E+01 -9.79086E+00 -1.13584E+01 -1.22129E+01 -1.33942E+01 -1.23655E+01 -1.16725E+01
  -1.14136E+01 -1.09117E+01 -1.13551E+01 -1.18689E+01 -1.26229E+01 -1.05828E+01 -1.20751E+01 -1.19380E+01 -1.27554E+01 -1.51925E+01
  -1.28521E+01 -1.19412E+01 -1.18497E+01 -1.34536E+01 -1.20109E+01 -1.04392E+01 -1.44367E+01 -1.34240E+01 -1.39053E+01 -1.36627E+01
  -1.28250E+01 -1.39891E+01 -1.21648E+01 -1.41622E+01 -1.29730E+01 -1.33622E+01 -1.36720E+01 -1.54538E+01 -1.22548E+01 -1.28492E+01
  -1.26755E+01 -1.43936E+01 -1.28232E+01 -1.23232E+01 -1.35736E+01 -1.44762E+01 -1.25301E+01 -1.38925E+01 -1.27216E+01 -1.39183E+01
  -1.47290E+01 -1.45299E+01 -1.30253E+01 -1.32298E+01 -1.27845E+01 -1.23256E+01 -1.27435E+01 -1.19954E+01 -1.42020E+01 -1.43941E+01
  -1.53308E+01 -1.47859E+01 -1.45817E+01 -1.38808E+01 -1.45236E+01 -1.27300E+01 -1.49798E+01 -1.48047E+01 -1.41739E+01 -1.32380E+01
  -1.46954E+01 -1.38355E+01 -1.66536E+01 -1.41486E+01 -1.63921E+01 -1.42634E+01 -1.46873E+01 -1.53518E+01 -1.38429E+01 -1.41512E+01
  -1.36839E+01 -1.42968E+01 -1.62970E+01 -1.37043E+01 -1.56840E+01 -1.40439E+01 -1.56335E+01 -1.35870E+01 -1.17308E+01 -1.35786E+01
  -1.28910E+01 -1.26627E+01 -1.27367E+01 -1.26359E+01 -1.39974E+01 -1.32501E+01 -1.60795E+01 -1.34406E+01 -1.36242E+01 -1.33200E+01
  -1.49261E+01 -1.14616E+01 -1.22076E+01 -1.31343E+01 -1.24485E+01 -1.21577E+01 -1.30710E+01 -1.39339E+01 -1.20342E+01 -1.05262E+01
  -1.15773E+01 -9.59824E+00 -9.20864E+00 -1.03950E+01 -9.10577E+00 -9.86095E+00 -9.56825E+00 -7.64431E+00 -8.38946E+00 -7.09854E+00
  -7.22847E+00 -7.35344E+00 -7.26043E+00 -6.05563E+00 -4.00393E+00 -4.36986E+00 -4.43511E+00 -4.13449E+00 -3.04526E+00 -2.15914E+00
  -1.05355E+00 -7.21711E-01 -9.84664E-01  1.61435E+00  2.86692E+00  1.09772E+00  4.31494E+00  6.75768E+00  5.22856E+00  7.03549E+00
   3.99015E+00  5.09727E+00  4.42752E+00  5.74398E+00  6.44451E+00  7.69498E+00  9.41278E+00  8.36553E+00  8.42260E+00  8.08677E+00
   1.02734E+01  1.05748E+01  9.94571E+00  1.08262E+01  1.11702E+01  1.09895E+01  1.36262E+01  1.36993E+01  1.46599E+01  1.43508E+01
   1.34177E+01  1.62207E+01  1.60713E+01  1.52236E+01  1.66336E+01  1.77257E+01  1.96106E+01  1.98194E+01  2.10803E+01  2.19844E+01
   2.23143E+01  2.32531E+01  2.47042E+01  2.55333E+01  2.81410E+01  2.80295E+01  2.84401E+01  2.93967E+01  3.10451E+01  3.39080E+01
   3.65157E+01  3.79050E+01  4.17678E+01  4.24625E+01  4.52729E+01  4.83154E+01  5.12371E+01  5.57167E+01  5.75176E+01  6.42083E+01
   6.76853E+01  7.19831E+01  7.89692E+01  8.23815E+01  8.76758E+01  9.40117E+01  1.01432E+02  1.07223E+02  1.15896E+02  1.22904E+02
   1.32532E+02  1.40855E+02  1.50366E+02  1.56482E+02  1.68416E+02  1.77179E+02  1.87581E+02  1.97463E+02  2.05279E+02  2.16422E+02
   2.22663E+02  2.32504E+02  2.39555E+02  2.44080E+02  2.50165E+02  2.52901E+02  2.55259E+02  2.56342E+02  2.56454E+02  2.59518E+02
   2.54939E+02  2.53604E+02  2.50090E+02  2.45678E+02  2.39781E+02  2.34296E+02  2.28025E+02  2.19026E+02  2.11301E+02  2.04572E+02
   1.96740E+02  1.86577E+02  1.81585E+02  1.72315E+02  1.63194E+02  1.56725E+02  1.49399E+02  1.40422E+02  1.34863E+02  1.28859E+02
   1.21447E+02  1.15777E+02  1.09701E+02  1.05689E+02  1.01806E+02  9.67701E+01  9.32758E+01  9.03657E+01  8.70323E+01  8.46361E+01
   8.25102E+01  8.04061E+01  7.65757E+01  7.46902E+01  7.33395E+01  7.05816E+01  6.79985E+01  7.01635E+01  6.75260E+01  6.77248E+01
   6.66113E+01  6.60870E+01  6.39031E+01  6.37502E+01  6.31253E+01  6.27334E+01  5.90135E+01  5.97878E+01  5.82888E+01  5.57260E+01
   5.52577E+01  5.39530E+01  5.29393E+01  5.18408E+01  5.08627E+01  4.96832E+01  4.88018E+01  4.72483E+01  4.61727E+01  4.31110E+01
   4.40939E+01  4.26335E+01  4.00908E+01  3.97288E+01  3.87565E+01  3.69451E+01  3.69423E+01  3.73738E+01  3.50997E+01  3.15880E+01
   3.23277E+01  2.92776E+01  2.98302E+01  3.03623E+01  2.85832E+01  2.76857E+01  2.54947E+01  2.66918E+01  2.52027E+01  2.26456E+01
   2.37715E+01  2.29265E+01  2.14571E+01  2.09530E+01  1.93171E+01  1.88204E+01  2.03622E+01  1.90666E+01  1.98246E+01  1.80197E+01
   1.80111E+01  1.78643E+01  1.66880E+01  1.27326E+01  1.56747E+01  1.45072E+01  1.49569E+01  1.34501E+01  1.38186E+01  1.26089E+01
   1.47657E+01  1.29889E+01  1.31647E+01  9.86257E+00  1.17759E+01  1.02185E+01  1.13081E+01  1.07658E+01  9.37041E+00  8.64383E+00
   9.58822E+00  8.99017E+00  8.67092E+00  8.17805E+00  7.11823E+00  8.25270E+00  7.62635E+00  8.26240E+00  6.40138E+00  6.83826E+00
   5.41694E+00  6.54271E+00  5.94063E+00  7.15734E+00  4.10296E+00  6.10158E+00  2.90463E+00  6.71192E+00  6.23767E+00  4.38229E+00
   6.73545E+00  4.20587E+00  3.58222E+00  4.08418E+00  2.81192E+00  3.48372E+00  3.29281E+00  4.58560E+00  3.03432E+00  3.38067E+00
   4.85921E+00  1.88481E+00  8.50560E-01  2.44755E+00  1.39458E+00  9.92455E-01  2.76456E+00  3.73111E+00  3.11543E+00 -1.65424E-01
   1.30060E+00  1.54895E+00 -1.73640E+00  4.28649E-01  1.71677E+00 -5.75533E-01  5.80665E-01  1.41474E+00  1.54829E+00  8.59168E-01
  -4.43299E-01 -5.74433E-01  2.43635E-01 -3.52823E-01  4.57560E-01 -4.32296E-01  1.62152E+00 -1.10796E+00 -8.66104E-01 -6.00619E-01
  -2.21472E-01 -1.56852E-01 -3.22581E-01 -6.33116E-01 -1.73463E+00 -1.81554E+00  1.97540E+00 -1.67291E+00
 NY points of the fit to the data follow
  -7.17359E+00 -7.16235E+00 -7.46920E+00 -7.44403E+00 -7.68011E+00 -7.63669E+00 -7.84310E+00 -7.73803E+00 -7.91433E+00 -7.79782E+00
  -8.16027E+00 -7.98886E+00 -8.46113E+00 -8.13372E+00 -8.70705E+00 -8.17960E+00 -8.85477E+00 -8.06556E+00 -9.04353E+00 -8.11942E+00
  -9.40188E+00 -8.37531E+00 -9.90867E+00 -8.73614E+00 -1.04149E+01 -9.00326E+00 -1.07797E+01 -9.21606E+00 -1.09344E+01 -9.30842E+00
  -1.08889E+01 -9.28838E+00 -1.07543E+01 -9.28232E+00 -1.06233E+01 -9.40563E+00 -1.04878E+01 -9.50665E+00 -1.03348E+01 -9.62059E+00
  -1.01273E+01 -9.49482E+00 -9.70918E+00 -9.35669E+00 -9.48064E+00 -9.33711E+00 -9.29230E+00 -9.47926E+00 -9.80243E+00 -1.02516E+01
  -1.05153E+01 -1.08991E+01 -1.10695E+01 -1.14084E+01 -1.13203E+01 -1.12310E+01 -1.10184E+01 -1.09536E+01 -1.08289E+01 -1.08338E+01
  -1.07667E+01 -1.08303E+01 -1.09415E+01 -1.10358E+01 -1.11351E+01 -1.12060E+01 -1.12906E+01 -1.13465E+01 -1.14152E+01 -1.14520E+01
  -1.15158E+01 -1.15583E+01 -1.16252E+01 -1.16718E+01 -1.17307E+01 -1.17766E+01 -1.18255E+01 -1.18693E+01 -1.19051E+01 -1.19510E+01
  -1.19711E+01 -1.20126E+01 -1.20125E+01 -1.20458E+01 -1.20173E+01 -1.20228E+01 -1.19493E+01 -1.18850E+01 -1.17974E+01 -1.16928E+01
  -1.16068E+01 -1.14691E+01 -1.13827E+01 -1.11886E+01 -1.11019E+01 -1.08412E+01 -1.07988E+01 -1.05214E+01 -1.05464E+01 -1.02853E+01
  -1.03882E+01 -1.01669E+01 -1.03430E+01 -1.01721E+01 -1.04308E+01 -1.03590E+01 -1.06806E+01 -1.07024E+01 -1.10462E+01 -1.11403E+01
  -1.14877E+01 -1.16432E+01 -1.19778E+01 -1.21935E+01 -1.24759E+01 -1.27007E+01 -1.29203E+01 -1.31419E+01 -1.32770E+01 -1.34492E+01
  -1.34939E+01 -1.35874E+01 -1.35778E+01 -1.36287E+01 -1.35332E+01 -1.34437E+01 -1.33651E+01 -1.33081E+01 -1.32571E+01 -1.32228E+01
  -1.31909E+01 -1.31745E+01 -1.31575E+01 -1.31547E+01 -1.31493E+01 -1.31561E+01 -1.31587E+01 -1.31720E+01 -1.31800E+01 -1.31968E+01
  -1.32085E+01 -1.32273E+01 -1.32413E+01 -1.32605E+01 -1.32761E+01 -1.32968E+01 -1.33133E+01 -1.33353E+01 -1.33530E+01 -1.33771E+01
  -1.33997E+01 -1.34286E+01 -1.34579E+01 -1.34942E+01 -1.35316E+01 -1.35758E+01 -1.36222E+01 -1.36734E+01 -1.37295E+01 -1.37880E+01
  -1.38538E+01 -1.39168E+01 -1.39886E+01 -1.40541E+01 -1.41300E+01 -1.41961E+01 -1.42724E+01 -1.43360E+01 -1.44077E+01 -1.44662E+01
  -1.45281E+01 -1.45785E+01 -1.46256E+01 -1.46655E+01 -1.46938E+01 -1.47209E+01 -1.47288E+01 -1.47425E+01 -1.47316E+01 -1.47298E+01
  -1.47010E+01 -1.46784E+01 -1.46327E+01 -1.45857E+01 -1.45199E+01 -1.44378E+01 -1.43517E+01 -1.42304E+01 -1.41352E+01 -1.39742E+01
  -1.38788E+01 -1.36910E+01 -1.35984E+01 -1.33989E+01 -1.33082E+01 -1.30745E+01 -1.29644E+01 -1.26839E+01 -1.25471E+01 -1.22306E+01
  -1.20730E+01 -1.17725E+01 -1.16077E+01 -1.13340E+01 -1.11455E+01 -1.08928E+01 -1.06633E+01 -1.04016E+01 -1.01020E+01 -9.86410E+00
  -9.49490E+00 -9.28731E+00 -8.86499E+00 -8.70237E+00 -8.23451E+00 -8.10560E+00 -7.58131E+00 -7.47651E+00 -6.89707E+00 -6.77968E+00
  -6.13934E+00 -5.98881E+00 -5.30750E+00 -5.08157E+00 -4.36548E+00 -4.09965E+00 -3.40649E+00 -3.08996E+00 -2.46348E+00 -2.08894E+00
  -1.49657E+00 -1.06178E+00 -5.20927E-01  4.63331E-02  5.69186E-01  1.23844E+00  1.76469E+00  2.55870E+00  3.05364E+00  3.82895E+00
   4.27618E+00  5.03366E+00  5.45565E+00  6.16175E+00  6.59428E+00  7.34243E+00  7.84383E+00  8.59356E+00  9.10528E+00  9.82042E+00
   1.03342E+01  1.10041E+01  1.15152E+01  1.21361E+01  1.25959E+01  1.31725E+01  1.35831E+01  1.41113E+01  1.44505E+01  1.49842E+01
   1.53019E+01  1.58442E+01  1.61363E+01  1.67166E+01  1.69902E+01  1.76144E+01  1.79762E+01  1.86911E+01  1.91721E+01  2.00253E+01
   2.06801E+01  2.16912E+01  2.25810E+01  2.38059E+01  2.49859E+01  2.64649E+01  2.79766E+01  2.97441E+01  3.16153E+01  3.36795E+01
   3.58766E+01  3.82712E+01  4.08827E+01  4.36320E+01  4.65451E+01  4.96319E+01  5.28725E+01  5.63158E+01  5.99521E+01  6.38339E+01
   6.79632E+01  7.24008E+01  7.71573E+01  8.22935E+01  8.78323E+01  9.38255E+01  1.00286E+02  1.07244E+02  1.14698E+02  1.22647E+02
   1.31060E+02  1.39896E+02  1.49088E+02  1.58561E+02  1.68212E+02  1.77939E+02  1.87625E+02  1.97169E+02  2.06486E+02  2.15492E+02
   2.24016E+02  2.32099E+02  2.38764E+02  2.44981E+02  2.49275E+02  2.53293E+02  2.55180E+02  2.57217E+02  2.56811E+02  2.57525E+02
   2.54937E+02  2.53841E+02  2.49104E+02  2.46006E+02  2.39260E+02  2.34424E+02  2.26316E+02  2.20496E+02  2.11755E+02  2.04822E+02
   1.96068E+02  1.88368E+02  1.80120E+02  1.71984E+02  1.64438E+02  1.56151E+02  1.49586E+02  1.41037E+02  1.35578E+02  1.27304E+02
   1.22603E+02  1.14917E+02  1.11238E+02  1.04724E+02  1.01958E+02  9.65246E+01  9.38447E+01  8.96058E+01  8.76424E+01  8.51670E+01
   8.22252E+01  7.99458E+01  7.66258E+01  7.54146E+01  7.23411E+01  7.16197E+01  6.83792E+01  6.91601E+01  6.71341E+01  6.80644E+01
   6.61182E+01  6.65408E+01  6.44826E+01  6.43647E+01  6.23053E+01  6.17719E+01  5.98493E+01  5.90881E+01  5.75358E+01  5.67149E+01
   5.52390E+01  5.41805E+01  5.28141E+01  5.16423E+01  5.03423E+01  4.89965E+01  4.77826E+01  4.66313E+01  4.55157E+01  4.44260E+01
   4.33564E+01  4.23018E+01  4.12564E+01  4.02145E+01  3.91697E+01  3.81172E+01  3.70528E+01  3.59747E+01  3.48827E+01  3.37795E+01
   3.26691E+01  3.15579E+01  3.04531E+01  2.93630E+01  2.82953E+01  2.72584E+01  2.62589E+01  2.53030E+01  2.43952E+01  2.35386E+01
   2.27348E+01  2.19841E+01  2.12854E+01  2.06367E+01  2.00348E+01  1.94763E+01  1.89568E+01  1.84721E+01  1.80175E+01  1.75889E+01
   1.71817E+01  1.67921E+01  1.64163E+01  1.60510E+01  1.56932E+01  1.53406E+01  1.49908E+01  1.46422E+01  1.42934E+01  1.39434E+01
   1.35913E+01  1.32369E+01  1.28797E+01  1.25200E+01  1.21578E+01  1.17935E+01  1.14275E+01  1.10606E+01  1.06931E+01  1.03259E+01
   9.95959E+00  9.59512E+00  9.23299E+00  8.87415E+00  8.51907E+00  8.16867E+00  7.82334E+00  7.48393E+00  7.15072E+00  6.82444E+00
   6.50530E+00  6.19394E+00  5.89043E+00  5.59532E+00  5.30859E+00  5.03068E+00  4.76147E+00  4.50134E+00  4.25008E+00  4.00798E+00
   3.77478E+00  3.55069E+00  3.33540E+00  3.12910E+00  2.93139E+00  2.74243E+00  2.56180E+00  2.38963E+00  2.22547E+00  2.06943E+00
   1.92103E+00  1.78038E+00  1.64698E+00  1.52093E+00  1.40175E+00  1.28952E+00  1.18375E+00  1.08451E+00  9.91338E-01  9.04297E-01
   8.22927E-01  7.47307E-01  6.76970E-01  6.11987E-01  5.51923E-01  4.96858E-01  4.46352E-01  4.00498E-01  3.58848E-01  3.21516E-01
   2.88062E-01  2.58610E-01  2.32734E-01  2.10546E-01  1.91625E-01  1.76101E-01  1.63563E-01  1.54143E-01  1.47431E-01  1.43555E-01
   1.42109E-01  1.43242E-01  1.46534E-01  1.52133E-01  1.59617E-01  1.69124E-01  1.80230E-01  1.93066E-01
 NY background values follow
    -3.130E+01   -3.139E+01   -3.149E+01   -3.158E+01   -3.167E+01   -3.177E+01   -3.186E+01   -3.196E+01   -3.205E+01   -3.214E+01
    -3.224E+01   -3.233E+01   -3.242E+01   -3.252E+01   -3.261E+01   -3.270E+01   -3.280E+01   -3.289E+01   -3.298E+01   -3.308E+01
    -3.317E+01   -3.326E+01   -3.336E+01   -3.345E+01   -3.354E+01   -3.363E+01   -3.373E+01   -3.382E+01   -3.391E+01   -3.400E+01
    -3.410E+01   -3.419E+01   -3.428E+01   -3.437E+01   -3.446E+01   -3.456E+01   -3.465E+01   -3.474E+01   -3.483E+01   -3.492E+01
    -3.501E+01   -3.510E+01   -3.519E+01   -3.529E+01   -3.538E+01   -3.547E+01   -3.556E+01   -3.565E+01   -3.574E+01   -3.583E+01
    -3.592E+01   -3.601E+01   -3.610E+01   -3.619E+01   -3.628E+01   -3.637E+01   -3.645E+01   -3.654E+01   -3.663E+01   -3.672E+01
    -3.681E+01   -3.690E+01   -3.698E+01   -3.707E+01   -3.716E+01   -3.725E+01   -3.733E+01   -3.742E+01   -3.751E+01   -3.759E+01
    -3.768E+01   -3.777E+01   -3.785E+01   -3.794E+01   -3.802E+01   -3.811E+01   -3.819E+01   -3.828E+01   -3.836E+01   -3.845E+01
    -3.853E+01   -3.861E+01   -3.870E+01   -3.878E+01   -3.886E+01   -3.894E+01   -3.903E+01   -3.911E+01   -3.919E+01   -3.927E+01
    -3.935E+01   -3.943E+01   -3.951E+01   -3.959E+01   -3.967E+01   -3.975E+01   -3.983E+01   -3.990E+01   -3.998E+01   -4.006E+01
    -4.014E+01   -4.021E+01   -4.029E+01   -4.037E+01   -4.044E+01   -4.052E+01   -4.059E+01   -4.066E+01   -4.074E+01   -4.081E+01
    -4.088E+01   -4.096E+01   -4.103E+01   -4.110E+01   -4.117E+01   -4.124E+01   -4.131E+01   -4.138E+01   -4.145E+01   -4.152E+01
    -4.159E+01   -4.165E+01   -4.172E+01   -4.179E+01   -4.185E+01   -4.192E+01   -4.198E+01   -4.205E+01   -4.211E+01   -4.217E+01
    -4.224E+01   -4.230E+01   -4.236E+01   -4.242E+01   -4.248E+01   -4.254E+01   -4.260E+01   -4.266E+01   -4.271E+01   -4.277E+01
    -4.283E+01   -4.288E+01   -4.294E+01   -4.299E+01   -4.304E+01   -4.310E+01   -4.315E+01   -4.320E+01   -4.325E+01   -4.330E+01
    -4.335E+01   -4.340E+01   -4.345E+01   -4.349E+01   -4.354E+01   -4.358E+01   -4.363E+01   -4.367E+01   -4.371E+01   -4.376E+01
    -4.380E+01   -4.384E+01   -4.388E+01   -4.392E+01   -4.395E+01   -4.399E+01   -4.403E+01   -4.406E+01   -4.410E+01   -4.413E+01
    -4.416E+01   -4.420E+01   -4.423E+01   -4.426E+01   -4.429E+01   -4.431E+01   -4.434E+01   -4.437E+01   -4.439E+01   -4.442E+01
    -4.444E+01   -4.447E+01   -4.449E+01   -4.451E+01   -4.453E+01   -4.455E+01   -4.457E+01   -4.459E+01   -4.460E+01   -4.462E+01
    -4.463E+01   -4.465E+01   -4.466E+01   -4.467E+01   -4.469E+01   -4.470E+01   -4.471E+01   -4.472E+01   -4.472E+01   -4.473E+01
    -4.474E+01   -4.474E+01   -4.475E+01   -4.475E+01   -4.475E+01   -4.475E+01   -4.476E+01   -4.476E+01   -4.476E+01   -4.475E+01
    -4.475E+01   -4.475E+01   -4.474E+01   -4.474E+01   -4.473E+01   -4.472E+01   -4.472E+01   -4.471E+01   -4.470E+01   -4.469E+01
    -4.468E+01   -4.466E+01   -4.465E+01   -4.464E+01   -4.462E+01   -4.461E+01   -4.459E+01   -4.457E+01   -4.455E+01   -4.454E+01
    -4.452E+01   -4.449E+01   -4.447E+01   -4.445E+01   -4.443E+01   -4.440E+01   -4.438E+01   -4.435E+01   -4.432E+01   -4.430E+01
    -4.427E+01   -4.424E+01   -4.421E+01   -4.418E+01   -4.414E+01   -4.411E+01   -4.408E+01   -4.404E+01   -4.401E+01   -4.397E+01
    -4.393E+01   -4.389E+01   -4.385E+01   -4.382E+01   -4.377E+01   -4.373E+01   -4.369E+01   -4.365E+01   -4.360E+01   -4.356E+01
    -4.351E+01   -4.347E+01   -4.342E+01   -4.337E+01   -4.332E+01   -4.327E+01   -4.322E+01   -4.317E+01   -4.312E+01   -4.306E+01
    -4.301E+01   -4.296E+01   -4.290E+01   -4.284E+01   -4.279E+01   -4.273E+01   -4.267E+01   -4.261E+01   -4.255E+01   -4.249E+01
    -4.243E+01   -4.236E+01   -4.230E+01   -4.224E+01   -4.217E+01   -4.211E+01   -4.204E+01   -4.197E+01   -4.190E+01   -4.183E+01
    -4.176E+01   -4.169E+01   -4.162E+01   -4.155E+01   -4.148E+01   -4.140E+01   -4.133E+01   -4.125E+01   -4.118E+01   -4.110E+01
    -4.102E+01   -4.095E+01   -4.087E+01   -4.079E+01   -4.071E+01   -4.063E+01   -4.054E+01   -4.046E+01   -4.038E+01   -4.029E+01
    -4.021E+01   -4.012E+01   -4.004E+01   -3.995E+01   -3.986E+01   -3.978E+01   -3.969E+01   -3.960E+01   -3.951E+01   -3.941E+01
    -3.932E+01   -3.923E+01   -3.914E+01   -3.904E+01   -3.895E+01   -3.885E+01   -3.876E+01   -3.866E+01   -3.856E+01   -3.847E+01
    -3.837E+01   -3.827E+01   -3.817E+01   -3.807E+01   -3.797E+01   -3.786E+01   -3.776E+01   -3.766E+01   -3.756E+01   -3.745E+01
    -3.735E+01   -3.724E+01   -3.713E+01   -3.703E+01   -3.692E+01   -3.681E+01   -3.670E+01   -3.659E+01   -3.648E+01   -3.637E+01
    -3.626E+01   -3.615E+01   -3.604E+01   -3.593E+01   -3.581E+01   -3.570E+01   -3.559E+01   -3.547E+01   -3.536E+01   -3.524E+01
    -3.512E+01   -3.501E+01   -3.489E+01   -3.477E+01   -3.465E+01   -3.453E+01   -3.442E+01   -3.430E+01   -3.418E+01   -3.405E+01
    -3.393E+01   -3.381E+01   -3.369E+01   -3.357E+01   -3.344E+01   -3.332E+01   -3.320E+01   -3.307E+01   -3.295E+01   -3.282E+01
    -3.270E+01   -3.257E+01   -3.245E+01   -3.232E+01   -3.219E+01   -3.206E+01   -3.194E+01   -3.181E+01   -3.168E+01   -3.155E+01
    -3.142E+01   -3.129E+01   -3.116E+01   -3.103E+01   -3.090E+01   -3.077E+01   -3.064E+01   -3.051E+01   -3.038E+01   -3.025E+01
    -3.011E+01   -2.998E+01   -2.985E+01   -2.971E+01   -2.958E+01   -2.945E+01   -2.931E+01   -2.918E+01   -2.904E+01   -2.891E+01
    -2.878E+01   -2.864E+01   -2.850E+01   -2.837E+01   -2.823E+01   -2.810E+01   -2.796E+01   -2.782E+01   -2.769E+01   -2.755E+01
    -2.741E+01   -2.728E+01   -2.714E+01   -2.700E+01   -2.687E+01   -2.673E+01   -2.659E+01   -2.645E+01   -2.631E+01   -2.618E+01
    -2.604E+01   -2.590E+01   -2.576E+01   -2.562E+01   -2.548E+01   -2.534E+01   -2.520E+01   -2.507E+01   -2.493E+01   -2.479E+01
    -2.465E+01   -2.451E+01   -2.437E+01   -2.423E+01   -2.409E+01   -2.395E+01   -2.381E+01   -2.367E+01   -2.353E+01   -2.339E+01
    -2.325E+01   -2.311E+01   -2.298E+01   -2.284E+01   -2.270E+01   -2.256E+01   -2.242E+01   -2.228E+01   -2.214E+01   -2.200E+01
    -2.186E+01   -2.172E+01   -2.158E+01   -2.144E+01   -2.130E+01   -2.117E+01   -2.103E+01   -2.089E+01   -2.075E+01   -2.061E+01
    -2.047E+01   -2.033E+01   -2.020E+01   -2.006E+01   -1.992E+01   -1.978E+01   -1.964E+01   -1.951E+01   -1.937E+01   -1.923E+01
    -1.910E+01   -1.896E+01   -1.882E+01   -1.869E+01   -1.855E+01   -1.841E+01   -1.828E+01   -1.814E+01   -1.801E+01   -1.787E+01
    -1.774E+01   -1.760E+01   -1.747E+01   -1.733E+01   -1.720E+01   -1.706E+01   -1.693E+01   -1.680E+01
 Ala      Conc. = 8.74E+03
