 LCModel (Version 6.3-1L) Copyright: S.W. Provencher.          Ref.: Magn. Reson. Med. 30:672-679 (1993).                
 Slice#1 Row#7 Col#4  PD_05_press_1_raw_act
 36 lines in following concentration table = NCONC+1
    Conc.  %SD /Cr+PCr  Metabolite                                         
   64.598 137% 8.3E-02 Ala                                                 
   99.359 155%   0.128 Asp                                                 
  453.138  34%   0.582 Cr                                                  
  325.999  49%   0.418 PCr                                                 
   71.143 145% 9.1E-02 GABA                                                
   61.108 166% 7.8E-02 Glc                                                 
  830.919  23%   1.066 Gln                                                 
 1.51E+03  14%   1.940 Glu                                                 
  284.515   6%   0.365 GPC                                                 
    0.000 999%   0.000 PCh                                                 
  363.214  16%   0.466 GSH                                                 
  898.876  19%   1.154 Ins                                                 
   18.634 520% 2.4E-02 Lac                                                 
 1.85E+03   5%   2.374 NAA                                                 
  152.582  72%   0.196 NAAG                                                
   62.717  31% 8.0E-02 Scyllo                                              
  180.994  77%   0.232 Tau                                                 
    0.000 999%   0.000 -CrCH2                                              
  284.515   6%   0.365 GPC+PCh                                             
 2.00E+03   3%   2.570 NAA+NAAG                                            
  779.137   5%   1.000 Cr+PCr                                              
 2.34E+03  13%   3.007 Glu+Gln                                             
  570.401  40%   0.732 Lip13a                                              
    0.000 999%   0.000 Lip13b                                              
    0.000 999%   0.000 Lip09                                               
  974.502  13%   1.251 MM09                                                
   91.250  94%   0.117 Lip20                                               
 2.14E+03  11%   2.751 MM20                                                
  306.493  28%   0.393 MM12                                                
 1.03E+03  21%   1.328 MM14                                                
  442.746  31%   0.568 MM17                                                
  570.401  40%   0.732 Lip13a+Lip13b                                       
 1.91E+03  11%   2.454 MM14+Lip13a+Lip13b+MM12                             
  974.502  13%   1.251 MM09+Lip09                                          
 2.23E+03  10%   2.868 MM20+Lip20                                          
   6 lines in following misc. output table
  FWHM = 0.061 ppm    S/N =  12                                            
  Data shift = 0.015 ppm                                                   
  Ph: -32 deg      -0.5 deg/ppm                                            
  alphaB,S = 8.5E+01,   2.0E+02                                            
   14 spline knots.   Ns = 7(1)                                            
   2 inflections.     1 extrema                                            
  498 points on ppm-axis = NY
      4.000000     3.992357     3.984714     3.977070     3.969427     3.961784     3.954141     3.946497     3.938854     3.931211
      3.923568     3.915925     3.908281     3.900638     3.892995     3.885352     3.877708     3.870065     3.862422     3.854779
      3.847136     3.839492     3.831849     3.824206     3.816563     3.808919     3.801276     3.793633     3.785990     3.778347
      3.770703     3.763060     3.755417     3.747774     3.740130     3.732487     3.724844     3.717201     3.709558     3.701914
      3.694271     3.686628     3.678985     3.671341     3.663698     3.656055     3.648412     3.640769     3.633125     3.625482
      3.617839     3.610196     3.602552     3.594909     3.587266     3.579623     3.571980     3.564336     3.556693     3.549050
      3.541407     3.533763     3.526120     3.518477     3.510834     3.503191     3.495547     3.487904     3.480261     3.472618
      3.464974     3.457331     3.449688     3.442045     3.434402     3.426758     3.419115     3.411472     3.403829     3.396185
      3.388542     3.380899     3.373256     3.365613     3.357969     3.350326     3.342683     3.335040     3.327396     3.319753
      3.312110     3.304467     3.296824     3.289180     3.281537     3.273894     3.266251     3.258607     3.250964     3.243321
      3.235678     3.228034     3.220391     3.212748     3.205105     3.197462     3.189818     3.182175     3.174532     3.166889
      3.159245     3.151602     3.143959     3.136316     3.128673     3.121029     3.113386     3.105743     3.098100     3.090456
      3.082813     3.075170     3.067527     3.059884     3.052240     3.044597     3.036954     3.029311     3.021667     3.014024
      3.006381     2.998738     2.991095     2.983451     2.975808     2.968165     2.960522     2.952878     2.945235     2.937592
      2.929949     2.922306     2.914662     2.907019     2.899376     2.891733     2.884089     2.876446     2.868803     2.861160
      2.853517     2.845873     2.838230     2.830587     2.822944     2.815300     2.807657     2.800014     2.792371     2.784728
      2.777084     2.769441     2.761798     2.754155     2.746511     2.738868     2.731225     2.723582     2.715939     2.708295
      2.700652     2.693009     2.685366     2.677722     2.670079     2.662436     2.654793     2.647150     2.639506     2.631863
      2.624220     2.616577     2.608933     2.601290     2.593647     2.586004     2.578361     2.570717     2.563074     2.555431
      2.547788     2.540144     2.532501     2.524858     2.517215     2.509572     2.501928     2.494285     2.486642     2.478999
      2.471355     2.463712     2.456069     2.448426     2.440783     2.433139     2.425496     2.417853     2.410210     2.402566
      2.394923     2.387280     2.379637     2.371994     2.364350     2.356707     2.349064     2.341421     2.333777     2.326134
      2.318491     2.310848     2.303205     2.295561     2.287918     2.280275     2.272632     2.264988     2.257345     2.249702
      2.242059     2.234416     2.226772     2.219129     2.211486     2.203843     2.196199     2.188556     2.180913     2.173270
      2.165627     2.157983     2.150340     2.142697     2.135054     2.127410     2.119767     2.112124     2.104481     2.096838
      2.089194     2.081551     2.073908     2.066265     2.058621     2.050978     2.043335     2.035692     2.028049     2.020405
      2.012762     2.005119     1.997476     1.989833     1.982190     1.974546     1.966903     1.959260     1.951617     1.943974
      1.936331     1.928688     1.921045     1.913402     1.905759     1.898115     1.890472     1.882829     1.875186     1.867543
      1.859900     1.852257     1.844614     1.836971     1.829327     1.821684     1.814041     1.806398     1.798755     1.791112
      1.783469     1.775826     1.768183     1.760540     1.752896     1.745253     1.737610     1.729967     1.722324     1.714681
      1.707038     1.699395     1.691752     1.684108     1.676465     1.668822     1.661179     1.653536     1.645893     1.638250
      1.630607     1.622964     1.615321     1.607677     1.600034     1.592391     1.584748     1.577105     1.569462     1.561819
      1.554176     1.546533     1.538890     1.531246     1.523603     1.515960     1.508317     1.500674     1.493031     1.485388
      1.477745     1.470102     1.462458     1.454815     1.447172     1.439529     1.431886     1.424243     1.416600     1.408957
      1.401314     1.393671     1.386027     1.378384     1.370741     1.363098     1.355455     1.347812     1.340169     1.332526
      1.324883     1.317240     1.309596     1.301953     1.294310     1.286667     1.279024     1.271381     1.263738     1.256095
      1.248452     1.240808     1.233165     1.225522     1.217879     1.210236     1.202593     1.194950     1.187307     1.179664
      1.172021     1.164377     1.156734     1.149091     1.141448     1.133805     1.126162     1.118519     1.110876     1.103233
      1.095590     1.087946     1.080303     1.072660     1.065017     1.057374     1.049731     1.042088     1.034445     1.026802
      1.019158     1.011515     1.003872     0.996229     0.988586     0.980943     0.973300     0.965657     0.958014     0.950371
      0.942727     0.935084     0.927441     0.919798     0.912155     0.904512     0.896869     0.889226     0.881583     0.873940
      0.866296     0.858653     0.851010     0.843367     0.835724     0.828081     0.820438     0.812795     0.805152     0.797508
      0.789865     0.782222     0.774579     0.766936     0.759293     0.751650     0.744007     0.736364     0.728721     0.721077
      0.713434     0.705791     0.698148     0.690505     0.682862     0.675219     0.667576     0.659933     0.652290     0.644646
      0.637003     0.629360     0.621717     0.614074     0.606431     0.598788     0.591145     0.583502     0.575858     0.568215
      0.560572     0.552929     0.545286     0.537643     0.530000     0.522357     0.514714     0.507071     0.499427     0.491784
      0.484141     0.476498     0.468855     0.461212     0.453569     0.445925     0.438282     0.430639     0.422996     0.415353
      0.407710     0.400067     0.392424     0.384780     0.377137     0.369494     0.361851     0.354208     0.346565     0.338922
      0.331278     0.323635     0.315992     0.308349     0.300706     0.293063     0.285420     0.277777     0.270133     0.262490
      0.254847     0.247204     0.239561     0.231918     0.224275     0.216631     0.208988     0.201345
 NY phased data points follow
   1.18977E+00  3.89743E+00  6.33639E+00  7.97001E+00  8.93493E+00  1.48839E+01  1.03850E+01  1.43130E+01  1.25486E+01  1.85129E+01
   1.81384E+01  1.52136E+01  2.06975E+01  1.40307E+01  1.25600E+01  5.32735E+00  5.53364E+00  8.12846E+00  2.42763E+00  5.48681E+00
   3.84152E+00  3.89535E+00  4.75262E+00  7.76890E+00  6.80936E+00  6.98542E+00  4.93327E+00  4.62717E+00  8.05853E+00  1.03300E+01
   1.18224E+01  1.03061E+01  9.08426E+00  6.36426E+00  2.75859E+00  2.73292E+00  5.23549E+00  6.43513E+00  3.69435E+00  5.27609E+00
   5.81799E+00  7.14178E+00  7.45867E+00  6.99713E+00  4.24315E+00  7.51968E+00  8.12682E+00  8.76862E+00  1.06992E+01  8.11359E+00
   2.35883E+00  5.41121E+00  3.83883E+00  4.81226E+00  1.07667E-01  3.04255E+00  6.07983E+00  3.54832E+00  3.05423E+00  3.42776E+00
   6.14763E-01  4.48191E+00 -2.67215E+00  8.57786E-01  9.14940E-02 -1.44158E+00  1.24085E+00  3.92385E+00  1.87489E+00  1.85674E+00
   6.14182E-01  7.23203E-01 -3.16850E+00  3.46126E+00  1.79326E+00  2.46847E+00  5.05732E+00  1.59853E+00  2.49350E-01 -1.06672E+00
   3.95964E+00  3.56958E+00  1.80410E+00  2.68752E+00  3.72742E-01  2.60196E+00  1.35361E+00  4.24535E+00  2.94020E+00  4.53234E+00
   4.47581E+00  2.46321E+00  1.17021E+00  3.59720E+00  9.55570E-01  2.23152E+00  1.46079E-01  1.13961E+01  1.24820E+01  1.59115E+01
   1.85266E+01  2.20575E+01  2.27852E+01  2.45661E+01  2.21767E+01  1.85108E+01  1.31002E+01  1.01350E+01  9.69740E+00  8.15128E+00
   4.72894E+00  4.55129E+00  3.07672E+00  7.57527E-01  2.60272E+00  6.26591E-01  5.88031E-01  2.02476E+00 -1.14456E+00 -1.04816E+00
   6.57743E+00  4.08826E+00  7.01649E+00  1.30906E+01  1.44930E+01  2.11176E+01  2.44908E+01  2.98025E+01  2.54274E+01  2.21084E+01
   1.77601E+01  1.01915E+01  3.79256E+00  1.43352E+00  6.15597E+00 -1.12004E-01  4.02118E-01  1.25727E+00  1.34469E+00  2.66026E+00
   3.92780E-01  4.56908E+00 -1.08292E+00  2.92039E+00  1.30869E+00  4.35059E+00 -1.32374E+00  1.47054E+00  7.02521E-01  8.61865E-01
  -1.68741E-01  2.14701E+00  1.41062E+00 -9.12184E-01 -3.94750E+00 -2.72961E+00 -7.81969E-01 -4.58924E+00 -1.46216E-02 -1.25323E+00
  -4.74090E+00 -4.55569E+00 -1.85111E+00 -3.75346E+00 -4.05290E+00 -3.00353E+00 -2.66240E+00 -8.96691E-01 -6.02169E+00 -6.38246E+00
  -6.52799E+00 -7.44245E+00 -8.67613E+00 -8.27359E+00 -9.12544E+00 -1.13325E+01 -1.12904E+01 -8.85396E+00 -1.06862E+01 -8.20813E+00
  -8.52979E+00 -1.26820E+01 -7.05414E+00 -6.87660E+00 -2.14012E+00 -4.56435E+00  2.02196E+00  6.28398E-01  2.22533E-01  2.17320E-02
  -1.78893E+00 -2.84107E+00 -3.34552E+00 -3.19131E+00 -7.58748E-01 -5.05860E-01 -5.57391E+00 -3.80926E+00 -2.91984E+00 -7.11263E-01
  -2.53553E+00  2.41178E+00 -1.11073E+00  3.32025E+00  1.83999E+00 -1.63588E+00 -1.14845E+00 -2.75896E+00 -2.18802E+00 -1.21127E+00
   5.20854E-01 -1.91160E+00  3.00608E+00  6.09308E+00  1.17260E+01  1.04536E+01  7.72880E+00  7.87025E+00  5.97049E+00 -3.37558E-01
   8.87455E-01 -2.07598E+00 -5.56115E+00 -3.23300E+00 -1.29145E+00  2.91124E+00  3.65283E+00  3.98296E+00  5.22534E+00  7.54403E+00
   1.92532E+00  6.41011E+00  4.11192E+00  2.10101E+00  6.43179E+00  4.33323E+00  7.17307E+00  6.94126E+00  6.43372E+00  3.30824E+00
   4.61965E+00  5.56238E+00 -7.63213E-01  1.83722E+00  6.03801E+00  5.34043E+00  7.40659E+00  1.29096E+01  1.34880E+01  1.10352E+01
   1.17602E+01  1.43227E+01  1.48192E+01  2.07252E+01  2.45671E+01  3.07431E+01  4.03891E+01  5.06697E+01  5.47155E+01  6.74245E+01
   6.91252E+01  6.81268E+01  5.86014E+01  4.38099E+01  2.61673E+01  1.78018E+01  1.35071E+01  1.32850E+01  5.99438E+00  4.15538E+00
   5.23464E+00  1.19925E+01  5.46751E+00  9.26651E+00  5.39790E+00  1.37814E+00  1.72816E+00  1.93805E+00  2.04687E+00  3.69829E+00
  -6.93329E-01 -6.00259E-01 -7.34220E-01  2.97618E-01  4.84604E+00  9.76828E-01  2.01688E+00  2.17684E+00  8.86251E-01  1.04987E+00
   2.48091E+00 -1.12959E+00  2.16990E+00 -6.54184E-01  5.78944E-01  1.84550E+00 -8.70689E-01  3.69637E+00 -1.68905E-01  7.05334E-01
  -2.21328E+00  1.27871E+00 -1.35256E+00  7.20015E-01 -2.80348E+00 -2.41889E+00 -4.64967E-01  3.35284E+00  1.99152E+00  3.22974E+00
   3.82342E+00  5.03003E+00  4.51059E+00  8.46670E+00  4.62853E+00  4.13124E+00  4.89252E+00  5.25727E+00  5.57879E+00  3.86141E+00
   3.23780E+00  6.47071E+00  1.88454E+00  1.37293E+00  1.13452E+00 -4.57233E-01 -1.74827E+00  1.54901E+00  1.50919E+00  4.26339E-01
   3.61404E+00  4.14005E+00  4.32850E+00  5.80139E+00  8.64816E+00  5.47823E+00  6.16440E+00  3.47656E+00  8.63906E+00  1.01509E+01
   4.50726E+00  3.00254E+00  6.34623E+00  5.83010E+00  1.00756E+01  4.67048E+00  6.49326E+00  4.13299E+00  8.12762E+00  4.77527E+00
   3.36145E+00  4.57054E+00  8.30845E+00  4.55597E+00  6.28111E+00  3.71369E+00  5.19675E+00  4.59078E+00  3.05277E+00  2.93069E+00
   3.57258E+00  4.10878E+00  7.07315E+00  3.84633E+00  2.01328E+00  2.89991E+00  7.40342E+00  6.44839E+00  4.16319E+00  3.70488E+00
   4.08078E+00  4.52483E+00  1.74195E+00  1.59116E+00  1.08944E+00 -1.64334E+00 -8.71029E-01  4.14859E+00  1.24904E+00 -2.87708E+00
   2.85845E+00  2.31840E+00  3.01287E+00  2.32847E+00  4.00843E+00  2.62580E+00 -6.61471E-01  8.71112E-01  4.57664E+00  4.60323E+00
   2.38781E+00  6.42982E+00  2.61543E+00  4.08594E+00  1.95223E+00  9.97041E+00  1.74677E+00  6.63905E+00  2.35373E+00  5.23783E+00
   3.22037E+00  3.69648E+00  5.01675E+00  7.83522E+00  4.89755E+00  9.92246E-01  6.24840E+00  3.06542E+00  1.72754E+00 -1.88518E+00
   1.63836E+00  1.91116E+00  1.12019E+00  3.57378E+00  3.70702E+00  4.17758E+00  3.92781E+00  1.14670E+00  6.51797E+00 -1.35081E-01
   8.62303E-01  2.17887E+00  3.80844E-01  4.42654E+00  4.99791E+00 -1.56689E+00  2.05875E+00  2.39325E-01  2.30971E-01 -1.61956E+00
   1.39939E+00  3.02935E+00 -2.08794E+00 -3.52086E+00  2.12721E-01 -2.34341E+00 -8.46385E-01 -2.90734E+00 -4.14479E+00 -3.87459E+00
  -2.23924E+00 -1.28443E+00  1.02931E+00 -8.66842E-01  1.19057E+00 -1.14530E+00 -1.54696E+00 -3.84027E+00 -2.75779E+00  2.91726E+00
  -3.04057E+00 -6.22084E-01 -1.00298E+00 -2.04190E+00  1.42062E+00 -1.00849E+00  3.28272E-01 -1.94754E+00 -2.02796E+00  7.83779E-01
  -1.57986E+00 -2.35071E+00 -3.55883E+00  1.45776E+00  2.24974E+00 -2.57505E+00 -1.01613E+00 -6.05484E-01 -7.59444E-01 -1.64399E+00
  -5.30566E-01 -1.55889E+00  1.32132E+00 -1.20757E+00 -1.80266E+00  5.25328E-01 -1.44861E+00 -2.83580E+00 -2.32883E+00 -1.21617E+00
   1.00894E+00 -2.63942E+00  1.46687E-01  2.15122E+00 -8.53735E-01 -2.28780E+00 -1.39600E+00 -1.82407E+00  1.94044E+00 -8.97639E-01
   1.60780E+00 -4.22114E-01 -3.92148E-02 -2.17637E+00 -9.60922E-02 -5.36470E-01  1.65165E+00 -4.01639E+00
 NY points of the fit to the data follow
   3.29100E+00  3.41388E+00  4.06448E+00  5.20783E+00  6.84015E+00  9.07770E+00  1.15893E+01  1.40354E+01  1.61378E+01  1.76021E+01
   1.81408E+01  1.75494E+01  1.58571E+01  1.33924E+01  1.06816E+01  8.23047E+00  6.32538E+00  5.03245E+00  4.24069E+00  3.71559E+00
   3.40402E+00  3.27624E+00  3.35516E+00  3.77331E+00  4.47751E+00  5.45055E+00  6.72687E+00  8.27751E+00  9.89016E+00  1.11498E+01
   1.17084E+01  1.14000E+01  1.02066E+01  8.42487E+00  6.44381E+00  4.60344E+00  3.13549E+00  2.10426E+00  1.64248E+00  1.82652E+00
   2.57283E+00  3.69643E+00  4.93418E+00  6.10123E+00  7.08796E+00  7.79213E+00  8.12606E+00  7.95916E+00  7.18444E+00  5.91324E+00
   4.40005E+00  2.98737E+00  2.00388E+00  1.53533E+00  1.45814E+00  1.64464E+00  2.00954E+00  2.44379E+00  2.80456E+00  2.99912E+00
   2.99387E+00  2.77292E+00  2.39637E+00  1.96441E+00  1.62163E+00  1.49655E+00  1.58016E+00  1.78910E+00  2.07748E+00  2.40837E+00
   2.71450E+00  2.94486E+00  3.06507E+00  3.05963E+00  2.93218E+00  2.71494E+00  2.44580E+00  2.15443E+00  1.90273E+00  1.79983E+00
   1.93123E+00  2.20539E+00  2.50627E+00  2.76339E+00  2.94214E+00  3.00311E+00  2.87581E+00  2.53723E+00  2.05301E+00  1.57510E+00
   1.24541E+00  1.14252E+00  1.24931E+00  1.45772E+00  1.74949E+00  2.43919E+00  4.34324E+00  7.43936E+00  1.11012E+01  1.49919E+01
   1.88731E+01  2.23655E+01  2.47764E+01  2.52932E+01  2.34630E+01  1.95757E+01  1.46249E+01  9.88375E+00  6.23809E+00  3.77578E+00
   2.07942E+00  9.02597E-01  4.02003E-01  3.54000E-01  4.13591E-01  5.10594E-01  6.34277E-01  8.15189E-01  1.11004E+00  1.73040E+00
   3.37886E+00  6.33325E+00  1.00075E+01  1.40015E+01  1.80702E+01  2.18711E+01  2.48101E+01  2.60494E+01  2.49589E+01  2.16307E+01
   1.68990E+01  1.19618E+01  7.79873E+00  4.67431E+00  2.33947E+00  5.91791E-01 -3.34165E-01 -4.34958E-01 -1.12878E-01  3.86598E-01
   8.55954E-01  1.15670E+00  1.25273E+00  1.15008E+00  9.04716E-01  6.06776E-01  3.01340E-01 -4.25005E-03 -2.94889E-01 -5.57692E-01
  -7.65475E-01 -9.20106E-01 -1.02799E+00 -1.11813E+00 -1.26129E+00 -1.45331E+00 -1.66698E+00 -1.87931E+00 -2.05536E+00 -2.23282E+00
  -2.39576E+00 -2.47195E+00 -2.42295E+00 -2.29406E+00 -2.19161E+00 -2.22624E+00 -2.44616E+00 -2.79876E+00 -3.18822E+00 -3.58543E+00
  -3.97436E+00 -4.28477E+00 -4.52565E+00 -4.72075E+00 -4.89472E+00 -5.02266E+00 -5.02042E+00 -4.87030E+00 -4.65746E+00 -4.50432E+00
  -4.49941E+00 -4.53857E+00 -4.43618E+00 -4.09171E+00 -3.51855E+00 -2.80595E+00 -2.01915E+00 -1.14294E+00 -2.54280E-01  4.80449E-01
   8.58271E-01  7.65072E-01  3.02726E-01 -2.80366E-01 -7.13644E-01 -8.36940E-01 -5.84786E-01  1.41966E-01  1.25015E+00  2.52414E+00
   3.69684E+00  4.44459E+00  4.48045E+00  3.75835E+00  2.43932E+00  6.76097E-01 -1.36201E+00 -3.28537E+00 -4.55938E+00 -4.64905E+00
  -3.44908E+00 -1.37686E+00  1.10833E+00  3.58756E+00  5.59372E+00  6.63816E+00  6.34137E+00  4.71178E+00  2.16443E+00 -6.78177E-01
  -3.08593E+00 -4.52244E+00 -4.75592E+00 -3.80728E+00 -1.99040E+00  2.74230E-01  2.44097E+00  3.95988E+00  4.62868E+00  4.70159E+00
   4.60035E+00  4.52955E+00  4.58889E+00  4.93275E+00  5.54487E+00  6.19039E+00  6.63877E+00  6.76468E+00  6.54192E+00  5.98522E+00
   5.16451E+00  4.35897E+00  3.93648E+00  4.07788E+00  4.71427E+00  5.69478E+00  6.82748E+00  7.88828E+00  8.81971E+00  9.80560E+00
   1.08984E+01  1.20844E+01  1.37818E+01  1.78841E+01  2.50396E+01  3.36299E+01  4.25832E+01  5.13778E+01  5.93878E+01  6.53179E+01
   6.73883E+01  6.42443E+01  5.59887E+01  4.44797E+01  3.26382E+01  2.29167E+01  1.59489E+01  1.08818E+01  7.00084E+00  4.74008E+00
   3.87755E+00  3.44870E+00  3.20778E+00  3.09232E+00  3.02235E+00  2.91210E+00  2.73605E+00  2.48913E+00  2.19055E+00  1.87878E+00
   1.58891E+00  1.33513E+00  1.12714E+00  9.72708E-01  8.64658E-01  7.87328E-01  7.26658E-01  6.75758E-01  6.36041E-01  6.09883E-01
   5.96825E-01  6.00214E-01  6.20681E-01  6.56185E-01  7.05124E-01  7.67773E-01  8.44800E-01  9.37334E-01  1.04628E+00  1.17137E+00
   1.31088E+00  1.46279E+00  1.62306E+00  1.78600E+00  1.94630E+00  2.09971E+00  2.24293E+00  2.37311E+00  2.48790E+00  2.58653E+00
   2.66874E+00  2.73453E+00  2.78489E+00  2.82186E+00  2.84849E+00  2.86888E+00  2.88813E+00  2.91250E+00  2.95050E+00  3.01704E+00
   3.12938E+00  3.26064E+00  3.38185E+00  3.48469E+00  3.56093E+00  3.59483E+00  3.56549E+00  3.46493E+00  3.34582E+00  3.28154E+00
   3.31903E+00  3.48459E+00  3.77500E+00  4.15879E+00  4.59052E+00  5.02457E+00  5.41385E+00  5.70163E+00  5.86929E+00  5.94574E+00
   5.97901E+00  5.99639E+00  5.99270E+00  5.96019E+00  5.91080E+00  5.84792E+00  5.75834E+00  5.63587E+00  5.49369E+00  5.35168E+00
   5.22529E+00  5.12647E+00  5.05906E+00  5.01656E+00  4.98534E+00  4.95057E+00  4.89954E+00  4.81855E+00  4.70107E+00  4.55509E+00
   4.39322E+00  4.22427E+00  4.04991E+00  3.86978E+00  3.68895E+00  3.51016E+00  3.33268E+00  3.15712E+00  2.98481E+00  2.81748E+00
   2.65707E+00  2.50561E+00  2.36506E+00  2.23730E+00  2.12412E+00  2.02730E+00  1.94858E+00  1.88954E+00  1.85160E+00  1.83593E+00
   1.84362E+00  1.87561E+00  1.93264E+00  2.01510E+00  2.12300E+00  2.25594E+00  2.41309E+00  2.59317E+00  2.79428E+00  3.01382E+00
   3.24844E+00  3.49420E+00  3.74654E+00  4.00038E+00  4.25016E+00  4.48993E+00  4.71361E+00  4.91526E+00  5.08931E+00  5.23073E+00
   5.33521E+00  5.39932E+00  5.42075E+00  5.39845E+00  5.33266E+00  5.22478E+00  5.07729E+00  4.89365E+00  4.67818E+00  4.43589E+00
   4.17215E+00  3.89246E+00  3.60222E+00  3.30657E+00  3.01031E+00  2.71775E+00  2.43254E+00  2.15765E+00  1.89534E+00  1.64727E+00
   1.41455E+00  1.19780E+00  9.97140E-01  8.12280E-01  6.42633E-01  4.87455E-01  3.45900E-01  2.17023E-01  9.97900E-02 -6.86731E-03
  -1.03963E-01 -1.92406E-01 -2.73026E-01 -3.46616E-01 -4.13953E-01 -4.75747E-01 -5.32594E-01 -5.84982E-01 -6.33343E-01 -6.78103E-01
  -7.19678E-01 -7.58420E-01 -7.94595E-01 -8.28406E-01 -8.60059E-01 -8.89786E-01 -9.17809E-01 -9.44293E-01 -9.69337E-01 -9.93024E-01
  -1.01547E+00 -1.03681E+00 -1.05718E+00 -1.07662E+00 -1.09518E+00 -1.11288E+00 -1.12982E+00 -1.14610E+00 -1.16177E+00 -1.17686E+00
  -1.19135E+00 -1.20529E+00 -1.21875E+00 -1.23179E+00 -1.24443E+00 -1.25666E+00 -1.26849E+00 -1.27994E+00 -1.29109E+00 -1.30198E+00
  -1.31259E+00 -1.32290E+00 -1.33291E+00 -1.34269E+00 -1.35226E+00 -1.36166E+00 -1.37084E+00 -1.37980E+00 -1.38856E+00 -1.39717E+00
  -1.40566E+00 -1.41403E+00 -1.42224E+00 -1.43029E+00 -1.43821E+00 -1.44606E+00 -1.45384E+00 -1.46153E+00 -1.46910E+00 -1.47657E+00
  -1.48400E+00 -1.49140E+00 -1.49878E+00 -1.50611E+00 -1.51336E+00 -1.52059E+00 -1.52785E+00 -1.53515E+00
 NY background values follow
    -1.039E+00   -1.041E+00   -1.043E+00   -1.045E+00   -1.047E+00   -1.049E+00   -1.051E+00   -1.054E+00   -1.056E+00   -1.058E+00
    -1.060E+00   -1.062E+00   -1.064E+00   -1.067E+00   -1.069E+00   -1.071E+00   -1.073E+00   -1.075E+00   -1.077E+00   -1.080E+00
    -1.082E+00   -1.084E+00   -1.086E+00   -1.088E+00   -1.090E+00   -1.092E+00   -1.095E+00   -1.097E+00   -1.099E+00   -1.101E+00
    -1.103E+00   -1.105E+00   -1.108E+00   -1.110E+00   -1.112E+00   -1.114E+00   -1.116E+00   -1.118E+00   -1.121E+00   -1.123E+00
    -1.125E+00   -1.127E+00   -1.129E+00   -1.131E+00   -1.134E+00   -1.136E+00   -1.138E+00   -1.140E+00   -1.142E+00   -1.144E+00
    -1.146E+00   -1.149E+00   -1.151E+00   -1.153E+00   -1.155E+00   -1.157E+00   -1.159E+00   -1.162E+00   -1.164E+00   -1.166E+00
    -1.168E+00   -1.170E+00   -1.172E+00   -1.175E+00   -1.177E+00   -1.179E+00   -1.181E+00   -1.183E+00   -1.185E+00   -1.187E+00
    -1.190E+00   -1.192E+00   -1.194E+00   -1.196E+00   -1.198E+00   -1.200E+00   -1.203E+00   -1.205E+00   -1.207E+00   -1.209E+00
    -1.211E+00   -1.213E+00   -1.215E+00   -1.218E+00   -1.220E+00   -1.222E+00   -1.224E+00   -1.226E+00   -1.228E+00   -1.231E+00
    -1.233E+00   -1.235E+00   -1.237E+00   -1.239E+00   -1.241E+00   -1.243E+00   -1.246E+00   -1.248E+00   -1.250E+00   -1.252E+00
    -1.254E+00   -1.256E+00   -1.259E+00   -1.261E+00   -1.263E+00   -1.265E+00   -1.267E+00   -1.269E+00   -1.271E+00   -1.274E+00
    -1.276E+00   -1.278E+00   -1.280E+00   -1.282E+00   -1.284E+00   -1.287E+00   -1.289E+00   -1.291E+00   -1.293E+00   -1.295E+00
    -1.297E+00   -1.299E+00   -1.302E+00   -1.304E+00   -1.306E+00   -1.308E+00   -1.310E+00   -1.312E+00   -1.314E+00   -1.317E+00
    -1.319E+00   -1.321E+00   -1.323E+00   -1.325E+00   -1.327E+00   -1.329E+00   -1.332E+00   -1.334E+00   -1.336E+00   -1.338E+00
    -1.340E+00   -1.342E+00   -1.345E+00   -1.347E+00   -1.349E+00   -1.351E+00   -1.353E+00   -1.355E+00   -1.357E+00   -1.360E+00
    -1.362E+00   -1.364E+00   -1.366E+00   -1.368E+00   -1.370E+00   -1.372E+00   -1.374E+00   -1.377E+00   -1.379E+00   -1.381E+00
    -1.383E+00   -1.385E+00   -1.387E+00   -1.389E+00   -1.392E+00   -1.394E+00   -1.396E+00   -1.398E+00   -1.400E+00   -1.402E+00
    -1.404E+00   -1.407E+00   -1.409E+00   -1.411E+00   -1.413E+00   -1.415E+00   -1.417E+00   -1.419E+00   -1.421E+00   -1.424E+00
    -1.426E+00   -1.428E+00   -1.430E+00   -1.432E+00   -1.434E+00   -1.436E+00   -1.439E+00   -1.441E+00   -1.443E+00   -1.445E+00
    -1.447E+00   -1.449E+00   -1.451E+00   -1.453E+00   -1.456E+00   -1.458E+00   -1.460E+00   -1.462E+00   -1.464E+00   -1.466E+00
    -1.468E+00   -1.470E+00   -1.473E+00   -1.475E+00   -1.477E+00   -1.479E+00   -1.481E+00   -1.483E+00   -1.485E+00   -1.487E+00
    -1.489E+00   -1.492E+00   -1.494E+00   -1.496E+00   -1.498E+00   -1.500E+00   -1.502E+00   -1.504E+00   -1.506E+00   -1.509E+00
    -1.511E+00   -1.513E+00   -1.515E+00   -1.517E+00   -1.519E+00   -1.521E+00   -1.523E+00   -1.525E+00   -1.528E+00   -1.530E+00
    -1.532E+00   -1.534E+00   -1.536E+00   -1.538E+00   -1.540E+00   -1.542E+00   -1.544E+00   -1.547E+00   -1.549E+00   -1.551E+00
    -1.553E+00   -1.555E+00   -1.557E+00   -1.559E+00   -1.561E+00   -1.563E+00   -1.565E+00   -1.568E+00   -1.570E+00   -1.572E+00
    -1.574E+00   -1.576E+00   -1.578E+00   -1.580E+00   -1.582E+00   -1.584E+00   -1.586E+00   -1.589E+00   -1.591E+00   -1.593E+00
    -1.595E+00   -1.597E+00   -1.599E+00   -1.601E+00   -1.603E+00   -1.605E+00   -1.607E+00   -1.610E+00   -1.612E+00   -1.614E+00
    -1.616E+00   -1.618E+00   -1.620E+00   -1.622E+00   -1.624E+00   -1.626E+00   -1.628E+00   -1.630E+00   -1.633E+00   -1.635E+00
    -1.637E+00   -1.639E+00   -1.641E+00   -1.643E+00   -1.645E+00   -1.647E+00   -1.649E+00   -1.651E+00   -1.653E+00   -1.655E+00
    -1.658E+00   -1.660E+00   -1.662E+00   -1.664E+00   -1.666E+00   -1.668E+00   -1.670E+00   -1.672E+00   -1.674E+00   -1.676E+00
    -1.678E+00   -1.680E+00   -1.682E+00   -1.684E+00   -1.687E+00   -1.689E+00   -1.691E+00   -1.693E+00   -1.695E+00   -1.697E+00
    -1.699E+00   -1.701E+00   -1.703E+00   -1.705E+00   -1.707E+00   -1.709E+00   -1.711E+00   -1.713E+00   -1.716E+00   -1.718E+00
    -1.720E+00   -1.722E+00   -1.724E+00   -1.726E+00   -1.728E+00   -1.730E+00   -1.732E+00   -1.734E+00   -1.736E+00   -1.738E+00
    -1.740E+00   -1.742E+00   -1.744E+00   -1.746E+00   -1.748E+00   -1.750E+00   -1.753E+00   -1.755E+00   -1.757E+00   -1.759E+00
    -1.761E+00   -1.763E+00   -1.765E+00   -1.767E+00   -1.769E+00   -1.771E+00   -1.773E+00   -1.775E+00   -1.777E+00   -1.779E+00
    -1.781E+00   -1.783E+00   -1.785E+00   -1.787E+00   -1.789E+00   -1.791E+00   -1.793E+00   -1.795E+00   -1.798E+00   -1.800E+00
    -1.802E+00   -1.804E+00   -1.806E+00   -1.808E+00   -1.810E+00   -1.812E+00   -1.814E+00   -1.816E+00   -1.818E+00   -1.820E+00
    -1.822E+00   -1.824E+00   -1.826E+00   -1.828E+00   -1.830E+00   -1.832E+00   -1.834E+00   -1.836E+00   -1.838E+00   -1.840E+00
    -1.842E+00   -1.844E+00   -1.846E+00   -1.848E+00   -1.850E+00   -1.852E+00   -1.854E+00   -1.856E+00   -1.858E+00   -1.860E+00
    -1.862E+00   -1.864E+00   -1.866E+00   -1.868E+00   -1.870E+00   -1.872E+00   -1.874E+00   -1.876E+00   -1.878E+00   -1.880E+00
    -1.882E+00   -1.884E+00   -1.886E+00   -1.888E+00   -1.890E+00   -1.892E+00   -1.894E+00   -1.896E+00   -1.898E+00   -1.900E+00
    -1.902E+00   -1.904E+00   -1.906E+00   -1.908E+00   -1.910E+00   -1.912E+00   -1.914E+00   -1.916E+00   -1.918E+00   -1.920E+00
    -1.922E+00   -1.924E+00   -1.926E+00   -1.928E+00   -1.930E+00   -1.932E+00   -1.934E+00   -1.936E+00   -1.938E+00   -1.940E+00
    -1.942E+00   -1.944E+00   -1.946E+00   -1.948E+00   -1.950E+00   -1.952E+00   -1.954E+00   -1.956E+00   -1.958E+00   -1.960E+00
    -1.962E+00   -1.964E+00   -1.966E+00   -1.968E+00   -1.970E+00   -1.972E+00   -1.974E+00   -1.976E+00   -1.978E+00   -1.980E+00
    -1.982E+00   -1.984E+00   -1.986E+00   -1.988E+00   -1.990E+00   -1.992E+00   -1.994E+00   -1.995E+00   -1.997E+00   -1.999E+00
    -2.001E+00   -2.003E+00   -2.005E+00   -2.007E+00   -2.009E+00   -2.011E+00   -2.013E+00   -2.015E+00   -2.017E+00   -2.019E+00
    -2.021E+00   -2.023E+00   -2.025E+00   -2.027E+00   -2.029E+00   -2.031E+00   -2.033E+00   -2.035E+00   -2.036E+00   -2.038E+00
    -2.040E+00   -2.042E+00   -2.044E+00   -2.046E+00   -2.048E+00   -2.050E+00   -2.052E+00   -2.054E+00   -2.056E+00   -2.058E+00
    -2.060E+00   -2.062E+00   -2.064E+00   -2.065E+00   -2.067E+00   -2.069E+00   -2.071E+00   -2.073E+00
 Ala      Conc. = 6.46E+01
