 LCModel (Version 6.3-1L) Copyright: S.W. Provencher.          Ref.: Magn. Reson. Med. 30:672-679 (1993).                
 Slice#3 Row#12 Col#13  PD_05_press_1_raw_act
 36 lines in following concentration table = NCONC+1
    Conc.  %SD /Cr+PCr  Metabolite                                         
    0.000 999%   0.000 Ala                                                 
    2.019 112%   0.340 Asp                                                 
    0.000 999%   0.000 Cr                                                  
    5.932 140%   1.000 PCr                                                 
    1.220 111%   0.206 GABA                                                
    1.223 111%   0.206 Glc                                                 
    0.000 999%   0.000 Gln                                                 
    2.855 736%   0.481 Glu                                                 
    4.032 306%   0.680 GPC                                                 
 1.94E-02 999% 3.3E-03 PCh                                                 
    6.765 150%   1.140 GSH                                                 
    0.000 999%   0.000 Ins                                                 
    0.000 999%   0.000 Lac                                                 
   18.178  90%   3.064 NAA                                                 
    4.611 190%   0.777 NAAG                                                
    0.429 106% 7.2E-02 Scyllo                                              
    2.065 110%   0.348 Tau                                                 
    0.493 455% 8.3E-02 -CrCH2                                              
    4.051 105%   0.683 GPC+PCh                                             
   22.789  79%   3.841 NAA+NAAG                                            
    5.932 140%   1.000 Cr+PCr                                              
    2.855 736%   0.481 Glu+Gln                                             
 2.59E+04   3% 4.4E+03 Lip13a                                              
    0.000 999%   0.000 Lip13b                                              
 1.32E+03  12% 222.906 Lip09                                               
    0.000 999%   0.000 MM09                                                
   79.775 181%  13.447 Lip20                                               
    0.000 999%   0.000 MM20                                                
    3.812 894%   0.643 MM12                                                
  782.417  18% 131.888 MM14                                                
    0.000 999%   0.000 MM17                                                
 2.59E+04   3% 4.4E+03 Lip13a+Lip13b                                       
 2.67E+04   3% 4.5E+03 MM14+Lip13a+Lip13b+MM12                             
 1.32E+03  12% 222.906 MM09+Lip09                                          
   79.775 181%  13.447 MM20+Lip20                                          
   6 lines in following misc. output table
  FWHM = 0.038 ppm    S/N =  27                                            
  Data shift =-0.015 ppm                                                   
  Ph:   1 deg     -24.2 deg/ppm                                            
  alphaB,S = 3.3E-01,   7.6E-01                                            
   14 spline knots.   Ns = 5(1)                                            
  ( 5) 2 infls.   ( 2) 2 extrs.                                            
  498 points on ppm-axis = NY
      4.000000     3.992357     3.984714     3.977070     3.969427     3.961784     3.954141     3.946497     3.938854     3.931211
      3.923568     3.915925     3.908281     3.900638     3.892995     3.885352     3.877708     3.870065     3.862422     3.854779
      3.847136     3.839492     3.831849     3.824206     3.816563     3.808919     3.801276     3.793633     3.785990     3.778347
      3.770703     3.763060     3.755417     3.747774     3.740130     3.732487     3.724844     3.717201     3.709558     3.701914
      3.694271     3.686628     3.678985     3.671341     3.663698     3.656055     3.648412     3.640769     3.633125     3.625482
      3.617839     3.610196     3.602552     3.594909     3.587266     3.579623     3.571980     3.564336     3.556693     3.549050
      3.541407     3.533763     3.526120     3.518477     3.510834     3.503191     3.495547     3.487904     3.480261     3.472618
      3.464974     3.457331     3.449688     3.442045     3.434402     3.426758     3.419115     3.411472     3.403829     3.396185
      3.388542     3.380899     3.373256     3.365613     3.357969     3.350326     3.342683     3.335040     3.327396     3.319753
      3.312110     3.304467     3.296824     3.289180     3.281537     3.273894     3.266251     3.258607     3.250964     3.243321
      3.235678     3.228034     3.220391     3.212748     3.205105     3.197462     3.189818     3.182175     3.174532     3.166889
      3.159245     3.151602     3.143959     3.136316     3.128673     3.121029     3.113386     3.105743     3.098100     3.090456
      3.082813     3.075170     3.067527     3.059884     3.052240     3.044597     3.036954     3.029311     3.021667     3.014024
      3.006381     2.998738     2.991095     2.983451     2.975808     2.968165     2.960522     2.952878     2.945235     2.937592
      2.929949     2.922306     2.914662     2.907019     2.899376     2.891733     2.884089     2.876446     2.868803     2.861160
      2.853517     2.845873     2.838230     2.830587     2.822944     2.815300     2.807657     2.800014     2.792371     2.784728
      2.777084     2.769441     2.761798     2.754155     2.746511     2.738868     2.731225     2.723582     2.715939     2.708295
      2.700652     2.693009     2.685366     2.677722     2.670079     2.662436     2.654793     2.647150     2.639506     2.631863
      2.624220     2.616577     2.608933     2.601290     2.593647     2.586004     2.578361     2.570717     2.563074     2.555431
      2.547788     2.540144     2.532501     2.524858     2.517215     2.509572     2.501928     2.494285     2.486642     2.478999
      2.471355     2.463712     2.456069     2.448426     2.440783     2.433139     2.425496     2.417853     2.410210     2.402566
      2.394923     2.387280     2.379637     2.371994     2.364350     2.356707     2.349064     2.341421     2.333777     2.326134
      2.318491     2.310848     2.303205     2.295561     2.287918     2.280275     2.272632     2.264988     2.257345     2.249702
      2.242059     2.234416     2.226772     2.219129     2.211486     2.203843     2.196199     2.188556     2.180913     2.173270
      2.165627     2.157983     2.150340     2.142697     2.135054     2.127410     2.119767     2.112124     2.104481     2.096838
      2.089194     2.081551     2.073908     2.066265     2.058621     2.050978     2.043335     2.035692     2.028049     2.020405
      2.012762     2.005119     1.997476     1.989833     1.982190     1.974546     1.966903     1.959260     1.951617     1.943974
      1.936331     1.928688     1.921045     1.913402     1.905759     1.898115     1.890472     1.882829     1.875186     1.867543
      1.859900     1.852257     1.844614     1.836971     1.829327     1.821684     1.814041     1.806398     1.798755     1.791112
      1.783469     1.775826     1.768183     1.760540     1.752896     1.745253     1.737610     1.729967     1.722324     1.714681
      1.707038     1.699395     1.691752     1.684108     1.676465     1.668822     1.661179     1.653536     1.645893     1.638250
      1.630607     1.622964     1.615321     1.607677     1.600034     1.592391     1.584748     1.577105     1.569462     1.561819
      1.554176     1.546533     1.538890     1.531246     1.523603     1.515960     1.508317     1.500674     1.493031     1.485388
      1.477745     1.470102     1.462458     1.454815     1.447172     1.439529     1.431886     1.424243     1.416600     1.408957
      1.401314     1.393671     1.386027     1.378384     1.370741     1.363098     1.355455     1.347812     1.340169     1.332526
      1.324883     1.317240     1.309596     1.301953     1.294310     1.286667     1.279024     1.271381     1.263738     1.256095
      1.248452     1.240808     1.233165     1.225522     1.217879     1.210236     1.202593     1.194950     1.187307     1.179664
      1.172021     1.164377     1.156734     1.149091     1.141448     1.133805     1.126162     1.118519     1.110876     1.103233
      1.095590     1.087946     1.080303     1.072660     1.065017     1.057374     1.049731     1.042088     1.034445     1.026802
      1.019158     1.011515     1.003872     0.996229     0.988586     0.980943     0.973300     0.965657     0.958014     0.950371
      0.942727     0.935084     0.927441     0.919798     0.912155     0.904512     0.896869     0.889226     0.881583     0.873940
      0.866296     0.858653     0.851010     0.843367     0.835724     0.828081     0.820438     0.812795     0.805152     0.797508
      0.789865     0.782222     0.774579     0.766936     0.759293     0.751650     0.744007     0.736364     0.728721     0.721077
      0.713434     0.705791     0.698148     0.690505     0.682862     0.675219     0.667576     0.659933     0.652290     0.644646
      0.637003     0.629360     0.621717     0.614074     0.606431     0.598788     0.591145     0.583502     0.575858     0.568215
      0.560572     0.552929     0.545286     0.537643     0.530000     0.522357     0.514714     0.507071     0.499427     0.491784
      0.484141     0.476498     0.468855     0.461212     0.453569     0.445925     0.438282     0.430639     0.422996     0.415353
      0.407710     0.400067     0.392424     0.384780     0.377137     0.369494     0.361851     0.354208     0.346565     0.338922
      0.331278     0.323635     0.315992     0.308349     0.300706     0.293063     0.285420     0.277777     0.270133     0.262490
      0.254847     0.247204     0.239561     0.231918     0.224275     0.216631     0.208988     0.201345
 NY phased data points follow
   4.22124E+00  4.46816E+00  4.49270E+00  3.54675E+00  4.14549E+00  3.99004E+00  3.42772E+00  3.89242E+00  4.78379E+00  3.37632E+00
   5.82171E+00  4.57916E+00  4.03300E+00  4.88201E+00  4.02303E+00  4.08841E+00  4.32248E+00  5.69574E+00  5.10410E+00  5.09035E+00
   4.70731E+00  2.90418E+00  3.88713E+00  4.78263E+00  3.05392E+00  3.13575E+00  3.61793E+00  4.28371E+00  4.75576E+00  4.53942E+00
   4.05783E+00  4.16069E+00  5.65504E+00  4.71933E+00  4.13557E+00  4.13752E+00  3.54185E+00  3.43220E+00  4.48974E+00  4.34766E+00
   2.94404E+00  3.57642E+00  5.02292E+00  4.79519E+00  3.97539E+00  5.18019E+00  3.16960E+00  4.17014E+00  3.74298E+00  4.18830E+00
   5.27403E+00  3.64011E+00  3.39490E+00  3.69348E+00  4.94986E+00  5.17504E+00  3.84822E+00  4.15069E+00  3.98030E+00  5.00911E+00
   4.44222E+00  3.62586E+00  4.34776E+00  3.68184E+00  3.33705E+00  4.44662E+00  4.65202E+00  4.60725E+00  3.01873E+00  3.91880E+00
   5.04096E+00  3.67206E+00  4.04730E+00  4.48774E+00  4.09287E+00  4.05683E+00  2.94275E+00  4.81674E+00  4.71358E+00  3.28273E+00
   4.23223E+00  5.24565E+00  2.84140E+00  3.28039E+00  3.73249E+00  5.40319E+00  4.43926E+00  3.91220E+00  4.43377E+00  4.59708E+00
   4.55755E+00  4.56586E+00  3.40061E+00  3.89230E+00  3.24230E+00  2.84924E+00  4.73423E+00  4.09610E+00  4.03792E+00  3.38482E+00
   3.50582E+00  3.68000E+00  4.38495E+00  3.68224E+00  5.42034E+00  4.62961E+00  4.74904E+00  4.75830E+00  4.27831E+00  3.27341E+00
   5.39159E+00  3.47221E+00  4.66469E+00  3.34333E+00  3.74062E+00  2.85565E+00  2.71121E+00  3.16763E+00  3.11377E+00  4.88118E+00
   3.98676E+00  3.82360E+00  2.36047E+00  3.68986E+00  3.83721E+00  4.21379E+00  3.83423E+00  3.52940E+00  4.83498E+00  3.95698E+00
   3.38512E+00  3.31978E+00  3.31006E+00  4.07236E+00  3.99428E+00  3.30493E+00  2.39178E+00  2.20106E+00  2.87913E+00  2.67226E+00
   2.74045E+00  3.71503E+00  2.97658E+00  3.15415E+00  4.76197E+00  3.30667E+00  3.51401E+00  4.31711E+00  3.20777E+00  3.18764E+00
   4.50465E+00  2.87126E+00  3.51107E+00  3.15088E+00  2.28700E+00  3.29959E+00  2.73348E+00  3.60207E+00  3.11487E+00  3.70341E+00
   2.68645E+00  3.50491E+00  3.30641E+00  3.51662E+00  3.33578E+00  3.46883E+00  3.98441E+00  2.11767E+00  2.54453E+00  2.50927E+00
   3.35147E+00  2.38306E+00  3.83166E+00  3.05609E+00  1.93227E+00  3.59137E+00  2.80572E+00  3.24627E+00  2.45199E+00  3.29332E+00
   3.23321E+00  2.68513E+00  1.77671E+00  1.61787E+00  2.19215E+00  3.78051E+00  2.78467E+00  2.88648E+00  1.62790E+00  2.23161E+00
   2.17475E+00  2.76684E+00  1.60063E+00  3.01417E+00  3.29386E+00  2.08509E+00  3.26062E+00  2.48657E+00  2.75006E+00  2.09480E+00
   1.35090E+00  2.14423E+00  2.17760E+00  2.49837E+00  2.65566E+00  2.46221E+00  1.29214E+00  5.52302E-02  2.30703E+00  2.38998E+00
   3.32635E+00  1.96170E+00  1.77163E+00  1.38758E+00  1.69441E+00  1.94530E+00  1.43129E+00  6.79545E-01  1.79800E+00  2.75724E+00
   4.32408E-01  2.12672E+00  1.74778E+00  1.78951E+00  1.27124E+00  1.44629E+00  7.55580E-01  1.75053E+00  1.92299E+00  2.59604E+00
   2.79534E+00  1.57116E+00  2.79430E+00  9.70519E-01  2.62979E+00  2.92678E+00  3.81238E+00  3.42466E+00  2.34067E+00  3.37227E+00
   3.03557E+00  3.07016E+00  4.51734E+00  3.78741E+00  3.66594E+00  3.54026E+00  4.63224E+00  4.19401E+00  3.62625E+00  4.98693E+00
   3.12471E+00  3.15129E+00  4.15191E+00  4.22914E+00  3.29727E+00  5.92042E+00  5.14954E+00  4.80951E+00  4.43863E+00  5.12244E+00
   6.59021E+00  6.77958E+00  7.86249E+00  7.34320E+00  7.51833E+00  7.26355E+00  7.13814E+00  8.00926E+00  7.52272E+00  7.90273E+00
   6.58694E+00  8.07792E+00  7.57232E+00  7.40609E+00  7.83486E+00  7.91250E+00  8.08621E+00  8.08709E+00  8.30486E+00  9.36779E+00
   7.99598E+00  8.98474E+00  8.15718E+00  9.97104E+00  1.03897E+01  9.34764E+00  9.95835E+00  1.11957E+01  1.09100E+01  9.88668E+00
   1.04951E+01  1.11875E+01  1.07170E+01  1.18148E+01  1.18452E+01  1.40087E+01  1.28461E+01  1.32908E+01  1.26320E+01  1.41083E+01
   1.45777E+01  1.61640E+01  1.54568E+01  1.69274E+01  1.78421E+01  1.64493E+01  1.84947E+01  1.90674E+01  2.09511E+01  2.11427E+01
   1.98000E+01  2.34579E+01  2.26455E+01  2.46179E+01  2.47836E+01  2.63805E+01  2.70034E+01  2.82240E+01  2.93166E+01  3.06311E+01
   3.12917E+01  3.25849E+01  3.48149E+01  3.53808E+01  3.76826E+01  3.96581E+01  4.08726E+01  4.36400E+01  4.47433E+01  4.55168E+01
   4.77723E+01  5.02587E+01  5.21001E+01  5.46861E+01  5.64877E+01  5.81017E+01  6.02689E+01  6.03270E+01  6.50565E+01  6.72321E+01
   6.79879E+01  7.12636E+01  7.18716E+01  7.22160E+01  7.49066E+01  7.67958E+01  7.80648E+01  8.01411E+01  8.05010E+01  8.13753E+01
   8.17105E+01  8.27936E+01  8.41682E+01  8.36737E+01  8.33213E+01  8.27048E+01  8.16776E+01  8.20597E+01  8.00187E+01  7.80502E+01
   7.75590E+01  7.53342E+01  7.40937E+01  7.12500E+01  7.05314E+01  6.77898E+01  6.48197E+01  6.19514E+01  5.97087E+01  5.69849E+01
   5.27072E+01  5.16731E+01  5.06404E+01  4.72679E+01  4.43175E+01  4.26697E+01  4.18441E+01  4.03475E+01  3.88894E+01  3.71249E+01
   3.57254E+01  3.42102E+01  3.45328E+01  3.30199E+01  3.25286E+01  3.04182E+01  2.98372E+01  2.95218E+01  3.01454E+01  2.90678E+01
   2.94505E+01  2.67971E+01  2.59994E+01  2.69508E+01  2.48625E+01  2.54602E+01  2.52255E+01  2.37912E+01  2.38381E+01  2.40981E+01
   2.31177E+01  2.39937E+01  2.12895E+01  2.16042E+01  2.20277E+01  2.17431E+01  2.18989E+01  2.15211E+01  2.13498E+01  2.09580E+01
   2.01710E+01  2.06164E+01  2.01199E+01  1.93990E+01  1.85709E+01  1.90602E+01  1.88934E+01  1.84802E+01  1.76295E+01  1.80324E+01
   1.75294E+01  1.82522E+01  1.71966E+01  1.63120E+01  1.67587E+01  1.65945E+01  1.65043E+01  1.44964E+01  1.50010E+01  1.59016E+01
   1.51884E+01  1.47291E+01  1.48430E+01  1.52119E+01  1.52298E+01  1.47885E+01  1.38977E+01  1.28355E+01  1.37510E+01  1.29722E+01
   1.38695E+01  1.45088E+01  1.37638E+01  1.26946E+01  1.20643E+01  1.30352E+01  1.25426E+01  1.26509E+01  1.16876E+01  1.29684E+01
   1.15142E+01  1.22616E+01  1.10842E+01  1.17368E+01  1.11863E+01  1.12037E+01  1.24113E+01  1.10167E+01  1.05950E+01  1.13292E+01
   1.00209E+01  9.81480E+00  9.16209E+00  1.06066E+01  1.01474E+01  8.65851E+00  1.00960E+01  9.70728E+00  9.86807E+00  9.42181E+00
   9.32060E+00  9.46058E+00  9.55511E+00  8.05095E+00  9.13683E+00  9.75450E+00  8.55363E+00  9.35389E+00  9.92978E+00  9.30029E+00
   8.90458E+00  9.25960E+00  8.38272E+00  9.08525E+00  8.78845E+00  8.94342E+00  8.28457E+00  9.09596E+00  8.50503E+00  8.71980E+00
   8.55141E+00  7.98334E+00  9.12897E+00  1.00403E+01  8.16470E+00  8.21311E+00  9.11072E+00  7.04062E+00
 NY points of the fit to the data follow
   4.26850E+00  4.26024E+00  4.24980E+00  4.23144E+00  4.18412E+00  4.12725E+00  4.11410E+00  4.17902E+00  4.30894E+00  4.45501E+00
   4.56652E+00  4.59835E+00  4.55496E+00  4.47991E+00  4.39822E+00  4.32904E+00  4.30318E+00  4.29754E+00  4.28666E+00  4.27697E+00
   4.27502E+00  4.27693E+00  4.27485E+00  4.26360E+00  4.23017E+00  4.13748E+00  4.01494E+00  3.95250E+00  4.01731E+00  4.20200E+00
   4.43440E+00  4.62740E+00  4.70176E+00  4.65303E+00  4.53630E+00  4.38798E+00  4.25084E+00  4.18927E+00  4.18433E+00  4.19305E+00
   4.20539E+00  4.21701E+00  4.22293E+00  4.22475E+00  4.22748E+00  4.22365E+00  4.21166E+00  4.19867E+00  4.18520E+00  4.17722E+00
   4.18200E+00  4.19238E+00  4.19783E+00  4.20093E+00  4.20207E+00  4.19667E+00  4.18555E+00  4.17434E+00  4.16392E+00  4.15469E+00
   4.14651E+00  4.13874E+00  4.13177E+00  4.12695E+00  4.12423E+00  4.12355E+00  4.12431E+00  4.12439E+00  4.12116E+00  4.11327E+00
   4.10032E+00  4.08229E+00  4.06595E+00  4.06066E+00  4.06876E+00  4.08405E+00  4.09926E+00  4.10321E+00  4.09027E+00  4.06702E+00
   4.04105E+00  4.01142E+00  3.98458E+00  3.97354E+00  3.98244E+00  4.00715E+00  4.03580E+00  4.05473E+00  4.05496E+00  4.04035E+00
   4.02099E+00  3.99895E+00  3.97257E+00  3.94527E+00  3.91444E+00  3.88045E+00  3.84673E+00  3.78118E+00  3.60267E+00  3.38692E+00
   3.32109E+00  3.52737E+00  3.95994E+00  4.44344E+00  4.79597E+00  4.87570E+00  4.72072E+00  4.46101E+00  4.16225E+00  3.89572E+00
   3.77417E+00  3.73622E+00  3.71367E+00  3.69440E+00  3.67646E+00  3.66226E+00  3.65071E+00  3.63869E+00  3.62356E+00  3.60307E+00
   3.57298E+00  3.51516E+00  3.39774E+00  3.27135E+00  3.23257E+00  3.33788E+00  3.55332E+00  3.78320E+00  3.93492E+00  3.94360E+00
   3.85147E+00  3.74136E+00  3.64159E+00  3.56494E+00  3.53188E+00  3.48312E+00  3.38913E+00  3.27627E+00  3.18526E+00  3.13914E+00
   3.14680E+00  3.19372E+00  3.24263E+00  3.27297E+00  3.27708E+00  3.25735E+00  3.22611E+00  3.19334E+00  3.16275E+00  3.13962E+00
   3.11985E+00  3.09780E+00  3.06961E+00  3.03622E+00  3.00087E+00  2.97123E+00  2.95738E+00  2.95666E+00  2.95328E+00  2.93217E+00
   2.88848E+00  2.83317E+00  2.78464E+00  2.75783E+00  2.75047E+00  2.74976E+00  2.74472E+00  2.72422E+00  2.68620E+00  2.64231E+00
   2.60479E+00  2.58240E+00  2.57472E+00  2.55988E+00  2.52417E+00  2.47478E+00  2.43091E+00  2.40422E+00  2.39330E+00  2.38418E+00
   2.36464E+00  2.33968E+00  2.31975E+00  2.30195E+00  2.27568E+00  2.23708E+00  2.18798E+00  2.14485E+00  2.12767E+00  2.15083E+00
   2.20832E+00  2.27673E+00  2.33042E+00  2.35867E+00  2.34886E+00  2.30043E+00  2.22933E+00  2.15776E+00  2.10614E+00  2.08074E+00
   2.08369E+00  2.10757E+00  2.14364E+00  2.18827E+00  2.23265E+00  2.25972E+00  2.26997E+00  2.27201E+00  2.27293E+00  2.27191E+00
   2.26544E+00  2.25282E+00  2.23836E+00  2.23519E+00  2.25318E+00  2.29487E+00  2.35063E+00  2.40760E+00  2.45568E+00  2.48708E+00
   2.49787E+00  2.49888E+00  2.50711E+00  2.53705E+00  2.58929E+00  2.65790E+00  2.73806E+00  2.82183E+00  2.89261E+00  2.93291E+00
   2.94108E+00  2.93502E+00  2.93625E+00  2.96491E+00  3.04235E+00  3.16947E+00  3.32685E+00  3.48172E+00  3.59815E+00  3.65910E+00
   3.67134E+00  3.65717E+00  3.64889E+00  3.67375E+00  3.75092E+00  3.88117E+00  4.03937E+00  4.19858E+00  4.33931E+00  4.45305E+00
   4.52848E+00  4.54326E+00  4.53835E+00  4.59433E+00  4.73721E+00  4.84177E+00  4.81762E+00  4.84484E+00  5.13213E+00  5.74435E+00
   6.52843E+00  7.22173E+00  7.59515E+00  7.60288E+00  7.39959E+00  7.12004E+00  6.83559E+00  6.70863E+00  6.78848E+00  6.92395E+00
   7.07318E+00  7.23348E+00  7.40558E+00  7.58905E+00  7.78184E+00  7.98066E+00  8.18267E+00  8.38636E+00  8.59255E+00  8.80308E+00
   9.02001E+00  9.24494E+00  9.47904E+00  9.72301E+00  9.97638E+00  1.02384E+01  1.05089E+01  1.07872E+01  1.10729E+01  1.13665E+01
   1.16703E+01  1.19858E+01  1.23134E+01  1.26541E+01  1.30077E+01  1.33739E+01  1.37531E+01  1.41457E+01  1.45527E+01  1.49761E+01
   1.54180E+01  1.58800E+01  1.63635E+01  1.68698E+01  1.74002E+01  1.79564E+01  1.85399E+01  1.91530E+01  1.97980E+01  2.04774E+01
   2.11939E+01  2.19502E+01  2.27489E+01  2.35930E+01  2.44852E+01  2.54284E+01  2.64256E+01  2.74793E+01  2.85923E+01  2.97668E+01
   3.10050E+01  3.23088E+01  3.36795E+01  3.51182E+01  3.66253E+01  3.82012E+01  3.98451E+01  4.15562E+01  4.33328E+01  4.51724E+01
   4.70722E+01  4.90281E+01  5.10355E+01  5.30886E+01  5.51805E+01  5.73033E+01  5.94475E+01  6.16024E+01  6.37555E+01  6.58930E+01
   6.79994E+01  7.00576E+01  7.20492E+01  7.39546E+01  7.57532E+01  7.74240E+01  7.89458E+01  8.02978E+01  8.14602E+01  8.24146E+01
   8.31447E+01  8.36370E+01  8.38810E+01  8.38697E+01  8.35999E+01  8.30725E+01  8.22925E+01  8.12686E+01  8.00136E+01  7.85437E+01
   7.68779E+01  7.50377E+01  7.30468E+01  7.09298E+01  6.87122E+01  6.64195E+01  6.40765E+01  6.17074E+01  5.93344E+01  5.69784E+01
   5.46581E+01  5.23897E+01  5.01875E+01  4.80632E+01  4.60264E+01  4.40846E+01  4.22430E+01  4.05054E+01  3.88737E+01  3.73486E+01
   3.59294E+01  3.46146E+01  3.34019E+01  3.22881E+01  3.12697E+01  3.03428E+01  2.95030E+01  2.87457E+01  2.80662E+01  2.74594E+01
   2.69202E+01  2.64431E+01  2.60225E+01  2.56526E+01  2.53275E+01  2.50409E+01  2.47865E+01  2.45580E+01  2.43490E+01  2.41530E+01
   2.39639E+01  2.37759E+01  2.35834E+01  2.33815E+01  2.31659E+01  2.29330E+01  2.26802E+01  2.24055E+01  2.21081E+01  2.17878E+01
   2.14456E+01  2.10830E+01  2.07023E+01  2.03064E+01  1.98984E+01  1.94819E+01  1.90605E+01  1.86379E+01  1.82177E+01  1.78029E+01
   1.73967E+01  1.70016E+01  1.66197E+01  1.62527E+01  1.59020E+01  1.55682E+01  1.52520E+01  1.49535E+01  1.46724E+01  1.44085E+01
   1.41611E+01  1.39294E+01  1.37127E+01  1.35100E+01  1.33204E+01  1.31428E+01  1.29765E+01  1.28204E+01  1.26738E+01  1.25357E+01
   1.24054E+01  1.22822E+01  1.21654E+01  1.20545E+01  1.19489E+01  1.18480E+01  1.17515E+01  1.16589E+01  1.15698E+01  1.14839E+01
   1.14009E+01  1.13204E+01  1.12423E+01  1.11663E+01  1.10923E+01  1.10199E+01  1.09492E+01  1.08800E+01  1.08121E+01  1.07455E+01
   1.06800E+01  1.06156E+01  1.05521E+01  1.04895E+01  1.04278E+01  1.03669E+01  1.03067E+01  1.02473E+01  1.01884E+01  1.01302E+01
   1.00726E+01  1.00155E+01  9.95901E+00  9.90300E+00  9.84748E+00  9.79245E+00  9.73789E+00  9.68380E+00  9.63017E+00  9.57698E+00
   9.52423E+00  9.47193E+00  9.42008E+00  9.36867E+00  9.31771E+00  9.26720E+00  9.21715E+00  9.16756E+00  9.11844E+00  9.06981E+00
   9.02166E+00  8.97401E+00  8.92687E+00  8.88025E+00  8.83417E+00  8.78863E+00  8.74366E+00  8.69926E+00
 NY background values follow
     3.849E+00    3.844E+00    3.838E+00    3.833E+00    3.827E+00    3.821E+00    3.816E+00    3.810E+00    3.805E+00    3.799E+00
     3.794E+00    3.788E+00    3.782E+00    3.777E+00    3.771E+00    3.766E+00    3.760E+00    3.754E+00    3.749E+00    3.743E+00
     3.737E+00    3.731E+00    3.726E+00    3.720E+00    3.714E+00    3.708E+00    3.702E+00    3.696E+00    3.690E+00    3.684E+00
     3.678E+00    3.672E+00    3.666E+00    3.660E+00    3.654E+00    3.647E+00    3.641E+00    3.635E+00    3.628E+00    3.622E+00
     3.615E+00    3.608E+00    3.602E+00    3.595E+00    3.588E+00    3.581E+00    3.574E+00    3.567E+00    3.560E+00    3.552E+00
     3.545E+00    3.538E+00    3.530E+00    3.522E+00    3.515E+00    3.507E+00    3.499E+00    3.490E+00    3.482E+00    3.474E+00
     3.465E+00    3.456E+00    3.447E+00    3.438E+00    3.429E+00    3.420E+00    3.410E+00    3.400E+00    3.390E+00    3.380E+00
     3.370E+00    3.359E+00    3.349E+00    3.338E+00    3.326E+00    3.315E+00    3.303E+00    3.292E+00    3.279E+00    3.267E+00
     3.255E+00    3.242E+00    3.229E+00    3.215E+00    3.202E+00    3.188E+00    3.174E+00    3.159E+00    3.144E+00    3.129E+00
     3.114E+00    3.098E+00    3.082E+00    3.066E+00    3.050E+00    3.033E+00    3.016E+00    2.998E+00    2.980E+00    2.962E+00
     2.944E+00    2.925E+00    2.906E+00    2.887E+00    2.867E+00    2.847E+00    2.827E+00    2.806E+00    2.785E+00    2.764E+00
     2.743E+00    2.721E+00    2.699E+00    2.676E+00    2.653E+00    2.630E+00    2.607E+00    2.583E+00    2.559E+00    2.535E+00
     2.510E+00    2.485E+00    2.460E+00    2.434E+00    2.408E+00    2.382E+00    2.355E+00    2.328E+00    2.301E+00    2.273E+00
     2.245E+00    2.217E+00    2.188E+00    2.160E+00    2.130E+00    2.101E+00    2.071E+00    2.041E+00    2.010E+00    1.979E+00
     1.948E+00    1.917E+00    1.885E+00    1.853E+00    1.821E+00    1.789E+00    1.756E+00    1.723E+00    1.690E+00    1.657E+00
     1.624E+00    1.590E+00    1.556E+00    1.522E+00    1.488E+00    1.454E+00    1.419E+00    1.385E+00    1.350E+00    1.316E+00
     1.281E+00    1.246E+00    1.211E+00    1.176E+00    1.141E+00    1.106E+00    1.071E+00    1.036E+00    1.001E+00    9.657E-01
     9.306E-01    8.956E-01    8.605E-01    8.256E-01    7.907E-01    7.558E-01    7.211E-01    6.864E-01    6.518E-01    6.173E-01
     5.830E-01    5.488E-01    5.147E-01    4.808E-01    4.471E-01    4.137E-01    3.805E-01    3.476E-01    3.151E-01    2.829E-01
     2.512E-01    2.199E-01    1.890E-01    1.586E-01    1.288E-01    9.946E-02    7.075E-02    4.267E-02    1.524E-02   -1.150E-02
    -3.753E-02   -6.281E-02   -8.731E-02   -1.110E-01   -1.338E-01   -1.558E-01   -1.769E-01   -1.970E-01   -2.162E-01   -2.343E-01
    -2.514E-01   -2.675E-01   -2.824E-01   -2.963E-01   -3.089E-01   -3.204E-01   -3.307E-01   -3.397E-01   -3.474E-01   -3.538E-01
    -3.588E-01   -3.625E-01   -3.648E-01   -3.656E-01   -3.649E-01   -3.627E-01   -3.590E-01   -3.537E-01   -3.469E-01   -3.385E-01
    -3.286E-01   -3.171E-01   -3.042E-01   -2.897E-01   -2.737E-01   -2.562E-01   -2.373E-01   -2.168E-01   -1.949E-01   -1.716E-01
    -1.468E-01   -1.206E-01   -9.296E-02   -6.390E-02   -3.344E-02   -1.578E-03    3.167E-02    6.629E-02    1.023E-01    1.396E-01
     1.783E-01    2.184E-01    2.597E-01    3.024E-01    3.464E-01    3.917E-01    4.383E-01    4.861E-01    5.353E-01    5.857E-01
     6.373E-01    6.902E-01    7.443E-01    7.997E-01    8.563E-01    9.140E-01    9.730E-01    1.033E+00    1.095E+00    1.157E+00
     1.221E+00    1.285E+00    1.351E+00    1.418E+00    1.487E+00    1.556E+00    1.626E+00    1.697E+00    1.769E+00    1.842E+00
     1.916E+00    1.991E+00    2.067E+00    2.143E+00    2.220E+00    2.298E+00    2.377E+00    2.456E+00    2.536E+00    2.617E+00
     2.698E+00    2.780E+00    2.862E+00    2.945E+00    3.028E+00    3.112E+00    3.196E+00    3.280E+00    3.365E+00    3.450E+00
     3.535E+00    3.621E+00    3.707E+00    3.793E+00    3.879E+00    3.965E+00    4.051E+00    4.138E+00    4.224E+00    4.310E+00
     4.397E+00    4.483E+00    4.569E+00    4.655E+00    4.741E+00    4.827E+00    4.913E+00    4.998E+00    5.083E+00    5.168E+00
     5.252E+00    5.336E+00    5.420E+00    5.504E+00    5.587E+00    5.670E+00    5.752E+00    5.834E+00    5.916E+00    5.997E+00
     6.078E+00    6.159E+00    6.239E+00    6.319E+00    6.398E+00    6.477E+00    6.555E+00    6.633E+00    6.710E+00    6.787E+00
     6.863E+00    6.939E+00    7.014E+00    7.089E+00    7.163E+00    7.236E+00    7.309E+00    7.382E+00    7.453E+00    7.524E+00
     7.595E+00    7.665E+00    7.734E+00    7.802E+00    7.870E+00    7.937E+00    8.004E+00    8.070E+00    8.135E+00    8.199E+00
     8.263E+00    8.325E+00    8.387E+00    8.449E+00    8.509E+00    8.569E+00    8.628E+00    8.686E+00    8.743E+00    8.800E+00
     8.855E+00    8.910E+00    8.964E+00    9.018E+00    9.070E+00    9.122E+00    9.173E+00    9.223E+00    9.272E+00    9.320E+00
     9.368E+00    9.414E+00    9.460E+00    9.505E+00    9.549E+00    9.592E+00    9.635E+00    9.676E+00    9.717E+00    9.756E+00
     9.795E+00    9.833E+00    9.870E+00    9.906E+00    9.942E+00    9.976E+00    1.001E+01    1.004E+01    1.007E+01    1.010E+01
     1.013E+01    1.016E+01    1.019E+01    1.022E+01    1.024E+01    1.027E+01    1.029E+01    1.032E+01    1.034E+01    1.036E+01
     1.038E+01    1.040E+01    1.042E+01    1.044E+01    1.045E+01    1.047E+01    1.048E+01    1.050E+01    1.051E+01    1.052E+01
     1.053E+01    1.054E+01    1.055E+01    1.056E+01    1.057E+01    1.057E+01    1.058E+01    1.058E+01    1.058E+01    1.059E+01
     1.059E+01    1.059E+01    1.059E+01    1.059E+01    1.058E+01    1.058E+01    1.058E+01    1.057E+01    1.056E+01    1.056E+01
     1.055E+01    1.054E+01    1.053E+01    1.052E+01    1.051E+01    1.049E+01    1.048E+01    1.046E+01    1.045E+01    1.043E+01
     1.041E+01    1.040E+01    1.038E+01    1.035E+01    1.033E+01    1.031E+01    1.029E+01    1.026E+01    1.024E+01    1.021E+01
     1.019E+01    1.016E+01    1.013E+01    1.010E+01    1.007E+01    1.004E+01    1.001E+01    9.980E+00    9.949E+00    9.916E+00
     9.884E+00    9.851E+00    9.817E+00    9.783E+00    9.749E+00    9.714E+00    9.679E+00    9.643E+00    9.608E+00    9.572E+00
     9.536E+00    9.500E+00    9.463E+00    9.427E+00    9.390E+00    9.353E+00    9.316E+00    9.280E+00    9.243E+00    9.206E+00
     9.169E+00    9.132E+00    9.096E+00    9.060E+00    9.023E+00    8.987E+00    8.951E+00    8.916E+00
 Asp      Conc. = 2.02E+00
