 LCModel (Version 6.3-1L) Copyright: S.W. Provencher.          Ref.: Magn. Reson. Med. 30:672-679 (1993).                
 Slice#3 Row#4 Col#9  PD_05_press_1_raw_act
 36 lines in following concentration table = NCONC+1
    Conc.  %SD /Cr+PCr  Metabolite                                         
  144.597  80% 9.0E-02 Ala                                                 
    0.000 999%   0.000 Asp                                                 
 1.21E+03  19%   0.753 Cr                                                  
  396.655  58%   0.247 PCr                                                 
  109.097 140% 6.8E-02 GABA                                                
    0.000 999%   0.000 Glc                                                 
  818.886  31%   0.510 Gln                                                 
 1.87E+03  16%   1.162 Glu                                                 
  492.059   4%   0.306 GPC                                                 
    0.000 999%   0.000 PCh                                                 
  539.949  14%   0.336 GSH                                                 
  818.719  32%   0.510 Ins                                                 
   23.856 539% 1.5E-02 Lac                                                 
 2.17E+03   6%   1.353 NAA                                                 
  159.352  91% 9.9E-02 NAAG                                                
    6.237 407% 3.9E-03 Scyllo                                              
    0.000 999%   0.000 Tau                                                 
  103.519 104% 6.4E-02 -CrCH2                                              
  492.059   4%   0.306 GPC+PCh                                             
 2.33E+03   3%   1.452 NAA+NAAG                                            
 1.61E+03   3%   1.000 Cr+PCr                                              
 2.69E+03  17%   1.672 Glu+Gln                                             
  790.208  33%   0.492 Lip13a                                              
    0.000 999%   0.000 Lip13b                                              
    0.000 999%   0.000 Lip09                                               
 1.00E+03  17%   0.624 MM09                                                
  154.182  78% 9.6E-02 Lip20                                               
 2.35E+03  12%   1.463 MM20                                                
  323.794  28%   0.202 MM12                                                
  506.806  46%   0.315 MM14                                                
  744.223  23%   0.463 MM17                                                
  790.208  33%   0.492 Lip13a+Lip13b                                       
 1.62E+03  22%   1.009 MM14+Lip13a+Lip13b+MM12                             
 1.00E+03  17%   0.624 MM09+Lip09                                          
 2.50E+03  12%   1.559 MM20+Lip20                                          
   6 lines in following misc. output table
  FWHM = 0.054 ppm    S/N =  13                                            
  Data shift = 0.000 ppm                                                   
  Ph:  11 deg      -5.0 deg/ppm                                            
  alphaB,S = 7.3E-01,   4.7E+01                                            
   14 spline knots.   Ns = 8(1)                                            
  (14) 5 infls.   (17) 1 extrs.                                            
  498 points on ppm-axis = NY
      4.000000     3.992357     3.984714     3.977070     3.969427     3.961784     3.954141     3.946497     3.938854     3.931211
      3.923568     3.915925     3.908281     3.900638     3.892995     3.885352     3.877708     3.870065     3.862422     3.854779
      3.847136     3.839492     3.831849     3.824206     3.816563     3.808919     3.801276     3.793633     3.785990     3.778347
      3.770703     3.763060     3.755417     3.747774     3.740130     3.732487     3.724844     3.717201     3.709558     3.701914
      3.694271     3.686628     3.678985     3.671341     3.663698     3.656055     3.648412     3.640769     3.633125     3.625482
      3.617839     3.610196     3.602552     3.594909     3.587266     3.579623     3.571980     3.564336     3.556693     3.549050
      3.541407     3.533763     3.526120     3.518477     3.510834     3.503191     3.495547     3.487904     3.480261     3.472618
      3.464974     3.457331     3.449688     3.442045     3.434402     3.426758     3.419115     3.411472     3.403829     3.396185
      3.388542     3.380899     3.373256     3.365613     3.357969     3.350326     3.342683     3.335040     3.327396     3.319753
      3.312110     3.304467     3.296824     3.289180     3.281537     3.273894     3.266251     3.258607     3.250964     3.243321
      3.235678     3.228034     3.220391     3.212748     3.205105     3.197462     3.189818     3.182175     3.174532     3.166889
      3.159245     3.151602     3.143959     3.136316     3.128673     3.121029     3.113386     3.105743     3.098100     3.090456
      3.082813     3.075170     3.067527     3.059884     3.052240     3.044597     3.036954     3.029311     3.021667     3.014024
      3.006381     2.998738     2.991095     2.983451     2.975808     2.968165     2.960522     2.952878     2.945235     2.937592
      2.929949     2.922306     2.914662     2.907019     2.899376     2.891733     2.884089     2.876446     2.868803     2.861160
      2.853517     2.845873     2.838230     2.830587     2.822944     2.815300     2.807657     2.800014     2.792371     2.784728
      2.777084     2.769441     2.761798     2.754155     2.746511     2.738868     2.731225     2.723582     2.715939     2.708295
      2.700652     2.693009     2.685366     2.677722     2.670079     2.662436     2.654793     2.647150     2.639506     2.631863
      2.624220     2.616577     2.608933     2.601290     2.593647     2.586004     2.578361     2.570717     2.563074     2.555431
      2.547788     2.540144     2.532501     2.524858     2.517215     2.509572     2.501928     2.494285     2.486642     2.478999
      2.471355     2.463712     2.456069     2.448426     2.440783     2.433139     2.425496     2.417853     2.410210     2.402566
      2.394923     2.387280     2.379637     2.371994     2.364350     2.356707     2.349064     2.341421     2.333777     2.326134
      2.318491     2.310848     2.303205     2.295561     2.287918     2.280275     2.272632     2.264988     2.257345     2.249702
      2.242059     2.234416     2.226772     2.219129     2.211486     2.203843     2.196199     2.188556     2.180913     2.173270
      2.165627     2.157983     2.150340     2.142697     2.135054     2.127410     2.119767     2.112124     2.104481     2.096838
      2.089194     2.081551     2.073908     2.066265     2.058621     2.050978     2.043335     2.035692     2.028049     2.020405
      2.012762     2.005119     1.997476     1.989833     1.982190     1.974546     1.966903     1.959260     1.951617     1.943974
      1.936331     1.928688     1.921045     1.913402     1.905759     1.898115     1.890472     1.882829     1.875186     1.867543
      1.859900     1.852257     1.844614     1.836971     1.829327     1.821684     1.814041     1.806398     1.798755     1.791112
      1.783469     1.775826     1.768183     1.760540     1.752896     1.745253     1.737610     1.729967     1.722324     1.714681
      1.707038     1.699395     1.691752     1.684108     1.676465     1.668822     1.661179     1.653536     1.645893     1.638250
      1.630607     1.622964     1.615321     1.607677     1.600034     1.592391     1.584748     1.577105     1.569462     1.561819
      1.554176     1.546533     1.538890     1.531246     1.523603     1.515960     1.508317     1.500674     1.493031     1.485388
      1.477745     1.470102     1.462458     1.454815     1.447172     1.439529     1.431886     1.424243     1.416600     1.408957
      1.401314     1.393671     1.386027     1.378384     1.370741     1.363098     1.355455     1.347812     1.340169     1.332526
      1.324883     1.317240     1.309596     1.301953     1.294310     1.286667     1.279024     1.271381     1.263738     1.256095
      1.248452     1.240808     1.233165     1.225522     1.217879     1.210236     1.202593     1.194950     1.187307     1.179664
      1.172021     1.164377     1.156734     1.149091     1.141448     1.133805     1.126162     1.118519     1.110876     1.103233
      1.095590     1.087946     1.080303     1.072660     1.065017     1.057374     1.049731     1.042088     1.034445     1.026802
      1.019158     1.011515     1.003872     0.996229     0.988586     0.980943     0.973300     0.965657     0.958014     0.950371
      0.942727     0.935084     0.927441     0.919798     0.912155     0.904512     0.896869     0.889226     0.881583     0.873940
      0.866296     0.858653     0.851010     0.843367     0.835724     0.828081     0.820438     0.812795     0.805152     0.797508
      0.789865     0.782222     0.774579     0.766936     0.759293     0.751650     0.744007     0.736364     0.728721     0.721077
      0.713434     0.705791     0.698148     0.690505     0.682862     0.675219     0.667576     0.659933     0.652290     0.644646
      0.637003     0.629360     0.621717     0.614074     0.606431     0.598788     0.591145     0.583502     0.575858     0.568215
      0.560572     0.552929     0.545286     0.537643     0.530000     0.522357     0.514714     0.507071     0.499427     0.491784
      0.484141     0.476498     0.468855     0.461212     0.453569     0.445925     0.438282     0.430639     0.422996     0.415353
      0.407710     0.400067     0.392424     0.384780     0.377137     0.369494     0.361851     0.354208     0.346565     0.338922
      0.331278     0.323635     0.315992     0.308349     0.300706     0.293063     0.285420     0.277777     0.270133     0.262490
      0.254847     0.247204     0.239561     0.231918     0.224275     0.216631     0.208988     0.201345
 NY phased data points follow
   3.58901E+01  3.73408E+01  4.25166E+01  4.00126E+01  4.36442E+01  4.33112E+01  4.62550E+01  5.27751E+01  5.88560E+01  6.02136E+01
   6.35769E+01  5.96313E+01  6.09726E+01  5.79851E+01  5.52773E+01  5.01352E+01  4.57740E+01  4.28754E+01  4.09326E+01  3.83926E+01
   4.23501E+01  4.17173E+01  3.68624E+01  4.23897E+01  3.74108E+01  4.00653E+01  3.96624E+01  4.03789E+01  4.05705E+01  4.04562E+01
   4.10713E+01  4.42234E+01  4.13864E+01  3.68070E+01  3.36856E+01  3.52890E+01  3.57364E+01  3.32487E+01  3.68894E+01  3.41637E+01
   3.42790E+01  3.51008E+01  3.39257E+01  3.67553E+01  3.62372E+01  3.78079E+01  3.88715E+01  4.28662E+01  3.88612E+01  3.78936E+01
   3.96631E+01  3.31830E+01  3.08017E+01  3.38828E+01  3.00908E+01  3.04281E+01  3.09268E+01  3.25754E+01  3.11189E+01  2.86531E+01
   2.73629E+01  2.86934E+01  2.44667E+01  2.09724E+01  2.26628E+01  1.91091E+01  1.90279E+01  1.97657E+01  1.95373E+01  2.04050E+01
   1.89372E+01  1.67483E+01  1.53678E+01  1.82015E+01  1.70738E+01  2.09598E+01  1.94193E+01  1.67244E+01  1.86506E+01  1.81186E+01
   1.93993E+01  1.70897E+01  1.50236E+01  1.93617E+01  1.84871E+01  1.94854E+01  1.97155E+01  1.78188E+01  1.73526E+01  1.76113E+01
   1.93855E+01  1.96272E+01  2.29220E+01  2.08416E+01  2.64366E+01  2.37038E+01  2.76072E+01  2.96394E+01  2.97430E+01  3.61777E+01
   3.91625E+01  4.63192E+01  5.28157E+01  5.63663E+01  5.42155E+01  5.00499E+01  4.52667E+01  3.87894E+01  3.38785E+01  3.13199E+01
   2.76523E+01  2.46731E+01  2.50910E+01  2.21605E+01  2.12363E+01  2.27894E+01  2.39720E+01  2.41357E+01  2.71149E+01  2.53673E+01
   3.15717E+01  3.30869E+01  3.47785E+01  4.46161E+01  4.59738E+01  5.36516E+01  5.87663E+01  6.20289E+01  5.94930E+01  5.28903E+01
   4.46413E+01  3.86050E+01  3.46807E+01  3.00586E+01  2.81950E+01  2.69771E+01  1.85742E+01  1.66070E+01  2.00864E+01  1.78614E+01
   1.92577E+01  1.65446E+01  1.87962E+01  1.70293E+01  1.63109E+01  2.15567E+01  1.64077E+01  1.59987E+01  1.41321E+01  1.37274E+01
   1.25564E+01  1.22434E+01  1.21526E+01  1.08760E+01  1.23656E+01  1.19289E+01  1.07337E+01  1.16208E+01  1.11750E+01  1.10659E+01
   8.62045E+00  1.00313E+01  1.03979E+01  1.14410E+01  8.13023E+00  7.83825E+00  1.08547E+01  1.07668E+01  6.93995E+00  7.28624E+00
   7.40232E+00  3.35313E+00  4.76943E+00  6.06902E-01  5.27783E+00 -6.68803E-01  2.71694E+00  5.31500E-01  3.86485E+00  5.50721E-02
   3.42445E+00  2.60619E+00 -1.91633E+00  1.99957E+00  3.32804E+00  5.09659E+00  4.72917E+00  4.72466E+00  6.35375E+00  1.06461E+01
   1.12772E+01  1.39883E+01  1.32037E+01  1.21403E+01  1.13043E+01  1.23483E+01  1.09341E+01  1.13823E+01  9.64049E+00  1.06122E+01
   8.93171E+00  1.23959E+01  9.64369E+00  1.36352E+01  1.07973E+01  1.19723E+01  1.02981E+01  8.95915E+00  6.31207E+00  9.82643E+00
   4.97896E+00  8.62479E+00  9.43832E+00  1.08671E+01  1.38675E+01  1.69615E+01  1.72021E+01  1.57052E+01  1.36666E+01  1.04554E+01
   7.00954E+00  7.11799E+00  5.99089E+00  8.12602E+00  1.21568E+01  1.20490E+01  1.25554E+01  1.30639E+01  1.72532E+01  1.38083E+01
   1.83266E+01  1.67265E+01  1.43124E+01  1.64515E+01  1.28272E+01  1.49228E+01  1.61350E+01  1.42942E+01  1.52801E+01  1.41405E+01
   1.35667E+01  1.48284E+01  1.59653E+01  1.66115E+01  1.70544E+01  1.60463E+01  2.09600E+01  1.98262E+01  2.42466E+01  2.04494E+01
   2.74680E+01  2.94388E+01  3.15035E+01  3.65143E+01  3.89099E+01  4.59351E+01  5.11640E+01  6.10555E+01  7.09934E+01  7.85872E+01
   8.07641E+01  7.91201E+01  6.84736E+01  5.87374E+01  4.80426E+01  3.79805E+01  3.08294E+01  2.59330E+01  1.92594E+01  1.56118E+01
   1.61218E+01  1.40243E+01  1.76982E+01  1.60449E+01  1.65335E+01  1.41797E+01  1.50703E+01  1.40128E+01  1.52223E+01  1.31310E+01
   1.38035E+01  1.27246E+01  1.05810E+01  1.23578E+01  1.14298E+01  8.97755E+00  7.65087E+00  1.27105E+01  1.00735E+01  1.16411E+01
   1.25363E+01  1.07850E+01  1.08769E+01  1.13845E+01  1.08376E+01  1.23427E+01  1.17677E+01  1.29558E+01  9.79074E+00  9.55558E+00
   1.33802E+01  1.20540E+01  8.45844E+00  1.10884E+01  1.21267E+01  1.00104E+01  1.21471E+01  1.24865E+01  9.48732E+00  1.55317E+01
   1.40114E+01  1.36122E+01  1.68745E+01  1.20534E+01  1.55409E+01  1.25206E+01  1.55007E+01  1.10888E+01  1.18482E+01  1.12127E+01
   1.29492E+01  1.19367E+01  1.21742E+01  8.51425E+00  6.05721E+00  1.17949E+01  7.38512E+00  9.52298E+00  1.04547E+01  1.10890E+01
   8.90954E+00  7.99791E+00  8.06417E+00  5.46553E+00  1.23446E+01  7.38805E+00  9.65105E+00  7.15283E+00  1.19629E+01  8.11917E+00
   1.12062E+01  1.22807E+01  1.21916E+01  9.98539E+00  1.09459E+01  9.02917E+00  9.09585E+00  1.26505E+01  1.02918E+01  1.16136E+01
   1.18231E+01  9.48363E+00  1.09691E+01  7.60772E+00  1.26165E+01  1.06019E+01  1.05598E+01  1.16002E+01  1.05011E+01  1.05228E+01
   1.37020E+01  9.41053E+00  7.86776E+00  8.51707E+00  1.13904E+01  1.05431E+01  9.79705E+00  1.12883E+01  9.15142E+00  9.20073E+00
   7.96057E+00  6.55516E+00  1.23169E+01  9.94664E+00  1.07326E+01  6.30214E+00  8.25134E+00  9.36534E+00  8.08531E+00  5.85173E+00
   5.75108E+00  7.79587E+00  5.69712E+00  7.40499E+00  4.10932E+00  7.79433E-01  3.82566E+00  2.82569E+00  4.05350E+00  4.00273E+00
   5.97093E+00  5.29575E+00  5.03442E+00  5.55401E+00  7.61453E+00  7.31911E+00  5.70985E+00  7.41779E+00  8.14600E+00  8.12685E+00
   6.81569E+00  8.55869E+00  5.96042E+00  1.08040E+01  1.06735E+01  9.84025E+00  1.01193E+01  1.35063E+01  6.94093E+00  1.28879E+01
   1.05930E+01  1.03547E+01  8.58183E+00  8.82974E+00  8.25500E+00  7.84958E+00  6.01645E+00  5.99531E+00  5.73658E+00  8.74787E+00
   3.48557E+00  3.18563E+00  5.81868E+00  4.07601E+00  3.75758E+00  5.05750E+00  3.81967E+00  5.44388E+00  4.17889E+00  4.37733E+00
   2.40185E+00  3.75802E+00  7.67119E+00  5.01313E+00  5.10615E+00  3.90802E+00  3.74580E+00  1.98270E+00  6.13729E+00  3.99241E+00
   4.10983E+00  3.81568E+00  2.55660E+00  4.92254E+00  1.64012E+00  3.94514E+00  4.73863E+00  5.68482E+00  1.99161E+00  5.93770E+00
   4.79036E-01  3.43313E+00  3.98677E+00  4.25373E+00  1.53308E+00  4.22308E+00  3.55868E+00  3.76112E+00  2.02473E+00  7.33739E-01
   1.00119E+00  3.85776E+00  4.51166E+00  2.75513E+00  2.01144E+00  3.60500E+00  2.59538E+00  2.63015E+00  4.75568E+00  3.40275E+00
   2.97902E+00  5.67041E+00  5.05268E+00  4.10928E+00  4.16082E+00  2.27546E-01  1.08740E+00  1.35077E+00  3.56609E+00  4.59014E+00
   4.11500E+00  5.05806E+00  1.45929E+00  6.49676E-01  2.97312E+00  4.05540E+00  3.13517E+00  3.96994E+00  2.15753E+00  4.14989E+00
   3.06397E+00  4.66255E+00  3.32113E+00  5.31649E+00  1.60492E-01  4.63550E+00  4.20638E+00  2.51820E+00
 NY points of the fit to the data follow
   3.67696E+01  3.73657E+01  3.91000E+01  4.18264E+01  4.35295E+01  4.51690E+01  4.79439E+01  5.18775E+01  5.63207E+01  6.04009E+01
   6.29330E+01  6.31526E+01  6.11062E+01  5.74701E+01  5.33094E+01  4.94196E+01  4.63888E+01  4.41777E+01  4.20990E+01  3.98026E+01
   3.75826E+01  3.73000E+01  3.76397E+01  3.73489E+01  3.74220E+01  3.79364E+01  3.87340E+01  3.97211E+01  4.09527E+01  4.22151E+01
   4.30525E+01  4.32457E+01  4.28505E+01  4.14345E+01  3.92918E+01  3.71907E+01  3.53198E+01  3.37428E+01  3.26178E+01  3.25086E+01
   3.29714E+01  3.31032E+01  3.32306E+01  3.35640E+01  3.40922E+01  3.46894E+01  3.51433E+01  3.52640E+01  3.48311E+01  3.37761E+01
   3.24826E+01  3.12785E+01  3.02488E+01  2.94747E+01  2.89321E+01  2.84051E+01  2.78865E+01  2.75667E+01  2.74695E+01  2.74134E+01
   2.72219E+01  2.68627E+01  2.63208E+01  2.57313E+01  2.52192E+01  2.47865E+01  2.45017E+01  2.43633E+01  2.42849E+01  2.42333E+01
   2.41797E+01  2.40909E+01  2.39504E+01  2.37319E+01  2.34468E+01  2.31231E+01  2.27827E+01  2.24710E+01  2.21548E+01  2.17829E+01
   2.13521E+01  2.09298E+01  2.05666E+01  2.01936E+01  1.97657E+01  1.92917E+01  1.88132E+01  1.83693E+01  1.80739E+01  1.79126E+01
   1.78790E+01  1.79923E+01  1.82356E+01  1.86381E+01  1.98796E+01  2.39514E+01  2.78579E+01  2.92975E+01  3.11692E+01  3.50662E+01
   4.06625E+01  4.70880E+01  5.28951E+01  5.62002E+01  5.59001E+01  5.20887E+01  4.60953E+01  3.96067E+01  3.40365E+01  3.00138E+01
   2.71060E+01  2.44630E+01  2.12912E+01  1.89727E+01  1.81783E+01  1.78808E+01  1.78744E+01  1.85016E+01  2.15943E+01  2.66991E+01
   2.92662E+01  3.11315E+01  3.49573E+01  4.09614E+01  4.82716E+01  5.55764E+01  6.05526E+01  6.16277E+01  5.87720E+01  5.29206E+01
   4.58363E+01  3.92331E+01  3.39483E+01  2.98892E+01  2.61819E+01  2.20864E+01  1.83136E+01  1.67520E+01  1.65075E+01  1.67441E+01
   1.70584E+01  1.71592E+01  1.69698E+01  1.66557E+01  1.62959E+01  1.58781E+01  1.54623E+01  1.50673E+01  1.46539E+01  1.42390E+01
   1.37938E+01  1.34222E+01  1.30194E+01  1.25313E+01  1.22353E+01  1.20995E+01  1.20239E+01  1.18956E+01  1.14698E+01  1.09456E+01
   1.05327E+01  1.02917E+01  1.02039E+01  1.02222E+01  1.01940E+01  9.96718E+00  9.49529E+00  8.82038E+00  8.05723E+00  7.61063E+00
   7.47735E+00  7.22522E+00  6.74381E+00  6.08313E+00  5.60087E+00  5.44154E+00  5.40261E+00  5.39320E+00  5.36369E+00  5.24279E+00
   5.32066E+00  5.52556E+00  5.74874E+00  6.04122E+00  6.44994E+00  6.95603E+00  7.55442E+00  8.39583E+00  9.37690E+00  1.02764E+01
   1.09648E+01  1.12582E+01  1.10333E+01  1.05434E+01  1.00334E+01  9.76289E+00  9.84036E+00  1.01853E+01  1.07986E+01  1.15337E+01
   1.24239E+01  1.30973E+01  1.32193E+01  1.33831E+01  1.31475E+01  1.20881E+01  1.07379E+01  9.44337E+00  8.63333E+00  7.74265E+00
   7.31802E+00  8.03861E+00  9.72517E+00  1.16636E+01  1.31020E+01  1.39694E+01  1.43810E+01  1.37378E+01  1.18175E+01  9.47332E+00
   7.17831E+00  5.73396E+00  5.51666E+00  6.23949E+00  7.85792E+00  9.89569E+00  1.19638E+01  1.33764E+01  1.40179E+01  1.44452E+01
   1.46626E+01  1.49143E+01  1.52420E+01  1.56073E+01  1.58056E+01  1.58595E+01  1.61353E+01  1.64608E+01  1.63877E+01  1.60130E+01
   1.56988E+01  1.53352E+01  1.50761E+01  1.52320E+01  1.59032E+01  1.69058E+01  1.78301E+01  1.87639E+01  1.98300E+01  2.06508E+01
   2.14444E+01  2.45291E+01  3.29791E+01  3.94249E+01  4.22712E+01  4.64244E+01  5.33483E+01  6.17846E+01  7.05778E+01  7.76762E+01
   8.03743E+01  7.74287E+01  6.94663E+01  5.88107E+01  4.79439E+01  3.89582E+01  3.26550E+01  2.80509E+01  2.35957E+01  1.82838E+01
   1.50467E+01  1.39691E+01  1.34649E+01  1.31561E+01  1.29912E+01  1.28371E+01  1.25890E+01  1.22770E+01  1.19369E+01  1.15962E+01
   1.12761E+01  1.10028E+01  1.07671E+01  1.05652E+01  1.04205E+01  1.03241E+01  1.02533E+01  1.02055E+01  1.01825E+01  1.01888E+01
   1.02228E+01  1.02748E+01  1.03504E+01  1.04503E+01  1.05689E+01  1.07033E+01  1.08553E+01  1.10245E+01  1.12069E+01  1.13999E+01
   1.16004E+01  1.17994E+01  1.19902E+01  1.21677E+01  1.23228E+01  1.24488E+01  1.25414E+01  1.25984E+01  1.26190E+01  1.26016E+01
   1.25470E+01  1.24586E+01  1.23399E+01  1.21972E+01  1.20374E+01  1.18691E+01  1.17025E+01  1.15529E+01  1.14498E+01  1.14325E+01
   1.13244E+01  1.10765E+01  1.09135E+01  1.08409E+01  1.07593E+01  1.05889E+01  1.02683E+01  9.90182E+00  9.57908E+00  9.13671E+00
   8.70302E+00  8.46570E+00  8.49490E+00  8.77131E+00  9.21821E+00  9.71479E+00  1.01453E+01  1.05000E+01  1.07542E+01  1.08609E+01
   1.08547E+01  1.08114E+01  1.08074E+01  1.08371E+01  1.08228E+01  1.07463E+01  1.07006E+01  1.06920E+01  1.06856E+01  1.06597E+01
   1.06412E+01  1.06539E+01  1.07015E+01  1.07758E+01  1.08563E+01  1.09171E+01  1.09373E+01  1.09172E+01  1.08556E+01  1.07453E+01
   1.05985E+01  1.04281E+01  1.02385E+01  1.00285E+01  9.78940E+00  9.53504E+00  9.27792E+00  9.01709E+00  8.75388E+00  8.49113E+00
   8.23172E+00  7.97876E+00  7.73491E+00  7.50283E+00  7.28468E+00  7.08258E+00  6.89813E+00  6.73287E+00  6.58790E+00  6.46435E+00
   6.36299E+00  6.28471E+00  6.23011E+00  6.19993E+00  6.19468E+00  6.21504E+00  6.26146E+00  6.33449E+00  6.43432E+00  6.56115E+00
   6.71462E+00  6.89419E+00  7.09861E+00  7.32618E+00  7.57425E+00  7.83957E+00  8.11785E+00  8.40416E+00  8.69256E+00  8.97664E+00
   9.24925E+00  9.50312E+00  9.73079E+00  9.92524E+00  1.00798E+01  1.01891E+01  1.02483E+01  1.02545E+01  1.02061E+01  1.01033E+01
   9.94779E+00  9.74288E+00  9.49318E+00  9.20464E+00  8.88384E+00  8.53815E+00  8.17490E+00  7.80154E+00  7.42493E+00  7.05156E+00
   6.68690E+00  6.33576E+00  6.00175E+00  5.68773E+00  5.39547E+00  5.12610E+00  4.87982E+00  4.65643E+00  4.45504E+00  4.27461E+00
   4.11365E+00  3.97076E+00  3.84423E+00  3.73257E+00  3.63413E+00  3.54754E+00  3.47136E+00  3.40446E+00  3.34564E+00  3.29402E+00
   3.24860E+00  3.20873E+00  3.17367E+00  3.14292E+00  3.11589E+00  3.09223E+00  3.07147E+00  3.05337E+00  3.03755E+00  3.02389E+00
   3.01204E+00  3.00190E+00  2.99322E+00  2.98595E+00  2.97988E+00  2.97500E+00  2.97110E+00  2.96821E+00  2.96613E+00  2.96492E+00
   2.96442E+00  2.96466E+00  2.96550E+00  2.96698E+00  2.96899E+00  2.97157E+00  2.97461E+00  2.97816E+00  2.98209E+00  2.98647E+00
   2.99120E+00  2.99635E+00  3.00181E+00  3.00765E+00  3.01375E+00  3.02020E+00  3.02690E+00  3.03393E+00  3.04117E+00  3.04872E+00
   3.05644E+00  3.06447E+00  3.07267E+00  3.08117E+00  3.08982E+00  3.09874E+00  3.10782E+00  3.11717E+00  3.12670E+00  3.13649E+00
   3.14645E+00  3.15669E+00  3.16711E+00  3.17784E+00  3.18879E+00  3.20007E+00  3.21159E+00  3.22350E+00
 NY background values follow
     3.482E+01    3.464E+01    3.445E+01    3.427E+01    3.408E+01    3.390E+01    3.371E+01    3.353E+01    3.334E+01    3.315E+01
     3.297E+01    3.278E+01    3.260E+01    3.241E+01    3.222E+01    3.204E+01    3.185E+01    3.167E+01    3.148E+01    3.129E+01
     3.111E+01    3.092E+01    3.074E+01    3.055E+01    3.036E+01    3.018E+01    2.999E+01    2.981E+01    2.962E+01    2.944E+01
     2.925E+01    2.907E+01    2.888E+01    2.870E+01    2.851E+01    2.833E+01    2.814E+01    2.796E+01    2.778E+01    2.759E+01
     2.741E+01    2.723E+01    2.704E+01    2.686E+01    2.668E+01    2.650E+01    2.632E+01    2.613E+01    2.595E+01    2.577E+01
     2.559E+01    2.541E+01    2.524E+01    2.506E+01    2.488E+01    2.470E+01    2.452E+01    2.435E+01    2.417E+01    2.400E+01
     2.382E+01    2.365E+01    2.347E+01    2.330E+01    2.313E+01    2.296E+01    2.278E+01    2.261E+01    2.245E+01    2.228E+01
     2.211E+01    2.194E+01    2.178E+01    2.161E+01    2.144E+01    2.128E+01    2.112E+01    2.096E+01    2.080E+01    2.064E+01
     2.048E+01    2.032E+01    2.016E+01    2.000E+01    1.985E+01    1.970E+01    1.954E+01    1.939E+01    1.924E+01    1.909E+01
     1.894E+01    1.880E+01    1.865E+01    1.850E+01    1.836E+01    1.822E+01    1.808E+01    1.794E+01    1.780E+01    1.766E+01
     1.752E+01    1.739E+01    1.725E+01    1.712E+01    1.698E+01    1.685E+01    1.672E+01    1.659E+01    1.646E+01    1.633E+01
     1.621E+01    1.608E+01    1.596E+01    1.583E+01    1.571E+01    1.559E+01    1.546E+01    1.534E+01    1.522E+01    1.510E+01
     1.498E+01    1.487E+01    1.475E+01    1.463E+01    1.452E+01    1.440E+01    1.429E+01    1.417E+01    1.406E+01    1.395E+01
     1.384E+01    1.373E+01    1.362E+01    1.351E+01    1.340E+01    1.329E+01    1.318E+01    1.307E+01    1.296E+01    1.286E+01
     1.275E+01    1.265E+01    1.254E+01    1.244E+01    1.234E+01    1.224E+01    1.213E+01    1.203E+01    1.193E+01    1.184E+01
     1.174E+01    1.164E+01    1.155E+01    1.145E+01    1.136E+01    1.127E+01    1.117E+01    1.108E+01    1.100E+01    1.091E+01
     1.082E+01    1.074E+01    1.065E+01    1.057E+01    1.049E+01    1.041E+01    1.033E+01    1.025E+01    1.018E+01    1.010E+01
     1.003E+01    9.961E+00    9.892E+00    9.824E+00    9.758E+00    9.694E+00    9.631E+00    9.570E+00    9.511E+00    9.454E+00
     9.398E+00    9.345E+00    9.293E+00    9.243E+00    9.195E+00    9.148E+00    9.104E+00    9.061E+00    9.020E+00    8.980E+00
     8.942E+00    8.905E+00    8.870E+00    8.836E+00    8.804E+00    8.773E+00    8.743E+00    8.715E+00    8.688E+00    8.662E+00
     8.637E+00    8.614E+00    8.591E+00    8.570E+00    8.550E+00    8.530E+00    8.512E+00    8.494E+00    8.478E+00    8.462E+00
     8.447E+00    8.432E+00    8.419E+00    8.406E+00    8.394E+00    8.382E+00    8.371E+00    8.360E+00    8.350E+00    8.341E+00
     8.331E+00    8.322E+00    8.314E+00    8.306E+00    8.298E+00    8.290E+00    8.282E+00    8.275E+00    8.267E+00    8.260E+00
     8.253E+00    8.246E+00    8.238E+00    8.231E+00    8.224E+00    8.217E+00    8.210E+00    8.203E+00    8.196E+00    8.189E+00
     8.182E+00    8.174E+00    8.167E+00    8.159E+00    8.151E+00    8.143E+00    8.135E+00    8.126E+00    8.118E+00    8.109E+00
     8.100E+00    8.090E+00    8.081E+00    8.071E+00    8.060E+00    8.050E+00    8.039E+00    8.027E+00    8.016E+00    8.003E+00
     7.991E+00    7.978E+00    7.964E+00    7.950E+00    7.935E+00    7.920E+00    7.905E+00    7.889E+00    7.872E+00    7.855E+00
     7.837E+00    7.818E+00    7.799E+00    7.779E+00    7.759E+00    7.738E+00    7.716E+00    7.694E+00    7.671E+00    7.648E+00
     7.623E+00    7.599E+00    7.574E+00    7.548E+00    7.522E+00    7.495E+00    7.467E+00    7.439E+00    7.411E+00    7.382E+00
     7.352E+00    7.322E+00    7.291E+00    7.260E+00    7.228E+00    7.196E+00    7.164E+00    7.130E+00    7.097E+00    7.063E+00
     7.028E+00    6.993E+00    6.958E+00    6.922E+00    6.885E+00    6.849E+00    6.811E+00    6.774E+00    6.736E+00    6.697E+00
     6.658E+00    6.619E+00    6.579E+00    6.539E+00    6.499E+00    6.458E+00    6.417E+00    6.375E+00    6.333E+00    6.291E+00
     6.248E+00    6.205E+00    6.162E+00    6.119E+00    6.075E+00    6.031E+00    5.987E+00    5.943E+00    5.898E+00    5.853E+00
     5.808E+00    5.763E+00    5.718E+00    5.673E+00    5.627E+00    5.582E+00    5.536E+00    5.490E+00    5.445E+00    5.399E+00
     5.353E+00    5.307E+00    5.262E+00    5.216E+00    5.170E+00    5.125E+00    5.079E+00    5.034E+00    4.989E+00    4.943E+00
     4.898E+00    4.854E+00    4.809E+00    4.765E+00    4.720E+00    4.676E+00    4.632E+00    4.589E+00    4.546E+00    4.503E+00
     4.460E+00    4.417E+00    4.375E+00    4.334E+00    4.292E+00    4.251E+00    4.211E+00    4.170E+00    4.131E+00    4.091E+00
     4.052E+00    4.014E+00    3.975E+00    3.938E+00    3.901E+00    3.864E+00    3.828E+00    3.792E+00    3.757E+00    3.722E+00
     3.688E+00    3.655E+00    3.622E+00    3.589E+00    3.557E+00    3.526E+00    3.496E+00    3.466E+00    3.436E+00    3.408E+00
     3.380E+00    3.353E+00    3.326E+00    3.300E+00    3.275E+00    3.250E+00    3.226E+00    3.203E+00    3.181E+00    3.160E+00
     3.139E+00    3.119E+00    3.100E+00    3.082E+00    3.064E+00    3.047E+00    3.032E+00    3.017E+00    3.003E+00    2.989E+00
     2.977E+00    2.965E+00    2.955E+00    2.945E+00    2.936E+00    2.927E+00    2.919E+00    2.912E+00    2.906E+00    2.900E+00
     2.895E+00    2.891E+00    2.887E+00    2.884E+00    2.882E+00    2.880E+00    2.879E+00    2.878E+00    2.878E+00    2.878E+00
     2.879E+00    2.880E+00    2.882E+00    2.884E+00    2.887E+00    2.890E+00    2.894E+00    2.898E+00    2.902E+00    2.907E+00
     2.912E+00    2.917E+00    2.923E+00    2.929E+00    2.935E+00    2.941E+00    2.948E+00    2.955E+00    2.962E+00    2.969E+00
     2.977E+00    2.985E+00    2.993E+00    3.001E+00    3.009E+00    3.017E+00    3.025E+00    3.034E+00    3.043E+00    3.051E+00
     3.060E+00    3.069E+00    3.078E+00    3.087E+00    3.097E+00    3.106E+00    3.115E+00    3.125E+00    3.134E+00    3.144E+00
     3.154E+00    3.164E+00    3.174E+00    3.184E+00    3.194E+00    3.204E+00    3.214E+00    3.224E+00    3.234E+00    3.245E+00
     3.255E+00    3.265E+00    3.276E+00    3.286E+00    3.297E+00    3.307E+00    3.318E+00    3.328E+00    3.339E+00    3.349E+00
     3.360E+00    3.370E+00    3.381E+00    3.392E+00    3.402E+00    3.413E+00    3.423E+00    3.434E+00
 Ala      Conc. = 1.45E+02
