 LCModel (Version 6.3-1L) Copyright: S.W. Provencher.          Ref.: Magn. Reson. Med. 30:672-679 (1993).                
 Slice#2 Row#1 Col#1  PD_05_press_1_raw_act
 36 lines in following concentration table = NCONC+1
    Conc.  %SD /Cr+PCr  Metabolite                                         
    0.000 999%   0.000 Ala                                                 
    8.612 101%   0.481 Asp                                                 
    0.000 999%   0.000 Cr                                                  
   17.913 106%   1.000 PCr                                                 
    5.468  95%   0.305 GABA                                                
    5.602  93%   0.313 Glc                                                 
    0.000 999%   0.000 Gln                                                 
    0.000 999%   0.000 Glu                                                 
   23.919  30%   1.335 GPC                                                 
    0.000 999%   0.000 PCh                                                 
    0.000 999%   0.000 GSH                                                 
   96.887  83%   5.409 Ins                                                 
    0.000 999%   0.000 Lac                                                 
   99.934  23%   5.579 NAA                                                 
    0.000 999%   0.000 NAAG                                                
    1.629 106% 9.1E-02 Scyllo                                              
    9.503  90%   0.531 Tau                                                 
    0.597 999% 3.3E-02 -CrCH2                                              
   23.919  30%   1.335 GPC+PCh                                             
   99.934  23%   5.579 NAA+NAAG                                            
   17.913 106%   1.000 Cr+PCr                                              
    0.000 999%   0.000 Glu+Gln                                             
    0.000 999%   0.000 Lip13a                                              
    0.000 999%   0.000 Lip13b                                              
    0.000 999%   0.000 Lip09                                               
   69.061  49%   3.855 MM09                                                
 1.68E-04 999% 9.4E-06 Lip20                                               
  119.019  50%   6.644 MM20                                                
    7.953 192%   0.444 MM12                                                
   67.310  63%   3.758 MM14                                                
   75.490  41%   4.214 MM17                                                
    0.000 999%   0.000 Lip13a+Lip13b                                       
   75.263  64%   4.202 MM14+Lip13a+Lip13b+MM12                             
   69.061  49%   3.855 MM09+Lip09                                          
  119.019  50%   6.644 MM20+Lip20                                          
   6 lines in following misc. output table
  FWHM = 0.092 ppm    S/N =   1                                            
  Data shift = 0.023 ppm                                                   
  Ph:  52 deg     -15.1 deg/ppm                                            
  alphaB,S = 8.5E+01,   2.0E+02                                            
   14 spline knots.   Ns =11(1)                                            
   2 inflections.     1 extrema                                            
  498 points on ppm-axis = NY
      4.000000     3.992357     3.984714     3.977070     3.969427     3.961784     3.954141     3.946497     3.938854     3.931211
      3.923568     3.915925     3.908281     3.900638     3.892995     3.885352     3.877708     3.870065     3.862422     3.854779
      3.847136     3.839492     3.831849     3.824206     3.816563     3.808919     3.801276     3.793633     3.785990     3.778347
      3.770703     3.763060     3.755417     3.747774     3.740130     3.732487     3.724844     3.717201     3.709558     3.701914
      3.694271     3.686628     3.678985     3.671341     3.663698     3.656055     3.648412     3.640769     3.633125     3.625482
      3.617839     3.610196     3.602552     3.594909     3.587266     3.579623     3.571980     3.564336     3.556693     3.549050
      3.541407     3.533763     3.526120     3.518477     3.510834     3.503191     3.495547     3.487904     3.480261     3.472618
      3.464974     3.457331     3.449688     3.442045     3.434402     3.426758     3.419115     3.411472     3.403829     3.396185
      3.388542     3.380899     3.373256     3.365613     3.357969     3.350326     3.342683     3.335040     3.327396     3.319753
      3.312110     3.304467     3.296824     3.289180     3.281537     3.273894     3.266251     3.258607     3.250964     3.243321
      3.235678     3.228034     3.220391     3.212748     3.205105     3.197462     3.189818     3.182175     3.174532     3.166889
      3.159245     3.151602     3.143959     3.136316     3.128673     3.121029     3.113386     3.105743     3.098100     3.090456
      3.082813     3.075170     3.067527     3.059884     3.052240     3.044597     3.036954     3.029311     3.021667     3.014024
      3.006381     2.998738     2.991095     2.983451     2.975808     2.968165     2.960522     2.952878     2.945235     2.937592
      2.929949     2.922306     2.914662     2.907019     2.899376     2.891733     2.884089     2.876446     2.868803     2.861160
      2.853517     2.845873     2.838230     2.830587     2.822944     2.815300     2.807657     2.800014     2.792371     2.784728
      2.777084     2.769441     2.761798     2.754155     2.746511     2.738868     2.731225     2.723582     2.715939     2.708295
      2.700652     2.693009     2.685366     2.677722     2.670079     2.662436     2.654793     2.647150     2.639506     2.631863
      2.624220     2.616577     2.608933     2.601290     2.593647     2.586004     2.578361     2.570717     2.563074     2.555431
      2.547788     2.540144     2.532501     2.524858     2.517215     2.509572     2.501928     2.494285     2.486642     2.478999
      2.471355     2.463712     2.456069     2.448426     2.440783     2.433139     2.425496     2.417853     2.410210     2.402566
      2.394923     2.387280     2.379637     2.371994     2.364350     2.356707     2.349064     2.341421     2.333777     2.326134
      2.318491     2.310848     2.303205     2.295561     2.287918     2.280275     2.272632     2.264988     2.257345     2.249702
      2.242059     2.234416     2.226772     2.219129     2.211486     2.203843     2.196199     2.188556     2.180913     2.173270
      2.165627     2.157983     2.150340     2.142697     2.135054     2.127410     2.119767     2.112124     2.104481     2.096838
      2.089194     2.081551     2.073908     2.066265     2.058621     2.050978     2.043335     2.035692     2.028049     2.020405
      2.012762     2.005119     1.997476     1.989833     1.982190     1.974546     1.966903     1.959260     1.951617     1.943974
      1.936331     1.928688     1.921045     1.913402     1.905759     1.898115     1.890472     1.882829     1.875186     1.867543
      1.859900     1.852257     1.844614     1.836971     1.829327     1.821684     1.814041     1.806398     1.798755     1.791112
      1.783469     1.775826     1.768183     1.760540     1.752896     1.745253     1.737610     1.729967     1.722324     1.714681
      1.707038     1.699395     1.691752     1.684108     1.676465     1.668822     1.661179     1.653536     1.645893     1.638250
      1.630607     1.622964     1.615321     1.607677     1.600034     1.592391     1.584748     1.577105     1.569462     1.561819
      1.554176     1.546533     1.538890     1.531246     1.523603     1.515960     1.508317     1.500674     1.493031     1.485388
      1.477745     1.470102     1.462458     1.454815     1.447172     1.439529     1.431886     1.424243     1.416600     1.408957
      1.401314     1.393671     1.386027     1.378384     1.370741     1.363098     1.355455     1.347812     1.340169     1.332526
      1.324883     1.317240     1.309596     1.301953     1.294310     1.286667     1.279024     1.271381     1.263738     1.256095
      1.248452     1.240808     1.233165     1.225522     1.217879     1.210236     1.202593     1.194950     1.187307     1.179664
      1.172021     1.164377     1.156734     1.149091     1.141448     1.133805     1.126162     1.118519     1.110876     1.103233
      1.095590     1.087946     1.080303     1.072660     1.065017     1.057374     1.049731     1.042088     1.034445     1.026802
      1.019158     1.011515     1.003872     0.996229     0.988586     0.980943     0.973300     0.965657     0.958014     0.950371
      0.942727     0.935084     0.927441     0.919798     0.912155     0.904512     0.896869     0.889226     0.881583     0.873940
      0.866296     0.858653     0.851010     0.843367     0.835724     0.828081     0.820438     0.812795     0.805152     0.797508
      0.789865     0.782222     0.774579     0.766936     0.759293     0.751650     0.744007     0.736364     0.728721     0.721077
      0.713434     0.705791     0.698148     0.690505     0.682862     0.675219     0.667576     0.659933     0.652290     0.644646
      0.637003     0.629360     0.621717     0.614074     0.606431     0.598788     0.591145     0.583502     0.575858     0.568215
      0.560572     0.552929     0.545286     0.537643     0.530000     0.522357     0.514714     0.507071     0.499427     0.491784
      0.484141     0.476498     0.468855     0.461212     0.453569     0.445925     0.438282     0.430639     0.422996     0.415353
      0.407710     0.400067     0.392424     0.384780     0.377137     0.369494     0.361851     0.354208     0.346565     0.338922
      0.331278     0.323635     0.315992     0.308349     0.300706     0.293063     0.285420     0.277777     0.270133     0.262490
      0.254847     0.247204     0.239561     0.231918     0.224275     0.216631     0.208988     0.201345
 NY phased data points follow
   1.91880E+00  1.73945E+00  3.26252E-01  2.05462E+00  1.63135E+00  7.14235E-01  1.77219E+00  9.86752E-01  2.77520E-01  8.94396E-01
   2.31664E+00  1.58815E+00  1.90611E+00  3.47078E-01  1.58902E+00  5.29235E-01 -3.52719E-01  3.16221E+00  3.91910E-01 -2.27095E-01
  -1.65204E+00  2.45036E+00 -1.68464E-01 -2.47281E-01  2.64472E+00 -1.50330E+00 -8.98345E-01  9.53080E-01  1.49588E+00 -5.14932E-02
   1.01629E+00  1.84528E+00  1.54219E-01 -1.57445E+00  9.05527E-01 -1.42741E-01  1.61810E+00 -8.39224E-01  7.57084E-01  1.24766E+00
   1.16762E+00  1.85795E+00  9.82812E-01  1.33701E+00 -1.74040E+00  4.13621E-01  1.59611E-01  2.81485E+00  4.81108E-01  6.40983E-01
  -5.36061E-01  3.85025E-01  1.48680E+00  1.65836E+00  9.18039E-01  1.19893E+00  9.72446E-01  3.06668E+00  1.71528E+00  2.43653E+00
   1.40566E+00  7.81524E-01  3.62917E-01  1.01832E+00  1.09490E+00  1.61392E+00  8.61803E-01  1.14997E-01 -6.93267E-01  1.43653E+00
  -2.32580E-01 -4.58915E-01  1.89054E+00  2.39719E+00  1.81621E+00  7.64863E-01  9.74202E-01  1.40074E+00  2.54676E+00 -2.18845E-02
  -7.55424E-01  2.79195E-01 -1.17450E+00  5.25236E-01 -1.25570E-01  1.54548E-01  6.16140E-01  7.39173E-01  1.10987E-01  1.56256E+00
  -9.74837E-01  1.52061E-01  4.82118E-01  2.09347E+00  1.32571E+00 -1.58286E-01  2.18570E+00  1.34750E+00 -4.30469E-01  1.09047E+00
   1.55165E+00  2.10833E+00  2.97960E+00  2.39553E+00  2.04291E+00  3.00311E+00  9.82146E-01  8.08431E-01  1.85798E+00 -1.14812E-01
   1.36184E+00  2.15068E+00  5.93801E-01  4.79846E-01  7.90376E-01  2.34104E+00  1.80630E+00  1.20186E+00  1.44501E-01  4.02391E-02
  -7.90851E-01 -1.15518E-01  1.97894E+00 -1.28419E+00 -7.01455E-01  1.42146E-01  1.98870E-01  8.03596E-01  2.04602E+00  1.95393E+00
   2.52628E+00 -1.50981E-01  1.52315E+00  5.11804E-02  2.08323E-01  5.66973E-01  1.76396E-01  1.69414E-01  9.08286E-01 -4.32822E-02
  -3.92887E-01  1.31281E+00  1.62286E+00  1.40867E+00  9.08994E-01  9.74689E-01 -1.13170E+00  1.56184E-01  8.99411E-02 -6.20540E-01
  -2.12677E-01  1.17601E+00 -1.53346E-01  5.80526E-01  1.00099E+00  1.67630E-01  1.49747E+00  9.61177E-01  2.01681E+00  2.01941E+00
   1.99857E+00  1.84670E+00 -1.29498E-01  5.84988E-01 -1.15809E-01  2.67434E+00  1.64652E+00  6.73454E-01 -8.10526E-01  1.93504E+00
   1.45297E+00 -1.37816E-01  1.23948E+00  8.14283E-01 -5.82172E-01  2.26553E-01  8.52397E-01  4.17386E-01  1.54985E+00  2.07246E+00
   6.87039E-02  5.76652E-01  1.02033E-01  8.33094E-02  7.46991E-01 -6.00239E-01  1.43384E+00  1.74745E+00  4.84050E-01  9.62147E-01
   2.21970E-01  7.47401E-01  9.40052E-01  1.73316E+00  7.20598E-01  2.00821E+00  1.95988E+00  1.36567E+00 -3.21028E-01  6.74677E-01
   6.39075E-02  4.44342E-01  1.11970E+00  2.72104E+00  4.74439E-01  7.01718E-01  8.45375E-01 -1.35204E+00  6.16580E-01 -2.94723E-02
   1.09737E+00  9.81014E-01  7.74877E-01  1.59689E+00  1.11513E+00  1.97951E+00 -1.39493E+00  5.49765E-01  1.71176E+00  1.37739E+00
   1.89048E+00  6.97032E-01  1.84756E+00  3.61713E-01  1.30781E+00  1.18836E+00  2.27635E+00  7.41468E-01  2.01621E-01  8.32251E-02
   5.74211E-01  1.04281E+00  1.68531E+00  5.72888E-01  1.57463E+00  2.27871E+00  2.28770E+00 -1.13996E+00  1.20909E+00 -8.58088E-01
   9.15442E-01  9.49956E-01  3.66370E-01  1.23869E+00 -5.94538E-01  8.98571E-03  1.73887E+00  2.60865E+00 -8.98200E-01  4.26230E-01
   7.98967E-01  2.18883E+00  2.63597E+00  1.04155E+00  2.62305E+00  2.06352E+00  3.60563E-01  9.30768E-01  1.80328E+00  1.82063E+00
   4.81802E+00  3.57740E+00  2.61704E+00  2.86239E+00  1.49318E+00  2.43729E+00  2.55712E+00  1.93799E+00  3.48570E+00  4.74554E-01
   2.73846E-01  9.25497E-01  1.69676E+00  1.09034E+00 -1.19866E-01  2.12516E+00 -3.93683E-02  1.23666E+00  7.15747E-01  6.76412E-01
   8.96155E-01  1.92072E+00  8.52133E-01 -8.50663E-01 -1.16484E+00  1.49384E+00  2.72848E-01  1.18935E+00  1.59104E+00  2.32539E+00
   1.27634E+00  1.92574E-01 -6.11665E-01  1.00732E+00  2.80539E-01  1.30015E+00 -5.48546E-02  6.38256E-01  1.76406E+00  8.90514E-01
   2.87243E+00  9.98569E-01  6.00901E-03  2.94462E+00  1.21271E+00  1.07214E+00  1.50534E+00  2.08716E+00  2.51275E+00 -1.41881E+00
   2.93714E-01  1.18713E-01  1.37971E+00  1.79988E-01  2.65277E+00 -2.72747E-01  7.12282E-01  1.96007E+00  1.92456E+00  9.60218E-01
   6.93110E-01  2.63927E+00  2.24573E+00  2.44009E+00 -2.74882E-01  2.06774E+00  4.73485E-01 -8.51627E-01  5.75731E-01  7.02915E-01
   2.74303E+00  1.12365E-01  8.19243E-01  5.47552E-01  7.49461E-01  2.47772E+00  1.48019E+00 -6.07661E-01  2.36466E+00  1.85800E+00
   1.20515E-01 -1.02230E-01  1.25537E+00 -5.47169E-01  7.80514E-01 -1.57869E+00 -7.34781E-01 -4.36943E-01  3.15041E-01 -2.13273E+00
  -1.48525E+00 -1.38787E+00 -1.63095E+00 -1.48916E+00 -2.00250E+00 -2.15429E+00  5.62568E-01 -3.20879E-01 -1.28257E+00  5.93106E-01
  -1.82208E+00 -2.23907E+00 -1.96191E-01 -5.17606E-01 -2.68603E-01  3.93202E-01 -6.48377E-01  9.84771E-01 -6.95440E-01 -1.87641E+00
  -2.78218E+00 -7.76614E-01 -6.44466E-01 -1.14416E-01  3.62555E-01  1.77014E-01 -6.65471E-02  1.06614E+00  4.67569E-01 -8.12169E-01
  -6.60321E-01 -1.09762E+00  6.11097E-01 -5.36510E-01  2.73416E-01  1.52043E+00 -5.41158E-02 -3.82132E-02 -1.84197E-01  7.10814E-01
  -3.50321E-01  3.98575E-01 -1.50560E-01  3.76024E+00 -2.65497E-01 -8.18435E-01  2.12708E+00 -2.43998E+00 -1.84156E+00  2.06452E+00
   2.28502E+00  2.84673E+00  1.16363E+00  1.41096E+00  3.21823E-01  1.18687E+00  6.38003E-02  2.41450E+00  4.35112E-01  5.52006E-01
   2.25862E+00  1.80415E+00 -2.52712E-01  1.46781E+00  9.05173E-01 -1.47069E-01  4.13982E-01 -4.76502E-01 -4.12466E-01  1.05250E+00
   2.73644E+00  1.33083E+00  7.72083E-01  1.30021E+00  8.98556E-01 -6.55509E-01 -3.87166E-01 -4.28633E-01  1.37393E+00 -1.49773E-02
  -2.71417E-02 -2.36400E-01 -4.91724E-01 -1.98625E-02 -5.94315E-02  1.07283E+00 -3.36517E-01 -1.70729E+00  1.84603E+00 -1.57070E-02
  -2.90071E-01 -1.51511E+00  4.11636E-01  5.72118E-01  5.29808E-01  2.50993E+00  9.73246E-01 -2.22801E-01  6.53984E-01  1.23930E+00
   2.95953E-01  1.26745E+00  1.64316E+00 -1.77617E+00  2.45178E+00  5.06030E-01  1.23186E+00  9.00935E-01  6.17482E-01  7.28067E-01
   1.00068E+00  1.34182E+00 -1.80473E+00 -1.06948E-01  6.77602E-01  1.11331E+00  5.41422E-01  2.24587E-01 -3.86214E-02  1.34465E+00
   8.38262E-01  3.91928E-01  2.18620E+00  5.78891E-01  2.20183E+00  1.15675E+00  8.96579E-01  1.48373E+00 -1.49034E+00  1.79799E-01
   1.26259E+00  9.48022E-01  6.43643E-01  2.93664E+00 -4.70253E-01  3.49647E-01 -7.81945E-01 -5.22100E-01  1.25351E+00  1.32032E-01
   8.64085E-01  9.38895E-01 -1.45878E+00  9.60701E-01 -4.48411E-01  4.46230E-01 -1.00299E+00  1.40445E+00
 NY points of the fit to the data follow
   9.86062E-01  9.64367E-01  9.45256E-01  9.30979E-01  9.23134E-01  9.24833E-01  9.37000E-01  9.54243E-01  9.72047E-01  9.87029E-01
   9.94785E-01  9.93251E-01  9.82623E-01  9.64032E-01  9.38734E-01  9.07883E-01  8.72813E-01  8.35185E-01  7.97406E-01  7.62574E-01
   7.33587E-01  7.12884E-01  7.01342E-01  6.94756E-01  6.90557E-01  6.88959E-01  6.90299E-01  6.95315E-01  7.03918E-01  7.14431E-01
   7.24742E-01  7.33955E-01  7.42962E-01  7.52370E-01  7.62413E-01  7.74106E-01  7.89893E-01  8.11731E-01  8.37818E-01  8.64351E-01
   8.88638E-01  9.10409E-01  9.31230E-01  9.53451E-01  9.78806E-01  1.00688E+00  1.03431E+00  1.05582E+00  1.06776E+00  1.06925E+00
   1.06095E+00  1.04397E+00  1.01790E+00  9.82970E-01  9.41455E-01  8.97445E-01  8.55447E-01  8.19147E-01  7.93092E-01  7.81166E-01
   7.83648E-01  7.95737E-01  8.08481E-01  8.16046E-01  8.17871E-01  8.16020E-01  8.12146E-01  8.07399E-01  8.02770E-01  7.99037E-01
   7.96762E-01  7.96863E-01  8.00769E-01  8.07771E-01  8.15023E-01  8.20004E-01  8.19250E-01  8.10725E-01  7.94468E-01  7.72641E-01
   7.48232E-01  7.23522E-01  7.00000E-01  6.77893E-01  6.57177E-01  6.38464E-01  6.21233E-01  6.05763E-01  5.94001E-01  5.87643E-01
   5.88702E-01  6.05797E-01  6.57244E-01  7.41574E-01  8.45114E-01  9.56855E-01  1.07138E+00  1.18833E+00  1.31109E+00  1.44297E+00
   1.58018E+00  1.71148E+00  1.82093E+00  1.89270E+00  1.91662E+00  1.89105E+00  1.82112E+00  1.71544E+00  1.58211E+00  1.42777E+00
   1.25833E+00  1.08087E+00  9.06837E-01  7.51430E-01  6.31455E-01  5.64145E-01  5.55598E-01  5.75022E-01  6.02208E-01  6.32044E-01
   6.62787E-01  6.94513E-01  7.28073E-01  7.64533E-01  8.03411E-01  8.41886E-01  8.75278E-01  8.98697E-01  9.08958E-01  9.05237E-01
   8.88548E-01  8.60767E-01  8.23917E-01  7.79963E-01  7.31111E-01  6.79850E-01  6.29351E-01  5.83701E-01  5.47168E-01  5.23606E-01
   5.13372E-01  5.08738E-01  5.05444E-01  5.02860E-01  5.00647E-01  4.98397E-01  4.95832E-01  4.92850E-01  4.89511E-01  4.85764E-01
   4.80847E-01  4.74617E-01  4.67772E-01  4.61059E-01  4.55268E-01  4.50102E-01  4.44809E-01  4.38882E-01  4.32147E-01  4.24921E-01
   4.17807E-01  4.11594E-01  4.06786E-01  4.03127E-01  3.99730E-01  3.95252E-01  3.89061E-01  3.82222E-01  3.75721E-01  3.69773E-01
   3.63490E-01  3.56037E-01  3.47295E-01  3.37486E-01  3.27452E-01  3.19183E-01  3.13890E-01  3.12287E-01  3.14882E-01  3.20453E-01
   3.28283E-01  3.38318E-01  3.50308E-01  3.63967E-01  3.79141E-01  3.96003E-01  4.14905E-01  4.35211E-01  4.55684E-01  4.75268E-01
   4.94076E-01  5.12597E-01  5.30125E-01  5.46492E-01  5.60939E-01  5.73197E-01  5.82867E-01  5.88961E-01  5.91033E-01  5.89461E-01
   5.85642E-01  5.81849E-01  5.78414E-01  5.74325E-01  5.69242E-01  5.63073E-01  5.56050E-01  5.48799E-01  5.41769E-01  5.35102E-01
   5.28583E-01  5.21497E-01  5.14514E-01  5.09268E-01  5.07176E-01  5.09125E-01  5.15714E-01  5.26748E-01  5.40515E-01  5.55869E-01
   5.72192E-01  5.89110E-01  6.06132E-01  6.22371E-01  6.36783E-01  6.48455E-01  6.57104E-01  6.64172E-01  6.71019E-01  6.78189E-01
   6.86173E-01  6.95407E-01  7.06209E-01  7.18717E-01  7.33015E-01  7.49185E-01  7.67254E-01  7.86997E-01  8.07903E-01  8.29378E-01
   8.50955E-01  8.72259E-01  8.93010E-01  9.13106E-01  9.32813E-01  9.52739E-01  9.73539E-01  9.96434E-01  1.02641E+00  1.08398E+00
   1.18675E+00  1.32139E+00  1.46929E+00  1.61911E+00  1.76799E+00  1.91946E+00  2.08078E+00  2.25539E+00  2.43485E+00  2.59831E+00
   2.71939E+00  2.77596E+00  2.75806E+00  2.66830E+00  2.51742E+00  2.31872E+00  2.08373E+00  1.82246E+00  1.54541E+00  1.26628E+00
   1.00464E+00  7.83317E-01  6.24390E-01  5.43857E-01  5.21020E-01  5.12939E-01  5.08180E-01  5.05005E-01  5.02928E-01  5.01787E-01
   5.01562E-01  5.02319E-01  5.04157E-01  5.07275E-01  5.12014E-01  5.18634E-01  5.27332E-01  5.38255E-01  5.51461E-01  5.66936E-01
   5.84515E-01  6.03891E-01  6.24766E-01  6.46840E-01  6.69729E-01  6.93037E-01  7.16347E-01  7.39214E-01  7.61196E-01  7.81809E-01
   8.00517E-01  8.16813E-01  8.30268E-01  8.40519E-01  8.47290E-01  8.50444E-01  8.49987E-01  8.46047E-01  8.38903E-01  8.28960E-01
   8.16715E-01  8.02742E-01  7.87653E-01  7.72073E-01  7.56605E-01  7.41808E-01  7.28171E-01  7.16093E-01  7.05870E-01  6.97684E-01
   6.91605E-01  6.87595E-01  6.85518E-01  6.85149E-01  6.86193E-01  6.88295E-01  6.91068E-01  6.94107E-01  6.97009E-01  6.99388E-01
   7.00892E-01  7.01212E-01  7.00094E-01  6.97350E-01  6.92861E-01  6.86573E-01  6.78500E-01  6.68720E-01  6.57368E-01  6.44629E-01
   6.30725E-01  6.15905E-01  6.00435E-01  5.84584E-01  5.68621E-01  5.52798E-01  5.37347E-01  5.22471E-01  5.08338E-01  4.95085E-01
   4.82812E-01  4.71585E-01  4.61435E-01  4.52364E-01  4.44346E-01  4.37334E-01  4.31265E-01  4.26063E-01  4.21641E-01  4.17910E-01
   4.14781E-01  4.12170E-01  4.09998E-01  4.08197E-01  4.06707E-01  4.05482E-01  4.04486E-01  4.03701E-01  4.03119E-01  4.02747E-01
   4.02600E-01  4.02708E-01  4.03112E-01  4.03863E-01  4.05021E-01  4.06657E-01  4.08848E-01  4.11685E-01  4.15265E-01  4.19698E-01
   4.25100E-01  4.31597E-01  4.39321E-01  4.48409E-01  4.59001E-01  4.71230E-01  4.85216E-01  5.01059E-01  5.18826E-01  5.38542E-01
   5.60175E-01  5.83621E-01  6.08698E-01  6.35133E-01  6.62556E-01  6.90505E-01  7.18428E-01  7.45695E-01  7.71617E-01  7.95475E-01
   8.16547E-01  8.34145E-01  8.47651E-01  8.56547E-01  8.60447E-01  8.59123E-01  8.52520E-01  8.40757E-01  8.24124E-01  8.03067E-01
   7.78162E-01  7.50085E-01  7.19577E-01  6.87407E-01  6.54333E-01  6.21072E-01  5.88271E-01  5.56493E-01  5.26195E-01  4.97730E-01
   4.71342E-01  4.47176E-01  4.25290E-01  4.05667E-01  3.88227E-01  3.72846E-01  3.59369E-01  3.47623E-01  3.37428E-01  3.28603E-01
   3.20977E-01  3.14388E-01  3.08690E-01  3.03753E-01  2.99461E-01  2.95717E-01  2.92435E-01  2.89542E-01  2.86977E-01  2.84691E-01
   2.82641E-01  2.80791E-01  2.79112E-01  2.77578E-01  2.76170E-01  2.74870E-01  2.73665E-01  2.72542E-01  2.71490E-01  2.70500E-01
   2.69566E-01  2.68681E-01  2.67839E-01  2.67036E-01  2.66268E-01  2.65530E-01  2.64819E-01  2.64134E-01  2.63471E-01  2.62829E-01
   2.62205E-01  2.61597E-01  2.61004E-01  2.60426E-01  2.59860E-01  2.59306E-01  2.58762E-01  2.58228E-01  2.57703E-01  2.57187E-01
   2.56678E-01  2.56177E-01  2.55681E-01  2.55192E-01  2.54710E-01  2.54233E-01  2.53761E-01  2.53294E-01  2.52831E-01  2.52373E-01
   2.51921E-01  2.51472E-01  2.51028E-01  2.50587E-01  2.50151E-01  2.49719E-01  2.49292E-01  2.48870E-01  2.48451E-01  2.48037E-01
   2.47629E-01  2.47226E-01  2.46829E-01  2.46438E-01  2.46054E-01  2.45677E-01  2.45309E-01  2.44950E-01
 NY background values follow
     5.341E-01    5.336E-01    5.330E-01    5.325E-01    5.319E-01    5.314E-01    5.308E-01    5.303E-01    5.298E-01    5.292E-01
     5.287E-01    5.281E-01    5.276E-01    5.270E-01    5.265E-01    5.259E-01    5.254E-01    5.249E-01    5.243E-01    5.238E-01
     5.232E-01    5.227E-01    5.221E-01    5.216E-01    5.211E-01    5.205E-01    5.200E-01    5.194E-01    5.189E-01    5.183E-01
     5.178E-01    5.172E-01    5.167E-01    5.162E-01    5.156E-01    5.151E-01    5.145E-01    5.140E-01    5.134E-01    5.129E-01
     5.124E-01    5.118E-01    5.113E-01    5.107E-01    5.102E-01    5.096E-01    5.091E-01    5.085E-01    5.080E-01    5.075E-01
     5.069E-01    5.064E-01    5.058E-01    5.053E-01    5.047E-01    5.042E-01    5.037E-01    5.031E-01    5.026E-01    5.020E-01
     5.015E-01    5.009E-01    5.004E-01    4.998E-01    4.993E-01    4.988E-01    4.982E-01    4.977E-01    4.971E-01    4.966E-01
     4.960E-01    4.955E-01    4.950E-01    4.944E-01    4.939E-01    4.933E-01    4.928E-01    4.922E-01    4.917E-01    4.912E-01
     4.906E-01    4.901E-01    4.895E-01    4.890E-01    4.884E-01    4.879E-01    4.873E-01    4.868E-01    4.863E-01    4.857E-01
     4.852E-01    4.846E-01    4.841E-01    4.835E-01    4.830E-01    4.825E-01    4.819E-01    4.814E-01    4.808E-01    4.803E-01
     4.797E-01    4.792E-01    4.787E-01    4.781E-01    4.776E-01    4.770E-01    4.765E-01    4.759E-01    4.754E-01    4.748E-01
     4.743E-01    4.738E-01    4.732E-01    4.727E-01    4.721E-01    4.716E-01    4.710E-01    4.705E-01    4.700E-01    4.694E-01
     4.689E-01    4.683E-01    4.678E-01    4.672E-01    4.667E-01    4.662E-01    4.656E-01    4.651E-01    4.645E-01    4.640E-01
     4.634E-01    4.629E-01    4.624E-01    4.618E-01    4.613E-01    4.607E-01    4.602E-01    4.596E-01    4.591E-01    4.586E-01
     4.580E-01    4.575E-01    4.569E-01    4.564E-01    4.558E-01    4.553E-01    4.548E-01    4.542E-01    4.537E-01    4.531E-01
     4.526E-01    4.520E-01    4.515E-01    4.510E-01    4.504E-01    4.499E-01    4.493E-01    4.488E-01    4.482E-01    4.477E-01
     4.472E-01    4.466E-01    4.461E-01    4.455E-01    4.450E-01    4.444E-01    4.439E-01    4.434E-01    4.428E-01    4.423E-01
     4.417E-01    4.412E-01    4.406E-01    4.401E-01    4.396E-01    4.390E-01    4.385E-01    4.379E-01    4.374E-01    4.368E-01
     4.363E-01    4.358E-01    4.352E-01    4.347E-01    4.341E-01    4.336E-01    4.330E-01    4.325E-01    4.320E-01    4.314E-01
     4.309E-01    4.303E-01    4.298E-01    4.292E-01    4.287E-01    4.282E-01    4.276E-01    4.271E-01    4.265E-01    4.260E-01
     4.254E-01    4.249E-01    4.244E-01    4.238E-01    4.233E-01    4.227E-01    4.222E-01    4.216E-01    4.211E-01    4.206E-01
     4.200E-01    4.195E-01    4.189E-01    4.184E-01    4.178E-01    4.173E-01    4.168E-01    4.162E-01    4.157E-01    4.151E-01
     4.146E-01    4.140E-01    4.135E-01    4.130E-01    4.124E-01    4.119E-01    4.113E-01    4.108E-01    4.103E-01    4.097E-01
     4.092E-01    4.086E-01    4.081E-01    4.075E-01    4.070E-01    4.065E-01    4.059E-01    4.054E-01    4.048E-01    4.043E-01
     4.037E-01    4.032E-01    4.027E-01    4.021E-01    4.016E-01    4.010E-01    4.005E-01    3.999E-01    3.994E-01    3.989E-01
     3.983E-01    3.978E-01    3.972E-01    3.967E-01    3.962E-01    3.956E-01    3.951E-01    3.945E-01    3.940E-01    3.934E-01
     3.929E-01    3.924E-01    3.918E-01    3.913E-01    3.907E-01    3.902E-01    3.897E-01    3.891E-01    3.886E-01    3.880E-01
     3.875E-01    3.869E-01    3.864E-01    3.859E-01    3.853E-01    3.848E-01    3.842E-01    3.837E-01    3.831E-01    3.826E-01
     3.821E-01    3.815E-01    3.810E-01    3.804E-01    3.799E-01    3.794E-01    3.788E-01    3.783E-01    3.777E-01    3.772E-01
     3.766E-01    3.761E-01    3.756E-01    3.750E-01    3.745E-01    3.739E-01    3.734E-01    3.729E-01    3.723E-01    3.718E-01
     3.712E-01    3.707E-01    3.702E-01    3.696E-01    3.691E-01    3.685E-01    3.680E-01    3.674E-01    3.669E-01    3.664E-01
     3.658E-01    3.653E-01    3.647E-01    3.642E-01    3.637E-01    3.631E-01    3.626E-01    3.620E-01    3.615E-01    3.609E-01
     3.604E-01    3.599E-01    3.593E-01    3.588E-01    3.582E-01    3.577E-01    3.572E-01    3.566E-01    3.561E-01    3.555E-01
     3.550E-01    3.545E-01    3.539E-01    3.534E-01    3.528E-01    3.523E-01    3.517E-01    3.512E-01    3.507E-01    3.501E-01
     3.496E-01    3.490E-01    3.485E-01    3.480E-01    3.474E-01    3.469E-01    3.463E-01    3.458E-01    3.453E-01    3.447E-01
     3.442E-01    3.436E-01    3.431E-01    3.426E-01    3.420E-01    3.415E-01    3.409E-01    3.404E-01    3.399E-01    3.393E-01
     3.388E-01    3.382E-01    3.377E-01    3.371E-01    3.366E-01    3.361E-01    3.355E-01    3.350E-01    3.344E-01    3.339E-01
     3.334E-01    3.328E-01    3.323E-01    3.317E-01    3.312E-01    3.307E-01    3.301E-01    3.296E-01    3.290E-01    3.285E-01
     3.280E-01    3.274E-01    3.269E-01    3.263E-01    3.258E-01    3.253E-01    3.247E-01    3.242E-01    3.236E-01    3.231E-01
     3.226E-01    3.220E-01    3.215E-01    3.209E-01    3.204E-01    3.199E-01    3.193E-01    3.188E-01    3.182E-01    3.177E-01
     3.172E-01    3.166E-01    3.161E-01    3.155E-01    3.150E-01    3.145E-01    3.139E-01    3.134E-01    3.128E-01    3.123E-01
     3.118E-01    3.112E-01    3.107E-01    3.101E-01    3.096E-01    3.091E-01    3.085E-01    3.080E-01    3.074E-01    3.069E-01
     3.064E-01    3.058E-01    3.053E-01    3.047E-01    3.042E-01    3.037E-01    3.031E-01    3.026E-01    3.021E-01    3.015E-01
     3.010E-01    3.004E-01    2.999E-01    2.994E-01    2.988E-01    2.983E-01    2.977E-01    2.972E-01    2.967E-01    2.961E-01
     2.956E-01    2.950E-01    2.945E-01    2.940E-01    2.934E-01    2.929E-01    2.923E-01    2.918E-01    2.913E-01    2.907E-01
     2.902E-01    2.896E-01    2.891E-01    2.886E-01    2.880E-01    2.875E-01    2.870E-01    2.864E-01    2.859E-01    2.853E-01
     2.848E-01    2.843E-01    2.837E-01    2.832E-01    2.826E-01    2.821E-01    2.816E-01    2.810E-01    2.805E-01    2.800E-01
     2.794E-01    2.789E-01    2.783E-01    2.778E-01    2.773E-01    2.767E-01    2.762E-01    2.756E-01    2.751E-01    2.746E-01
     2.740E-01    2.735E-01    2.729E-01    2.724E-01    2.719E-01    2.713E-01    2.708E-01    2.703E-01    2.697E-01    2.692E-01
     2.686E-01    2.681E-01    2.676E-01    2.670E-01    2.665E-01    2.660E-01    2.654E-01    2.649E-01
 Asp      Conc. = 8.61E+00
