 LCModel (Version 6.3-1L) Copyright: S.W. Provencher.          Ref.: Magn. Reson. Med. 30:672-679 (1993).                
 Slice#1 Row#12 Col#8  PD_05_press_1_raw_act
 36 lines in following concentration table = NCONC+1
    Conc.  %SD /Cr+PCr  Metabolite                                         
  111.415  81%   0.201 Ala                                                 
    2.654 999% 4.8E-03 Asp                                                 
  530.493  22%   0.959 Cr                                                  
   22.704 541% 4.1E-02 PCr                                                 
   39.819 196% 7.2E-02 GABA                                                
   50.337 153% 9.1E-02 Glc                                                 
  211.846  85%   0.383 Gln                                                 
  870.734  24%   1.574 Glu                                                 
  152.710  10%   0.276 GPC                                                 
    0.000 999%   0.000 PCh                                                 
  277.039  20%   0.501 GSH                                                 
 1.14E+03  15%   2.068 Ins                                                 
  145.255  68%   0.263 Lac                                                 
 1.28E+03   9%   2.315 NAA                                                 
   97.903 125%   0.177 NAAG                                                
   30.579  56% 5.5E-02 Scyllo                                              
   31.527 352% 5.7E-02 Tau                                                 
    0.000 999%   0.000 -CrCH2                                              
  152.710  10%   0.276 GPC+PCh                                             
 1.38E+03   4%   2.492 NAA+NAAG                                            
  553.196   7%   1.000 Cr+PCr                                              
 1.08E+03  27%   1.957 Glu+Gln                                             
 1.03E+03  34%   1.868 Lip13a                                              
    0.000 999%   0.000 Lip13b                                              
  105.099 141%   0.190 Lip09                                               
  706.928  24%   1.278 MM09                                                
  138.467  71%   0.250 Lip20                                               
 1.23E+03  20%   2.228 MM20                                                
  244.667  40%   0.442 MM12                                                
 1.43E+03  18%   2.591 MM14                                                
  704.178  22%   1.273 MM17                                                
 1.03E+03  34%   1.868 Lip13a+Lip13b                                       
 2.71E+03   9%   4.901 MM14+Lip13a+Lip13b+MM12                             
  812.027  14%   1.468 MM09+Lip09                                          
 1.37E+03  17%   2.478 MM20+Lip20                                          
   6 lines in following misc. output table
  FWHM = 0.046 ppm    S/N =   9                                            
  Data shift = 0.023 ppm                                                   
  Ph:  -8 deg      11.7 deg/ppm                                            
  alphaB,S = 8.5E+01,   6.1E+01                                            
   14 spline knots.   Ns = 7(1)                                            
   4 inflections.     1 extrema                                            
  498 points on ppm-axis = NY
      4.000000     3.992357     3.984714     3.977070     3.969427     3.961784     3.954141     3.946497     3.938854     3.931211
      3.923568     3.915925     3.908281     3.900638     3.892995     3.885352     3.877708     3.870065     3.862422     3.854779
      3.847136     3.839492     3.831849     3.824206     3.816563     3.808919     3.801276     3.793633     3.785990     3.778347
      3.770703     3.763060     3.755417     3.747774     3.740130     3.732487     3.724844     3.717201     3.709558     3.701914
      3.694271     3.686628     3.678985     3.671341     3.663698     3.656055     3.648412     3.640769     3.633125     3.625482
      3.617839     3.610196     3.602552     3.594909     3.587266     3.579623     3.571980     3.564336     3.556693     3.549050
      3.541407     3.533763     3.526120     3.518477     3.510834     3.503191     3.495547     3.487904     3.480261     3.472618
      3.464974     3.457331     3.449688     3.442045     3.434402     3.426758     3.419115     3.411472     3.403829     3.396185
      3.388542     3.380899     3.373256     3.365613     3.357969     3.350326     3.342683     3.335040     3.327396     3.319753
      3.312110     3.304467     3.296824     3.289180     3.281537     3.273894     3.266251     3.258607     3.250964     3.243321
      3.235678     3.228034     3.220391     3.212748     3.205105     3.197462     3.189818     3.182175     3.174532     3.166889
      3.159245     3.151602     3.143959     3.136316     3.128673     3.121029     3.113386     3.105743     3.098100     3.090456
      3.082813     3.075170     3.067527     3.059884     3.052240     3.044597     3.036954     3.029311     3.021667     3.014024
      3.006381     2.998738     2.991095     2.983451     2.975808     2.968165     2.960522     2.952878     2.945235     2.937592
      2.929949     2.922306     2.914662     2.907019     2.899376     2.891733     2.884089     2.876446     2.868803     2.861160
      2.853517     2.845873     2.838230     2.830587     2.822944     2.815300     2.807657     2.800014     2.792371     2.784728
      2.777084     2.769441     2.761798     2.754155     2.746511     2.738868     2.731225     2.723582     2.715939     2.708295
      2.700652     2.693009     2.685366     2.677722     2.670079     2.662436     2.654793     2.647150     2.639506     2.631863
      2.624220     2.616577     2.608933     2.601290     2.593647     2.586004     2.578361     2.570717     2.563074     2.555431
      2.547788     2.540144     2.532501     2.524858     2.517215     2.509572     2.501928     2.494285     2.486642     2.478999
      2.471355     2.463712     2.456069     2.448426     2.440783     2.433139     2.425496     2.417853     2.410210     2.402566
      2.394923     2.387280     2.379637     2.371994     2.364350     2.356707     2.349064     2.341421     2.333777     2.326134
      2.318491     2.310848     2.303205     2.295561     2.287918     2.280275     2.272632     2.264988     2.257345     2.249702
      2.242059     2.234416     2.226772     2.219129     2.211486     2.203843     2.196199     2.188556     2.180913     2.173270
      2.165627     2.157983     2.150340     2.142697     2.135054     2.127410     2.119767     2.112124     2.104481     2.096838
      2.089194     2.081551     2.073908     2.066265     2.058621     2.050978     2.043335     2.035692     2.028049     2.020405
      2.012762     2.005119     1.997476     1.989833     1.982190     1.974546     1.966903     1.959260     1.951617     1.943974
      1.936331     1.928688     1.921045     1.913402     1.905759     1.898115     1.890472     1.882829     1.875186     1.867543
      1.859900     1.852257     1.844614     1.836971     1.829327     1.821684     1.814041     1.806398     1.798755     1.791112
      1.783469     1.775826     1.768183     1.760540     1.752896     1.745253     1.737610     1.729967     1.722324     1.714681
      1.707038     1.699395     1.691752     1.684108     1.676465     1.668822     1.661179     1.653536     1.645893     1.638250
      1.630607     1.622964     1.615321     1.607677     1.600034     1.592391     1.584748     1.577105     1.569462     1.561819
      1.554176     1.546533     1.538890     1.531246     1.523603     1.515960     1.508317     1.500674     1.493031     1.485388
      1.477745     1.470102     1.462458     1.454815     1.447172     1.439529     1.431886     1.424243     1.416600     1.408957
      1.401314     1.393671     1.386027     1.378384     1.370741     1.363098     1.355455     1.347812     1.340169     1.332526
      1.324883     1.317240     1.309596     1.301953     1.294310     1.286667     1.279024     1.271381     1.263738     1.256095
      1.248452     1.240808     1.233165     1.225522     1.217879     1.210236     1.202593     1.194950     1.187307     1.179664
      1.172021     1.164377     1.156734     1.149091     1.141448     1.133805     1.126162     1.118519     1.110876     1.103233
      1.095590     1.087946     1.080303     1.072660     1.065017     1.057374     1.049731     1.042088     1.034445     1.026802
      1.019158     1.011515     1.003872     0.996229     0.988586     0.980943     0.973300     0.965657     0.958014     0.950371
      0.942727     0.935084     0.927441     0.919798     0.912155     0.904512     0.896869     0.889226     0.881583     0.873940
      0.866296     0.858653     0.851010     0.843367     0.835724     0.828081     0.820438     0.812795     0.805152     0.797508
      0.789865     0.782222     0.774579     0.766936     0.759293     0.751650     0.744007     0.736364     0.728721     0.721077
      0.713434     0.705791     0.698148     0.690505     0.682862     0.675219     0.667576     0.659933     0.652290     0.644646
      0.637003     0.629360     0.621717     0.614074     0.606431     0.598788     0.591145     0.583502     0.575858     0.568215
      0.560572     0.552929     0.545286     0.537643     0.530000     0.522357     0.514714     0.507071     0.499427     0.491784
      0.484141     0.476498     0.468855     0.461212     0.453569     0.445925     0.438282     0.430639     0.422996     0.415353
      0.407710     0.400067     0.392424     0.384780     0.377137     0.369494     0.361851     0.354208     0.346565     0.338922
      0.331278     0.323635     0.315992     0.308349     0.300706     0.293063     0.285420     0.277777     0.270133     0.262490
      0.254847     0.247204     0.239561     0.231918     0.224275     0.216631     0.208988     0.201345
 NY phased data points follow
   7.65384E+00  4.92031E+00  9.62031E+00  6.95580E+00  2.83884E+00  8.12721E+00  1.24297E+01  8.11618E+00  1.24868E+01  1.10161E+01
   1.44549E+01  1.50860E+01  1.38210E+01  1.33809E+01  1.77649E+01  1.25242E+01  1.24647E+01  1.18921E+01  1.08987E+01  1.01976E+01
   1.08744E+01  9.10760E+00  5.50372E+00  9.14688E+00  7.22886E+00  7.69431E+00  1.14013E+01  6.90378E+00  7.66492E+00  1.08229E+01
   8.95534E+00  1.16765E+01  8.52128E+00  6.87568E+00  7.90565E+00  8.80162E+00  8.70028E+00  9.16338E+00  6.20056E+00  7.86458E+00
   6.64937E+00  7.73358E+00  9.13007E+00  6.07964E+00  9.76027E+00  8.42050E+00  1.03619E+01  1.09274E+01  8.63087E+00  1.10270E+01
   8.14883E+00  7.88327E+00  4.61121E+00  7.94718E+00  7.53759E+00  5.70835E+00  7.25526E+00  2.91515E+00  7.10686E+00  5.23067E+00
   6.82986E+00  6.01503E+00  3.72528E+00  2.64022E+00  5.28982E+00  5.57556E+00  3.18836E+00  3.11360E+00  1.48437E+00  5.20369E+00
   4.32949E+00  6.23154E+00  5.77104E+00  5.54119E+00  2.34694E+00  5.41909E-01  4.04629E+00  5.48054E+00  1.96937E+00  4.72728E+00
   5.19231E+00  3.24466E+00  6.89876E+00  6.07066E+00 -7.25754E-02  1.41433E+00  3.58604E+00  2.97198E+00  4.81360E+00  1.03377E-01
   1.18920E+00  2.65676E+00  5.08172E+00 -8.66674E-02  4.29609E+00  9.21732E+00  2.87760E+00  8.76187E+00  4.62411E+00  5.28915E+00
   8.80965E+00  1.01907E+01  1.06844E+01  1.48515E+01  1.28677E+01  1.45762E+01  1.21176E+01  1.00562E+01  4.55382E+00  9.68531E+00
   4.14236E+00  3.87775E+00  3.69438E+00  5.31580E+00  7.92846E-01  4.48918E-01  3.33358E-01  1.19490E+00  1.44863E+00  4.70205E+00
   4.13913E+00  5.35408E+00  1.70983E-01  3.75742E+00  1.01137E+01  1.43055E+01  1.99975E+01  1.92429E+01  1.97976E+01  2.17542E+01
   1.59083E+01  1.02825E+01  1.04513E+01  6.16480E+00  8.31181E+00  7.44116E+00  4.84781E+00  5.47782E+00  3.47070E+00  7.59394E+00
   3.55340E+00  5.89589E+00  5.39683E+00  4.29163E+00 -2.96959E+00 -1.40483E-01  6.30674E+00  3.96545E+00  6.35398E-01  1.54798E+00
   4.14913E+00  2.93266E+00 -4.47098E+00  5.61234E-01  4.59600E+00  2.27031E-03 -1.64654E+00  2.91958E+00  4.24051E+00  4.38840E+00
   1.84007E+00  2.29741E+00  9.40987E-02  2.76625E-01  8.98438E-01 -4.43555E-01  6.84498E-01 -7.36736E+00 -6.04505E-01 -9.02236E-01
   2.04313E-01 -1.90750E+00 -4.19490E+00 -1.20991E+00 -3.74074E+00 -7.17074E+00 -2.77020E+00 -4.40282E+00 -5.23241E+00 -3.16210E+00
  -5.26899E+00 -1.23119E+00 -4.03019E+00 -2.22112E+00 -9.30697E-01 -5.64770E-01 -3.38353E-01 -5.82960E-01 -1.63752E+00 -5.32199E+00
  -2.10193E+00  9.88928E-02  3.56665E-01 -7.46275E-01 -2.43461E+00 -1.79521E+00  1.27644E+00 -4.97288E+00 -4.52701E+00 -2.38338E+00
  -2.63236E+00  1.44902E+00  6.66591E-01 -4.23113E-01 -9.54093E-01 -2.09579E-01  2.12704E+00  2.30887E+00 -2.23641E+00 -1.29101E+00
   1.32385E+00  2.79160E+00  3.54887E+00  2.89698E+00  2.87485E+00  7.26404E+00  8.29226E+00  3.11541E+00  2.95402E+00  1.04996E+00
   5.56756E-01  6.24633E-01 -6.67499E-01  4.98574E-01  2.04146E+00 -1.14539E-01 -6.80886E-01  2.92853E+00  4.12427E+00  2.17130E+00
   7.21985E+00  5.73544E+00  6.07774E+00  1.06260E+00  6.85407E+00  3.33655E+00  4.45862E+00  4.08504E+00  1.73088E+00  3.00848E+00
   1.05572E-01  1.29972E+00  3.21901E+00  1.00891E+00  3.71561E+00  7.25055E+00  7.43730E+00  5.36695E+00  9.15311E+00  8.29490E+00
   9.52299E+00  1.05519E+01  1.35250E+01  1.30761E+01  9.94698E+00  1.91498E+01  2.02901E+01  2.97402E+01  4.14567E+01  4.98680E+01
   5.35905E+01  4.21717E+01  3.90587E+01  3.24554E+01  1.98997E+01  1.78059E+01  1.51595E+01  1.01940E+01  8.02554E+00  6.03829E+00
   1.53595E+00 -4.97814E-02  1.93417E+00  1.08443E+00  1.31762E+00  3.51305E+00  4.98811E+00  3.24443E+00  4.08660E+00  6.90455E-01
   1.03700E+00  2.82919E+00  1.87810E+00 -4.00297E-01  4.59758E+00  3.81700E+00 -2.38378E-01 -2.13691E+00  9.75286E-01  2.02884E+00
  -1.13447E+00  2.59154E+00  4.24454E+00  2.91549E+00  2.51345E+00  6.35366E+00  3.90075E+00  6.65108E-01  1.82418E+00  1.81408E+00
   9.02061E+00  2.87024E+00  4.77726E+00  3.68527E+00  5.23657E+00  8.94413E-01  7.26516E+00  4.43594E+00  2.79062E+00  6.24330E+00
   8.21079E+00  3.27066E+00  1.15935E+01  9.03389E+00  5.04451E+00  8.31961E+00  5.93756E+00  1.17305E+01  2.55586E+00  4.93193E+00
   1.89629E+00  6.47575E+00  6.02790E+00  6.26565E+00  5.47261E+00  6.60480E+00  7.60143E+00  9.40259E+00  9.45679E+00  5.83054E+00
   1.00629E+01  7.54771E+00  4.84566E+00  9.71999E+00  8.21537E+00  1.20824E+01  8.75835E+00  1.03576E+01  1.04457E+01  1.14378E+01
   1.18635E+01  7.13711E+00  1.11375E+01  9.07811E+00  1.29669E+01  9.38157E+00  1.27201E+01  1.01566E+01  1.30645E+01  7.65415E+00
   7.75770E+00  6.00523E+00  4.08500E+00  6.50515E+00  6.67002E+00  7.63370E+00  6.16496E+00  3.83382E+00  6.25007E+00  3.13890E+00
   5.75260E+00  7.50137E+00  2.41180E+00  4.76163E+00  4.48197E+00  7.65967E+00  8.79268E+00  6.91776E+00  8.27797E+00  8.01122E+00
   5.94220E+00  4.88253E+00  4.68606E+00  3.12094E+00  7.95425E+00  7.17659E-01  2.74206E+00  6.64699E+00  1.84143E+00 -6.34569E-01
   1.47455E+00 -1.15576E+00 -8.69974E-01  2.34710E+00 -1.11186E+00 -2.06246E+00 -2.16906E+00  1.61176E+00  4.71040E-01  1.71725E+00
   3.45886E+00  3.98567E+00  3.91662E+00  1.45844E+00  5.45170E+00 -3.66542E-01  1.47623E+00  3.54119E+00  2.16993E+00  3.17007E+00
   3.64127E+00  2.42780E+00  5.40375E+00  3.75592E+00  3.35393E+00  3.32732E+00  2.53391E+00  6.92824E+00  1.02921E+01  6.59647E+00
   1.02890E+00  6.97940E+00  5.34316E+00  5.19682E+00  3.58614E+00  3.79394E+00  2.31214E+00  4.07829E+00  4.18681E+00 -3.86062E+00
  -3.27494E-01  5.92539E-01 -3.58767E+00 -2.42782E-01  5.89004E-01  2.05561E-01  4.04700E-01  5.39555E-03 -3.43598E+00 -1.46307E+00
  -1.89670E-01 -3.06808E+00  6.22016E-01 -4.11644E-02  1.34250E+00  1.31350E+00 -1.03053E+00  4.31984E-01 -4.41139E-01  3.21400E+00
  -1.93259E+00 -4.32662E+00  1.25999E+00  1.79787E-01  1.30663E+00  2.13379E-01 -1.99209E+00  3.40805E+00 -2.82357E+00  1.67129E+00
   4.51947E-01  1.97464E+00 -3.01829E+00 -1.83704E+00  1.39889E+00 -6.19898E-02 -1.71422E+00 -2.90448E+00 -1.86646E+00 -2.40191E+00
   1.61658E+00  4.19053E-01 -5.71162E+00 -2.69847E+00 -4.11047E+00 -1.24129E+00 -1.11172E+00 -1.24232E-01 -5.41646E-01 -7.97359E-01
   9.95890E-01  3.44114E-01 -1.73517E+00 -1.60296E+00 -2.45467E+00  3.47277E-01  8.40669E-01 -1.46381E+00 -1.25636E+00 -9.05200E-01
  -3.60967E+00 -8.35878E-02  1.96776E+00 -1.04363E+00 -2.62852E+00 -2.91939E+00  1.06845E+00 -3.03703E+00 -6.15967E-01 -3.36779E+00
  -6.37449E-01 -8.91399E-01 -2.93947E+00  4.07808E-01 -3.76579E+00 -2.06473E+00 -8.19700E-01 -1.67784E+00
 NY points of the fit to the data follow
   6.22617E+00  5.69414E+00  5.52670E+00  5.50836E+00  5.66498E+00  6.41082E+00  7.43851E+00  8.56142E+00  1.01401E+01  1.22736E+01
   1.45616E+01  1.61834E+01  1.64390E+01  1.53688E+01  1.35707E+01  1.15592E+01  9.79383E+00  8.68650E+00  8.05944E+00  7.24963E+00
   6.13438E+00  5.44847E+00  5.48400E+00  5.79544E+00  6.02294E+00  6.40438E+00  7.17632E+00  8.35005E+00  9.60939E+00  1.05312E+01
   1.09671E+01  1.09810E+01  1.05100E+01  9.60795E+00  8.63149E+00  7.78266E+00  6.90497E+00  5.81893E+00  4.93893E+00  4.67049E+00
   4.78397E+00  5.16464E+00  5.76273E+00  6.70954E+00  8.11984E+00  9.80520E+00  1.12765E+01  1.18677E+01  1.12544E+01  9.78347E+00
   7.96451E+00  6.26521E+00  5.18707E+00  4.80755E+00  4.64166E+00  4.38258E+00  4.29365E+00  4.73063E+00  5.48693E+00  6.10219E+00
   6.33419E+00  6.13939E+00  5.60887E+00  4.92562E+00  4.37187E+00  4.18425E+00  4.27261E+00  4.44166E+00  4.65231E+00  4.93122E+00
   5.22987E+00  5.50135E+00  5.64553E+00  5.64399E+00  5.52320E+00  5.29483E+00  5.02564E+00  4.79277E+00  4.61921E+00  4.47980E+00
   4.29014E+00  4.12668E+00  4.02898E+00  3.95528E+00  3.78708E+00  3.40186E+00  2.78591E+00  2.11877E+00  1.63318E+00  1.46394E+00
   1.61177E+00  1.98382E+00  2.41623E+00  2.71501E+00  2.85360E+00  3.02003E+00  3.48668E+00  4.25192E+00  4.95215E+00  6.17902E+00
   8.36175E+00  1.12924E+01  1.40266E+01  1.54089E+01  1.49474E+01  1.31843E+01  1.08872E+01  8.62048E+00  7.01626E+00  6.13951E+00
   5.27761E+00  3.93898E+00  2.73992E+00  2.39851E+00  2.36287E+00  2.38311E+00  2.40649E+00  2.44164E+00  2.50717E+00  2.66600E+00
   3.13090E+00  4.28249E+00  5.67983E+00  7.37976E+00  9.99647E+00  1.36106E+01  1.74894E+01  2.02464E+01  2.08184E+01  1.93707E+01
   1.67794E+01  1.37518E+01  1.09876E+01  8.93912E+00  7.24402E+00  5.20777E+00  3.07822E+00  2.11826E+00  2.23210E+00  2.61306E+00
   2.89749E+00  2.99188E+00  2.98287E+00  2.92237E+00  2.81322E+00  2.70290E+00  2.59002E+00  2.42826E+00  2.23213E+00  2.00802E+00
   1.81795E+00  1.67525E+00  1.56782E+00  1.48129E+00  1.39522E+00  1.35027E+00  1.29416E+00  1.17636E+00  9.79021E-01  6.88141E-01
   4.78911E-01  4.88327E-01  6.66645E-01  8.39456E-01  8.60663E-01  6.67331E-01  3.09855E-01 -6.28478E-02 -3.29287E-01 -4.92862E-01
  -6.24069E-01 -8.03360E-01 -1.12634E+00 -1.50174E+00 -1.76218E+00 -1.81777E+00 -1.68247E+00 -1.49857E+00 -1.42312E+00 -1.47744E+00
  -1.60615E+00 -1.66016E+00 -1.60048E+00 -1.43543E+00 -1.19563E+00 -9.22711E-01 -4.93115E-01  2.38883E-01  1.18132E+00  2.06023E+00
   2.57108E+00  2.64188E+00  2.42965E+00  2.10637E+00  1.79646E+00  1.52333E+00  1.30325E+00  1.27953E+00  1.47330E+00  1.85470E+00
   2.37931E+00  2.99347E+00  3.50995E+00  3.67593E+00  3.52917E+00  3.07715E+00  2.27394E+00  1.28223E+00  3.97259E-01 -9.47964E-02
  -1.93840E-01  1.10994E-01  9.65890E-01  2.30445E+00  3.65882E+00  4.42114E+00  4.31729E+00  3.51667E+00  2.24572E+00  5.95734E-01
  -8.88736E-01 -1.69207E+00 -1.73034E+00 -1.14397E+00 -2.29707E-01  9.52154E-01  2.10576E+00  2.81287E+00  3.05048E+00  3.13944E+00
   3.40440E+00  3.72619E+00  3.95019E+00  4.19516E+00  4.55982E+00  4.86926E+00  4.90767E+00  4.70062E+00  4.37998E+00  4.02222E+00
   3.61171E+00  3.32560E+00  3.40097E+00  3.84594E+00  4.44530E+00  4.98337E+00  5.46640E+00  5.81479E+00  5.96884E+00  6.12234E+00
   6.42947E+00  7.02426E+00  8.24956E+00  1.12866E+01  1.48452E+01  1.85006E+01  2.38006E+01  3.14782E+01  4.02613E+01  4.69485E+01
   4.86643E+01  4.53020E+01  3.88642E+01  3.11006E+01  2.40440E+01  1.95965E+01  1.67705E+01  1.29666E+01  7.89974E+00  4.80497E+00
   3.85826E+00  3.41809E+00  3.17012E+00  3.05561E+00  2.97940E+00  2.85775E+00  2.70520E+00  2.52664E+00  2.33627E+00  2.15895E+00
   2.00780E+00  1.86992E+00  1.74611E+00  1.65298E+00  1.59364E+00  1.55964E+00  1.54044E+00  1.53707E+00  1.56019E+00  1.61250E+00
   1.68695E+00  1.78606E+00  1.91061E+00  2.05855E+00  2.22837E+00  2.42151E+00  2.63715E+00  2.87360E+00  3.12954E+00  3.40169E+00
   3.68317E+00  3.96883E+00  4.25230E+00  4.52428E+00  4.77650E+00  5.00344E+00  5.20125E+00  5.36616E+00  5.49462E+00  5.58680E+00
   5.64481E+00  5.67202E+00  5.67415E+00  5.65854E+00  5.63360E+00  5.60903E+00  5.59528E+00  5.60353E+00  5.64635E+00  5.74167E+00
   5.91663E+00  6.13584E+00  6.37346E+00  6.68706E+00  7.04917E+00  7.35763E+00  7.49069E+00  7.39552E+00  7.18641E+00  7.03622E+00
   6.96593E+00  7.04121E+00  7.35030E+00  7.87807E+00  8.50383E+00  9.11280E+00  9.66655E+00  1.01028E+01  1.03338E+01  1.04042E+01
   1.04505E+01  1.05388E+01  1.05706E+01  1.05311E+01  1.04371E+01  1.03002E+01  9.95028E+00  9.27552E+00  8.40751E+00  7.55863E+00
   6.80407E+00  6.26898E+00  6.09612E+00  6.27744E+00  6.61704E+00  6.91836E+00  7.14549E+00  7.29820E+00  7.24580E+00  7.01745E+00
   6.75154E+00  6.53915E+00  6.31371E+00  5.95603E+00  5.52967E+00  5.17108E+00  4.85432E+00  4.55691E+00  4.27155E+00  3.99600E+00
   3.73008E+00  3.47465E+00  3.23093E+00  3.00018E+00  2.78365E+00  2.58261E+00  2.39839E+00  2.23227E+00  2.08531E+00  1.95841E+00
   1.85241E+00  1.76821E+00  1.70678E+00  1.66904E+00  1.65578E+00  1.66769E+00  1.70541E+00  1.76957E+00  1.86058E+00  1.97851E+00
   2.12291E+00  2.29277E+00  2.48655E+00  2.70205E+00  2.93624E+00  3.18520E+00  3.44409E+00  3.70730E+00  3.96869E+00  4.22165E+00
   4.45926E+00  4.67451E+00  4.86067E+00  5.01165E+00  5.12232E+00  5.18868E+00  5.20801E+00  5.17898E+00  5.10180E+00  4.97824E+00
   4.81151E+00  4.60598E+00  4.36689E+00  4.10015E+00  3.81207E+00  3.50917E+00  3.19777E+00  2.88374E+00  2.57229E+00  2.26789E+00
   1.97430E+00  1.69447E+00  1.43057E+00  1.18390E+00  9.55082E-01  7.44188E-01  5.50898E-01  3.74564E-01  2.14234E-01  6.87261E-02
  -6.32377E-02 -1.82910E-01 -2.91468E-01 -3.90044E-01 -4.79755E-01 -5.61675E-01 -6.36754E-01 -7.05783E-01 -7.69428E-01 -8.28305E-01
  -8.83007E-01 -9.34078E-01 -9.81946E-01 -1.02693E+00 -1.06930E+00 -1.10934E+00 -1.14734E+00 -1.18355E+00 -1.21813E+00 -1.25119E+00
  -1.28284E+00 -1.31324E+00 -1.34255E+00 -1.37087E+00 -1.39826E+00 -1.42473E+00 -1.45037E+00 -1.47527E+00 -1.49954E+00 -1.52322E+00
  -1.54630E+00 -1.56878E+00 -1.59074E+00 -1.61226E+00 -1.63338E+00 -1.65411E+00 -1.67442E+00 -1.69433E+00 -1.71390E+00 -1.73319E+00
  -1.75223E+00 -1.77098E+00 -1.78942E+00 -1.80758E+00 -1.82553E+00 -1.84330E+00 -1.86088E+00 -1.87824E+00 -1.89538E+00 -1.91233E+00
  -1.92916E+00 -1.94587E+00 -1.96244E+00 -1.97882E+00 -1.99506E+00 -2.01118E+00 -2.02724E+00 -2.04322E+00 -2.05909E+00 -2.07482E+00
  -2.09046E+00 -2.10606E+00 -2.12163E+00 -2.13715E+00 -2.15259E+00 -2.16795E+00 -2.18329E+00 -2.19865E+00
 NY background values follow
     2.537E+00    2.527E+00    2.516E+00    2.506E+00    2.496E+00    2.485E+00    2.475E+00    2.464E+00    2.454E+00    2.443E+00
     2.433E+00    2.423E+00    2.412E+00    2.402E+00    2.391E+00    2.381E+00    2.370E+00    2.360E+00    2.350E+00    2.339E+00
     2.329E+00    2.318E+00    2.308E+00    2.297E+00    2.287E+00    2.276E+00    2.266E+00    2.256E+00    2.245E+00    2.235E+00
     2.224E+00    2.214E+00    2.203E+00    2.193E+00    2.182E+00    2.172E+00    2.161E+00    2.151E+00    2.140E+00    2.130E+00
     2.120E+00    2.109E+00    2.099E+00    2.088E+00    2.078E+00    2.067E+00    2.057E+00    2.046E+00    2.036E+00    2.025E+00
     2.015E+00    2.004E+00    1.994E+00    1.983E+00    1.973E+00    1.962E+00    1.952E+00    1.941E+00    1.931E+00    1.920E+00
     1.910E+00    1.899E+00    1.889E+00    1.878E+00    1.868E+00    1.857E+00    1.847E+00    1.836E+00    1.826E+00    1.815E+00
     1.805E+00    1.794E+00    1.784E+00    1.773E+00    1.763E+00    1.752E+00    1.742E+00    1.731E+00    1.721E+00    1.710E+00
     1.700E+00    1.689E+00    1.679E+00    1.668E+00    1.658E+00    1.647E+00    1.637E+00    1.626E+00    1.616E+00    1.605E+00
     1.595E+00    1.584E+00    1.574E+00    1.563E+00    1.552E+00    1.542E+00    1.531E+00    1.521E+00    1.510E+00    1.500E+00
     1.489E+00    1.479E+00    1.468E+00    1.458E+00    1.447E+00    1.437E+00    1.426E+00    1.415E+00    1.405E+00    1.394E+00
     1.384E+00    1.373E+00    1.363E+00    1.352E+00    1.342E+00    1.331E+00    1.321E+00    1.310E+00    1.299E+00    1.289E+00
     1.278E+00    1.268E+00    1.257E+00    1.247E+00    1.236E+00    1.226E+00    1.215E+00    1.204E+00    1.194E+00    1.183E+00
     1.173E+00    1.162E+00    1.152E+00    1.141E+00    1.131E+00    1.120E+00    1.109E+00    1.099E+00    1.088E+00    1.078E+00
     1.067E+00    1.057E+00    1.046E+00    1.035E+00    1.025E+00    1.014E+00    1.004E+00    9.932E-01    9.826E-01    9.720E-01
     9.615E-01    9.509E-01    9.403E-01    9.297E-01    9.192E-01    9.086E-01    8.980E-01    8.874E-01    8.768E-01    8.663E-01
     8.557E-01    8.451E-01    8.345E-01    8.240E-01    8.134E-01    8.028E-01    7.922E-01    7.816E-01    7.711E-01    7.605E-01
     7.499E-01    7.393E-01    7.287E-01    7.181E-01    7.076E-01    6.970E-01    6.864E-01    6.758E-01    6.652E-01    6.546E-01
     6.440E-01    6.335E-01    6.229E-01    6.123E-01    6.017E-01    5.911E-01    5.805E-01    5.699E-01    5.593E-01    5.488E-01
     5.382E-01    5.276E-01    5.170E-01    5.064E-01    4.958E-01    4.852E-01    4.746E-01    4.640E-01    4.534E-01    4.428E-01
     4.323E-01    4.217E-01    4.111E-01    4.005E-01    3.899E-01    3.793E-01    3.687E-01    3.581E-01    3.475E-01    3.369E-01
     3.263E-01    3.157E-01    3.051E-01    2.946E-01    2.840E-01    2.734E-01    2.628E-01    2.522E-01    2.416E-01    2.310E-01
     2.204E-01    2.098E-01    1.992E-01    1.886E-01    1.780E-01    1.674E-01    1.568E-01    1.462E-01    1.356E-01    1.250E-01
     1.144E-01    1.039E-01    9.326E-02    8.267E-02    7.207E-02    6.148E-02    5.088E-02    4.029E-02    2.969E-02    1.910E-02
     8.505E-03   -2.090E-03   -1.268E-02   -2.328E-02   -3.387E-02   -4.447E-02   -5.506E-02   -6.565E-02   -7.625E-02   -8.684E-02
    -9.743E-02   -1.080E-01   -1.186E-01   -1.292E-01   -1.398E-01   -1.504E-01   -1.610E-01   -1.716E-01   -1.822E-01   -1.928E-01
    -2.034E-01   -2.139E-01   -2.245E-01   -2.351E-01   -2.457E-01   -2.563E-01   -2.669E-01   -2.775E-01   -2.881E-01   -2.987E-01
    -3.093E-01   -3.199E-01   -3.304E-01   -3.410E-01   -3.516E-01   -3.622E-01   -3.728E-01   -3.834E-01   -3.940E-01   -4.046E-01
    -4.151E-01   -4.257E-01   -4.363E-01   -4.469E-01   -4.575E-01   -4.681E-01   -4.787E-01   -4.892E-01   -4.998E-01   -5.104E-01
    -5.210E-01   -5.316E-01   -5.421E-01   -5.527E-01   -5.633E-01   -5.739E-01   -5.845E-01   -5.951E-01   -6.056E-01   -6.162E-01
    -6.268E-01   -6.374E-01   -6.479E-01   -6.585E-01   -6.691E-01   -6.797E-01   -6.902E-01   -7.008E-01   -7.114E-01   -7.220E-01
    -7.325E-01   -7.431E-01   -7.537E-01   -7.643E-01   -7.748E-01   -7.854E-01   -7.960E-01   -8.065E-01   -8.171E-01   -8.277E-01
    -8.383E-01   -8.488E-01   -8.594E-01   -8.700E-01   -8.805E-01   -8.911E-01   -9.016E-01   -9.122E-01   -9.228E-01   -9.333E-01
    -9.439E-01   -9.545E-01   -9.650E-01   -9.756E-01   -9.861E-01   -9.967E-01   -1.007E+00   -1.018E+00   -1.028E+00   -1.039E+00
    -1.049E+00   -1.060E+00   -1.071E+00   -1.081E+00   -1.092E+00   -1.102E+00   -1.113E+00   -1.123E+00   -1.134E+00   -1.144E+00
    -1.155E+00   -1.166E+00   -1.176E+00   -1.187E+00   -1.197E+00   -1.208E+00   -1.218E+00   -1.229E+00   -1.239E+00   -1.250E+00
    -1.260E+00   -1.271E+00   -1.281E+00   -1.292E+00   -1.303E+00   -1.313E+00   -1.324E+00   -1.334E+00   -1.345E+00   -1.355E+00
    -1.366E+00   -1.376E+00   -1.387E+00   -1.397E+00   -1.408E+00   -1.418E+00   -1.429E+00   -1.439E+00   -1.450E+00   -1.460E+00
    -1.471E+00   -1.482E+00   -1.492E+00   -1.503E+00   -1.513E+00   -1.524E+00   -1.534E+00   -1.545E+00   -1.555E+00   -1.566E+00
    -1.576E+00   -1.587E+00   -1.597E+00   -1.608E+00   -1.618E+00   -1.629E+00   -1.639E+00   -1.650E+00   -1.660E+00   -1.671E+00
    -1.681E+00   -1.692E+00   -1.702E+00   -1.713E+00   -1.723E+00   -1.734E+00   -1.744E+00   -1.755E+00   -1.765E+00   -1.776E+00
    -1.786E+00   -1.797E+00   -1.807E+00   -1.818E+00   -1.828E+00   -1.839E+00   -1.849E+00   -1.859E+00   -1.870E+00   -1.880E+00
    -1.891E+00   -1.901E+00   -1.912E+00   -1.922E+00   -1.933E+00   -1.943E+00   -1.954E+00   -1.964E+00   -1.975E+00   -1.985E+00
    -1.996E+00   -2.006E+00   -2.017E+00   -2.027E+00   -2.037E+00   -2.048E+00   -2.058E+00   -2.069E+00   -2.079E+00   -2.090E+00
    -2.100E+00   -2.111E+00   -2.121E+00   -2.132E+00   -2.142E+00   -2.152E+00   -2.163E+00   -2.173E+00   -2.184E+00   -2.194E+00
    -2.205E+00   -2.215E+00   -2.225E+00   -2.236E+00   -2.246E+00   -2.257E+00   -2.267E+00   -2.278E+00   -2.288E+00   -2.298E+00
    -2.309E+00   -2.319E+00   -2.330E+00   -2.340E+00   -2.351E+00   -2.361E+00   -2.371E+00   -2.382E+00   -2.392E+00   -2.403E+00
    -2.413E+00   -2.423E+00   -2.434E+00   -2.444E+00   -2.455E+00   -2.465E+00   -2.475E+00   -2.486E+00   -2.496E+00   -2.507E+00
    -2.517E+00   -2.527E+00   -2.538E+00   -2.548E+00   -2.558E+00   -2.569E+00   -2.579E+00   -2.590E+00   -2.600E+00   -2.610E+00
    -2.621E+00   -2.631E+00   -2.641E+00   -2.652E+00   -2.662E+00   -2.673E+00   -2.683E+00   -2.693E+00
 Ala      Conc. = 1.11E+02
