 LCModel (Version 6.3-1L) Copyright: S.W. Provencher.          Ref.: Magn. Reson. Med. 30:672-679 (1993).                
 Slice#1 Row#7 Col#3  PD_05_press_1_raw_act
 36 lines in following concentration table = NCONC+1
    Conc.  %SD /Cr+PCr  Metabolite                                         
  127.073  63%   0.200 Ala                                                 
  133.046  82%   0.209 Asp                                                 
   79.045 189%   0.124 Cr                                                  
  557.296  28%   0.876 PCr                                                 
  100.097  71%   0.157 GABA                                                
   37.329 187% 5.9E-02 Glc                                                 
  172.444  98%   0.271 Gln                                                 
  844.415  23%   1.327 Glu                                                 
  177.630   8%   0.279 GPC                                                 
    0.000 999%   0.000 PCh                                                 
  202.389  25%   0.318 GSH                                                 
  407.348  42%   0.640 Ins                                                 
   38.745 224% 6.1E-02 Lac                                                 
 1.27E+03   7%   1.991 NAA                                                 
  105.538  85%   0.166 NAAG                                                
   40.167  39% 6.3E-02 Scyllo                                              
  110.048  93%   0.173 Tau                                                 
  192.397  36%   0.302 -CrCH2                                              
  177.630   8%   0.279 GPC+PCh                                             
 1.37E+03   4%   2.157 NAA+NAAG                                            
  636.340   6%   1.000 Cr+PCr                                              
 1.02E+03  28%   1.598 Glu+Gln                                             
    0.000 999%   0.000 Lip13a                                              
    0.000 999%   0.000 Lip13b                                              
    0.000 999%   0.000 Lip09                                               
  547.805  20%   0.861 MM09                                                
    0.415 999% 6.5E-04 Lip20                                               
  894.331  18%   1.405 MM20                                                
  161.343  22%   0.254 MM12                                                
  421.152  23%   0.662 MM14                                                
  235.817  24%   0.371 MM17                                                
    0.000 999%   0.000 Lip13a+Lip13b                                       
  582.495  22%   0.915 MM14+Lip13a+Lip13b+MM12                             
  547.805  20%   0.861 MM09+Lip09                                          
  894.746  18%   1.406 MM20+Lip20                                          
   6 lines in following misc. output table
  FWHM = 0.046 ppm    S/N =  10                                            
  Data shift = 0.023 ppm                                                   
  Ph: -58 deg     -16.7 deg/ppm                                            
  alphaB,S = 6.9E-01,   8.1E+01                                            
   14 spline knots.   Ns = 7(1)                                            
  (12) 5 infls.   ( 9) 1 extrs.                                            
  498 points on ppm-axis = NY
      4.000000     3.992357     3.984714     3.977070     3.969427     3.961784     3.954141     3.946497     3.938854     3.931211
      3.923568     3.915925     3.908281     3.900638     3.892995     3.885352     3.877708     3.870065     3.862422     3.854779
      3.847136     3.839492     3.831849     3.824206     3.816563     3.808919     3.801276     3.793633     3.785990     3.778347
      3.770703     3.763060     3.755417     3.747774     3.740130     3.732487     3.724844     3.717201     3.709558     3.701914
      3.694271     3.686628     3.678985     3.671341     3.663698     3.656055     3.648412     3.640769     3.633125     3.625482
      3.617839     3.610196     3.602552     3.594909     3.587266     3.579623     3.571980     3.564336     3.556693     3.549050
      3.541407     3.533763     3.526120     3.518477     3.510834     3.503191     3.495547     3.487904     3.480261     3.472618
      3.464974     3.457331     3.449688     3.442045     3.434402     3.426758     3.419115     3.411472     3.403829     3.396185
      3.388542     3.380899     3.373256     3.365613     3.357969     3.350326     3.342683     3.335040     3.327396     3.319753
      3.312110     3.304467     3.296824     3.289180     3.281537     3.273894     3.266251     3.258607     3.250964     3.243321
      3.235678     3.228034     3.220391     3.212748     3.205105     3.197462     3.189818     3.182175     3.174532     3.166889
      3.159245     3.151602     3.143959     3.136316     3.128673     3.121029     3.113386     3.105743     3.098100     3.090456
      3.082813     3.075170     3.067527     3.059884     3.052240     3.044597     3.036954     3.029311     3.021667     3.014024
      3.006381     2.998738     2.991095     2.983451     2.975808     2.968165     2.960522     2.952878     2.945235     2.937592
      2.929949     2.922306     2.914662     2.907019     2.899376     2.891733     2.884089     2.876446     2.868803     2.861160
      2.853517     2.845873     2.838230     2.830587     2.822944     2.815300     2.807657     2.800014     2.792371     2.784728
      2.777084     2.769441     2.761798     2.754155     2.746511     2.738868     2.731225     2.723582     2.715939     2.708295
      2.700652     2.693009     2.685366     2.677722     2.670079     2.662436     2.654793     2.647150     2.639506     2.631863
      2.624220     2.616577     2.608933     2.601290     2.593647     2.586004     2.578361     2.570717     2.563074     2.555431
      2.547788     2.540144     2.532501     2.524858     2.517215     2.509572     2.501928     2.494285     2.486642     2.478999
      2.471355     2.463712     2.456069     2.448426     2.440783     2.433139     2.425496     2.417853     2.410210     2.402566
      2.394923     2.387280     2.379637     2.371994     2.364350     2.356707     2.349064     2.341421     2.333777     2.326134
      2.318491     2.310848     2.303205     2.295561     2.287918     2.280275     2.272632     2.264988     2.257345     2.249702
      2.242059     2.234416     2.226772     2.219129     2.211486     2.203843     2.196199     2.188556     2.180913     2.173270
      2.165627     2.157983     2.150340     2.142697     2.135054     2.127410     2.119767     2.112124     2.104481     2.096838
      2.089194     2.081551     2.073908     2.066265     2.058621     2.050978     2.043335     2.035692     2.028049     2.020405
      2.012762     2.005119     1.997476     1.989833     1.982190     1.974546     1.966903     1.959260     1.951617     1.943974
      1.936331     1.928688     1.921045     1.913402     1.905759     1.898115     1.890472     1.882829     1.875186     1.867543
      1.859900     1.852257     1.844614     1.836971     1.829327     1.821684     1.814041     1.806398     1.798755     1.791112
      1.783469     1.775826     1.768183     1.760540     1.752896     1.745253     1.737610     1.729967     1.722324     1.714681
      1.707038     1.699395     1.691752     1.684108     1.676465     1.668822     1.661179     1.653536     1.645893     1.638250
      1.630607     1.622964     1.615321     1.607677     1.600034     1.592391     1.584748     1.577105     1.569462     1.561819
      1.554176     1.546533     1.538890     1.531246     1.523603     1.515960     1.508317     1.500674     1.493031     1.485388
      1.477745     1.470102     1.462458     1.454815     1.447172     1.439529     1.431886     1.424243     1.416600     1.408957
      1.401314     1.393671     1.386027     1.378384     1.370741     1.363098     1.355455     1.347812     1.340169     1.332526
      1.324883     1.317240     1.309596     1.301953     1.294310     1.286667     1.279024     1.271381     1.263738     1.256095
      1.248452     1.240808     1.233165     1.225522     1.217879     1.210236     1.202593     1.194950     1.187307     1.179664
      1.172021     1.164377     1.156734     1.149091     1.141448     1.133805     1.126162     1.118519     1.110876     1.103233
      1.095590     1.087946     1.080303     1.072660     1.065017     1.057374     1.049731     1.042088     1.034445     1.026802
      1.019158     1.011515     1.003872     0.996229     0.988586     0.980943     0.973300     0.965657     0.958014     0.950371
      0.942727     0.935084     0.927441     0.919798     0.912155     0.904512     0.896869     0.889226     0.881583     0.873940
      0.866296     0.858653     0.851010     0.843367     0.835724     0.828081     0.820438     0.812795     0.805152     0.797508
      0.789865     0.782222     0.774579     0.766936     0.759293     0.751650     0.744007     0.736364     0.728721     0.721077
      0.713434     0.705791     0.698148     0.690505     0.682862     0.675219     0.667576     0.659933     0.652290     0.644646
      0.637003     0.629360     0.621717     0.614074     0.606431     0.598788     0.591145     0.583502     0.575858     0.568215
      0.560572     0.552929     0.545286     0.537643     0.530000     0.522357     0.514714     0.507071     0.499427     0.491784
      0.484141     0.476498     0.468855     0.461212     0.453569     0.445925     0.438282     0.430639     0.422996     0.415353
      0.407710     0.400067     0.392424     0.384780     0.377137     0.369494     0.361851     0.354208     0.346565     0.338922
      0.331278     0.323635     0.315992     0.308349     0.300706     0.293063     0.285420     0.277777     0.270133     0.262490
      0.254847     0.247204     0.239561     0.231918     0.224275     0.216631     0.208988     0.201345
 NY phased data points follow
  -7.24629E+00 -5.08613E+00 -8.66287E+00 -2.86688E+00 -2.62225E+00 -3.24161E+00 -2.50829E+00 -6.70787E-01 -5.75826E-01  1.06566E+00
   2.50507E+00  5.04332E+00  7.81490E-01  1.61977E+00 -4.05397E+00 -3.54257E+00 -2.79875E+00 -3.22513E+00 -7.41225E+00 -1.05983E+01
  -7.21069E+00 -3.69667E+00 -5.74632E+00 -5.14529E+00 -3.62817E+00 -4.71197E+00 -3.89021E+00 -3.79967E+00 -1.84348E+00 -9.00417E-01
  -1.00189E+00 -2.65127E+00 -1.04339E+00 -3.91043E+00 -4.23671E+00 -5.25882E+00 -1.40941E+00 -2.69044E+00 -1.11700E+00 -4.77885E+00
  -3.68294E+00 -4.84218E+00 -4.00061E+00  1.11266E+00 -5.34583E+00 -2.45234E+00 -6.18635E-01  9.83917E-01 -9.76772E-01 -2.60756E+00
  -1.51244E+00 -3.82437E+00 -3.70984E+00 -2.68327E+00 -6.92521E+00 -2.45436E+00 -5.23634E+00 -4.78292E+00 -1.80687E+00 -2.71744E+00
  -5.71653E+00 -6.82750E+00 -3.45424E+00 -7.49759E+00 -7.70342E+00 -6.27409E+00 -5.28819E+00 -5.82069E+00 -4.78107E+00 -6.09132E+00
  -6.91566E+00 -5.09330E+00 -6.53276E+00 -6.16984E+00 -5.44601E+00 -1.83918E+00 -3.72447E+00 -4.59396E+00 -4.86629E+00 -3.60227E+00
  -3.68131E+00 -3.53064E+00 -2.11227E+00 -5.57944E+00 -1.30208E+00 -2.15274E+00 -1.55358E+00 -4.92400E+00 -3.08885E+00 -2.71362E-01
  -7.00674E+00 -6.20374E+00 -2.25908E+00 -2.13599E+00  2.82762E-01 -9.42112E-01  3.12660E+00  3.46359E+00  2.07219E+00  3.54765E+00
   4.48127E+00  8.68148E+00  1.15885E+01  1.25382E+01  7.28241E+00  5.59796E+00  4.82563E+00  4.59588E+00 -3.76531E-01  3.16630E+00
   3.52385E+00  1.81842E+00  6.47246E-01 -1.33046E+00 -2.61492E+00 -2.97518E+00 -2.42412E+00 -2.61046E+00 -1.80153E+00  6.61761E-01
   2.26847E-03  2.44186E+00  5.55031E+00  4.36858E+00  7.63587E+00  9.45786E+00  1.73665E+01  1.70015E+01  1.87679E+01  1.50786E+01
   8.23835E+00  8.00994E+00  2.31798E+00  3.32574E+00  1.04275E+00 -3.97108E-01 -1.71456E+00 -6.63573E+00 -3.14930E+00 -8.19487E-01
   3.25259E-01 -3.03799E+00 -1.84466E+00 -5.46296E-01 -2.53792E+00 -2.61484E+00 -1.03028E+00 -1.28392E+00 -1.56836E+00 -4.77027E+00
   1.34700E+00  2.35757E-01 -1.48614E+00 -4.65677E+00 -3.75888E+00 -3.68166E+00 -2.53176E+00 -1.65586E+00 -2.43348E+00 -2.74370E+00
  -6.39372E+00 -4.96717E+00 -6.91857E+00 -4.23625E+00 -3.91093E+00 -4.68292E+00 -2.29581E+00 -4.96738E+00 -3.15678E+00 -7.64350E+00
  -4.05011E+00 -8.40419E+00 -7.46282E+00 -8.35974E+00 -8.73960E+00 -6.41151E+00 -9.47414E+00 -8.40949E+00 -6.25637E+00 -7.03785E+00
  -8.15699E+00 -5.81480E+00 -6.40762E+00 -3.34310E+00 -6.29028E+00 -5.65310E+00 -3.44540E+00 -3.63661E+00 -8.09617E+00 -2.81641E+00
  -5.86855E+00 -3.84420E+00 -3.95001E+00 -1.98963E+00 -2.02203E+00 -3.41632E+00 -5.77395E-01 -4.78161E+00 -2.59791E+00 -2.72900E+00
  -2.21093E+00  3.92429E-01  6.53183E-01 -4.74200E-02 -4.07999E+00  4.42472E-01 -4.10599E+00 -1.56117E+00 -7.32485E-01  4.47913E+00
  -2.51201E+00 -1.68351E+00  2.20910E-01  2.75311E+00  6.69155E-01  3.62593E+00  4.67904E+00  1.37257E+00  2.16988E+00  9.81643E-01
  -1.76456E+00 -5.12171E+00 -4.48637E+00 -1.49166E-01  8.11755E-01  2.97203E+00  1.36047E+00  3.35950E+00  4.00639E+00  1.52297E+00
   1.92116E+00 -6.78858E-01  3.14257E+00  5.65240E+00  4.03188E+00  1.88433E+00  3.86867E+00  2.56293E+00 -2.27197E-01  3.31600E+00
   5.86842E+00  2.69348E+00  1.84065E+00  2.17539E+00  2.94036E+00  4.76656E+00  8.84731E+00  4.97357E+00  7.08854E+00  5.22524E+00
   8.07581E+00  7.40354E+00  1.05223E+01  1.14397E+01  1.75107E+01  1.85102E+01  2.13992E+01  2.30951E+01  3.47107E+01  3.63873E+01
   4.75137E+01  4.63825E+01  3.73127E+01  2.71268E+01  2.05163E+01  1.46730E+01  1.14412E+01  1.08699E+01  8.02243E+00  6.92494E+00
   6.66052E+00  5.60586E+00  5.83416E+00  5.47039E+00  7.80543E+00  2.17426E+00  1.40840E+00  3.38868E+00  5.35860E+00  1.19045E+00
   7.41241E-02  1.89985E-02  3.00077E+00  2.88490E+00  1.58077E+00  1.00996E+00  2.95460E+00  3.69417E+00  4.25237E+00  2.46493E+00
   1.29460E+00  1.95668E+00  2.58614E+00  3.17417E+00  1.01194E+00  2.73076E+00  4.85351E+00  2.55268E+00  9.16966E-01  1.08114E-01
   3.78525E+00 -9.65168E-01  4.65767E+00  6.57197E-01  5.88018E-01 -1.37777E-01  1.02326E+00  3.54040E+00  5.51299E+00  5.42616E+00
   8.57125E-01  1.06973E+00  2.94486E+00 -2.45836E-01 -3.29671E-01 -4.61849E-01  5.39024E+00  2.21070E+00  1.08688E+00  1.55078E+00
   1.53387E+00 -8.38292E-02  1.34632E+00  3.55980E+00  5.55372E-01  4.69320E+00  2.78359E+00  1.17132E+00  2.26112E+00  7.67292E-01
   4.07610E-01  2.84121E+00  1.06098E+00  1.05812E+00  1.18971E+00  2.72034E+00  1.17915E+00  2.69373E+00  7.46846E+00  1.54843E+00
   1.14961E+00  4.26384E+00  1.20983E+00  5.11084E+00  1.88676E+00  7.15596E+00  1.39293E+00  1.36857E+00 -7.84516E-01  7.22433E-01
   1.45727E+00  1.84782E+00  4.56228E-02  1.79001E+00 -1.18968E+00 -9.06230E-01  1.71942E+00 -2.07701E+00  2.44025E-01  3.19746E-01
   1.96900E+00  1.68401E+00  3.45779E-01  2.92614E-01  7.90474E-02  1.61562E+00  1.75972E+00  4.80818E-01  1.95696E+00 -1.54784E+00
  -3.73101E+00 -1.65892E+00 -3.42209E-01  7.22004E-01 -7.27791E-01  4.35286E-01  3.42925E+00  2.58389E+00 -2.00934E+00 -1.03388E+00
   5.89778E-01 -5.81330E-01  2.78498E+00  2.26710E+00  5.92400E+00 -1.25515E+00  6.82877E-01  1.53756E+00  1.12937E+00  7.89230E+00
   3.68014E+00  1.57291E+00 -7.12079E-01  1.28423E+00  5.49346E+00 -1.39006E+00  3.73240E+00  1.47666E+00  3.78996E+00  1.48321E+00
  -6.64128E-01  1.00460E+00  1.31198E+00  1.79500E+00 -1.55417E+00  2.56244E+00 -5.13936E-01  3.99926E+00 -3.46608E+00 -1.30320E+00
  -6.70979E-01 -2.56062E+00  5.50118E-01  7.91033E-01 -9.30580E-01  1.39390E+00  5.71885E-02  3.96434E-01 -3.62462E-01 -1.38095E-01
  -1.07061E+00 -1.08382E+00  3.33188E+00  2.64866E+00 -1.12783E+00  2.68782E+00 -1.17343E+00 -1.80473E+00  9.49108E-02 -1.54246E+00
  -4.25419E-01  4.19534E-01  5.15949E-01  1.62761E+00 -3.12256E+00  1.00940E+00 -3.06930E-01  1.82404E+00 -4.01409E-03 -1.95545E+00
  -1.12125E+00  1.14456E+00  5.69632E-01  3.18341E-01 -1.65046E+00 -8.05195E-01 -1.59306E+00 -2.52639E+00  2.84308E+00 -4.36034E-01
   1.06165E+00  2.17837E+00 -2.34046E+00 -1.27778E+00  1.52003E+00  3.39075E+00  6.79987E+00  3.00880E+00  1.06837E+00  6.36883E-01
  -4.37453E-01 -9.33275E-01 -2.17139E-01  2.80650E+00  8.86802E-01  1.46564E+00 -6.99235E-01  1.69283E+00  2.15273E-01  8.34020E-01
  -5.56252E-01  2.54114E+00  2.47634E+00  1.20881E+00  3.41304E+00 -1.20124E+00  1.24242E+00 -5.71850E-01  1.68773E+00 -1.02424E+00
   1.44074E+00 -1.28229E+00  4.35115E-01  4.58627E-01  9.85491E-01  2.32898E-01  2.09631E+00  4.22169E-01  2.02994E+00  1.27653E+00
   3.03252E+00  1.49398E+00  8.96715E-01  2.52970E+00 -7.09376E-01  3.00122E+00  1.02577E+00  1.98533E-01
 NY points of the fit to the data follow
  -6.66261E+00 -6.70985E+00 -6.25423E+00 -5.13295E+00 -4.11142E+00 -3.30062E+00 -2.36807E+00 -9.54284E-01  8.74722E-01  2.55000E+00
   3.25635E+00  2.61644E+00  1.06285E+00 -6.37578E-01 -1.91585E+00 -2.61598E+00 -3.08399E+00 -3.88642E+00 -4.76102E+00 -5.14212E+00
  -5.28816E+00 -5.35983E+00 -5.25300E+00 -4.76632E+00 -4.37201E+00 -4.23424E+00 -4.07352E+00 -3.58396E+00 -2.74911E+00 -1.79411E+00
  -9.99352E-01 -6.25021E-01 -7.48273E-01 -1.27248E+00 -2.07377E+00 -2.90482E+00 -3.60231E+00 -4.31385E+00 -4.88663E+00 -4.91675E+00
  -4.62115E+00 -4.25297E+00 -3.95580E+00 -3.68949E+00 -3.36523E+00 -2.91141E+00 -2.36740E+00 -1.99149E+00 -2.01822E+00 -2.44520E+00
  -3.14530E+00 -3.84618E+00 -4.27680E+00 -4.43381E+00 -4.49234E+00 -4.56429E+00 -4.64046E+00 -4.61273E+00 -4.45653E+00 -4.24026E+00
  -4.07569E+00 -4.05769E+00 -4.18389E+00 -4.39473E+00 -4.58294E+00 -4.61811E+00 -4.52760E+00 -4.43657E+00 -4.34290E+00 -4.20642E+00
  -4.07518E+00 -3.95417E+00 -3.84194E+00 -3.74942E+00 -3.69244E+00 -3.67479E+00 -3.72706E+00 -3.87086E+00 -4.00240E+00 -3.94918E+00
  -3.77576E+00 -3.63766E+00 -3.51426E+00 -3.30987E+00 -2.98934E+00 -2.65973E+00 -2.56279E+00 -2.82159E+00 -3.30363E+00 -3.74166E+00
  -3.97780E+00 -4.00622E+00 -3.91314E+00 -3.87109E+00 -3.82225E+00 -2.97462E+00 -8.96591E-01  8.96571E-01  2.04833E+00  3.52022E+00
   6.03875E+00  9.22556E+00  1.17640E+01  1.22509E+01  1.03793E+01  7.23803E+00  4.24029E+00  2.16222E+00  1.03904E+00  2.06063E-01
  -1.12452E+00 -2.56997E+00 -3.12433E+00 -3.27533E+00 -3.32739E+00 -3.32172E+00 -3.30536E+00 -3.26137E+00 -3.12973E+00 -2.60635E+00
  -6.79608E-01  1.89973E+00  3.64320E+00  5.14816E+00  7.74678E+00  1.16893E+01  1.58014E+01  1.81478E+01  1.73583E+01  1.39804E+01
   9.88500E+00  6.57584E+00  4.51467E+00  3.22358E+00  1.61527E+00 -7.56623E-01 -2.45621E+00 -2.92112E+00 -2.85559E+00 -2.53886E+00
  -2.21854E+00 -2.06866E+00 -2.04547E+00 -2.06253E+00 -2.11037E+00 -2.14972E+00 -2.20472E+00 -2.33792E+00 -2.51798E+00 -2.69358E+00
  -2.82105E+00 -2.89826E+00 -2.96695E+00 -3.05960E+00 -3.21031E+00 -3.34135E+00 -3.38279E+00 -3.39154E+00 -3.42928E+00 -3.60314E+00
  -3.88437E+00 -4.06681E+00 -3.99769E+00 -3.73498E+00 -3.46686E+00 -3.36120E+00 -3.48245E+00 -3.74383E+00 -3.98948E+00 -4.16938E+00
  -4.31473E+00 -4.36353E+00 -4.41041E+00 -4.59310E+00 -4.88711E+00 -5.14589E+00 -5.17244E+00 -4.92866E+00 -4.62893E+00 -4.51285E+00
  -4.63186E+00 -4.74770E+00 -4.58901E+00 -4.17888E+00 -3.70998E+00 -3.36767E+00 -3.15011E+00 -2.78916E+00 -2.13677E+00 -1.32797E+00
  -6.98094E-01 -5.00301E-01 -6.19222E-01 -8.28674E-01 -9.66117E-01 -9.94896E-01 -9.85254E-01 -8.92253E-01 -6.77422E-01 -3.86554E-01
  -6.91386E-02  3.01001E-01  6.49214E-01  7.73199E-01  6.82187E-01  3.76380E-01 -2.23271E-01 -9.99619E-01 -1.59826E+00 -1.70363E+00
  -1.56476E+00 -1.33488E+00 -8.54661E-01  1.01251E-02  9.91162E-01  1.51218E+00  1.24473E+00  4.56417E-01 -5.69987E-01 -1.82685E+00
  -2.95381E+00 -3.53564E+00 -3.41160E+00 -2.66198E+00 -1.58173E+00 -3.46769E-01  6.70460E-01  1.23105E+00  1.39165E+00  1.39837E+00
   1.53955E+00  1.75546E+00  1.92055E+00  2.13303E+00  2.45176E+00  2.71668E+00  2.78075E+00  2.70559E+00  2.59432E+00  2.43604E+00
   2.15709E+00  1.91867E+00  1.92821E+00  2.22771E+00  2.72775E+00  3.25739E+00  3.74253E+00  4.11748E+00  4.41204E+00  4.81805E+00
   5.30982E+00  5.91204E+00  7.10287E+00  1.06171E+01  1.64311E+01  2.08101E+01  2.34289E+01  2.68591E+01  3.26760E+01  3.95949E+01
   4.43368E+01  4.38045E+01  3.78113E+01  2.92066E+01  2.13790E+01  1.61567E+01  1.32442E+01  1.07549E+01  7.00750E+00  3.49693E+00
   2.23464E+00  1.85087E+00  1.72345E+00  1.75259E+00  1.81039E+00  1.80463E+00  1.74217E+00  1.63511E+00  1.50441E+00  1.37662E+00
   1.26919E+00  1.17346E+00  1.10143E+00  1.07127E+00  1.07324E+00  1.09931E+00  1.14198E+00  1.18681E+00  1.23370E+00  1.28731E+00
   1.34321E+00  1.40200E+00  1.46123E+00  1.51352E+00  1.55665E+00  1.59659E+00  1.63439E+00  1.66645E+00  1.69313E+00  1.71505E+00
   1.72970E+00  1.73802E+00  1.74074E+00  1.73457E+00  1.71852E+00  1.69385E+00  1.66369E+00  1.63049E+00  1.59519E+00  1.56054E+00
   1.52885E+00  1.50179E+00  1.48197E+00  1.47191E+00  1.47398E+00  1.49063E+00  1.52469E+00  1.58032E+00  1.66561E+00  1.80032E+00
   2.01903E+00  2.21371E+00  2.26765E+00  2.29883E+00  2.40079E+00  2.50347E+00  2.43984E+00  2.08716E+00  1.56619E+00  1.16198E+00
   9.27579E-01  8.44289E-01  9.36507E-01  1.23602E+00  1.69484E+00  2.21734E+00  2.72252E+00  3.04825E+00  3.09314E+00  2.98987E+00
   2.88775E+00  2.82616E+00  2.74713E+00  2.57487E+00  2.34905E+00  2.17942E+00  1.99765E+00  1.75107E+00  1.48767E+00  1.25840E+00
   1.07802E+00  9.63629E-01  9.33727E-01  9.86366E-01  1.08628E+00  1.18879E+00  1.27263E+00  1.30510E+00  1.27549E+00  1.22484E+00
   1.18688E+00  1.17164E+00  1.15478E+00  1.10759E+00  1.06154E+00  1.03623E+00  1.02107E+00  1.01138E+00  1.00567E+00  1.00349E+00
   1.00500E+00  1.01054E+00  1.02067E+00  1.03606E+00  1.05764E+00  1.08634E+00  1.12311E+00  1.16869E+00  1.22380E+00  1.28899E+00
   1.36479E+00  1.45140E+00  1.54877E+00  1.65637E+00  1.77342E+00  1.89876E+00  2.03098E+00  2.16811E+00  2.30783E+00  2.44738E+00
   2.58383E+00  2.71407E+00  2.83498E+00  2.94332E+00  3.03600E+00  3.11015E+00  3.16347E+00  3.19410E+00  3.20089E+00  3.18317E+00
   3.14100E+00  3.07511E+00  2.98703E+00  2.87880E+00  2.75300E+00  2.61238E+00  2.46006E+00  2.29921E+00  2.13312E+00  1.96486E+00
   1.79727E+00  1.63275E+00  1.47346E+00  1.32114E+00  1.17727E+00  1.04279E+00  9.18328E-01  8.04069E-01  7.00071E-01  6.06137E-01
   5.21985E-01  4.47053E-01  3.80735E-01  3.22296E-01  2.71138E-01  2.26612E-01  1.88154E-01  1.55075E-01  1.26798E-01  1.02736E-01
   8.25127E-02  6.57165E-02  5.20248E-02  4.10043E-02  3.23589E-02  2.57916E-02  2.11816E-02  1.83200E-02  1.70581E-02  1.71348E-02
   1.84380E-02  2.08345E-02  2.43248E-02  2.87807E-02  3.41258E-02  4.01839E-02  4.69384E-02  5.43307E-02  6.24030E-02  7.10451E-02
   8.02108E-02  8.97747E-02  9.97779E-02  1.10194E-01  1.21070E-01  1.32297E-01  1.43849E-01  1.55643E-01  1.67754E-01  1.80159E-01
   1.92893E-01  2.05841E-01  2.18999E-01  2.32319E-01  2.45894E-01  2.59691E-01  2.73725E-01  2.87880E-01  3.02182E-01  3.16605E-01
   3.31247E-01  3.46056E-01  3.61033E-01  3.76073E-01  3.91229E-01  4.06493E-01  4.21951E-01  4.37525E-01  4.53213E-01  4.68925E-01
   4.84745E-01  5.00667E-01  5.16761E-01  5.32929E-01  5.49175E-01  5.65436E-01  5.81815E-01  5.98301E-01  6.14941E-01  6.31629E-01
   6.48382E-01  6.65169E-01  6.82104E-01  6.99166E-01  7.16384E-01  7.33652E-01  7.51021E-01  7.68487E-01
 NY background values follow
    -7.940E+00   -7.906E+00   -7.873E+00   -7.839E+00   -7.806E+00   -7.772E+00   -7.739E+00   -7.705E+00   -7.672E+00   -7.638E+00
    -7.604E+00   -7.571E+00   -7.537E+00   -7.504E+00   -7.470E+00   -7.437E+00   -7.403E+00   -7.370E+00   -7.336E+00   -7.303E+00
    -7.269E+00   -7.235E+00   -7.202E+00   -7.168E+00   -7.135E+00   -7.101E+00   -7.068E+00   -7.034E+00   -7.001E+00   -6.967E+00
    -6.934E+00   -6.900E+00   -6.867E+00   -6.833E+00   -6.800E+00   -6.766E+00   -6.733E+00   -6.699E+00   -6.666E+00   -6.632E+00
    -6.599E+00   -6.566E+00   -6.532E+00   -6.499E+00   -6.465E+00   -6.432E+00   -6.399E+00   -6.365E+00   -6.332E+00   -6.299E+00
    -6.265E+00   -6.232E+00   -6.199E+00   -6.166E+00   -6.132E+00   -6.099E+00   -6.066E+00   -6.033E+00   -6.000E+00   -5.967E+00
    -5.934E+00   -5.901E+00   -5.868E+00   -5.835E+00   -5.802E+00   -5.770E+00   -5.737E+00   -5.704E+00   -5.671E+00   -5.639E+00
    -5.606E+00   -5.574E+00   -5.541E+00   -5.509E+00   -5.477E+00   -5.445E+00   -5.412E+00   -5.380E+00   -5.348E+00   -5.316E+00
    -5.284E+00   -5.253E+00   -5.221E+00   -5.189E+00   -5.158E+00   -5.126E+00   -5.095E+00   -5.063E+00   -5.032E+00   -5.001E+00
    -4.970E+00   -4.939E+00   -4.908E+00   -4.877E+00   -4.847E+00   -4.816E+00   -4.786E+00   -4.755E+00   -4.725E+00   -4.695E+00
    -4.664E+00   -4.634E+00   -4.604E+00   -4.574E+00   -4.545E+00   -4.515E+00   -4.485E+00   -4.456E+00   -4.426E+00   -4.397E+00
    -4.368E+00   -4.338E+00   -4.309E+00   -4.280E+00   -4.251E+00   -4.222E+00   -4.193E+00   -4.165E+00   -4.136E+00   -4.108E+00
    -4.079E+00   -4.051E+00   -4.022E+00   -3.994E+00   -3.966E+00   -3.938E+00   -3.910E+00   -3.882E+00   -3.854E+00   -3.826E+00
    -3.798E+00   -3.771E+00   -3.743E+00   -3.716E+00   -3.688E+00   -3.661E+00   -3.634E+00   -3.606E+00   -3.579E+00   -3.552E+00
    -3.525E+00   -3.498E+00   -3.471E+00   -3.444E+00   -3.417E+00   -3.390E+00   -3.364E+00   -3.337E+00   -3.310E+00   -3.283E+00
    -3.257E+00   -3.230E+00   -3.203E+00   -3.176E+00   -3.150E+00   -3.123E+00   -3.096E+00   -3.069E+00   -3.042E+00   -3.016E+00
    -2.989E+00   -2.962E+00   -2.935E+00   -2.908E+00   -2.881E+00   -2.853E+00   -2.826E+00   -2.799E+00   -2.772E+00   -2.744E+00
    -2.717E+00   -2.689E+00   -2.661E+00   -2.634E+00   -2.606E+00   -2.578E+00   -2.550E+00   -2.521E+00   -2.493E+00   -2.464E+00
    -2.436E+00   -2.407E+00   -2.378E+00   -2.349E+00   -2.320E+00   -2.291E+00   -2.262E+00   -2.232E+00   -2.203E+00   -2.173E+00
    -2.144E+00   -2.114E+00   -2.084E+00   -2.054E+00   -2.025E+00   -1.995E+00   -1.965E+00   -1.935E+00   -1.905E+00   -1.876E+00
    -1.846E+00   -1.816E+00   -1.786E+00   -1.757E+00   -1.727E+00   -1.698E+00   -1.668E+00   -1.639E+00   -1.610E+00   -1.581E+00
    -1.552E+00   -1.523E+00   -1.494E+00   -1.465E+00   -1.437E+00   -1.409E+00   -1.380E+00   -1.353E+00   -1.325E+00   -1.297E+00
    -1.270E+00   -1.243E+00   -1.216E+00   -1.189E+00   -1.162E+00   -1.136E+00   -1.110E+00   -1.085E+00   -1.059E+00   -1.034E+00
    -1.009E+00   -9.845E-01   -9.602E-01   -9.361E-01   -9.124E-01   -8.889E-01   -8.658E-01   -8.429E-01   -8.204E-01   -7.981E-01
    -7.762E-01   -7.546E-01   -7.333E-01   -7.123E-01   -6.917E-01   -6.714E-01   -6.514E-01   -6.318E-01   -6.125E-01   -5.935E-01
    -5.749E-01   -5.566E-01   -5.387E-01   -5.212E-01   -5.040E-01   -4.872E-01   -4.708E-01   -4.547E-01   -4.390E-01   -4.237E-01
    -4.088E-01   -3.942E-01   -3.801E-01   -3.663E-01   -3.529E-01   -3.400E-01   -3.274E-01   -3.153E-01   -3.036E-01   -2.922E-01
    -2.813E-01   -2.709E-01   -2.608E-01   -2.512E-01   -2.420E-01   -2.332E-01   -2.248E-01   -2.168E-01   -2.092E-01   -2.020E-01
    -1.952E-01   -1.888E-01   -1.827E-01   -1.771E-01   -1.717E-01   -1.668E-01   -1.622E-01   -1.579E-01   -1.540E-01   -1.504E-01
    -1.472E-01   -1.442E-01   -1.416E-01   -1.394E-01   -1.374E-01   -1.357E-01   -1.344E-01   -1.333E-01   -1.325E-01   -1.321E-01
    -1.319E-01   -1.319E-01   -1.323E-01   -1.329E-01   -1.337E-01   -1.349E-01   -1.362E-01   -1.378E-01   -1.397E-01   -1.418E-01
    -1.441E-01   -1.466E-01   -1.494E-01   -1.523E-01   -1.555E-01   -1.589E-01   -1.624E-01   -1.662E-01   -1.701E-01   -1.743E-01
    -1.785E-01   -1.830E-01   -1.876E-01   -1.924E-01   -1.972E-01   -2.023E-01   -2.074E-01   -2.127E-01   -2.180E-01   -2.235E-01
    -2.290E-01   -2.347E-01   -2.404E-01   -2.462E-01   -2.521E-01   -2.580E-01   -2.639E-01   -2.699E-01   -2.759E-01   -2.820E-01
    -2.880E-01   -2.941E-01   -3.002E-01   -3.063E-01   -3.123E-01   -3.183E-01   -3.243E-01   -3.303E-01   -3.362E-01   -3.421E-01
    -3.479E-01   -3.536E-01   -3.593E-01   -3.649E-01   -3.704E-01   -3.758E-01   -3.811E-01   -3.862E-01   -3.913E-01   -3.962E-01
    -4.010E-01   -4.056E-01   -4.101E-01   -4.145E-01   -4.186E-01   -4.227E-01   -4.265E-01   -4.302E-01   -4.337E-01   -4.370E-01
    -4.401E-01   -4.431E-01   -4.459E-01   -4.484E-01   -4.508E-01   -4.530E-01   -4.550E-01   -4.568E-01   -4.583E-01   -4.597E-01
    -4.608E-01   -4.617E-01   -4.624E-01   -4.628E-01   -4.631E-01   -4.631E-01   -4.628E-01   -4.623E-01   -4.616E-01   -4.606E-01
    -4.594E-01   -4.579E-01   -4.561E-01   -4.541E-01   -4.518E-01   -4.493E-01   -4.464E-01   -4.433E-01   -4.399E-01   -4.363E-01
    -4.323E-01   -4.281E-01   -4.235E-01   -4.187E-01   -4.135E-01   -4.081E-01   -4.023E-01   -3.962E-01   -3.898E-01   -3.831E-01
    -3.761E-01   -3.688E-01   -3.613E-01   -3.534E-01   -3.452E-01   -3.368E-01   -3.281E-01   -3.191E-01   -3.098E-01   -3.003E-01
    -2.906E-01   -2.806E-01   -2.703E-01   -2.599E-01   -2.492E-01   -2.382E-01   -2.270E-01   -2.157E-01   -2.041E-01   -1.923E-01
    -1.803E-01   -1.681E-01   -1.557E-01   -1.431E-01   -1.304E-01   -1.174E-01   -1.043E-01   -9.104E-02   -7.761E-02   -6.402E-02
    -5.027E-02   -3.638E-02   -2.235E-02   -8.185E-03    6.114E-03    2.054E-02    3.509E-02    4.975E-02    6.452E-02    7.941E-02
     9.439E-02    1.095E-01    1.246E-01    1.399E-01    1.552E-01    1.707E-01    1.862E-01    2.017E-01    2.174E-01    2.331E-01
     2.489E-01    2.648E-01    2.807E-01    2.967E-01    3.127E-01    3.288E-01    3.450E-01    3.612E-01    3.775E-01    3.938E-01
     4.101E-01    4.265E-01    4.430E-01    4.595E-01    4.760E-01    4.925E-01    5.091E-01    5.257E-01    5.423E-01    5.590E-01
     5.757E-01    5.924E-01    6.091E-01    6.258E-01    6.425E-01    6.593E-01    6.760E-01    6.928E-01    7.095E-01    7.263E-01
     7.431E-01    7.598E-01    7.765E-01    7.933E-01    8.100E-01    8.267E-01    8.434E-01    8.600E-01
 Ala      Conc. = 1.27E+02
