 LCModel (Version 6.3-1L) Copyright: S.W. Provencher.          Ref.: Magn. Reson. Med. 30:672-679 (1993).                
 Slice#1 Row#8 Col#12  PD_05_press_1_raw_act
 36 lines in following concentration table = NCONC+1
    Conc.  %SD /Cr+PCr  Metabolite                                         
   50.306 123%   0.917 Ala                                                 
    6.032 999%   0.110 Asp                                                 
   10.548 734%   0.192 Cr                                                  
   44.341 176%   0.808 PCr                                                 
   35.390 111%   0.645 GABA                                                
   43.092  90%   0.785 Glc                                                 
  387.457  32%   7.059 Gln                                                 
  481.742  29%   8.777 Glu                                                 
   28.256  33%   0.515 GPC                                                 
    0.000 999%   0.000 PCh                                                 
   25.013 145%   0.456 GSH                                                 
  206.676  54%   3.765 Ins                                                 
    0.000 999%   0.000 Lac                                                 
 1.13E+03   7%  20.533 NAA                                                 
    8.634 999%   0.157 NAAG                                                
   11.202  86%   0.204 Scyllo                                              
  107.573  55%   1.960 Tau                                                 
    4.449 397% 8.1E-02 -CrCH2                                              
   28.256  33%   0.515 GPC+PCh                                             
 1.14E+03   4%  20.690 NAA+NAAG                                            
   54.889  43%   1.000 Cr+PCr                                              
  869.200  23%  15.836 Glu+Gln                                             
   57.032 545%   1.039 Lip13a                                              
    0.000 999%   0.000 Lip13b                                              
   11.808 715%   0.215 Lip09                                               
  731.112  17%  13.320 MM09                                                
    9.480 504%   0.173 Lip20                                               
 1.54E+03  11%  28.122 MM20                                                
  217.798  39%   3.968 MM12                                                
 1.20E+03  21%  21.783 MM14                                                
  625.349  18%  11.393 MM17                                                
   57.032 545%   1.039 Lip13a+Lip13b                                       
 1.47E+03   9%  26.790 MM14+Lip13a+Lip13b+MM12                             
  742.920  11%  13.535 MM09+Lip09                                          
 1.55E+03  10%  28.295 MM20+Lip20                                          
   6 lines in following misc. output table
  FWHM = 0.061 ppm    S/N =  11                                            
  Data shift = 0.000 ppm                                                   
  Ph: -36 deg     -12.5 deg/ppm                                            
  alphaB,S = 8.5E+01,   2.6E+02                                            
   14 spline knots.   Ns = 7(1)                                            
   2 inflections.     1 extrema                                            
  498 points on ppm-axis = NY
      4.000000     3.992357     3.984714     3.977070     3.969427     3.961784     3.954141     3.946497     3.938854     3.931211
      3.923568     3.915925     3.908281     3.900638     3.892995     3.885352     3.877708     3.870065     3.862422     3.854779
      3.847136     3.839492     3.831849     3.824206     3.816563     3.808919     3.801276     3.793633     3.785990     3.778347
      3.770703     3.763060     3.755417     3.747774     3.740130     3.732487     3.724844     3.717201     3.709558     3.701914
      3.694271     3.686628     3.678985     3.671341     3.663698     3.656055     3.648412     3.640769     3.633125     3.625482
      3.617839     3.610196     3.602552     3.594909     3.587266     3.579623     3.571980     3.564336     3.556693     3.549050
      3.541407     3.533763     3.526120     3.518477     3.510834     3.503191     3.495547     3.487904     3.480261     3.472618
      3.464974     3.457331     3.449688     3.442045     3.434402     3.426758     3.419115     3.411472     3.403829     3.396185
      3.388542     3.380899     3.373256     3.365613     3.357969     3.350326     3.342683     3.335040     3.327396     3.319753
      3.312110     3.304467     3.296824     3.289180     3.281537     3.273894     3.266251     3.258607     3.250964     3.243321
      3.235678     3.228034     3.220391     3.212748     3.205105     3.197462     3.189818     3.182175     3.174532     3.166889
      3.159245     3.151602     3.143959     3.136316     3.128673     3.121029     3.113386     3.105743     3.098100     3.090456
      3.082813     3.075170     3.067527     3.059884     3.052240     3.044597     3.036954     3.029311     3.021667     3.014024
      3.006381     2.998738     2.991095     2.983451     2.975808     2.968165     2.960522     2.952878     2.945235     2.937592
      2.929949     2.922306     2.914662     2.907019     2.899376     2.891733     2.884089     2.876446     2.868803     2.861160
      2.853517     2.845873     2.838230     2.830587     2.822944     2.815300     2.807657     2.800014     2.792371     2.784728
      2.777084     2.769441     2.761798     2.754155     2.746511     2.738868     2.731225     2.723582     2.715939     2.708295
      2.700652     2.693009     2.685366     2.677722     2.670079     2.662436     2.654793     2.647150     2.639506     2.631863
      2.624220     2.616577     2.608933     2.601290     2.593647     2.586004     2.578361     2.570717     2.563074     2.555431
      2.547788     2.540144     2.532501     2.524858     2.517215     2.509572     2.501928     2.494285     2.486642     2.478999
      2.471355     2.463712     2.456069     2.448426     2.440783     2.433139     2.425496     2.417853     2.410210     2.402566
      2.394923     2.387280     2.379637     2.371994     2.364350     2.356707     2.349064     2.341421     2.333777     2.326134
      2.318491     2.310848     2.303205     2.295561     2.287918     2.280275     2.272632     2.264988     2.257345     2.249702
      2.242059     2.234416     2.226772     2.219129     2.211486     2.203843     2.196199     2.188556     2.180913     2.173270
      2.165627     2.157983     2.150340     2.142697     2.135054     2.127410     2.119767     2.112124     2.104481     2.096838
      2.089194     2.081551     2.073908     2.066265     2.058621     2.050978     2.043335     2.035692     2.028049     2.020405
      2.012762     2.005119     1.997476     1.989833     1.982190     1.974546     1.966903     1.959260     1.951617     1.943974
      1.936331     1.928688     1.921045     1.913402     1.905759     1.898115     1.890472     1.882829     1.875186     1.867543
      1.859900     1.852257     1.844614     1.836971     1.829327     1.821684     1.814041     1.806398     1.798755     1.791112
      1.783469     1.775826     1.768183     1.760540     1.752896     1.745253     1.737610     1.729967     1.722324     1.714681
      1.707038     1.699395     1.691752     1.684108     1.676465     1.668822     1.661179     1.653536     1.645893     1.638250
      1.630607     1.622964     1.615321     1.607677     1.600034     1.592391     1.584748     1.577105     1.569462     1.561819
      1.554176     1.546533     1.538890     1.531246     1.523603     1.515960     1.508317     1.500674     1.493031     1.485388
      1.477745     1.470102     1.462458     1.454815     1.447172     1.439529     1.431886     1.424243     1.416600     1.408957
      1.401314     1.393671     1.386027     1.378384     1.370741     1.363098     1.355455     1.347812     1.340169     1.332526
      1.324883     1.317240     1.309596     1.301953     1.294310     1.286667     1.279024     1.271381     1.263738     1.256095
      1.248452     1.240808     1.233165     1.225522     1.217879     1.210236     1.202593     1.194950     1.187307     1.179664
      1.172021     1.164377     1.156734     1.149091     1.141448     1.133805     1.126162     1.118519     1.110876     1.103233
      1.095590     1.087946     1.080303     1.072660     1.065017     1.057374     1.049731     1.042088     1.034445     1.026802
      1.019158     1.011515     1.003872     0.996229     0.988586     0.980943     0.973300     0.965657     0.958014     0.950371
      0.942727     0.935084     0.927441     0.919798     0.912155     0.904512     0.896869     0.889226     0.881583     0.873940
      0.866296     0.858653     0.851010     0.843367     0.835724     0.828081     0.820438     0.812795     0.805152     0.797508
      0.789865     0.782222     0.774579     0.766936     0.759293     0.751650     0.744007     0.736364     0.728721     0.721077
      0.713434     0.705791     0.698148     0.690505     0.682862     0.675219     0.667576     0.659933     0.652290     0.644646
      0.637003     0.629360     0.621717     0.614074     0.606431     0.598788     0.591145     0.583502     0.575858     0.568215
      0.560572     0.552929     0.545286     0.537643     0.530000     0.522357     0.514714     0.507071     0.499427     0.491784
      0.484141     0.476498     0.468855     0.461212     0.453569     0.445925     0.438282     0.430639     0.422996     0.415353
      0.407710     0.400067     0.392424     0.384780     0.377137     0.369494     0.361851     0.354208     0.346565     0.338922
      0.331278     0.323635     0.315992     0.308349     0.300706     0.293063     0.285420     0.277777     0.270133     0.262490
      0.254847     0.247204     0.239561     0.231918     0.224275     0.216631     0.208988     0.201345
 NY phased data points follow
   4.30335E+00  3.95667E+00  1.05543E+00  5.40402E+00  2.13477E+00  1.70391E+00  2.99621E+00  1.07811E+00  3.05463E+00  3.25471E+00
   3.17349E+00  7.40392E-01  1.07924E+00  2.96186E+00  1.88976E+00  4.32868E+00  3.34753E+00  2.70296E+00  1.68789E+00  1.95776E+00
   3.09687E+00  1.29686E+00  1.63142E+00 -2.06199E-02  9.96004E-01 -4.85607E-01  2.96383E+00  4.16123E+00  1.41184E-01  2.16202E+00
   5.57085E-01  5.09428E+00  3.71234E+00  3.99746E+00  1.93619E+00  3.25798E+00  3.03359E+00  2.37819E+00  1.96455E+00  1.61054E+00
   3.25018E+00  1.91726E+00  9.74419E-01  1.37380E+00  2.99360E+00  1.62397E+00  4.84599E+00  2.63907E+00  2.22498E+00  1.48533E+00
   2.57654E+00  2.24617E+00  1.68790E+00  1.02778E+00  1.23290E+00 -4.84602E-01  2.01218E+00  1.85128E+00  2.53352E-01  4.00911E+00
   1.53926E+00  7.44726E-01  1.55014E+00  1.09949E+00  7.32982E-01  8.58681E-01  2.05312E+00  3.79005E+00  4.10946E+00 -8.80169E-01
   2.18468E+00  3.09836E+00  3.74067E+00  2.19118E+00  3.85942E+00  2.85327E+00  6.49600E+00  2.58883E+00  3.42833E+00  1.87794E+00
   1.60659E-01  6.20120E-02  1.99821E+00  2.44463E+00  3.02918E-01  7.32402E-01  1.91147E+00  3.34101E+00  9.53435E-01  2.31074E+00
   3.34758E+00  1.81261E+00  2.83838E+00  2.49096E+00  1.25264E+00  4.52187E+00  4.01800E+00  1.51387E+00  2.34804E+00  1.81941E+00
   8.79398E-01  5.68476E+00  2.93859E+00  2.37716E+00  5.08229E+00  5.58843E+00  3.96048E+00  2.49803E+00  3.11527E+00 -1.41143E+00
   1.77958E+00  3.91329E+00  2.88712E+00  4.59074E+00  3.58627E+00  5.12750E+00  1.60742E+00  1.50994E+00  1.08042E+00  1.39551E+00
   1.89892E+00  4.97719E+00  2.16922E+00  2.70819E+00  2.20660E+00  3.84167E+00  3.59638E+00  5.34504E+00  2.99413E+00  6.02928E+00
   2.72605E+00  4.52368E+00  2.02114E-02 -2.92363E-01  8.17568E-01  3.27847E-01  2.85057E+00  1.58714E+00  1.77419E+00  1.74723E+00
   2.03676E+00  3.71424E+00  1.83444E+00  2.59925E+00  2.96802E+00  1.88929E+00  1.27133E+00  1.56284E+00  1.02826E+00  1.97133E+00
   2.71073E+00 -5.06033E-02 -5.76445E-01  1.83958E+00  1.06408E-01  4.95699E+00  1.70450E+00  1.14557E+00  3.02705E+00  2.60480E+00
   4.47739E+00  9.36706E-01  4.41338E+00  1.57593E+00 -6.04757E-02  2.61635E+00 -3.09431E-02  1.26423E+00  1.22122E-01  1.45536E+00
  -1.80472E+00 -1.24847E+00 -8.97267E-01 -1.87834E-01  7.91974E-01 -7.08152E-01  5.16636E-01 -2.39533E+00 -1.36218E-01 -1.72589E+00
   6.09873E-01 -7.91551E-01  7.17960E-01 -2.32301E+00 -4.18650E-01  7.52111E-01  4.71743E-01  2.62602E+00 -2.53166E+00 -1.09822E+00
   1.84237E+00  1.00837E+00  7.13947E-02  5.67776E-01  2.16003E+00  4.96994E-01 -1.41867E+00  2.07464E-01 -5.98592E-01  1.26166E-01
  -1.72121E-01  3.86629E-01 -9.43027E-01  1.25981E+00  6.51289E-01  1.88406E+00  2.76057E+00  2.12350E+00 -1.71545E-01  7.84462E-02
   1.02121E+00  3.18312E+00  3.23158E+00  4.61139E+00  5.51213E+00  3.67623E+00  7.16130E+00  4.53062E+00  8.52021E+00  2.53306E+00
   3.05381E+00  1.63950E+00  1.22223E+00  3.32832E+00  7.34749E-01  3.81556E-01  2.38501E+00  3.96291E+00  5.58917E+00  5.56089E+00
   4.80402E+00  1.97811E+00  3.80103E+00  3.22655E+00  3.23999E+00  7.27204E+00  7.50925E+00  4.78344E+00  5.69479E+00  6.53807E+00
   9.34183E+00  6.54164E+00  7.15645E+00  7.56613E+00  4.72803E+00  5.80772E+00  6.74329E+00  6.15221E+00  1.15288E+01  9.31095E+00
   1.22433E+01  1.19748E+01  1.27670E+01  1.59545E+01  2.00394E+01  2.64802E+01  2.87727E+01  3.08511E+01  3.48852E+01  3.57449E+01
   3.95910E+01  4.24684E+01  4.09972E+01  3.27859E+01  1.60181E+01  8.76431E+00  3.85596E+00  2.55393E+00  5.33537E+00  3.54558E+00
   5.98639E+00  7.03171E+00  3.19113E+00  8.05149E+00  3.91078E+00 -5.10783E-01  2.09473E+00 -8.71787E-01  2.47329E+00  4.62133E+00
   2.18598E+00  1.73083E+00  2.85820E+00  1.24987E+00  4.71059E+00  4.23067E+00  1.70235E+00  1.59216E+00  1.71565E+00  3.25296E+00
   1.55708E+00  4.81949E+00  8.04364E-01  3.35544E+00  2.18441E+00  3.28809E+00  7.13824E-01  4.70074E+00  1.93692E+00  3.73713E+00
   5.90507E+00  4.16893E+00  4.00598E+00  8.12418E+00  6.41852E+00  4.96292E+00  5.34326E+00  7.28708E+00  7.60563E+00  7.76691E+00
   4.37435E+00  5.97130E+00  3.96984E+00  6.04701E+00  6.13388E+00  3.35942E+00  3.01714E+00  4.57114E+00  5.00631E+00  2.93871E+00
   3.78421E+00  4.20004E+00  3.58011E+00  3.14311E+00  3.80506E+00  3.10876E+00  3.89923E+00  3.66695E+00  3.75141E+00  5.61480E+00
   2.47838E+00  5.27480E+00  4.95219E+00  4.01541E+00  6.43753E+00  6.32563E+00  7.01748E+00  8.50140E+00  6.10783E+00  8.19753E+00
   8.68319E+00  1.02889E+01  1.06971E+01  1.11743E+01  1.22824E+01  1.07244E+01  7.97665E+00  1.07419E+01  9.17047E+00  1.06810E+01
   1.09432E+01  6.01348E+00  6.88722E+00  6.57342E+00  8.03317E+00  6.55912E+00  4.95855E+00  4.32279E+00  4.33795E+00  5.59639E+00
   2.28944E+00  3.58984E+00  2.95143E+00  4.83433E+00  4.01829E+00  2.86531E+00  3.07210E+00  3.41208E+00  2.31364E+00  5.86117E-01
   3.49764E+00  3.14185E+00  2.68794E+00  2.82441E+00  4.45776E-01  3.83486E+00  1.29644E+00  2.95915E+00  1.76821E+00  2.42436E+00
   1.07037E+00  2.89249E-01  5.54512E-01  3.07985E+00 -5.23419E-01  4.65108E+00  2.83533E+00  3.17307E+00  3.73387E+00  2.20691E+00
   3.93472E+00  4.72802E+00  3.62106E+00  2.70208E+00  4.39972E+00  4.48582E+00  5.86042E+00  5.87712E+00  5.85285E+00  4.57714E+00
   4.73341E+00  4.53666E+00  5.17380E+00  4.91080E+00  7.42545E+00  5.82887E+00  7.34039E+00  5.90716E+00  3.60035E+00  5.46728E+00
   5.24692E+00  6.83767E+00  6.17267E+00  3.77718E+00  2.41676E+00  4.30344E+00  4.13273E+00  9.57264E-01  3.58398E+00  1.11225E+00
   3.84085E+00  1.26129E+00  1.80149E+00  7.86728E-01  1.64336E+00  6.90688E-01  1.51406E+00  2.55791E-01  1.49924E+00  1.92083E-02
   2.75534E+00  2.36726E+00  1.14907E+00  9.48942E-01 -8.97056E-01  2.16948E+00  2.85735E+00 -7.17321E-01  2.38629E+00  2.25716E+00
   1.89383E+00 -1.09511E+00  3.25514E+00  2.37602E+00 -3.17369E-01  2.84012E+00  1.53533E+00  2.05037E+00  2.48310E+00  5.74933E-01
  -8.68298E-01 -2.49943E-01 -2.40329E-01  1.39441E+00  1.82466E+00  1.72803E+00 -1.85639E-01  1.50760E+00  1.77806E+00  1.64861E+00
   3.00892E+00  9.43572E-01 -1.06024E-03  9.23903E-01  1.83311E-01  2.58753E-01  1.17740E+00  6.49199E-01  1.11236E+00  3.11694E+00
   1.03259E+00  5.06464E-01 -1.39754E-01  6.99148E-01 -9.73775E-01  7.11043E-01  9.08543E-02  4.40503E+00  1.58041E+00  7.66852E-01
   5.26982E-01  1.48520E+00 -2.04304E+00 -1.15598E+00  1.92794E+00  5.47669E-01  3.55432E-01  9.51483E-02  5.56720E-01 -5.16157E-01
   1.51705E+00  5.88779E-01  2.41525E+00 -1.10884E+00  9.39305E-01  1.34841E+00  1.88927E+00  1.92572E+00
 NY points of the fit to the data follow
   1.80181E+00  1.75620E+00  1.78997E+00  1.88733E+00  2.02136E+00  2.16872E+00  2.31104E+00  2.43716E+00  2.53753E+00  2.59826E+00
   2.60051E+00  2.52695E+00  2.38243E+00  2.20171E+00  2.03438E+00  1.92174E+00  1.88471E+00  1.92263E+00  2.00242E+00  2.07745E+00
   2.13470E+00  2.14032E+00  2.08319E+00  2.00249E+00  1.95937E+00  1.97717E+00  2.03759E+00  2.13959E+00  2.29700E+00  2.50374E+00
   2.75220E+00  3.03298E+00  3.27212E+00  3.36478E+00  3.23298E+00  2.87076E+00  2.36407E+00  1.85746E+00  1.49255E+00  1.36111E+00
   1.48816E+00  1.82088E+00  2.23525E+00  2.59971E+00  2.84371E+00  2.97146E+00  3.01901E+00  3.01153E+00  2.94866E+00  2.80644E+00
   2.56221E+00  2.23299E+00  1.89659E+00  1.64943E+00  1.54561E+00  1.57670E+00  1.68490E+00  1.81008E+00  1.91858E+00  2.00367E+00
   2.06862E+00  2.10368E+00  2.10354E+00  2.06076E+00  1.98389E+00  1.91106E+00  1.87575E+00  1.88831E+00  1.95204E+00  2.05976E+00
   2.17541E+00  2.26743E+00  2.32535E+00  2.35000E+00  2.34757E+00  2.32671E+00  2.28581E+00  2.21426E+00  2.10883E+00  1.99877E+00
   1.91360E+00  1.86379E+00  1.85561E+00  1.88607E+00  1.93396E+00  1.97070E+00  1.96910E+00  1.91037E+00  1.79569E+00  1.65311E+00
   1.52363E+00  1.45006E+00  1.46066E+00  1.53095E+00  1.62361E+00  1.75054E+00  1.99432E+00  2.34330E+00  2.73087E+00  3.10236E+00
   3.42117E+00  3.67751E+00  3.86242E+00  3.95723E+00  3.92234E+00  3.71363E+00  3.33198E+00  2.85465E+00  2.40541E+00  2.08488E+00
   1.92164E+00  1.87394E+00  1.87503E+00  1.88858E+00  1.90940E+00  1.93937E+00  1.97685E+00  2.02088E+00  2.07861E+00  2.18310E+00
   2.38733E+00  2.66436E+00  2.96120E+00  3.24870E+00  3.51945E+00  3.76997E+00  3.98621E+00  4.13311E+00  4.15382E+00  4.00452E+00
   3.69007E+00  3.28019E+00  2.88044E+00  2.57039E+00  2.37039E+00  2.25256E+00  2.17293E+00  2.11202E+00  2.07038E+00  2.05047E+00
   2.04800E+00  2.05144E+00  2.04594E+00  2.01943E+00  1.96856E+00  1.89868E+00  1.82033E+00  1.74373E+00  1.67473E+00  1.61593E+00
   1.56806E+00  1.53056E+00  1.49957E+00  1.43939E+00  1.31751E+00  1.16412E+00  1.02006E+00  9.29665E-01  8.92573E-01  8.45621E-01
   7.63901E-01  6.68824E-01  6.08227E-01  6.16830E-01  6.79422E-01  7.24207E-01  6.63110E-01  4.52438E-01  1.14984E-01 -2.74972E-01
  -5.78030E-01 -7.29941E-01 -7.64156E-01 -7.69787E-01 -8.12015E-01 -8.49718E-01 -8.27261E-01 -7.13512E-01 -5.25907E-01 -3.43322E-01
  -2.40497E-01 -1.87566E-01 -1.27409E-01 -8.02073E-04  2.21538E-01  5.19961E-01  8.37446E-01  1.14775E+00  1.46871E+00  1.82710E+00
   2.18637E+00  2.43180E+00  2.50126E+00  2.42916E+00  2.31644E+00  2.26003E+00  2.33320E+00  2.53797E+00  2.82143E+00  3.12647E+00
   3.41084E+00  3.62538E+00  3.68774E+00  3.52811E+00  3.16477E+00  2.58381E+00  1.79808E+00  9.53608E-01  2.42775E-01 -1.19877E-01
  -1.53251E-02  5.18037E-01  1.37043E+00  2.37616E+00  3.34042E+00  4.06161E+00  4.39341E+00  4.31665E+00  3.90914E+00  3.26651E+00
   2.53241E+00  1.91223E+00  1.58909E+00  1.64949E+00  2.07556E+00  2.77026E+00  3.59424E+00  4.36563E+00  4.88640E+00  5.08583E+00
   5.05875E+00  4.95553E+00  4.90829E+00  4.99011E+00  5.19846E+00  5.47059E+00  5.76241E+00  6.07136E+00  6.39678E+00  6.70305E+00
   6.91380E+00  6.97162E+00  6.88564E+00  6.74582E+00  6.68281E+00  6.80134E+00  7.14275E+00  7.66772E+00  8.28348E+00  8.90361E+00
   9.50044E+00  1.01518E+01  1.15113E+01  1.48890E+01  1.96061E+01  2.44921E+01  2.89091E+01  3.27573E+01  3.61146E+01  3.88213E+01
   4.02975E+01  3.95608E+01  3.57608E+01  2.90165E+01  2.07944E+01  1.32133E+01  7.80979E+00  4.91655E+00  3.79999E+00  3.39774E+00
   3.18279E+00  3.03288E+00  2.92388E+00  2.84484E+00  2.78562E+00  2.73642E+00  2.68137E+00  2.60423E+00  2.49923E+00  2.37413E+00
   2.24480E+00  2.12860E+00  2.03846E+00  1.98077E+00  1.95658E+00  1.96350E+00  1.99699E+00  2.05191E+00  2.12467E+00  2.21455E+00
   2.32371E+00  2.45522E+00  2.61144E+00  2.79351E+00  3.00101E+00  3.23221E+00  3.48445E+00  3.75397E+00  4.03532E+00  4.32144E+00
   4.60436E+00  4.87568E+00  5.12694E+00  5.34987E+00  5.53661E+00  5.68024E+00  5.77537E+00  5.81863E+00  5.80887E+00  5.74716E+00
   5.63678E+00  5.48304E+00  5.29315E+00  5.07582E+00  4.84083E+00  4.59866E+00  4.36024E+00  4.13687E+00  3.94070E+00  3.78666E+00
   3.69278E+00  3.64740E+00  3.62323E+00  3.61422E+00  3.62635E+00  3.66549E+00  3.72873E+00  3.80541E+00  3.90563E+00  4.05916E+00
   4.28385E+00  4.60099E+00  5.03044E+00  5.57387E+00  6.20763E+00  6.88955E+00  7.56949E+00  8.19853E+00  8.73267E+00  9.14185E+00
   9.42489E+00  9.60628E+00  9.71630E+00  9.77312E+00  9.77539E+00  9.71225E+00  9.57812E+00  9.37386E+00  9.10423E+00  8.77656E+00
   8.40009E+00  7.98528E+00  7.54324E+00  7.08510E+00  6.62150E+00  6.16217E+00  5.71569E+00  5.28928E+00  4.88856E+00  4.51756E+00
   4.17872E+00  3.87310E+00  3.60063E+00  3.36028E+00  3.15030E+00  2.96836E+00  2.81185E+00  2.67813E+00  2.56470E+00  2.46926E+00
   2.38979E+00  2.32458E+00  2.27230E+00  2.23203E+00  2.20328E+00  2.18583E+00  2.17974E+00  2.18529E+00  2.20296E+00  2.23348E+00
   2.27767E+00  2.33642E+00  2.41059E+00  2.50101E+00  2.60847E+00  2.73363E+00  2.87691E+00  3.03840E+00  3.21775E+00  3.41413E+00
   3.62620E+00  3.85200E+00  4.08885E+00  4.33333E+00  4.58133E+00  4.82813E+00  5.06855E+00  5.29701E+00  5.50773E+00  5.69498E+00
   5.85330E+00  5.97784E+00  6.06456E+00  6.11041E+00  6.11345E+00  6.07304E+00  5.98985E+00  5.86588E+00  5.70431E+00  5.50932E+00
   5.28584E+00  5.03940E+00  4.77584E+00  4.50109E+00  4.22084E+00  3.94037E+00  3.66436E+00  3.39685E+00  3.14114E+00  2.89978E+00
   2.67455E+00  2.46649E+00  2.27603E+00  2.10310E+00  1.94726E+00  1.80771E+00  1.68339E+00  1.57309E+00  1.47555E+00  1.38951E+00
   1.31376E+00  1.24713E+00  1.18851E+00  1.13688E+00  1.09135E+00  1.05114E+00  1.01558E+00  9.84065E-01  9.56027E-01  9.30999E-01
   9.08604E-01  8.88533E-01  8.70509E-01  8.54266E-01  8.39564E-01  8.26219E-01  8.14094E-01  8.03076E-01  7.93043E-01  7.83866E-01
   7.75439E-01  7.67692E-01  7.60585E-01  7.54069E-01  7.48077E-01  7.42534E-01  7.37392E-01  7.32633E-01  7.28248E-01  7.24206E-01
   7.20458E-01  7.16959E-01  7.13695E-01  7.10670E-01  7.07882E-01  7.05303E-01  7.02895E-01  7.00632E-01  6.98519E-01  6.96568E-01
   6.94775E-01  6.93110E-01  6.91544E-01  6.90072E-01  6.88710E-01  6.87468E-01  6.86335E-01  6.85280E-01  6.84286E-01  6.83360E-01
   6.82523E-01  6.81779E-01  6.81107E-01  6.80484E-01  6.79905E-01  6.79388E-01  6.78953E-01  6.78593E-01  6.78285E-01  6.78014E-01
   6.77788E-01  6.77632E-01  6.77557E-01  6.77550E-01  6.77593E-01  6.77680E-01  6.77837E-01  6.78087E-01
 NY background values follow
     8.686E-01    8.683E-01    8.681E-01    8.678E-01    8.675E-01    8.673E-01    8.670E-01    8.668E-01    8.665E-01    8.662E-01
     8.660E-01    8.657E-01    8.654E-01    8.652E-01    8.649E-01    8.646E-01    8.644E-01    8.641E-01    8.638E-01    8.636E-01
     8.633E-01    8.630E-01    8.628E-01    8.625E-01    8.623E-01    8.620E-01    8.617E-01    8.615E-01    8.612E-01    8.609E-01
     8.607E-01    8.604E-01    8.601E-01    8.599E-01    8.596E-01    8.593E-01    8.591E-01    8.588E-01    8.585E-01    8.583E-01
     8.580E-01    8.577E-01    8.575E-01    8.572E-01    8.570E-01    8.567E-01    8.564E-01    8.562E-01    8.559E-01    8.556E-01
     8.554E-01    8.551E-01    8.548E-01    8.546E-01    8.543E-01    8.540E-01    8.538E-01    8.535E-01    8.532E-01    8.530E-01
     8.527E-01    8.524E-01    8.522E-01    8.519E-01    8.516E-01    8.514E-01    8.511E-01    8.509E-01    8.506E-01    8.503E-01
     8.501E-01    8.498E-01    8.495E-01    8.493E-01    8.490E-01    8.487E-01    8.485E-01    8.482E-01    8.479E-01    8.477E-01
     8.474E-01    8.471E-01    8.469E-01    8.466E-01    8.463E-01    8.461E-01    8.458E-01    8.455E-01    8.453E-01    8.450E-01
     8.447E-01    8.445E-01    8.442E-01    8.440E-01    8.437E-01    8.434E-01    8.432E-01    8.429E-01    8.426E-01    8.424E-01
     8.421E-01    8.418E-01    8.416E-01    8.413E-01    8.410E-01    8.408E-01    8.405E-01    8.402E-01    8.400E-01    8.397E-01
     8.394E-01    8.392E-01    8.389E-01    8.386E-01    8.384E-01    8.381E-01    8.378E-01    8.376E-01    8.373E-01    8.370E-01
     8.368E-01    8.365E-01    8.362E-01    8.360E-01    8.357E-01    8.354E-01    8.352E-01    8.349E-01    8.346E-01    8.344E-01
     8.341E-01    8.339E-01    8.336E-01    8.333E-01    8.331E-01    8.328E-01    8.325E-01    8.323E-01    8.320E-01    8.317E-01
     8.315E-01    8.312E-01    8.309E-01    8.307E-01    8.304E-01    8.301E-01    8.299E-01    8.296E-01    8.293E-01    8.291E-01
     8.288E-01    8.285E-01    8.283E-01    8.280E-01    8.277E-01    8.275E-01    8.272E-01    8.269E-01    8.267E-01    8.264E-01
     8.261E-01    8.259E-01    8.256E-01    8.253E-01    8.251E-01    8.248E-01    8.245E-01    8.243E-01    8.240E-01    8.237E-01
     8.235E-01    8.232E-01    8.229E-01    8.227E-01    8.224E-01    8.221E-01    8.219E-01    8.216E-01    8.213E-01    8.211E-01
     8.208E-01    8.205E-01    8.203E-01    8.200E-01    8.198E-01    8.195E-01    8.192E-01    8.190E-01    8.187E-01    8.184E-01
     8.182E-01    8.179E-01    8.176E-01    8.174E-01    8.171E-01    8.168E-01    8.166E-01    8.163E-01    8.160E-01    8.158E-01
     8.155E-01    8.152E-01    8.150E-01    8.147E-01    8.144E-01    8.142E-01    8.139E-01    8.136E-01    8.134E-01    8.131E-01
     8.128E-01    8.126E-01    8.123E-01    8.120E-01    8.118E-01    8.115E-01    8.112E-01    8.110E-01    8.107E-01    8.104E-01
     8.102E-01    8.099E-01    8.096E-01    8.094E-01    8.091E-01    8.088E-01    8.086E-01    8.083E-01    8.080E-01    8.078E-01
     8.075E-01    8.073E-01    8.070E-01    8.067E-01    8.065E-01    8.062E-01    8.059E-01    8.057E-01    8.054E-01    8.051E-01
     8.049E-01    8.046E-01    8.043E-01    8.041E-01    8.038E-01    8.035E-01    8.033E-01    8.030E-01    8.027E-01    8.025E-01
     8.022E-01    8.019E-01    8.017E-01    8.014E-01    8.011E-01    8.009E-01    8.006E-01    8.003E-01    8.001E-01    7.998E-01
     7.995E-01    7.993E-01    7.990E-01    7.987E-01    7.985E-01    7.982E-01    7.979E-01    7.977E-01    7.974E-01    7.971E-01
     7.969E-01    7.966E-01    7.963E-01    7.961E-01    7.958E-01    7.955E-01    7.953E-01    7.950E-01    7.947E-01    7.945E-01
     7.942E-01    7.940E-01    7.937E-01    7.934E-01    7.932E-01    7.929E-01    7.926E-01    7.924E-01    7.921E-01    7.918E-01
     7.916E-01    7.913E-01    7.910E-01    7.908E-01    7.905E-01    7.902E-01    7.900E-01    7.897E-01    7.894E-01    7.892E-01
     7.889E-01    7.886E-01    7.884E-01    7.881E-01    7.878E-01    7.876E-01    7.873E-01    7.870E-01    7.868E-01    7.865E-01
     7.862E-01    7.860E-01    7.857E-01    7.854E-01    7.852E-01    7.849E-01    7.846E-01    7.844E-01    7.841E-01    7.838E-01
     7.836E-01    7.833E-01    7.830E-01    7.828E-01    7.825E-01    7.822E-01    7.820E-01    7.817E-01    7.814E-01    7.812E-01
     7.809E-01    7.806E-01    7.804E-01    7.801E-01    7.798E-01    7.796E-01    7.793E-01    7.790E-01    7.788E-01    7.785E-01
     7.782E-01    7.780E-01    7.777E-01    7.774E-01    7.772E-01    7.769E-01    7.766E-01    7.764E-01    7.761E-01    7.758E-01
     7.756E-01    7.753E-01    7.751E-01    7.748E-01    7.745E-01    7.743E-01    7.740E-01    7.737E-01    7.735E-01    7.732E-01
     7.729E-01    7.727E-01    7.724E-01    7.721E-01    7.719E-01    7.716E-01    7.713E-01    7.711E-01    7.708E-01    7.705E-01
     7.703E-01    7.700E-01    7.697E-01    7.695E-01    7.692E-01    7.689E-01    7.687E-01    7.684E-01    7.681E-01    7.679E-01
     7.676E-01    7.673E-01    7.671E-01    7.668E-01    7.665E-01    7.663E-01    7.660E-01    7.657E-01    7.655E-01    7.652E-01
     7.649E-01    7.647E-01    7.644E-01    7.641E-01    7.639E-01    7.636E-01    7.633E-01    7.631E-01    7.628E-01    7.625E-01
     7.623E-01    7.620E-01    7.617E-01    7.615E-01    7.612E-01    7.609E-01    7.607E-01    7.604E-01    7.601E-01    7.599E-01
     7.596E-01    7.593E-01    7.591E-01    7.588E-01    7.585E-01    7.583E-01    7.580E-01    7.577E-01    7.575E-01    7.572E-01
     7.569E-01    7.567E-01    7.564E-01    7.561E-01    7.559E-01    7.556E-01    7.553E-01    7.551E-01    7.548E-01    7.545E-01
     7.543E-01    7.540E-01    7.537E-01    7.535E-01    7.532E-01    7.529E-01    7.527E-01    7.524E-01    7.521E-01    7.519E-01
     7.516E-01    7.513E-01    7.511E-01    7.508E-01    7.505E-01    7.503E-01    7.500E-01    7.497E-01    7.495E-01    7.492E-01
     7.489E-01    7.487E-01    7.484E-01    7.481E-01    7.479E-01    7.476E-01    7.473E-01    7.471E-01    7.468E-01    7.465E-01
     7.463E-01    7.460E-01    7.457E-01    7.455E-01    7.452E-01    7.449E-01    7.447E-01    7.444E-01    7.441E-01    7.439E-01
     7.436E-01    7.433E-01    7.431E-01    7.428E-01    7.425E-01    7.423E-01    7.420E-01    7.417E-01    7.415E-01    7.412E-01
     7.409E-01    7.406E-01    7.404E-01    7.401E-01    7.398E-01    7.396E-01    7.393E-01    7.390E-01    7.388E-01    7.385E-01
     7.382E-01    7.380E-01    7.377E-01    7.374E-01    7.372E-01    7.369E-01    7.366E-01    7.364E-01
 Ala      Conc. = 5.03E+01
