 LCModel (Version 6.3-1L) Copyright: S.W. Provencher.          Ref.: Magn. Reson. Med. 30:672-679 (1993).                
 Slice#1 Row#10 Col#7  PD_05_press_1_raw_act
 36 lines in following concentration table = NCONC+1
    Conc.  %SD /Cr+PCr  Metabolite                                         
   93.531  73%   0.128 Ala                                                 
   52.412 265% 7.2E-02 Asp                                                 
  442.874  29%   0.605 Cr                                                  
  289.694  46%   0.395 PCr                                                 
   15.347 571% 2.1E-02 GABA                                                
   77.110 118%   0.105 Glc                                                 
  433.743  32%   0.592 Gln                                                 
 1.16E+03  14%   1.586 Glu                                                 
  246.460   6%   0.336 GPC                                                 
    0.000 999%   0.000 PCh                                                 
  211.702  24%   0.289 GSH                                                 
  969.543  17%   1.323 Ins                                                 
    0.000 999%   0.000 Lac                                                 
 1.52E+03   4%   2.073 NAA                                                 
  153.289  40%   0.209 NAAG                                                
   55.740  31% 7.6E-02 Scyllo                                              
   79.060 155%   0.108 Tau                                                 
   13.351 567% 1.8E-02 -CrCH2                                              
  246.460   6%   0.336 GPC+PCh                                             
 1.67E+03   4%   2.282 NAA+NAAG                                            
  732.567   5%   1.000 Cr+PCr                                              
 1.60E+03  13%   2.179 Glu+Gln                                             
  471.552  53%   0.644 Lip13a                                              
    0.000 999%   0.000 Lip13b                                              
    0.000 999%   0.000 Lip09                                               
 1.19E+03  12%   1.630 MM09                                                
   52.302 164% 7.1E-02 Lip20                                               
 2.66E+03  10%   3.635 MM20                                                
  420.610  28%   0.574 MM12                                                
 1.46E+03  19%   1.999 MM14                                                
  926.042  21%   1.264 MM17                                                
  471.552  53%   0.644 Lip13a+Lip13b                                       
 2.36E+03  11%   3.217 MM14+Lip13a+Lip13b+MM12                             
 1.19E+03  12%   1.630 MM09+Lip09                                          
 2.72E+03  10%   3.707 MM20+Lip20                                          
   6 lines in following misc. output table
  FWHM = 0.046 ppm    S/N =  13                                            
  Data shift = 0.015 ppm                                                   
  Ph:  -3 deg       4.6 deg/ppm                                            
  alphaB,S = 2.0E+00,   8.2E+01                                            
   14 spline knots.   Ns = 5(1)                                            
  ( 8) 4 infls.   ( 5) 1 extrs.                                            
  498 points on ppm-axis = NY
      4.000000     3.992357     3.984714     3.977070     3.969427     3.961784     3.954141     3.946497     3.938854     3.931211
      3.923568     3.915925     3.908281     3.900638     3.892995     3.885352     3.877708     3.870065     3.862422     3.854779
      3.847136     3.839492     3.831849     3.824206     3.816563     3.808919     3.801276     3.793633     3.785990     3.778347
      3.770703     3.763060     3.755417     3.747774     3.740130     3.732487     3.724844     3.717201     3.709558     3.701914
      3.694271     3.686628     3.678985     3.671341     3.663698     3.656055     3.648412     3.640769     3.633125     3.625482
      3.617839     3.610196     3.602552     3.594909     3.587266     3.579623     3.571980     3.564336     3.556693     3.549050
      3.541407     3.533763     3.526120     3.518477     3.510834     3.503191     3.495547     3.487904     3.480261     3.472618
      3.464974     3.457331     3.449688     3.442045     3.434402     3.426758     3.419115     3.411472     3.403829     3.396185
      3.388542     3.380899     3.373256     3.365613     3.357969     3.350326     3.342683     3.335040     3.327396     3.319753
      3.312110     3.304467     3.296824     3.289180     3.281537     3.273894     3.266251     3.258607     3.250964     3.243321
      3.235678     3.228034     3.220391     3.212748     3.205105     3.197462     3.189818     3.182175     3.174532     3.166889
      3.159245     3.151602     3.143959     3.136316     3.128673     3.121029     3.113386     3.105743     3.098100     3.090456
      3.082813     3.075170     3.067527     3.059884     3.052240     3.044597     3.036954     3.029311     3.021667     3.014024
      3.006381     2.998738     2.991095     2.983451     2.975808     2.968165     2.960522     2.952878     2.945235     2.937592
      2.929949     2.922306     2.914662     2.907019     2.899376     2.891733     2.884089     2.876446     2.868803     2.861160
      2.853517     2.845873     2.838230     2.830587     2.822944     2.815300     2.807657     2.800014     2.792371     2.784728
      2.777084     2.769441     2.761798     2.754155     2.746511     2.738868     2.731225     2.723582     2.715939     2.708295
      2.700652     2.693009     2.685366     2.677722     2.670079     2.662436     2.654793     2.647150     2.639506     2.631863
      2.624220     2.616577     2.608933     2.601290     2.593647     2.586004     2.578361     2.570717     2.563074     2.555431
      2.547788     2.540144     2.532501     2.524858     2.517215     2.509572     2.501928     2.494285     2.486642     2.478999
      2.471355     2.463712     2.456069     2.448426     2.440783     2.433139     2.425496     2.417853     2.410210     2.402566
      2.394923     2.387280     2.379637     2.371994     2.364350     2.356707     2.349064     2.341421     2.333777     2.326134
      2.318491     2.310848     2.303205     2.295561     2.287918     2.280275     2.272632     2.264988     2.257345     2.249702
      2.242059     2.234416     2.226772     2.219129     2.211486     2.203843     2.196199     2.188556     2.180913     2.173270
      2.165627     2.157983     2.150340     2.142697     2.135054     2.127410     2.119767     2.112124     2.104481     2.096838
      2.089194     2.081551     2.073908     2.066265     2.058621     2.050978     2.043335     2.035692     2.028049     2.020405
      2.012762     2.005119     1.997476     1.989833     1.982190     1.974546     1.966903     1.959260     1.951617     1.943974
      1.936331     1.928688     1.921045     1.913402     1.905759     1.898115     1.890472     1.882829     1.875186     1.867543
      1.859900     1.852257     1.844614     1.836971     1.829327     1.821684     1.814041     1.806398     1.798755     1.791112
      1.783469     1.775826     1.768183     1.760540     1.752896     1.745253     1.737610     1.729967     1.722324     1.714681
      1.707038     1.699395     1.691752     1.684108     1.676465     1.668822     1.661179     1.653536     1.645893     1.638250
      1.630607     1.622964     1.615321     1.607677     1.600034     1.592391     1.584748     1.577105     1.569462     1.561819
      1.554176     1.546533     1.538890     1.531246     1.523603     1.515960     1.508317     1.500674     1.493031     1.485388
      1.477745     1.470102     1.462458     1.454815     1.447172     1.439529     1.431886     1.424243     1.416600     1.408957
      1.401314     1.393671     1.386027     1.378384     1.370741     1.363098     1.355455     1.347812     1.340169     1.332526
      1.324883     1.317240     1.309596     1.301953     1.294310     1.286667     1.279024     1.271381     1.263738     1.256095
      1.248452     1.240808     1.233165     1.225522     1.217879     1.210236     1.202593     1.194950     1.187307     1.179664
      1.172021     1.164377     1.156734     1.149091     1.141448     1.133805     1.126162     1.118519     1.110876     1.103233
      1.095590     1.087946     1.080303     1.072660     1.065017     1.057374     1.049731     1.042088     1.034445     1.026802
      1.019158     1.011515     1.003872     0.996229     0.988586     0.980943     0.973300     0.965657     0.958014     0.950371
      0.942727     0.935084     0.927441     0.919798     0.912155     0.904512     0.896869     0.889226     0.881583     0.873940
      0.866296     0.858653     0.851010     0.843367     0.835724     0.828081     0.820438     0.812795     0.805152     0.797508
      0.789865     0.782222     0.774579     0.766936     0.759293     0.751650     0.744007     0.736364     0.728721     0.721077
      0.713434     0.705791     0.698148     0.690505     0.682862     0.675219     0.667576     0.659933     0.652290     0.644646
      0.637003     0.629360     0.621717     0.614074     0.606431     0.598788     0.591145     0.583502     0.575858     0.568215
      0.560572     0.552929     0.545286     0.537643     0.530000     0.522357     0.514714     0.507071     0.499427     0.491784
      0.484141     0.476498     0.468855     0.461212     0.453569     0.445925     0.438282     0.430639     0.422996     0.415353
      0.407710     0.400067     0.392424     0.384780     0.377137     0.369494     0.361851     0.354208     0.346565     0.338922
      0.331278     0.323635     0.315992     0.308349     0.300706     0.293063     0.285420     0.277777     0.270133     0.262490
      0.254847     0.247204     0.239561     0.231918     0.224275     0.216631     0.208988     0.201345
 NY phased data points follow
   5.22755E+00  7.82257E+00  5.95680E+00  8.08355E+00  7.18047E+00  1.00652E+01  8.54482E+00  1.13606E+01  1.69142E+01  2.16598E+01
   2.67829E+01  1.96054E+01  2.45568E+01  1.95017E+01  1.72729E+01  1.88605E+01  1.46381E+01  8.46663E+00  9.30969E+00  1.02859E+01
   1.04479E+01  1.18202E+01  8.06357E+00  1.47911E+01  9.22868E+00  8.99638E+00  1.02113E+01  1.22216E+01  5.26540E+00  1.10585E+01
   1.07575E+01  1.55161E+01  1.33900E+01  1.41982E+01  6.74836E+00  7.20969E+00  9.38905E+00  6.72610E+00  9.32597E+00  1.65875E+01
   1.01655E+01  9.61340E+00  5.99236E+00  5.69516E+00  9.83493E+00  9.12187E+00  1.19821E+01  1.63949E+01  1.35447E+01  1.85709E+01
   1.21111E+01  6.97429E+00  7.41047E+00  1.08038E+01  7.35257E+00  8.70728E+00  9.42113E+00  8.60012E+00  1.05589E+01  1.17086E+01
   9.82220E+00  8.55317E+00  8.13063E+00  5.94784E+00  3.42163E+00  4.32308E+00  4.34590E+00  1.96370E+00  6.32623E+00  4.34956E+00
   4.02937E+00  6.52739E+00  4.04471E+00  5.77432E+00  8.14446E+00  5.28151E+00  5.68204E+00  2.22691E+00  3.78773E+00  6.34550E+00
   4.11702E+00  2.87005E+00  1.86276E+00  2.17783E+00  8.58610E-01  7.60073E+00  9.10657E+00  5.34042E+00  6.28761E+00  4.05554E+00
   4.96125E+00  3.39903E+00  5.22073E+00  6.73995E+00  3.84468E+00  5.12446E+00  3.70811E+00  4.40387E+00  5.72326E+00  8.37687E+00
   1.22514E+01  2.26981E+01  3.07286E+01  2.71314E+01  2.84556E+01  2.17464E+01  1.89571E+01  1.53969E+01  8.12421E+00  1.07646E+01
   9.01719E+00  6.40961E+00  3.47864E+00  6.75254E+00  4.65367E+00  6.67292E+00  7.09301E+00  7.02020E+00  6.14242E+00  4.43503E+00
   8.46577E+00  1.30158E+00  2.05427E+00  6.40631E+00  1.14356E+01  1.87762E+01  3.24724E+01  3.39232E+01  3.37997E+01  2.61778E+01
   1.97665E+01  2.22206E+01  1.51374E+01  1.24799E+01  7.66876E+00  6.53389E+00  2.84341E+00  7.18071E+00  9.44938E+00  4.46662E+00
   3.27391E+00  3.61186E+00  1.55187E+00  4.60969E+00  1.28457E+00  2.03737E+00  5.89122E+00  7.15035E-01  1.19997E+00 -5.99826E-02
   3.15353E+00 -3.95773E-01 -3.17010E-01 -7.26863E-01  2.23572E+00  2.36614E+00  9.29982E-01  2.62832E+00  2.72805E+00  1.64380E+00
   2.42956E-01  8.02465E-01  1.73352E+00 -2.26581E+00  3.70405E+00  3.74973E+00  1.81799E+00 -2.27886E+00 -6.85694E+00 -3.27746E+00
  -3.70803E+00 -1.99907E+00 -5.72599E+00 -4.53149E+00 -7.21071E+00 -1.08879E+01 -8.35287E+00 -1.19291E+01 -7.31558E+00 -7.53059E+00
  -7.48003E+00 -4.69689E+00 -8.10658E+00 -4.57305E+00 -3.14135E+00 -3.85562E+00 -2.94675E-01  2.45719E+00 -1.98020E+00 -2.78210E+00
   9.97286E-01 -1.34911E+00  5.61311E-01  2.65752E-01 -3.89617E-01  2.08710E+00 -3.19571E+00 -4.30525E-01 -1.71319E+00 -4.74097E+00
  -2.76244E+00 -2.34416E+00  1.05584E+00  4.80490E+00  4.74544E+00  2.85453E+00  3.15076E+00  2.52449E+00 -1.20982E+00  6.36645E-01
  -6.08729E+00  4.57505E-01 -9.84455E-01  3.78407E+00  9.08430E+00  1.20713E+01  9.57436E+00  1.34324E+01  3.47897E+00  2.53276E+00
  -3.15909E+00 -3.57059E+00 -3.60585E+00  8.06034E-02  1.96880E-01  7.23663E+00  5.54874E+00  4.93662E+00  8.29736E+00  8.47411E+00
   7.06546E+00  6.96753E+00  9.13109E+00  6.94605E+00  9.47596E+00  1.20717E+01  8.35971E+00  6.53630E+00  6.56274E+00  7.78458E+00
   1.11205E+01  4.51149E+00  6.59022E+00  3.94163E+00  2.76436E+00  5.42651E+00  1.19177E+01  1.11785E+01  1.28836E+01  1.24865E+01
   1.44381E+01  1.47729E+01  1.62851E+01  1.51594E+01  2.13639E+01  1.99803E+01  1.97461E+01  2.76174E+01  4.73993E+01  7.11298E+01
   7.89841E+01  7.15840E+01  5.18566E+01  4.36742E+01  3.57127E+01  2.62991E+01  2.06878E+01  8.20121E+00  8.34379E+00  9.17837E+00
   1.90145E+00  6.45081E+00  4.99259E+00  6.67767E+00  2.86234E+00  2.48029E+00  3.34816E+00  2.32135E-01  1.41492E-01  3.34856E+00
  -9.69235E-01  5.46752E+00  3.86612E+00  5.10451E+00 -1.29774E+00  1.07646E+00  1.69029E+00  4.01756E+00  4.32167E+00  2.13038E+00
   1.58534E+00  2.12892E+00  7.19610E+00  3.47849E+00  4.47688E+00  5.34658E+00  4.75622E-01  3.95254E+00  2.11160E+00  6.02887E+00
   4.72647E+00  3.05845E+00  3.83841E+00  3.15353E+00  6.17644E+00  3.59822E+00  8.36191E+00  6.48219E+00  6.60758E+00  7.77142E+00
   5.91394E+00  3.25577E+00  4.69203E+00  1.35165E+01  6.50242E+00  6.31973E+00  7.67834E+00  6.21530E+00  8.77880E+00  8.37804E+00
   5.42411E+00  6.66837E+00  3.88948E+00  5.63511E+00  2.76386E+00  9.00198E+00  7.76349E+00  4.25103E+00  3.09611E+00  4.19159E+00
   5.67999E+00  5.70731E+00  7.33877E+00  3.33893E+00  8.05260E+00  1.05307E+01  8.22576E+00  9.00429E+00  6.81300E+00  1.04363E+01
   5.38679E+00  6.63985E+00  3.35745E+00  5.56230E+00  6.74491E+00  5.81171E+00  9.09349E+00  9.86181E+00  7.24203E+00  1.21580E+01
   6.78135E+00  6.65663E+00  7.02016E+00  6.90233E+00  1.02813E+01  5.81291E+00  3.03858E+00  8.49423E-01  7.35398E-01  6.05957E+00
  -5.58342E-01  1.63535E+00  2.64891E+00  1.10687E+00  5.74386E+00  8.27632E+00  3.91938E+00  9.43065E+00  4.76052E+00  6.22701E+00
   4.26164E+00  5.39630E+00  3.96298E+00  4.72057E+00  4.08477E+00  4.70893E+00  4.48142E+00  1.81367E+00  1.27670E+00  9.70101E-01
   4.13700E-01 -5.73340E-01 -7.88943E-01  5.73289E-01 -4.00113E-01  2.93025E+00 -1.73004E+00  3.33927E-01 -1.63541E+00  2.81484E+00
   4.81539E-01  3.95435E-01  5.99289E+00  4.93577E+00  1.68500E+00  3.72339E+00  3.87843E+00  7.38679E+00  5.40286E+00  6.43694E+00
   2.28560E+00  4.69299E+00  1.14250E+01  7.10921E+00  5.91794E+00  4.53113E+00  1.06058E+01  7.58996E+00  8.66466E+00  6.80655E+00
   5.61907E+00  5.80477E+00  9.04270E+00  4.35576E+00  8.72565E+00  4.74554E+00  5.43256E+00  2.71892E+00  5.95499E+00  3.65330E+00
   2.52391E+00  3.82319E+00 -2.84452E+00 -7.60233E-02 -2.07402E+00 -8.90722E-02  3.73142E+00  2.32521E-01  1.15386E+00  3.64681E-02
   5.42840E-01  9.14461E-01  3.79721E+00 -2.53360E-01 -4.02753E-01  2.82954E-01 -2.14197E+00 -3.12986E+00  3.16451E-01 -2.27961E+00
  -2.12775E+00 -3.85467E+00 -2.41685E+00  2.44425E+00 -1.30669E+00 -1.49042E+00 -2.89799E+00 -3.89823E+00 -3.43403E+00 -6.63013E-02
   7.06053E-01 -5.18836E+00 -1.95556E+00 -1.35850E+00  4.19375E-01  3.76807E+00 -1.07873E+00 -1.53760E+00 -7.76648E-01 -1.15931E-01
   3.53338E+00  2.41338E-01  2.66163E+00  2.47666E+00  1.42086E+00 -3.89473E+00  2.20319E+00 -1.35426E+00 -1.36875E+00 -4.19418E+00
  -1.06970E+00 -5.41107E-01 -1.76704E-01 -3.93019E+00 -4.62811E+00  4.43128E-01 -2.29479E+00 -1.81188E+00  8.99514E-01 -8.14068E-01
   2.42066E+00  1.01753E+00 -1.22543E+00 -2.97436E+00  3.19960E-01 -1.26951E-01 -6.36212E-01 -5.75513E-01 -4.19653E+00  1.39706E+00
  -1.03366E+00 -3.30954E+00 -2.25595E+00 -2.19736E+00  3.19448E+00  2.34353E+00  1.39975E+00  1.60714E+00
 NY points of the fit to the data follow
   7.73346E+00  7.29407E+00  6.98554E+00  6.91377E+00  7.18000E+00  7.94604E+00  9.60754E+00  1.24643E+01  1.64188E+01  2.06683E+01
   2.38555E+01  2.48053E+01  2.34519E+01  2.07418E+01  1.78047E+01  1.51370E+01  1.27538E+01  1.07241E+01  9.05202E+00  8.33815E+00
   8.23008E+00  8.26338E+00  8.31443E+00  8.26540E+00  7.92988E+00  7.35907E+00  7.09764E+00  7.71959E+00  9.22866E+00  1.10991E+01
   1.27566E+01  1.38477E+01  1.42104E+01  1.36296E+01  1.21081E+01  1.00045E+01  8.17241E+00  7.16485E+00  6.57827E+00  6.24009E+00
   6.16902E+00  6.34712E+00  6.72851E+00  7.39844E+00  8.75347E+00  1.09292E+01  1.33464E+01  1.49083E+01  1.47752E+01  1.31714E+01
   1.10702E+01  9.21076E+00  7.68719E+00  6.39038E+00  5.40012E+00  4.97566E+00  5.18148E+00  5.89467E+00  6.90493E+00  7.86982E+00
   8.37423E+00  8.19400E+00  7.47547E+00  6.58082E+00  5.82640E+00  5.31236E+00  5.04792E+00  5.04746E+00  5.24961E+00  5.65003E+00
   6.18235E+00  6.69038E+00  7.03152E+00  7.13513E+00  7.03018E+00  6.78269E+00  6.43210E+00  6.02042E+00  5.59144E+00  5.28039E+00
   5.12398E+00  5.06480E+00  5.18969E+00  5.66089E+00  6.37322E+00  6.84792E+00  6.59023E+00  5.60967E+00  4.44021E+00  3.65159E+00
   3.35559E+00  3.28789E+00  3.23451E+00  3.28083E+00  3.60465E+00  3.93644E+00  4.04290E+00  4.06246E+00  4.74548E+00  7.69196E+00
   1.40480E+01  2.24125E+01  2.90009E+01  3.07305E+01  2.78212E+01  2.29593E+01  1.85480E+01  1.48813E+01  1.11765E+01  7.35014E+00
   4.89917E+00  4.17610E+00  3.94661E+00  3.85152E+00  3.80709E+00  3.78886E+00  3.76692E+00  3.73049E+00  3.70034E+00  3.71894E+00
   3.83659E+00  4.13554E+00  4.96178E+00  7.44310E+00  1.30958E+01  2.16236E+01  2.98239E+01  3.37874E+01  3.23812E+01  2.77950E+01
   2.30500E+01  1.91721E+01  1.52888E+01  1.07097E+01  6.55775E+00  4.53752E+00  3.75204E+00  3.55418E+00  3.69599E+00  3.96707E+00
   4.22673E+00  4.36638E+00  4.32904E+00  4.18232E+00  3.97563E+00  3.70356E+00  3.40399E+00  3.09439E+00  2.82313E+00  2.59141E+00
   2.36089E+00  2.12545E+00  1.90965E+00  1.76268E+00  1.71411E+00  1.74930E+00  1.78745E+00  1.65775E+00  1.21440E+00  5.24877E-01
  -8.37960E-02 -2.42244E-01  1.33063E-01  7.10278E-01  9.98291E-01  8.08440E-01  3.51707E-01 -5.77965E-02 -3.42169E-01 -5.95483E-01
  -8.52244E-01 -1.17534E+00 -1.56694E+00 -2.07747E+00 -2.64542E+00 -2.91138E+00 -2.68055E+00 -2.21244E+00 -1.97107E+00 -2.13620E+00
  -2.40261E+00 -2.37396E+00 -2.05854E+00 -1.86072E+00 -2.07109E+00 -2.26324E+00 -1.88721E+00 -7.64278E-01  7.03737E-01  1.89579E+00
   2.53029E+00  2.62839E+00  2.38707E+00  2.00695E+00  1.53426E+00  1.02474E+00  7.02098E-01  6.50404E-01  9.41610E-01  1.60525E+00
   2.58459E+00  3.77306E+00  4.97109E+00  5.76329E+00  5.76975E+00  4.78749E+00  2.88623E+00  4.80095E-01 -1.74292E+00 -3.13623E+00
  -3.42464E+00 -2.46160E+00 -1.89008E-01  3.10202E+00  6.43342E+00  8.51799E+00  8.61404E+00  6.77605E+00  3.85363E+00  5.09106E-01
  -2.79519E+00 -5.06800E+00 -5.29223E+00 -3.32701E+00 -4.20723E-01  2.21902E+00  4.25598E+00  5.74481E+00  6.62210E+00  6.70250E+00
   6.22996E+00  5.83606E+00  5.81706E+00  6.00935E+00  6.38094E+00  6.95643E+00  7.64048E+00  8.20369E+00  8.36117E+00  8.03577E+00
   7.44858E+00  6.98577E+00  7.00815E+00  7.54575E+00  8.44944E+00  9.36405E+00  1.00125E+01  1.03586E+01  1.05380E+01  1.07141E+01
   1.09895E+01  1.17960E+01  1.34341E+01  1.56424E+01  1.76644E+01  1.93711E+01  2.31382E+01  3.33283E+01  5.04476E+01  6.75464E+01
   7.51780E+01  7.02660E+01  5.79398E+01  4.57773E+01  3.63514E+01  2.77498E+01  1.83284E+01  1.01751E+01  7.04559E+00  5.90106E+00
   5.20561E+00  4.84709E+00  4.70340E+00  4.59564E+00  4.45064E+00  4.22663E+00  3.94821E+00  3.64785E+00  3.33457E+00  3.00848E+00
   2.71487E+00  2.50156E+00  2.36219E+00  2.26182E+00  2.17944E+00  2.11609E+00  2.07603E+00  2.05516E+00  2.05368E+00  2.09105E+00
   2.17826E+00  2.30761E+00  2.46583E+00  2.64818E+00  2.85418E+00  3.08132E+00  3.32600E+00  3.58576E+00  3.86139E+00  4.15604E+00
   4.46531E+00  4.77834E+00  5.08338E+00  5.37061E+00  5.63256E+00  5.86276E+00  6.05500E+00  6.20724E+00  6.31725E+00  6.38381E+00
   6.40917E+00  6.39762E+00  6.35437E+00  6.28558E+00  6.19811E+00  6.10009E+00  6.00108E+00  5.91133E+00  5.84092E+00  5.79982E+00
   5.79993E+00  5.86088E+00  6.01945E+00  6.30239E+00  6.62858E+00  6.79197E+00  6.62351E+00  6.17159E+00  5.65983E+00  5.27910E+00
   5.06240E+00  5.00704E+00  5.21527E+00  5.79158E+00  6.64980E+00  7.42997E+00  7.88407E+00  8.05847E+00  8.10065E+00  8.08644E+00
   7.98936E+00  7.76980E+00  7.52067E+00  7.32691E+00  7.15590E+00  6.99064E+00  6.82644E+00  6.66202E+00  6.49750E+00  6.33396E+00
   6.17292E+00  6.01557E+00  5.86218E+00  5.71224E+00  5.56505E+00  5.42011E+00  5.27691E+00  5.13445E+00  4.99114E+00  4.84526E+00
   4.69562E+00  4.54172E+00  4.38332E+00  4.22003E+00  4.05147E+00  3.87769E+00  3.69960E+00  3.51876E+00  3.33679E+00  3.15510E+00
   2.97512E+00  2.79873E+00  2.62835E+00  2.46654E+00  2.31547E+00  2.17688E+00  2.05248E+00  1.94432E+00  1.85469E+00  1.78569E+00
   1.73888E+00  1.71558E+00  1.71725E+00  1.74579E+00  1.80316E+00  1.89096E+00  2.01026E+00  2.16194E+00  2.34696E+00  2.56618E+00
   2.81988E+00  3.10725E+00  3.42634E+00  3.77435E+00  4.14776E+00  4.54197E+00  4.95092E+00  5.36693E+00  5.78112E+00  6.18405E+00
   6.56598E+00  6.91695E+00  7.22682E+00  7.48578E+00  7.68523E+00  7.81840E+00  7.88062E+00  7.86918E+00  7.78331E+00  7.62444E+00
   7.39647E+00  7.10567E+00  6.76004E+00  6.36859E+00  5.94087E+00  5.48682E+00  5.01667E+00  4.54038E+00  4.06698E+00  3.60404E+00
   3.15774E+00  2.73312E+00  2.33417E+00  1.96374E+00  1.62324E+00  1.31277E+00  1.03159E+00  7.78589E-01  5.52454E-01  3.51467E-01
   1.73428E-01  1.58601E-02 -1.23549E-01 -2.46715E-01 -3.55284E-01 -4.50946E-01 -5.35511E-01 -6.10676E-01 -6.77715E-01 -7.37477E-01
  -7.90672E-01 -8.38168E-01 -8.80936E-01 -9.19770E-01 -9.55070E-01 -9.87005E-01 -1.01582E+00 -1.04203E+00 -1.06617E+00 -1.08855E+00
  -1.10916E+00 -1.12795E+00 -1.14507E+00 -1.16091E+00 -1.17579E+00 -1.18975E+00 -1.20263E+00 -1.21436E+00 -1.22514E+00 -1.23532E+00
  -1.24503E+00 -1.25416E+00 -1.26250E+00 -1.27007E+00 -1.27712E+00 -1.28391E+00 -1.29044E+00 -1.29650E+00 -1.30194E+00 -1.30688E+00
  -1.31158E+00 -1.31620E+00 -1.32061E+00 -1.32457E+00 -1.32803E+00 -1.33120E+00 -1.33431E+00 -1.33740E+00 -1.34025E+00 -1.34268E+00
  -1.34474E+00 -1.34668E+00 -1.34866E+00 -1.35059E+00 -1.35223E+00 -1.35347E+00 -1.35448E+00 -1.35549E+00 -1.35656E+00 -1.35749E+00
  -1.35807E+00 -1.35831E+00 -1.35844E+00 -1.35863E+00 -1.35880E+00 -1.35873E+00 -1.35826E+00 -1.35750E+00
 NY background values follow
     5.474E+00    5.443E+00    5.413E+00    5.383E+00    5.352E+00    5.322E+00    5.291E+00    5.261E+00    5.230E+00    5.200E+00
     5.169E+00    5.139E+00    5.108E+00    5.078E+00    5.047E+00    5.017E+00    4.986E+00    4.956E+00    4.925E+00    4.894E+00
     4.864E+00    4.833E+00    4.803E+00    4.772E+00    4.742E+00    4.711E+00    4.681E+00    4.650E+00    4.620E+00    4.589E+00
     4.559E+00    4.528E+00    4.498E+00    4.467E+00    4.437E+00    4.406E+00    4.376E+00    4.345E+00    4.315E+00    4.284E+00
     4.254E+00    4.224E+00    4.193E+00    4.163E+00    4.132E+00    4.102E+00    4.071E+00    4.041E+00    4.011E+00    3.980E+00
     3.950E+00    3.919E+00    3.889E+00    3.859E+00    3.828E+00    3.798E+00    3.768E+00    3.738E+00    3.707E+00    3.677E+00
     3.647E+00    3.617E+00    3.586E+00    3.556E+00    3.526E+00    3.496E+00    3.466E+00    3.436E+00    3.406E+00    3.376E+00
     3.346E+00    3.316E+00    3.286E+00    3.256E+00    3.227E+00    3.197E+00    3.167E+00    3.137E+00    3.108E+00    3.078E+00
     3.049E+00    3.019E+00    2.989E+00    2.960E+00    2.931E+00    2.901E+00    2.872E+00    2.843E+00    2.813E+00    2.784E+00
     2.755E+00    2.726E+00    2.697E+00    2.668E+00    2.639E+00    2.610E+00    2.582E+00    2.553E+00    2.524E+00    2.495E+00
     2.467E+00    2.438E+00    2.410E+00    2.382E+00    2.353E+00    2.325E+00    2.297E+00    2.269E+00    2.241E+00    2.213E+00
     2.185E+00    2.157E+00    2.129E+00    2.102E+00    2.074E+00    2.047E+00    2.019E+00    1.992E+00    1.964E+00    1.937E+00
     1.910E+00    1.883E+00    1.856E+00    1.829E+00    1.802E+00    1.776E+00    1.749E+00    1.723E+00    1.696E+00    1.670E+00
     1.644E+00    1.617E+00    1.591E+00    1.565E+00    1.540E+00    1.514E+00    1.488E+00    1.463E+00    1.437E+00    1.412E+00
     1.386E+00    1.361E+00    1.336E+00    1.311E+00    1.286E+00    1.262E+00    1.237E+00    1.213E+00    1.188E+00    1.164E+00
     1.140E+00    1.116E+00    1.092E+00    1.068E+00    1.044E+00    1.021E+00    9.973E-01    9.740E-01    9.508E-01    9.277E-01
     9.048E-01    8.820E-01    8.594E-01    8.368E-01    8.144E-01    7.922E-01    7.700E-01    7.481E-01    7.262E-01    7.045E-01
     6.830E-01    6.615E-01    6.403E-01    6.192E-01    5.982E-01    5.773E-01    5.567E-01    5.361E-01    5.158E-01    4.956E-01
     4.755E-01    4.556E-01    4.358E-01    4.162E-01    3.968E-01    3.775E-01    3.584E-01    3.394E-01    3.206E-01    3.019E-01
     2.834E-01    2.650E-01    2.468E-01    2.287E-01    2.107E-01    1.929E-01    1.753E-01    1.578E-01    1.404E-01    1.232E-01
     1.061E-01    8.912E-02    7.229E-02    5.560E-02    3.905E-02    2.263E-02    6.341E-03   -9.817E-03   -2.585E-02   -4.174E-02
    -5.752E-02   -7.316E-02   -8.868E-02   -1.041E-01   -1.193E-01   -1.345E-01   -1.495E-01   -1.644E-01   -1.792E-01   -1.939E-01
    -2.085E-01   -2.229E-01   -2.372E-01   -2.514E-01   -2.655E-01   -2.795E-01   -2.934E-01   -3.071E-01   -3.208E-01   -3.344E-01
    -3.478E-01   -3.611E-01   -3.743E-01   -3.875E-01   -4.005E-01   -4.134E-01   -4.262E-01   -4.389E-01   -4.515E-01   -4.639E-01
    -4.763E-01   -4.886E-01   -5.008E-01   -5.128E-01   -5.248E-01   -5.367E-01   -5.484E-01   -5.601E-01   -5.716E-01   -5.831E-01
    -5.945E-01   -6.057E-01   -6.169E-01   -6.279E-01   -6.389E-01   -6.498E-01   -6.605E-01   -6.712E-01   -6.818E-01   -6.923E-01
    -7.026E-01   -7.129E-01   -7.231E-01   -7.332E-01   -7.432E-01   -7.531E-01   -7.629E-01   -7.726E-01   -7.823E-01   -7.918E-01
    -8.012E-01   -8.106E-01   -8.199E-01   -8.290E-01   -8.381E-01   -8.471E-01   -8.560E-01   -8.648E-01   -8.735E-01   -8.822E-01
    -8.907E-01   -8.992E-01   -9.075E-01   -9.158E-01   -9.240E-01   -9.321E-01   -9.402E-01   -9.481E-01   -9.560E-01   -9.638E-01
    -9.715E-01   -9.791E-01   -9.866E-01   -9.941E-01   -1.001E+00   -1.009E+00   -1.016E+00   -1.023E+00   -1.030E+00   -1.037E+00
    -1.044E+00   -1.051E+00   -1.058E+00   -1.064E+00   -1.071E+00   -1.077E+00   -1.084E+00   -1.090E+00   -1.096E+00   -1.103E+00
    -1.109E+00   -1.115E+00   -1.121E+00   -1.127E+00   -1.133E+00   -1.138E+00   -1.144E+00   -1.150E+00   -1.155E+00   -1.161E+00
    -1.166E+00   -1.172E+00   -1.177E+00   -1.182E+00   -1.187E+00   -1.192E+00   -1.197E+00   -1.202E+00   -1.207E+00   -1.212E+00
    -1.217E+00   -1.222E+00   -1.226E+00   -1.231E+00   -1.235E+00   -1.240E+00   -1.244E+00   -1.248E+00   -1.253E+00   -1.257E+00
    -1.261E+00   -1.265E+00   -1.269E+00   -1.273E+00   -1.277E+00   -1.281E+00   -1.284E+00   -1.288E+00   -1.292E+00   -1.295E+00
    -1.299E+00   -1.302E+00   -1.305E+00   -1.309E+00   -1.312E+00   -1.315E+00   -1.318E+00   -1.321E+00   -1.325E+00   -1.327E+00
    -1.330E+00   -1.333E+00   -1.336E+00   -1.339E+00   -1.341E+00   -1.344E+00   -1.347E+00   -1.349E+00   -1.352E+00   -1.354E+00
    -1.356E+00   -1.359E+00   -1.361E+00   -1.363E+00   -1.365E+00   -1.367E+00   -1.369E+00   -1.371E+00   -1.373E+00   -1.375E+00
    -1.377E+00   -1.378E+00   -1.380E+00   -1.382E+00   -1.383E+00   -1.385E+00   -1.386E+00   -1.388E+00   -1.389E+00   -1.390E+00
    -1.392E+00   -1.393E+00   -1.394E+00   -1.395E+00   -1.396E+00   -1.397E+00   -1.398E+00   -1.399E+00   -1.400E+00   -1.400E+00
    -1.401E+00   -1.402E+00   -1.402E+00   -1.403E+00   -1.404E+00   -1.404E+00   -1.404E+00   -1.405E+00   -1.405E+00   -1.405E+00
    -1.406E+00   -1.406E+00   -1.406E+00   -1.406E+00   -1.406E+00   -1.406E+00   -1.406E+00   -1.406E+00   -1.406E+00   -1.405E+00
    -1.405E+00   -1.405E+00   -1.405E+00   -1.404E+00   -1.404E+00   -1.403E+00   -1.403E+00   -1.402E+00   -1.402E+00   -1.401E+00
    -1.401E+00   -1.400E+00   -1.399E+00   -1.399E+00   -1.398E+00   -1.397E+00   -1.396E+00   -1.395E+00   -1.395E+00   -1.394E+00
    -1.393E+00   -1.392E+00   -1.391E+00   -1.390E+00   -1.389E+00   -1.388E+00   -1.387E+00   -1.385E+00   -1.384E+00   -1.383E+00
    -1.382E+00   -1.381E+00   -1.379E+00   -1.378E+00   -1.377E+00   -1.376E+00   -1.374E+00   -1.373E+00   -1.372E+00   -1.370E+00
    -1.369E+00   -1.368E+00   -1.366E+00   -1.365E+00   -1.363E+00   -1.362E+00   -1.360E+00   -1.359E+00   -1.358E+00   -1.356E+00
    -1.355E+00   -1.353E+00   -1.352E+00   -1.350E+00   -1.348E+00   -1.347E+00   -1.345E+00   -1.344E+00   -1.342E+00   -1.341E+00
    -1.339E+00   -1.337E+00   -1.336E+00   -1.334E+00   -1.333E+00   -1.331E+00   -1.329E+00   -1.328E+00   -1.326E+00   -1.325E+00
    -1.323E+00   -1.321E+00   -1.320E+00   -1.318E+00   -1.317E+00   -1.315E+00   -1.313E+00   -1.312E+00
 Ala      Conc. = 9.35E+01
