 LCModel (Version 6.3-1L) Copyright: S.W. Provencher.          Ref.: Magn. Reson. Med. 30:672-679 (1993).                
 Slice#2 Row#3 Col#10  PD_05_press_1_raw_act
 36 lines in following concentration table = NCONC+1
    Conc.  %SD /Cr+PCr  Metabolite                                         
  647.272  40%   0.425 Ala                                                 
    0.000 999%   0.000 Asp                                                 
    0.000 999%   0.000 Cr                                                  
 1.52E+03   3%   1.000 PCr                                                 
  384.351  48%   0.252 GABA                                                
    0.000 999%   0.000 Glc                                                 
 3.65E+03  13%   2.391 Gln                                                 
 3.74E+03  15%   2.451 Glu                                                 
  549.326   3%   0.360 GPC                                                 
    0.000 999%   0.000 PCh                                                 
  510.491  17%   0.335 GSH                                                 
 1.75E+03  12%   1.149 Ins                                                 
    0.000 999%   0.000 Lac                                                 
 2.16E+03   7%   1.416 NAA                                                 
  148.680 113% 9.8E-02 NAAG                                                
  133.652  17% 8.8E-02 Scyllo                                              
    0.000 999%   0.000 Tau                                                 
    0.000 999%   0.000 -CrCH2                                              
  549.326   3%   0.360 GPC+PCh                                             
 2.31E+03   4%   1.514 NAA+NAAG                                            
 1.52E+03   3%   1.000 Cr+PCr                                              
 7.38E+03  13%   4.842 Glu+Gln                                             
   55.801 999% 3.7E-02 Lip13a                                              
  574.851 138%   0.377 Lip13b                                              
    6.933 999% 4.5E-03 Lip09                                               
  789.523  21%   0.518 MM09                                                
  182.181  52%   0.120 Lip20                                               
 1.62E+03  16%   1.061 MM20                                                
  242.375  44%   0.159 MM12                                                
 1.28E+03  18%   0.839 MM14                                                
  768.418  22%   0.504 MM17                                                
  630.652  48%   0.414 Lip13a+Lip13b                                       
 2.15E+03  11%   1.411 MM14+Lip13a+Lip13b+MM12                             
  796.456  12%   0.522 MM09+Lip09                                          
 1.80E+03  14%   1.181 MM20+Lip20                                          
   6 lines in following misc. output table
  FWHM = 0.107 ppm    S/N =  11                                            
  Data shift = 0.061 ppm                                                   
  Ph: -14 deg     -13.3 deg/ppm                                            
  alphaB,S = 8.5E+01,   3.2E+02                                            
   14 spline knots.   Ns = 7(2)                                            
   2 inflections.     1 extrema                                            
  498 points on ppm-axis = NY
      4.000000     3.992357     3.984714     3.977070     3.969427     3.961784     3.954141     3.946497     3.938854     3.931211
      3.923568     3.915925     3.908281     3.900638     3.892995     3.885352     3.877708     3.870065     3.862422     3.854779
      3.847136     3.839492     3.831849     3.824206     3.816563     3.808919     3.801276     3.793633     3.785990     3.778347
      3.770703     3.763060     3.755417     3.747774     3.740130     3.732487     3.724844     3.717201     3.709558     3.701914
      3.694271     3.686628     3.678985     3.671341     3.663698     3.656055     3.648412     3.640769     3.633125     3.625482
      3.617839     3.610196     3.602552     3.594909     3.587266     3.579623     3.571980     3.564336     3.556693     3.549050
      3.541407     3.533763     3.526120     3.518477     3.510834     3.503191     3.495547     3.487904     3.480261     3.472618
      3.464974     3.457331     3.449688     3.442045     3.434402     3.426758     3.419115     3.411472     3.403829     3.396185
      3.388542     3.380899     3.373256     3.365613     3.357969     3.350326     3.342683     3.335040     3.327396     3.319753
      3.312110     3.304467     3.296824     3.289180     3.281537     3.273894     3.266251     3.258607     3.250964     3.243321
      3.235678     3.228034     3.220391     3.212748     3.205105     3.197462     3.189818     3.182175     3.174532     3.166889
      3.159245     3.151602     3.143959     3.136316     3.128673     3.121029     3.113386     3.105743     3.098100     3.090456
      3.082813     3.075170     3.067527     3.059884     3.052240     3.044597     3.036954     3.029311     3.021667     3.014024
      3.006381     2.998738     2.991095     2.983451     2.975808     2.968165     2.960522     2.952878     2.945235     2.937592
      2.929949     2.922306     2.914662     2.907019     2.899376     2.891733     2.884089     2.876446     2.868803     2.861160
      2.853517     2.845873     2.838230     2.830587     2.822944     2.815300     2.807657     2.800014     2.792371     2.784728
      2.777084     2.769441     2.761798     2.754155     2.746511     2.738868     2.731225     2.723582     2.715939     2.708295
      2.700652     2.693009     2.685366     2.677722     2.670079     2.662436     2.654793     2.647150     2.639506     2.631863
      2.624220     2.616577     2.608933     2.601290     2.593647     2.586004     2.578361     2.570717     2.563074     2.555431
      2.547788     2.540144     2.532501     2.524858     2.517215     2.509572     2.501928     2.494285     2.486642     2.478999
      2.471355     2.463712     2.456069     2.448426     2.440783     2.433139     2.425496     2.417853     2.410210     2.402566
      2.394923     2.387280     2.379637     2.371994     2.364350     2.356707     2.349064     2.341421     2.333777     2.326134
      2.318491     2.310848     2.303205     2.295561     2.287918     2.280275     2.272632     2.264988     2.257345     2.249702
      2.242059     2.234416     2.226772     2.219129     2.211486     2.203843     2.196199     2.188556     2.180913     2.173270
      2.165627     2.157983     2.150340     2.142697     2.135054     2.127410     2.119767     2.112124     2.104481     2.096838
      2.089194     2.081551     2.073908     2.066265     2.058621     2.050978     2.043335     2.035692     2.028049     2.020405
      2.012762     2.005119     1.997476     1.989833     1.982190     1.974546     1.966903     1.959260     1.951617     1.943974
      1.936331     1.928688     1.921045     1.913402     1.905759     1.898115     1.890472     1.882829     1.875186     1.867543
      1.859900     1.852257     1.844614     1.836971     1.829327     1.821684     1.814041     1.806398     1.798755     1.791112
      1.783469     1.775826     1.768183     1.760540     1.752896     1.745253     1.737610     1.729967     1.722324     1.714681
      1.707038     1.699395     1.691752     1.684108     1.676465     1.668822     1.661179     1.653536     1.645893     1.638250
      1.630607     1.622964     1.615321     1.607677     1.600034     1.592391     1.584748     1.577105     1.569462     1.561819
      1.554176     1.546533     1.538890     1.531246     1.523603     1.515960     1.508317     1.500674     1.493031     1.485388
      1.477745     1.470102     1.462458     1.454815     1.447172     1.439529     1.431886     1.424243     1.416600     1.408957
      1.401314     1.393671     1.386027     1.378384     1.370741     1.363098     1.355455     1.347812     1.340169     1.332526
      1.324883     1.317240     1.309596     1.301953     1.294310     1.286667     1.279024     1.271381     1.263738     1.256095
      1.248452     1.240808     1.233165     1.225522     1.217879     1.210236     1.202593     1.194950     1.187307     1.179664
      1.172021     1.164377     1.156734     1.149091     1.141448     1.133805     1.126162     1.118519     1.110876     1.103233
      1.095590     1.087946     1.080303     1.072660     1.065017     1.057374     1.049731     1.042088     1.034445     1.026802
      1.019158     1.011515     1.003872     0.996229     0.988586     0.980943     0.973300     0.965657     0.958014     0.950371
      0.942727     0.935084     0.927441     0.919798     0.912155     0.904512     0.896869     0.889226     0.881583     0.873940
      0.866296     0.858653     0.851010     0.843367     0.835724     0.828081     0.820438     0.812795     0.805152     0.797508
      0.789865     0.782222     0.774579     0.766936     0.759293     0.751650     0.744007     0.736364     0.728721     0.721077
      0.713434     0.705791     0.698148     0.690505     0.682862     0.675219     0.667576     0.659933     0.652290     0.644646
      0.637003     0.629360     0.621717     0.614074     0.606431     0.598788     0.591145     0.583502     0.575858     0.568215
      0.560572     0.552929     0.545286     0.537643     0.530000     0.522357     0.514714     0.507071     0.499427     0.491784
      0.484141     0.476498     0.468855     0.461212     0.453569     0.445925     0.438282     0.430639     0.422996     0.415353
      0.407710     0.400067     0.392424     0.384780     0.377137     0.369494     0.361851     0.354208     0.346565     0.338922
      0.331278     0.323635     0.315992     0.308349     0.300706     0.293063     0.285420     0.277777     0.270133     0.262490
      0.254847     0.247204     0.239561     0.231918     0.224275     0.216631     0.208988     0.201345
 NY phased data points follow
   1.56135E+01  1.53854E+01  1.84214E+01  1.86767E+01  2.15302E+01  2.64421E+01  2.40505E+01  2.46627E+01  2.59726E+01  2.67629E+01
   2.61464E+01  2.65427E+01  2.37375E+01  2.22710E+01  2.00396E+01  1.87249E+01  1.43258E+01  1.56377E+01  1.47747E+01  1.27298E+01
   1.23362E+01  1.45613E+01  1.57706E+01  1.39465E+01  1.69955E+01  1.50465E+01  1.48930E+01  1.44691E+01  1.33663E+01  1.65430E+01
   1.62583E+01  1.68234E+01  1.60830E+01  1.57193E+01  1.71813E+01  1.44909E+01  1.50028E+01  1.54284E+01  1.59441E+01  1.62593E+01
   1.82319E+01  1.58210E+01  1.54911E+01  1.64874E+01  1.54629E+01  1.64578E+01  1.75931E+01  1.57141E+01  1.66233E+01  1.83983E+01
   1.59030E+01  1.30846E+01  1.60272E+01  1.19893E+01  1.26352E+01  1.05560E+01  1.08900E+01  9.50833E+00  8.06745E+00  8.80715E+00
   7.83993E+00  9.58286E+00  7.73214E+00  5.10373E+00  3.24327E+00  1.78277E+00  4.51178E+00  5.16856E+00  4.92496E+00  5.80480E+00
   6.16815E+00  8.58497E+00  3.39970E+00  3.93050E+00  7.10497E+00  4.45231E+00  5.96603E+00  4.07224E+00  5.81003E+00  5.59579E+00
   6.30058E+00  7.21775E+00  7.15672E+00  6.97517E+00  4.46987E+00  8.07355E+00  1.06577E+01  9.09265E+00  9.07044E+00  9.08755E+00
   1.15488E+01  1.28798E+01  1.39639E+01  1.68099E+01  1.51412E+01  1.93945E+01  2.14207E+01  2.17975E+01  2.22815E+01  2.53047E+01
   2.84662E+01  2.87323E+01  2.76338E+01  3.14655E+01  2.95282E+01  2.70985E+01  2.49706E+01  1.95414E+01  2.17671E+01  1.30367E+01
   1.05416E+01  1.23103E+01  1.16566E+01  1.09502E+01  1.11133E+01  1.16478E+01  1.23201E+01  1.53619E+01  1.80942E+01  2.09549E+01
   2.10955E+01  2.12493E+01  2.44337E+01  2.45958E+01  2.61193E+01  2.70811E+01  2.94069E+01  2.93982E+01  3.08374E+01  2.86997E+01
   2.62809E+01  2.25432E+01  2.18405E+01  1.75606E+01  1.64800E+01  1.29496E+01  9.03989E+00  1.01904E+01  9.86071E+00  5.40472E+00
   5.79368E+00  3.99161E+00  6.26078E+00  9.15663E+00  4.71314E+00  6.63793E+00  4.93893E+00  6.60854E+00  7.03712E+00  8.38825E+00
   4.92632E+00  6.64535E+00  4.37682E+00  6.23103E+00  6.91231E+00  5.76249E+00  5.18469E+00  2.81446E+00  4.28927E+00  5.37737E+00
   4.94501E+00  2.41544E+00  1.14736E+00  4.64736E+00  5.96745E+00  1.12655E+00 -3.81143E-01  1.59396E+00  1.11089E+00  7.85702E-01
  -2.60953E+00 -2.89948E+00 -4.36874E+00 -1.59079E+00 -2.93629E+00 -2.54972E+00 -4.55833E+00 -7.52834E+00 -4.35463E+00 -5.96064E+00
  -3.77262E+00 -2.54471E+00 -4.78338E-01 -1.66713E+00 -6.69259E-01 -1.41276E+00 -5.35806E-01  1.47765E+00  1.13464E+00  1.45039E+00
   3.51249E+00  1.53201E+00  6.47732E+00  1.41036E+00  5.38067E+00  6.12786E+00  5.49224E+00  4.39767E+00  3.98888E+00  3.44230E+00
   3.56915E+00  9.91013E-01  2.50629E+00 -6.34063E-01  5.27460E+00  3.28552E+00  5.26623E+00  5.67103E+00  5.20480E+00  4.07880E+00
   2.98726E+00  2.35143E+00  8.75880E-01  7.18261E+00  7.61065E+00  5.48083E+00  7.49670E+00  7.29569E+00  8.18600E+00  7.52176E+00
   7.11424E+00  8.00494E+00  7.06438E+00  5.39365E+00  4.72338E+00  7.52822E+00  4.82241E+00  6.61031E+00  8.36658E+00  8.10798E+00
   9.16916E+00  8.75940E+00  8.12180E+00  7.26088E+00  1.13841E+01  1.02393E+01  7.14849E+00  9.61707E+00  8.29519E+00  1.09551E+01
   1.24296E+01  8.68578E+00  1.14193E+01  1.21603E+01  1.15564E+01  1.24337E+01  1.70074E+01  1.91247E+01  2.04249E+01  2.31195E+01
   2.81273E+01  3.10622E+01  3.55017E+01  3.85729E+01  3.88228E+01  3.89975E+01  4.51626E+01  4.29054E+01  4.70331E+01  4.81412E+01
   4.63440E+01  5.11652E+01  4.80433E+01  4.53913E+01  3.63835E+01  3.43594E+01  3.22747E+01  2.68960E+01  1.70315E+01  1.54913E+01
   1.31618E+01  1.11104E+01  1.18683E+01  1.02005E+01  8.51842E+00  7.93626E+00  1.16999E+01  1.08892E+01  9.42960E+00  8.19874E+00
   7.26190E+00  7.98320E+00  6.74297E+00  7.50577E+00  6.50154E+00  8.68342E+00  8.62058E+00  1.12742E+01  9.72639E+00  7.44950E+00
   8.82026E+00  8.69251E+00  8.17711E+00  8.61760E+00  1.06803E+01  6.47986E+00  9.47870E+00  1.06642E+01  8.42511E+00  9.11927E+00
   9.26512E+00  5.65326E+00  1.01547E+01  8.51043E+00  1.00678E+01  8.45346E+00  1.14653E+01  9.23369E+00  9.92545E+00  1.24390E+01
   1.21587E+01  1.51754E+01  1.12490E+01  1.31455E+01  1.41852E+01  9.51562E+00  1.40638E+01  1.54251E+01  1.38307E+01  1.40469E+01
   1.23337E+01  1.05999E+01  1.21296E+01  1.23602E+01  1.20596E+01  1.34011E+01  9.41207E+00  1.09902E+01  1.25962E+01  1.35293E+01
   1.26964E+01  1.00785E+01  1.05174E+01  1.15658E+01  1.21239E+01  9.35201E+00  1.08869E+01  1.41149E+01  1.15939E+01  1.14253E+01
   9.34355E+00  9.96898E+00  1.19513E+01  1.08989E+01  1.10015E+01  1.17757E+01  1.32238E+01  1.11534E+01  1.10631E+01  1.18629E+01
   9.39034E+00  1.19258E+01  1.25777E+01  1.09323E+01  1.33537E+01  1.19006E+01  1.01513E+01  1.12106E+01  8.91625E+00  8.74896E+00
   8.78862E+00  9.30989E+00  9.18122E+00  9.71790E+00  1.08420E+01  1.04504E+01  7.86272E+00  8.56094E+00  7.17199E+00  8.97917E+00
   1.08264E+01  5.61599E+00  7.62461E+00  4.65520E+00  7.90053E+00  5.20702E+00  6.16783E+00  6.35434E+00  1.50011E+00  3.53607E+00
   1.24858E+00  7.39972E+00  5.98638E+00  6.79179E+00  4.41874E+00  4.43302E+00  3.49994E+00  6.55790E+00  5.93735E+00  4.36963E+00
   8.47070E+00  5.58536E+00  5.56697E+00  7.46673E+00  8.38365E+00  9.02305E+00  6.44171E+00  9.58193E+00  8.26194E+00  9.63376E+00
   6.83474E+00  1.19653E+01  1.08043E+01  1.05965E+01  9.57618E+00  1.25715E+01  9.20624E+00  1.05465E+01  9.11565E+00  7.97667E+00
   8.10697E+00  7.95287E+00  8.28479E+00  7.48098E+00  6.90114E+00  1.07137E+01  8.61974E+00  9.12213E+00  6.58153E+00  6.50230E+00
   6.22391E+00  5.37659E+00  5.97675E+00  7.40656E+00  6.72246E+00  8.11441E+00  3.48816E+00  5.09088E+00  7.16234E+00  3.91935E+00
   7.33233E+00  3.13232E+00  5.35600E+00  4.07914E+00  4.58647E+00  6.17719E+00  3.18009E+00  3.52591E+00  6.64543E+00  5.73265E+00
   5.32962E+00  6.17872E+00  4.34137E+00  2.91209E+00  3.75128E+00  5.07020E+00  3.52659E+00  5.02474E+00  3.52043E+00  6.19282E+00
   3.26728E+00  4.78931E+00  3.87975E+00  5.80180E+00  2.96075E-01  7.70988E+00  4.19567E+00  6.27035E+00  2.19666E+00  3.69793E-01
   5.58629E+00  7.25090E+00  3.28005E+00  2.68081E+00  4.50932E+00  4.80972E+00  4.18272E+00  5.28239E+00  4.75524E+00  4.59974E+00
   3.12300E+00  3.55174E+00  4.23256E+00  4.49022E+00  3.78028E+00  4.34727E+00  3.17153E+00  4.89583E+00  4.71463E+00  3.06852E+00
   3.09357E+00  2.37321E+00  7.07404E+00  2.89128E+00  4.19688E+00  3.99512E+00  2.21021E+00  2.17681E+00  4.99059E+00  5.57635E+00
   5.23104E+00  4.07060E+00  6.14724E+00  5.28375E+00  5.78962E+00  1.55090E+00  5.58177E+00  5.23187E+00
 NY points of the fit to the data follow
   1.63519E+01  1.71820E+01  1.86810E+01  1.92589E+01  2.08730E+01  2.13177E+01  2.29981E+01  2.30899E+01  2.46279E+01  2.40741E+01
   2.52326E+01  2.38711E+01  2.42167E+01  2.19891E+01  2.15794E+01  1.87063E+01  1.80519E+01  1.55641E+01  1.53975E+01  1.39675E+01
   1.43934E+01  1.39578E+01  1.46325E+01  1.44709E+01  1.50204E+01  1.48022E+01  1.51543E+01  1.50919E+01  1.54444E+01  1.56991E+01
   1.59480E+01  1.65142E+01  1.65103E+01  1.73283E+01  1.70072E+01  1.75847E+01  1.68205E+01  1.69846E+01  1.60510E+01  1.59717E+01
   1.52043E+01  1.51255E+01  1.47422E+01  1.47477E+01  1.46505E+01  1.46632E+01  1.46993E+01  1.45382E+01  1.44831E+01  1.39996E+01
   1.36811E+01  1.28614E+01  1.23077E+01  1.13597E+01  1.07804E+01  9.91157E+00  9.48935E+00  8.83993E+00  8.72585E+00  8.23815E+00
   8.35328E+00  7.87751E+00  8.08266E+00  7.55541E+00  7.77985E+00  7.27054E+00  7.51074E+00  7.05288E+00  7.30582E+00  6.91846E+00
   7.18602E+00  6.88837E+00  7.32197E+00  7.18229E+00  7.47989E+00  7.40253E+00  7.46623E+00  7.46821E+00  7.31968E+00  7.42238E+00
   7.13787E+00  7.34243E+00  7.01808E+00  7.30908E+00  6.86264E+00  7.16321E+00  6.57436E+00  6.91035E+00  6.66950E+00  8.83607E+00
   9.13309E+00  1.21886E+01  1.27514E+01  1.61041E+01  1.67025E+01  1.99217E+01  2.04016E+01  2.33044E+01  2.36191E+01  2.63178E+01
   2.63762E+01  2.84645E+01  2.80566E+01  2.89213E+01  2.78389E+01  2.69102E+01  2.51199E+01  2.26310E+01  2.05198E+01  1.73995E+01
   1.54443E+01  1.26096E+01  1.16231E+01  1.12706E+01  1.14193E+01  1.27598E+01  1.35628E+01  1.58522E+01  1.69041E+01  1.95542E+01
   2.06590E+01  2.33948E+01  2.43276E+01  2.68042E+01  2.73442E+01  2.91479E+01  2.90921E+01  2.97054E+01  2.88662E+01  2.78433E+01
   2.62095E+01  2.37771E+01  2.16779E+01  1.86682E+01  1.65419E+01  1.36977E+01  1.19130E+01  9.78294E+00  8.51573E+00  7.21477E+00
   6.42544E+00  5.77292E+00  5.30737E+00  5.08607E+00  4.81784E+00  4.88387E+00  4.64254E+00  4.57360E+00  4.31256E+00  4.12487E+00
   3.92086E+00  3.71514E+00  3.53505E+00  3.31660E+00  3.13651E+00  2.91683E+00  2.72347E+00  2.50717E+00  2.30971E+00  2.10814E+00
   1.90345E+00  1.70753E+00  1.41237E+00  1.25196E+00  9.51023E-01  8.21274E-01  5.14189E-01  3.05643E-01  4.55058E-02 -2.19533E-01
  -3.73298E-01 -6.81514E-01 -7.76007E-01 -1.14547E+00 -1.07439E+00 -1.39910E+00 -1.11920E+00 -1.31849E+00 -8.07045E-01 -8.75400E-01
  -3.33560E-01 -3.24543E-01  7.03647E-02  4.84751E-02  1.99870E-01  1.28501E-01  2.22984E-01  3.50288E-01  7.62801E-01  1.21601E+00
   1.91438E+00  2.66167E+00  3.51673E+00  4.21860E+00  4.84979E+00  5.00293E+00  4.82639E+00  4.38768E+00  4.25174E+00  3.45454E+00
   3.75449E+00  2.97919E+00  3.92444E+00  3.65831E+00  4.65933E+00  4.34054E+00  4.89901E+00  4.27125E+00  4.35202E+00  3.23476E+00
   3.18278E+00  2.48318E+00  3.08480E+00  3.24261E+00  4.39319E+00  5.17145E+00  6.20995E+00  6.93926E+00  7.30642E+00  7.38088E+00
   7.18657E+00  6.59831E+00  6.04610E+00  5.42506E+00  5.45151E+00  5.37713E+00  6.26332E+00  6.85958E+00  8.12969E+00  8.58114E+00
   9.66723E+00  9.68604E+00  1.03283E+01  9.97780E+00  1.03013E+01  9.87412E+00  1.01121E+01  9.75777E+00  1.00210E+01  9.65534E+00
   9.97986E+00  9.62760E+00  1.00900E+01  9.78772E+00  1.05729E+01  1.07989E+01  1.42105E+01  1.57638E+01  2.04188E+01  2.27814E+01
   2.77576E+01  3.04602E+01  3.49901E+01  3.74211E+01  4.10940E+01  4.29379E+01  4.57523E+01  4.69435E+01  4.82541E+01  4.86274E+01
   4.77867E+01  4.72172E+01  4.38510E+01  4.23007E+01  3.70873E+01  3.48227E+01  2.92067E+01  2.66988E+01  2.17711E+01  1.94688E+01
   1.59050E+01  1.41451E+01  1.19578E+01  1.08033E+01  9.63246E+00  8.95700E+00  8.42098E+00  8.07580E+00  7.97569E+00  7.82249E+00
   7.70711E+00  7.60052E+00  7.47532E+00  7.41843E+00  7.31980E+00  7.31444E+00  7.28186E+00  7.33040E+00  7.36237E+00  7.45887E+00
   7.54740E+00  7.68192E+00  7.81837E+00  7.98896E+00  8.16103E+00  8.35796E+00  8.55403E+00  8.76798E+00  8.98033E+00  9.20014E+00
   9.41637E+00  9.63274E+00  9.84222E+00  1.00451E+01  1.02383E+01  1.04206E+01  1.05931E+01  1.07573E+01  1.09177E+01  1.10812E+01
   1.12599E+01  1.14774E+01  1.17890E+01  1.22204E+01  1.23686E+01  1.27735E+01  1.26826E+01  1.29851E+01  1.26319E+01  1.27621E+01
   1.21393E+01  1.24190E+01  1.18408E+01  1.22412E+01  1.16883E+01  1.20661E+01  1.15135E+01  1.17413E+01  1.12168E+01  1.12519E+01
   1.08946E+01  1.08764E+01  1.08636E+01  1.08965E+01  1.12303E+01  1.12816E+01  1.18267E+01  1.17690E+01  1.22800E+01  1.20230E+01
   1.23316E+01  1.19294E+01  1.20342E+01  1.16033E+01  1.15854E+01  1.12580E+01  1.12065E+01  1.10227E+01  1.10308E+01  1.09984E+01
   1.10733E+01  1.11362E+01  1.12287E+01  1.13160E+01  1.13656E+01  1.13561E+01  1.12738E+01  1.11127E+01  1.08745E+01  1.05679E+01
   1.02068E+01  9.80847E+00  9.39137E+00  8.97290E+00  8.56788E+00  8.18761E+00  7.83952E+00  7.52746E+00  7.25228E+00  7.01262E+00
   6.80579E+00  6.62845E+00  6.47721E+00  6.34902E+00  6.24133E+00  6.15217E+00  6.08015E+00  6.02443E+00  5.98459E+00  5.96059E+00
   5.95264E+00  5.96118E+00  5.98681E+00  6.03020E+00  6.09214E+00  6.17339E+00  6.27470E+00  6.39664E+00  6.53964E+00  6.70382E+00
   6.88892E+00  7.09419E+00  7.31827E+00  7.55913E+00  7.81396E+00  8.07917E+00  8.35039E+00  8.62246E+00  8.88958E+00  9.14547E+00
   9.38356E+00  9.59724E+00  9.78017E+00  9.92652E+00  1.00313E+01  1.00907E+01  1.01020E+01  1.00642E+01  9.97769E+00  9.84432E+00
   9.66742E+00  9.45155E+00  9.20228E+00  8.92590E+00  8.62909E+00  8.31868E+00  8.00128E+00  7.68313E+00  7.36978E+00  7.06604E+00
   6.77581E+00  6.50213E+00  6.24710E+00  6.01204E+00  5.79752E+00  5.60346E+00  5.42931E+00  5.27407E+00  5.13653E+00  5.01527E+00
   4.90883E+00  4.81567E+00  4.73433E+00  4.66342E+00  4.60166E+00  4.54787E+00  4.50103E+00  4.46019E+00  4.42454E+00  4.39338E+00
   4.36612E+00  4.34223E+00  4.32127E+00  4.30285E+00  4.28665E+00  4.27240E+00  4.25987E+00  4.24886E+00  4.23918E+00  4.23068E+00
   4.22325E+00  4.21676E+00  4.21114E+00  4.20629E+00  4.20215E+00  4.19863E+00  4.19570E+00  4.19329E+00  4.19140E+00  4.18993E+00
   4.18890E+00  4.18822E+00  4.18794E+00  4.18797E+00  4.18834E+00  4.18899E+00  4.18993E+00  4.19112E+00  4.19258E+00  4.19427E+00
   4.19621E+00  4.19836E+00  4.20073E+00  4.20331E+00  4.20610E+00  4.20910E+00  4.21230E+00  4.21571E+00  4.21931E+00  4.22312E+00
   4.22714E+00  4.23138E+00  4.23584E+00  4.24051E+00  4.24542E+00  4.25059E+00  4.25603E+00  4.26174E+00  4.26775E+00  4.27408E+00
   4.28077E+00  4.28785E+00  4.29537E+00  4.30336E+00  4.31189E+00  4.32102E+00  4.33085E+00  4.34150E+00
 NY background values follow
     2.397E+00    2.402E+00    2.406E+00    2.411E+00    2.415E+00    2.420E+00    2.424E+00    2.428E+00    2.433E+00    2.437E+00
     2.442E+00    2.446E+00    2.451E+00    2.455E+00    2.460E+00    2.464E+00    2.469E+00    2.473E+00    2.478E+00    2.482E+00
     2.487E+00    2.491E+00    2.496E+00    2.500E+00    2.505E+00    2.509E+00    2.514E+00    2.518E+00    2.522E+00    2.527E+00
     2.531E+00    2.536E+00    2.540E+00    2.545E+00    2.549E+00    2.554E+00    2.558E+00    2.563E+00    2.567E+00    2.572E+00
     2.576E+00    2.581E+00    2.585E+00    2.590E+00    2.594E+00    2.598E+00    2.603E+00    2.607E+00    2.612E+00    2.616E+00
     2.621E+00    2.625E+00    2.630E+00    2.634E+00    2.639E+00    2.643E+00    2.648E+00    2.652E+00    2.657E+00    2.661E+00
     2.665E+00    2.670E+00    2.674E+00    2.679E+00    2.683E+00    2.688E+00    2.692E+00    2.697E+00    2.701E+00    2.706E+00
     2.710E+00    2.715E+00    2.719E+00    2.723E+00    2.728E+00    2.732E+00    2.737E+00    2.741E+00    2.746E+00    2.750E+00
     2.755E+00    2.759E+00    2.764E+00    2.768E+00    2.772E+00    2.777E+00    2.781E+00    2.786E+00    2.790E+00    2.795E+00
     2.799E+00    2.804E+00    2.808E+00    2.813E+00    2.817E+00    2.821E+00    2.826E+00    2.830E+00    2.835E+00    2.839E+00
     2.844E+00    2.848E+00    2.853E+00    2.857E+00    2.861E+00    2.866E+00    2.870E+00    2.875E+00    2.879E+00    2.884E+00
     2.888E+00    2.893E+00    2.897E+00    2.901E+00    2.906E+00    2.910E+00    2.915E+00    2.919E+00    2.924E+00    2.928E+00
     2.933E+00    2.937E+00    2.941E+00    2.946E+00    2.950E+00    2.955E+00    2.959E+00    2.964E+00    2.968E+00    2.972E+00
     2.977E+00    2.981E+00    2.986E+00    2.990E+00    2.995E+00    2.999E+00    3.003E+00    3.008E+00    3.012E+00    3.017E+00
     3.021E+00    3.026E+00    3.030E+00    3.034E+00    3.039E+00    3.043E+00    3.048E+00    3.052E+00    3.057E+00    3.061E+00
     3.065E+00    3.070E+00    3.074E+00    3.079E+00    3.083E+00    3.087E+00    3.092E+00    3.096E+00    3.101E+00    3.105E+00
     3.110E+00    3.114E+00    3.118E+00    3.123E+00    3.127E+00    3.132E+00    3.136E+00    3.140E+00    3.145E+00    3.149E+00
     3.154E+00    3.158E+00    3.162E+00    3.167E+00    3.171E+00    3.176E+00    3.180E+00    3.184E+00    3.189E+00    3.193E+00
     3.198E+00    3.202E+00    3.207E+00    3.211E+00    3.215E+00    3.220E+00    3.224E+00    3.228E+00    3.233E+00    3.237E+00
     3.242E+00    3.246E+00    3.250E+00    3.255E+00    3.259E+00    3.264E+00    3.268E+00    3.272E+00    3.277E+00    3.281E+00
     3.286E+00    3.290E+00    3.294E+00    3.299E+00    3.303E+00    3.308E+00    3.312E+00    3.316E+00    3.321E+00    3.325E+00
     3.329E+00    3.334E+00    3.338E+00    3.343E+00    3.347E+00    3.351E+00    3.356E+00    3.360E+00    3.364E+00    3.369E+00
     3.373E+00    3.378E+00    3.382E+00    3.386E+00    3.391E+00    3.395E+00    3.399E+00    3.404E+00    3.408E+00    3.412E+00
     3.417E+00    3.421E+00    3.426E+00    3.430E+00    3.434E+00    3.439E+00    3.443E+00    3.447E+00    3.452E+00    3.456E+00
     3.460E+00    3.465E+00    3.469E+00    3.473E+00    3.478E+00    3.482E+00    3.487E+00    3.491E+00    3.495E+00    3.500E+00
     3.504E+00    3.508E+00    3.513E+00    3.517E+00    3.521E+00    3.526E+00    3.530E+00    3.534E+00    3.539E+00    3.543E+00
     3.547E+00    3.552E+00    3.556E+00    3.560E+00    3.565E+00    3.569E+00    3.573E+00    3.578E+00    3.582E+00    3.586E+00
     3.591E+00    3.595E+00    3.599E+00    3.604E+00    3.608E+00    3.612E+00    3.617E+00    3.621E+00    3.625E+00    3.630E+00
     3.634E+00    3.638E+00    3.643E+00    3.647E+00    3.651E+00    3.656E+00    3.660E+00    3.664E+00    3.668E+00    3.673E+00
     3.677E+00    3.681E+00    3.686E+00    3.690E+00    3.694E+00    3.699E+00    3.703E+00    3.707E+00    3.711E+00    3.716E+00
     3.720E+00    3.724E+00    3.729E+00    3.733E+00    3.737E+00    3.742E+00    3.746E+00    3.750E+00    3.754E+00    3.759E+00
     3.763E+00    3.767E+00    3.772E+00    3.776E+00    3.780E+00    3.784E+00    3.789E+00    3.793E+00    3.797E+00    3.802E+00
     3.806E+00    3.810E+00    3.814E+00    3.819E+00    3.823E+00    3.827E+00    3.832E+00    3.836E+00    3.840E+00    3.844E+00
     3.849E+00    3.853E+00    3.857E+00    3.861E+00    3.866E+00    3.870E+00    3.874E+00    3.878E+00    3.883E+00    3.887E+00
     3.891E+00    3.895E+00    3.900E+00    3.904E+00    3.908E+00    3.912E+00    3.917E+00    3.921E+00    3.925E+00    3.929E+00
     3.934E+00    3.938E+00    3.942E+00    3.946E+00    3.951E+00    3.955E+00    3.959E+00    3.963E+00    3.968E+00    3.972E+00
     3.976E+00    3.980E+00    3.985E+00    3.989E+00    3.993E+00    3.997E+00    4.001E+00    4.006E+00    4.010E+00    4.014E+00
     4.018E+00    4.023E+00    4.027E+00    4.031E+00    4.035E+00    4.039E+00    4.044E+00    4.048E+00    4.052E+00    4.056E+00
     4.061E+00    4.065E+00    4.069E+00    4.073E+00    4.077E+00    4.082E+00    4.086E+00    4.090E+00    4.094E+00    4.098E+00
     4.103E+00    4.107E+00    4.111E+00    4.115E+00    4.119E+00    4.124E+00    4.128E+00    4.132E+00    4.136E+00    4.140E+00
     4.145E+00    4.149E+00    4.153E+00    4.157E+00    4.161E+00    4.165E+00    4.170E+00    4.174E+00    4.178E+00    4.182E+00
     4.186E+00    4.190E+00    4.195E+00    4.199E+00    4.203E+00    4.207E+00    4.211E+00    4.215E+00    4.220E+00    4.224E+00
     4.228E+00    4.232E+00    4.236E+00    4.240E+00    4.245E+00    4.249E+00    4.253E+00    4.257E+00    4.261E+00    4.265E+00
     4.270E+00    4.274E+00    4.278E+00    4.282E+00    4.286E+00    4.290E+00    4.294E+00    4.299E+00    4.303E+00    4.307E+00
     4.311E+00    4.315E+00    4.319E+00    4.323E+00    4.327E+00    4.332E+00    4.336E+00    4.340E+00    4.344E+00    4.348E+00
     4.352E+00    4.356E+00    4.360E+00    4.365E+00    4.369E+00    4.373E+00    4.377E+00    4.381E+00    4.385E+00    4.389E+00
     4.393E+00    4.397E+00    4.402E+00    4.406E+00    4.410E+00    4.414E+00    4.418E+00    4.422E+00    4.426E+00    4.430E+00
     4.434E+00    4.438E+00    4.443E+00    4.447E+00    4.451E+00    4.455E+00    4.459E+00    4.463E+00    4.467E+00    4.471E+00
     4.475E+00    4.479E+00    4.483E+00    4.487E+00    4.492E+00    4.496E+00    4.500E+00    4.504E+00    4.508E+00    4.512E+00
     4.516E+00    4.520E+00    4.524E+00    4.528E+00    4.532E+00    4.536E+00    4.540E+00    4.544E+00
 Ala      Conc. = 6.47E+02
