 LCModel (Version 6.3-1L) Copyright: S.W. Provencher.          Ref.: Magn. Reson. Med. 30:672-679 (1993).                
 Slice#1 Row#11 Col#7  PD_05_press_1_raw_act
 36 lines in following concentration table = NCONC+1
    Conc.  %SD /Cr+PCr  Metabolite                                         
   17.217 408% 2.3E-02 Ala                                                 
    0.000 999%   0.000 Asp                                                 
  506.026  23%   0.665 Cr                                                  
  254.758  47%   0.335 PCr                                                 
    0.000 999%   0.000 GABA                                                
   50.901 180% 6.7E-02 Glc                                                 
  547.273  26%   0.719 Gln                                                 
 1.11E+03  15%   1.457 Glu                                                 
  229.846   6%   0.302 GPC                                                 
    0.000 999%   0.000 PCh                                                 
  211.422  23%   0.278 GSH                                                 
 1.04E+03  15%   1.371 Ins                                                 
    0.000 999%   0.000 Lac                                                 
 1.52E+03   5%   1.992 NAA                                                 
  251.804  28%   0.331 NAAG                                                
   47.173  37% 6.2E-02 Scyllo                                              
   79.762 153%   0.105 Tau                                                 
   93.383  76%   0.123 -CrCH2                                              
  229.846   6%   0.302 GPC+PCh                                             
 1.77E+03   4%   2.323 NAA+NAAG                                            
  760.785   5%   1.000 Cr+PCr                                              
 1.66E+03  13%   2.176 Glu+Gln                                             
  961.988  44%   1.264 Lip13a                                              
    0.000 999%   0.000 Lip13b                                              
   76.296 223%   0.100 Lip09                                               
 1.23E+03  17%   1.620 MM09                                                
  120.831  91%   0.159 Lip20                                               
 2.61E+03  11%   3.428 MM20                                                
  443.738  32%   0.583 MM12                                                
 2.18E+03  17%   2.862 MM14                                                
  979.527  20%   1.288 MM17                                                
  961.988  44%   1.264 Lip13a+Lip13b                                       
 3.58E+03   8%   4.710 MM14+Lip13a+Lip13b+MM12                             
 1.31E+03  11%   1.720 MM09+Lip09                                          
 2.73E+03  10%   3.587 MM20+Lip20                                          
   6 lines in following misc. output table
  FWHM = 0.046 ppm    S/N =  13                                            
  Data shift = 0.023 ppm                                                   
  Ph:  -3 deg      10.1 deg/ppm                                            
  alphaB,S = 2.6E+00,   7.9E+01                                            
   14 spline knots.   Ns = 6(1)                                            
  (11) 2 infls.   ( 5) 1 extrs.                                            
  498 points on ppm-axis = NY
      4.000000     3.992357     3.984714     3.977070     3.969427     3.961784     3.954141     3.946497     3.938854     3.931211
      3.923568     3.915925     3.908281     3.900638     3.892995     3.885352     3.877708     3.870065     3.862422     3.854779
      3.847136     3.839492     3.831849     3.824206     3.816563     3.808919     3.801276     3.793633     3.785990     3.778347
      3.770703     3.763060     3.755417     3.747774     3.740130     3.732487     3.724844     3.717201     3.709558     3.701914
      3.694271     3.686628     3.678985     3.671341     3.663698     3.656055     3.648412     3.640769     3.633125     3.625482
      3.617839     3.610196     3.602552     3.594909     3.587266     3.579623     3.571980     3.564336     3.556693     3.549050
      3.541407     3.533763     3.526120     3.518477     3.510834     3.503191     3.495547     3.487904     3.480261     3.472618
      3.464974     3.457331     3.449688     3.442045     3.434402     3.426758     3.419115     3.411472     3.403829     3.396185
      3.388542     3.380899     3.373256     3.365613     3.357969     3.350326     3.342683     3.335040     3.327396     3.319753
      3.312110     3.304467     3.296824     3.289180     3.281537     3.273894     3.266251     3.258607     3.250964     3.243321
      3.235678     3.228034     3.220391     3.212748     3.205105     3.197462     3.189818     3.182175     3.174532     3.166889
      3.159245     3.151602     3.143959     3.136316     3.128673     3.121029     3.113386     3.105743     3.098100     3.090456
      3.082813     3.075170     3.067527     3.059884     3.052240     3.044597     3.036954     3.029311     3.021667     3.014024
      3.006381     2.998738     2.991095     2.983451     2.975808     2.968165     2.960522     2.952878     2.945235     2.937592
      2.929949     2.922306     2.914662     2.907019     2.899376     2.891733     2.884089     2.876446     2.868803     2.861160
      2.853517     2.845873     2.838230     2.830587     2.822944     2.815300     2.807657     2.800014     2.792371     2.784728
      2.777084     2.769441     2.761798     2.754155     2.746511     2.738868     2.731225     2.723582     2.715939     2.708295
      2.700652     2.693009     2.685366     2.677722     2.670079     2.662436     2.654793     2.647150     2.639506     2.631863
      2.624220     2.616577     2.608933     2.601290     2.593647     2.586004     2.578361     2.570717     2.563074     2.555431
      2.547788     2.540144     2.532501     2.524858     2.517215     2.509572     2.501928     2.494285     2.486642     2.478999
      2.471355     2.463712     2.456069     2.448426     2.440783     2.433139     2.425496     2.417853     2.410210     2.402566
      2.394923     2.387280     2.379637     2.371994     2.364350     2.356707     2.349064     2.341421     2.333777     2.326134
      2.318491     2.310848     2.303205     2.295561     2.287918     2.280275     2.272632     2.264988     2.257345     2.249702
      2.242059     2.234416     2.226772     2.219129     2.211486     2.203843     2.196199     2.188556     2.180913     2.173270
      2.165627     2.157983     2.150340     2.142697     2.135054     2.127410     2.119767     2.112124     2.104481     2.096838
      2.089194     2.081551     2.073908     2.066265     2.058621     2.050978     2.043335     2.035692     2.028049     2.020405
      2.012762     2.005119     1.997476     1.989833     1.982190     1.974546     1.966903     1.959260     1.951617     1.943974
      1.936331     1.928688     1.921045     1.913402     1.905759     1.898115     1.890472     1.882829     1.875186     1.867543
      1.859900     1.852257     1.844614     1.836971     1.829327     1.821684     1.814041     1.806398     1.798755     1.791112
      1.783469     1.775826     1.768183     1.760540     1.752896     1.745253     1.737610     1.729967     1.722324     1.714681
      1.707038     1.699395     1.691752     1.684108     1.676465     1.668822     1.661179     1.653536     1.645893     1.638250
      1.630607     1.622964     1.615321     1.607677     1.600034     1.592391     1.584748     1.577105     1.569462     1.561819
      1.554176     1.546533     1.538890     1.531246     1.523603     1.515960     1.508317     1.500674     1.493031     1.485388
      1.477745     1.470102     1.462458     1.454815     1.447172     1.439529     1.431886     1.424243     1.416600     1.408957
      1.401314     1.393671     1.386027     1.378384     1.370741     1.363098     1.355455     1.347812     1.340169     1.332526
      1.324883     1.317240     1.309596     1.301953     1.294310     1.286667     1.279024     1.271381     1.263738     1.256095
      1.248452     1.240808     1.233165     1.225522     1.217879     1.210236     1.202593     1.194950     1.187307     1.179664
      1.172021     1.164377     1.156734     1.149091     1.141448     1.133805     1.126162     1.118519     1.110876     1.103233
      1.095590     1.087946     1.080303     1.072660     1.065017     1.057374     1.049731     1.042088     1.034445     1.026802
      1.019158     1.011515     1.003872     0.996229     0.988586     0.980943     0.973300     0.965657     0.958014     0.950371
      0.942727     0.935084     0.927441     0.919798     0.912155     0.904512     0.896869     0.889226     0.881583     0.873940
      0.866296     0.858653     0.851010     0.843367     0.835724     0.828081     0.820438     0.812795     0.805152     0.797508
      0.789865     0.782222     0.774579     0.766936     0.759293     0.751650     0.744007     0.736364     0.728721     0.721077
      0.713434     0.705791     0.698148     0.690505     0.682862     0.675219     0.667576     0.659933     0.652290     0.644646
      0.637003     0.629360     0.621717     0.614074     0.606431     0.598788     0.591145     0.583502     0.575858     0.568215
      0.560572     0.552929     0.545286     0.537643     0.530000     0.522357     0.514714     0.507071     0.499427     0.491784
      0.484141     0.476498     0.468855     0.461212     0.453569     0.445925     0.438282     0.430639     0.422996     0.415353
      0.407710     0.400067     0.392424     0.384780     0.377137     0.369494     0.361851     0.354208     0.346565     0.338922
      0.331278     0.323635     0.315992     0.308349     0.300706     0.293063     0.285420     0.277777     0.270133     0.262490
      0.254847     0.247204     0.239561     0.231918     0.224275     0.216631     0.208988     0.201345
 NY phased data points follow
   4.07899E+00  6.71049E+00  5.27370E+00  2.00207E+00  6.01130E+00  4.39150E+00  4.97527E+00  1.28046E+01  1.40888E+01  1.64858E+01
   1.53467E+01  2.14540E+01  1.73652E+01  1.76119E+01  1.37789E+01  1.10603E+01  8.15389E+00  9.82481E+00  1.11452E+01  6.27822E+00
   1.00375E+01  5.96668E+00  7.03449E+00  5.10945E-01  8.02678E+00  8.93201E+00  4.79284E+00  6.27449E+00  6.88753E+00  8.93878E+00
   9.35977E+00  9.87212E+00  1.08564E+01  7.89805E+00  8.23499E+00  3.81128E+00  7.41490E+00  5.32286E+00  1.05405E+01  9.28745E+00
   5.36414E+00  4.48321E+00  4.78729E+00  8.93032E+00  7.68869E+00  1.08020E+01  1.14615E+01  1.30288E+01  1.37241E+01  7.94965E+00
   8.80997E+00  1.01257E+01  8.85427E+00  6.01381E+00  7.04199E+00  5.22539E+00  4.66268E+00  8.50341E+00  8.09078E+00  7.58344E+00
   6.87069E+00  3.95180E+00  5.28985E+00  2.86168E+00  2.75530E+00  1.50727E+00 -6.38332E-01  6.31354E-01  1.33702E+00  2.14665E+00
   2.73898E+00  1.33880E+00  3.52237E+00  2.28607E+00  4.05560E+00  3.39260E+00  1.27844E+00  1.62823E+00  2.07538E+00  2.97042E+00
   3.94432E+00  2.40486E+00 -7.59928E-01  1.75499E+00  4.23757E+00  1.45568E+00  3.01183E+00  3.66381E+00  1.05833E+00  5.91844E+00
   1.14290E+00  3.34562E+00  2.95189E+00  9.57506E-01  2.00375E+00  1.03619E+00  5.74508E+00  4.74494E+00  6.95734E+00  5.01752E+00
   1.18109E+01  1.83310E+01  2.27364E+01  2.67702E+01  2.18997E+01  1.66528E+01  1.38435E+01  9.50784E+00  1.18493E+01  7.05756E+00
   2.63834E+00  6.33267E+00  4.32074E-01  2.78415E+00  6.78101E+00  7.05838E+00  5.66240E+00  6.01429E+00  3.14510E+00  5.38949E+00
   1.68387E+00  3.35096E+00  7.29189E+00  5.22479E+00  1.35133E+01  2.41826E+01  2.88203E+01  3.35085E+01  2.67930E+01  2.42018E+01
   2.27350E+01  1.32481E+01  1.05623E+01  7.68104E+00  6.04508E+00  2.93126E+00  6.45845E+00  5.88987E+00  4.08545E+00  3.76533E+00
   3.26269E+00  1.54726E+00  3.19739E+00  2.38244E+00  6.85455E-01 -2.16521E+00  1.78033E+00  2.71076E+00 -3.18271E-01 -1.42212E+00
   8.54327E-01 -9.14332E-01 -3.61166E+00  2.58307E+00  2.29018E+00 -1.09032E+00  1.60127E+00 -1.28219E+00  9.29828E-01  3.41110E+00
   1.05841E+00 -5.17206E-01 -2.57053E+00  4.10407E-01 -3.03457E-01  3.11036E+00 -1.01427E+00 -6.66935E+00 -3.29727E+00 -5.08690E+00
  -3.19094E+00 -8.14519E+00 -6.14058E+00 -9.67484E+00 -1.00281E+01 -7.82975E+00 -1.19278E+01 -7.71975E+00 -7.71238E+00 -7.83307E+00
  -1.12757E+01 -7.69524E+00 -6.16576E+00 -6.44347E+00 -4.37015E+00 -1.68299E+00 -6.13580E-01 -1.71265E+00 -4.24093E+00 -1.91643E+00
  -2.26752E+00 -2.44543E+00 -1.62597E+00 -7.07476E-01 -2.52071E+00 -2.84494E+00 -5.51860E+00 -3.34864E+00 -9.17952E+00 -8.00604E+00
  -3.26195E+00 -3.07767E+00  2.68656E-02  4.05891E+00  3.81703E-01  5.40522E-01  4.78912E-01 -3.03610E+00 -4.02188E+00 -3.60456E+00
  -5.60751E-01 -2.69462E+00  4.39843E+00  5.00970E+00  8.80630E+00  7.76273E+00  1.15866E+01  5.30851E+00  4.74776E+00  8.79390E-01
  -2.26576E+00 -4.59585E+00 -2.12162E+00 -2.53420E+00  3.15866E+00  4.04392E+00  3.62910E+00  8.83574E+00  9.03418E+00  7.31492E+00
   5.39458E+00  3.05252E+00  7.49235E+00  6.05139E+00  7.73678E+00  4.21242E+00  7.62473E+00  7.05991E+00  1.01224E+01  6.03262E+00
   3.25868E+00  7.24777E+00  1.20036E+00  2.55507E+00  4.03197E+00  8.49447E+00  9.44714E+00  1.19919E+01  1.00312E+01  1.38057E+01
   1.05254E+01  1.39229E+01  1.78853E+01  2.31884E+01  2.19034E+01  2.60104E+01  2.70100E+01  4.13651E+01  5.91495E+01  7.55232E+01
   7.23710E+01  5.98601E+01  4.90970E+01  3.74370E+01  2.86185E+01  1.88365E+01  1.40247E+01  1.01637E+01  9.80295E+00  2.73821E+00
   2.85298E+00  5.75344E+00  5.63684E+00  3.03203E+00  2.47008E+00  1.62868E+00 -1.55459E-01  3.22969E-01  2.54695E+00  3.17295E+00
   1.84872E+00 -7.12824E-01  5.81428E+00  2.18186E+00 -9.95353E-01 -4.18065E-01  1.56726E+00  1.47243E+00 -5.39651E-01 -2.66722E+00
   1.52270E+00  3.81882E+00  2.69635E+00  4.75184E+00  2.43946E+00  3.16061E+00  1.49801E+00  1.43369E+00  5.69516E+00  3.96502E-01
   5.21442E+00  3.03001E+00  4.90367E+00  4.86298E+00  4.26485E+00  5.18647E+00  4.34586E+00  4.09592E+00  4.31297E+00  7.14947E+00
   5.59145E+00  8.61347E+00  1.00654E+01  9.18758E+00  7.85711E+00  6.15282E+00  7.90297E+00  5.31184E+00  7.37640E+00  6.68091E+00
   7.16037E+00  3.61286E+00  4.26257E+00  5.70223E+00  8.45052E+00  7.65512E+00  8.51488E+00  8.58206E+00  7.22433E+00  9.93958E+00
   1.00192E+01  1.27568E+01  8.21044E+00  9.73710E+00  1.17705E+01  1.21102E+01  1.31369E+01  9.82466E+00  1.34974E+01  1.09915E+01
   1.67443E+01  1.16804E+01  9.84950E+00  9.55690E+00  1.22592E+01  1.56517E+01  1.16036E+01  1.10900E+01  1.25781E+01  9.70735E+00
   1.37588E+01  7.56027E+00  9.71679E+00  1.10005E+01  7.03127E+00  5.64313E+00  4.68231E+00  7.12542E+00  5.40864E+00  7.55841E+00
   5.53519E+00  4.29951E+00  5.22751E+00  4.79790E+00  5.18873E+00  8.24722E+00  9.87199E+00  5.81987E+00  4.26633E+00  4.31645E+00
   4.55981E+00  4.88292E+00  6.94708E+00  3.38152E+00  4.78538E+00  5.21764E+00  4.25072E-01  4.36502E+00  3.26232E+00  4.91805E-01
  -4.42382E-01  2.15602E+00 -4.82772E-01  1.60821E+00  1.21397E+00 -2.76107E+00  1.50363E+00  6.77887E-02  2.84943E+00 -3.65668E-01
   4.08990E+00  6.53573E+00  2.09139E+00  4.04403E+00  3.28900E+00  7.73709E+00  9.15567E+00  4.41041E+00  8.36345E+00  3.81545E+00
   8.95838E+00  8.61935E+00  8.14166E+00  3.63510E+00  5.86380E+00  6.68330E+00  5.74343E+00  8.30219E+00  6.27025E+00  7.91898E+00
   6.73575E+00  6.59343E+00  2.12200E+00  7.98090E+00  3.06372E+00  1.78639E+00  2.69881E+00  3.75903E+00  4.71349E+00  1.42433E+00
   2.35107E+00 -1.10089E+00 -6.62253E-01 -3.16470E+00  1.53855E-01 -3.75951E-01 -1.67459E+00 -1.12588E+00 -1.53184E+00 -1.68450E+00
  -1.11409E+00  1.25257E-01 -3.34363E+00  1.96038E+00 -2.80106E+00 -3.27364E+00 -4.97223E+00  1.33289E+00 -2.01583E+00 -6.77795E-01
  -2.88985E+00 -3.65321E-02 -1.49558E-02  1.57289E+00 -1.34691E+00 -3.36993E+00 -2.93398E+00  1.20440E+00 -5.86235E-01 -3.75615E+00
  -3.62894E+00 -1.99380E+00 -8.58724E-01 -6.74480E-01  1.04249E+00 -7.42026E-01 -1.52874E-01 -3.93405E+00  1.20628E+00 -1.00326E+00
  -1.97546E+00  1.51854E+00  7.46435E-01 -3.26124E+00 -1.48772E+00 -3.17368E+00 -1.72531E+00 -3.76758E+00 -3.55965E+00 -1.61953E+00
   1.19235E+00 -9.30010E-01 -4.55966E+00 -2.02561E+00  1.39067E+00 -3.81630E+00  7.20283E-01 -1.26925E+00 -1.06034E+00 -2.00345E+00
  -1.11906E+00 -1.28301E+00 -2.46792E+00  6.33208E-01 -4.63729E+00 -8.31889E-01 -3.99103E+00 -2.82382E+00 -1.24972E+00 -2.85641E+00
  -2.02911E+00  7.30285E-01 -3.62447E+00 -1.22277E-01  2.03005E+00 -4.49551E-01 -3.03053E+00 -3.43835E+00
 NY points of the fit to the data follow
   4.89856E+00  4.47623E+00  4.30037E+00  4.35525E+00  4.76654E+00  5.69500E+00  7.39134E+00  9.79918E+00  1.28612E+01  1.62818E+01
   1.90693E+01  2.00561E+01  1.89066E+01  1.64652E+01  1.38439E+01  1.15617E+01  9.66401E+00  8.16320E+00  6.98318E+00  6.04250E+00
   5.60344E+00  5.47474E+00  5.30323E+00  5.00209E+00  4.57197E+00  4.18354E+00  4.41192E+00  5.62638E+00  7.59506E+00  9.62041E+00
   1.10677E+01  1.16485E+01  1.12402E+01  9.94718E+00  8.17468E+00  6.45446E+00  5.07455E+00  4.21280E+00  3.87395E+00  3.76078E+00
   3.82075E+00  4.09913E+00  4.70072E+00  5.81054E+00  7.63750E+00  1.00015E+01  1.19927E+01  1.25875E+01  1.15877E+01  9.62557E+00
   7.50904E+00  5.74296E+00  4.46743E+00  3.60726E+00  3.06605E+00  2.89467E+00  3.26082E+00  4.09811E+00  5.08877E+00  5.82307E+00
   5.98920E+00  5.55739E+00  4.74510E+00  3.88434E+00  3.25477E+00  2.96116E+00  2.94470E+00  3.09984E+00  3.39676E+00  3.81628E+00
   4.29855E+00  4.68374E+00  4.86421E+00  4.84681E+00  4.67229E+00  4.37510E+00  4.00220E+00  3.62875E+00  3.31529E+00  3.08326E+00
   2.99941E+00  3.06963E+00  3.26743E+00  3.61664E+00  3.93662E+00  3.84144E+00  3.15823E+00  2.16819E+00  1.35353E+00  9.63877E-01
   9.45583E-01  1.13426E+00  1.38545E+00  1.62441E+00  1.83705E+00  2.01355E+00  2.09888E+00  2.43386E+00  3.68472E+00  6.69888E+00
   1.22621E+01  1.91546E+01  2.43232E+01  2.54131E+01  2.27571E+01  1.85209E+01  1.43903E+01  1.09370E+01  8.14482E+00  5.80951E+00
   3.74998E+00  2.35415E+00  1.92285E+00  1.81935E+00  1.79700E+00  1.79922E+00  1.81217E+00  1.83327E+00  1.88791E+00  2.02526E+00
   2.35008E+00  3.19631E+00  5.12562E+00  8.87690E+00  1.51997E+01  2.30386E+01  2.92633E+01  3.11420E+01  2.86691E+01  2.40818E+01
   1.94298E+01  1.53902E+01  1.18227E+01  8.47545E+00  5.31822E+00  2.94842E+00  1.93617E+00  1.76990E+00  1.97285E+00  2.27900E+00
   2.49117E+00  2.54430E+00  2.46083E+00  2.27855E+00  2.05551E+00  1.82706E+00  1.59428E+00  1.36533E+00  1.12946E+00  8.97417E-01
   6.74594E-01  4.49909E-01  2.56594E-01  1.51056E-01  1.54781E-01  2.06285E-01  1.99875E-01 -1.37078E-02 -5.12845E-01 -1.11388E+00
  -1.48876E+00 -1.40304E+00 -9.70632E-01 -5.94609E-01 -5.99915E-01 -1.00156E+00 -1.56085E+00 -2.02150E+00 -2.28911E+00 -2.45673E+00
  -2.63791E+00 -2.93416E+00 -3.39607E+00 -3.93366E+00 -4.32340E+00 -4.34185E+00 -3.98558E+00 -3.59217E+00 -3.51622E+00 -3.70722E+00
  -3.84192E+00 -3.74420E+00 -3.51309E+00 -3.37127E+00 -3.38001E+00 -3.24990E+00 -2.58429E+00 -1.39778E+00 -5.57665E-02  9.68404E-01
   1.41176E+00  1.32809E+00  8.91012E-01  3.46451E-01 -1.36518E-01 -5.23363E-01 -7.02610E-01 -4.93569E-01  1.60142E-01  1.14490E+00
   2.31011E+00  3.46843E+00  4.34748E+00  4.57894E+00  3.84159E+00  2.20446E+00 -1.13163E-01 -2.54724E+00 -4.29674E+00 -4.85726E+00
  -4.21991E+00 -2.64013E+00 -1.28880E-01  3.00646E+00  5.75669E+00  7.03764E+00  6.51965E+00  4.61829E+00  1.84278E+00 -1.20089E+00
  -3.77873E+00 -5.04710E+00 -4.56539E+00 -2.71901E+00 -2.60700E-01  2.01957E+00  3.73155E+00  4.79639E+00  5.23989E+00  5.23679E+00
   5.00437E+00  4.76481E+00  4.67584E+00  4.84699E+00  5.33725E+00  6.13015E+00  6.95269E+00  7.48424E+00  7.57126E+00  7.14414E+00
   6.39194E+00  5.81203E+00  5.84314E+00  6.45698E+00  7.30419E+00  8.15290E+00  8.86698E+00  9.39241E+00  9.79433E+00  1.03478E+01
   1.13560E+01  1.30022E+01  1.55455E+01  1.87228E+01  2.21649E+01  2.61096E+01  3.24166E+01  4.42041E+01  5.93463E+01  7.02378E+01
   7.08564E+01  6.22335E+01  5.00232E+01  3.85885E+01  2.93749E+01  2.20650E+01  1.58971E+01  1.02576E+01  6.24020E+00  4.81413E+00
   4.19943E+00  3.85664E+00  3.67903E+00  3.52812E+00  3.29583E+00  3.00090E+00  2.68207E+00  2.36466E+00  2.06157E+00  1.79514E+00
   1.58003E+00  1.41888E+00  1.30040E+00  1.20606E+00  1.12153E+00  1.04398E+00  9.81145E-01  9.45195E-01  9.49053E-01  1.00141E+00
   1.10646E+00  1.25724E+00  1.43891E+00  1.64251E+00  1.86733E+00  2.11208E+00  2.37740E+00  2.66849E+00  2.98814E+00  3.33450E+00
   3.70147E+00  4.07755E+00  4.45070E+00  4.80961E+00  5.14469E+00  5.44889E+00  5.71569E+00  5.93905E+00  6.11736E+00  6.24971E+00
   6.33672E+00  6.38218E+00  6.39226E+00  6.37499E+00  6.33963E+00  6.29633E+00  6.25611E+00  6.23074E+00  6.23181E+00  6.27002E+00
   6.35517E+00  6.49694E+00  6.70033E+00  6.96705E+00  7.28327E+00  7.61314E+00  7.92860E+00  8.23547E+00  8.56252E+00  8.93001E+00
   9.33425E+00  9.76742E+00  1.02343E+01  1.07255E+01  1.12026E+01  1.16183E+01  1.19373E+01  1.21542E+01  1.22836E+01  1.23367E+01
   1.23204E+01  1.22382E+01  1.20920E+01  1.18935E+01  1.16579E+01  1.13894E+01  1.10937E+01  1.07774E+01  1.04469E+01  1.01079E+01
   9.76569E+00  9.42463E+00  9.08781E+00  8.75697E+00  8.43260E+00  8.11461E+00  7.80248E+00  7.49538E+00  7.19190E+00  6.89042E+00
   6.58936E+00  6.28776E+00  5.98523E+00  5.68180E+00  5.37767E+00  5.07343E+00  4.77020E+00  4.46986E+00  4.17469E+00  3.88708E+00
   3.60932E+00  3.34382E+00  3.09320E+00  2.86034E+00  2.64797E+00  2.45852E+00  2.29408E+00  2.15674E+00  2.04865E+00  1.97201E+00
   1.92867E+00  1.92016E+00  1.94771E+00  2.01261E+00  2.11601E+00  2.25882E+00  2.44122E+00  2.66269E+00  2.92201E+00  3.21739E+00
   3.54615E+00  3.90445E+00  4.28699E+00  4.68720E+00  5.09746E+00  5.50931E+00  5.91340E+00  6.29961E+00  6.65733E+00  6.97612E+00
   7.24624E+00  7.45914E+00  7.60756E+00  7.68586E+00  7.69027E+00  7.61946E+00  7.47453E+00  7.25895E+00  6.97804E+00  6.63876E+00
   6.24944E+00  5.81960E+00  5.35941E+00  4.87914E+00  4.38851E+00  3.89650E+00  3.41113E+00  2.93954E+00  2.48759E+00  2.05981E+00
   1.65917E+00  1.28749E+00  9.45639E-01  6.33796E-01  3.51339E-01  9.69742E-02 -1.31181E-01 -3.35154E-01 -5.16988E-01 -6.78603E-01
  -8.22033E-01 -9.49332E-01 -1.06254E+00 -1.16335E+00 -1.25321E+00 -1.33330E+00 -1.40487E+00 -1.46907E+00 -1.52699E+00 -1.57935E+00
  -1.62670E+00 -1.66952E+00 -1.70845E+00 -1.74403E+00 -1.77675E+00 -1.80680E+00 -1.83435E+00 -1.85961E+00 -1.88296E+00 -1.90467E+00
  -1.92494E+00 -1.94372E+00 -1.96109E+00 -1.97717E+00 -1.99225E+00 -2.00645E+00 -2.01981E+00 -2.03223E+00 -2.04377E+00 -2.05457E+00
  -2.06483E+00 -2.07458E+00 -2.08375E+00 -2.09226E+00 -2.10020E+00 -2.10771E+00 -2.11493E+00 -2.12181E+00 -2.12825E+00 -2.13420E+00
  -2.13979E+00 -2.14515E+00 -2.15034E+00 -2.15523E+00 -2.15976E+00 -2.16392E+00 -2.16788E+00 -2.17173E+00 -2.17544E+00 -2.17889E+00
  -2.18202E+00 -2.18489E+00 -2.18768E+00 -2.19040E+00 -2.19298E+00 -2.19528E+00 -2.19732E+00 -2.19919E+00 -2.20104E+00 -2.20281E+00
  -2.20441E+00 -2.20572E+00 -2.20682E+00 -2.20781E+00 -2.20878E+00 -2.20962E+00 -2.21022E+00 -2.21050E+00
 NY background values follow
     2.356E+00    2.336E+00    2.316E+00    2.295E+00    2.275E+00    2.255E+00    2.234E+00    2.214E+00    2.194E+00    2.174E+00
     2.153E+00    2.133E+00    2.113E+00    2.092E+00    2.072E+00    2.052E+00    2.032E+00    2.011E+00    1.991E+00    1.971E+00
     1.950E+00    1.930E+00    1.910E+00    1.890E+00    1.869E+00    1.849E+00    1.829E+00    1.808E+00    1.788E+00    1.768E+00
     1.748E+00    1.727E+00    1.707E+00    1.687E+00    1.667E+00    1.646E+00    1.626E+00    1.606E+00    1.586E+00    1.565E+00
     1.545E+00    1.525E+00    1.505E+00    1.484E+00    1.464E+00    1.444E+00    1.424E+00    1.404E+00    1.383E+00    1.363E+00
     1.343E+00    1.323E+00    1.303E+00    1.282E+00    1.262E+00    1.242E+00    1.222E+00    1.202E+00    1.182E+00    1.162E+00
     1.141E+00    1.121E+00    1.101E+00    1.081E+00    1.061E+00    1.041E+00    1.021E+00    1.001E+00    9.813E-01    9.613E-01
     9.414E-01    9.214E-01    9.015E-01    8.817E-01    8.618E-01    8.420E-01    8.221E-01    8.023E-01    7.826E-01    7.628E-01
     7.431E-01    7.234E-01    7.037E-01    6.841E-01    6.644E-01    6.448E-01    6.253E-01    6.057E-01    5.862E-01    5.667E-01
     5.472E-01    5.278E-01    5.084E-01    4.890E-01    4.697E-01    4.504E-01    4.311E-01    4.119E-01    3.927E-01    3.735E-01
     3.544E-01    3.353E-01    3.162E-01    2.972E-01    2.782E-01    2.593E-01    2.404E-01    2.215E-01    2.027E-01    1.839E-01
     1.651E-01    1.464E-01    1.278E-01    1.091E-01    9.056E-02    7.203E-02    5.354E-02    3.511E-02    1.671E-02   -1.632E-03
    -1.993E-02   -3.818E-02   -5.638E-02   -7.453E-02   -9.263E-02   -1.107E-01   -1.287E-01   -1.466E-01   -1.645E-01   -1.824E-01
    -2.001E-01   -2.179E-01   -2.356E-01   -2.532E-01   -2.707E-01   -2.882E-01   -3.057E-01   -3.231E-01   -3.404E-01   -3.577E-01
    -3.749E-01   -3.921E-01   -4.091E-01   -4.262E-01   -4.431E-01   -4.600E-01   -4.768E-01   -4.936E-01   -5.102E-01   -5.269E-01
    -5.434E-01   -5.598E-01   -5.762E-01   -5.925E-01   -6.088E-01   -6.249E-01   -6.410E-01   -6.570E-01   -6.729E-01   -6.888E-01
    -7.045E-01   -7.202E-01   -7.358E-01   -7.513E-01   -7.667E-01   -7.820E-01   -7.973E-01   -8.124E-01   -8.275E-01   -8.424E-01
    -8.573E-01   -8.720E-01   -8.867E-01   -9.013E-01   -9.158E-01   -9.302E-01   -9.444E-01   -9.586E-01   -9.727E-01   -9.867E-01
    -1.001E+00   -1.014E+00   -1.028E+00   -1.042E+00   -1.055E+00   -1.068E+00   -1.082E+00   -1.095E+00   -1.108E+00   -1.121E+00
    -1.134E+00   -1.146E+00   -1.159E+00   -1.171E+00   -1.184E+00   -1.196E+00   -1.208E+00   -1.221E+00   -1.233E+00   -1.245E+00
    -1.256E+00   -1.268E+00   -1.280E+00   -1.291E+00   -1.303E+00   -1.314E+00   -1.325E+00   -1.337E+00   -1.348E+00   -1.359E+00
    -1.370E+00   -1.381E+00   -1.391E+00   -1.402E+00   -1.413E+00   -1.423E+00   -1.433E+00   -1.444E+00   -1.454E+00   -1.464E+00
    -1.474E+00   -1.484E+00   -1.494E+00   -1.504E+00   -1.513E+00   -1.523E+00   -1.533E+00   -1.542E+00   -1.552E+00   -1.561E+00
    -1.570E+00   -1.579E+00   -1.588E+00   -1.597E+00   -1.606E+00   -1.615E+00   -1.624E+00   -1.633E+00   -1.641E+00   -1.650E+00
    -1.658E+00   -1.667E+00   -1.675E+00   -1.683E+00   -1.691E+00   -1.699E+00   -1.707E+00   -1.715E+00   -1.723E+00   -1.731E+00
    -1.739E+00   -1.746E+00   -1.754E+00   -1.761E+00   -1.769E+00   -1.776E+00   -1.783E+00   -1.790E+00   -1.798E+00   -1.805E+00
    -1.812E+00   -1.819E+00   -1.825E+00   -1.832E+00   -1.839E+00   -1.846E+00   -1.852E+00   -1.859E+00   -1.865E+00   -1.871E+00
    -1.878E+00   -1.884E+00   -1.890E+00   -1.896E+00   -1.902E+00   -1.908E+00   -1.914E+00   -1.920E+00   -1.926E+00   -1.932E+00
    -1.937E+00   -1.943E+00   -1.948E+00   -1.954E+00   -1.959E+00   -1.965E+00   -1.970E+00   -1.975E+00   -1.980E+00   -1.985E+00
    -1.990E+00   -1.995E+00   -2.000E+00   -2.005E+00   -2.010E+00   -2.015E+00   -2.019E+00   -2.024E+00   -2.029E+00   -2.033E+00
    -2.038E+00   -2.042E+00   -2.046E+00   -2.051E+00   -2.055E+00   -2.059E+00   -2.063E+00   -2.067E+00   -2.071E+00   -2.075E+00
    -2.079E+00   -2.083E+00   -2.087E+00   -2.091E+00   -2.095E+00   -2.098E+00   -2.102E+00   -2.105E+00   -2.109E+00   -2.112E+00
    -2.116E+00   -2.119E+00   -2.123E+00   -2.126E+00   -2.129E+00   -2.132E+00   -2.135E+00   -2.139E+00   -2.142E+00   -2.145E+00
    -2.148E+00   -2.150E+00   -2.153E+00   -2.156E+00   -2.159E+00   -2.162E+00   -2.164E+00   -2.167E+00   -2.170E+00   -2.172E+00
    -2.175E+00   -2.177E+00   -2.180E+00   -2.182E+00   -2.184E+00   -2.187E+00   -2.189E+00   -2.191E+00   -2.193E+00   -2.196E+00
    -2.198E+00   -2.200E+00   -2.202E+00   -2.204E+00   -2.206E+00   -2.208E+00   -2.209E+00   -2.211E+00   -2.213E+00   -2.215E+00
    -2.217E+00   -2.218E+00   -2.220E+00   -2.222E+00   -2.223E+00   -2.225E+00   -2.226E+00   -2.228E+00   -2.229E+00   -2.230E+00
    -2.232E+00   -2.233E+00   -2.234E+00   -2.236E+00   -2.237E+00   -2.238E+00   -2.239E+00   -2.240E+00   -2.241E+00   -2.242E+00
    -2.243E+00   -2.244E+00   -2.245E+00   -2.246E+00   -2.247E+00   -2.248E+00   -2.249E+00   -2.249E+00   -2.250E+00   -2.251E+00
    -2.252E+00   -2.252E+00   -2.253E+00   -2.253E+00   -2.254E+00   -2.254E+00   -2.255E+00   -2.255E+00   -2.256E+00   -2.256E+00
    -2.256E+00   -2.257E+00   -2.257E+00   -2.257E+00   -2.258E+00   -2.258E+00   -2.258E+00   -2.258E+00   -2.258E+00   -2.258E+00
    -2.258E+00   -2.258E+00   -2.258E+00   -2.258E+00   -2.258E+00   -2.258E+00   -2.258E+00   -2.258E+00   -2.258E+00   -2.257E+00
    -2.257E+00   -2.257E+00   -2.257E+00   -2.256E+00   -2.256E+00   -2.256E+00   -2.255E+00   -2.255E+00   -2.254E+00   -2.254E+00
    -2.254E+00   -2.253E+00   -2.253E+00   -2.252E+00   -2.252E+00   -2.251E+00   -2.251E+00   -2.250E+00   -2.249E+00   -2.249E+00
    -2.248E+00   -2.248E+00   -2.247E+00   -2.246E+00   -2.246E+00   -2.245E+00   -2.244E+00   -2.243E+00   -2.243E+00   -2.242E+00
    -2.241E+00   -2.241E+00   -2.240E+00   -2.239E+00   -2.238E+00   -2.237E+00   -2.237E+00   -2.236E+00   -2.235E+00   -2.234E+00
    -2.233E+00   -2.233E+00   -2.232E+00   -2.231E+00   -2.230E+00   -2.229E+00   -2.228E+00   -2.228E+00   -2.227E+00   -2.226E+00
    -2.225E+00   -2.224E+00   -2.223E+00   -2.222E+00   -2.221E+00   -2.221E+00   -2.220E+00   -2.219E+00   -2.218E+00   -2.217E+00
    -2.216E+00   -2.215E+00   -2.214E+00   -2.213E+00   -2.212E+00   -2.211E+00   -2.211E+00   -2.210E+00   -2.209E+00   -2.208E+00
    -2.207E+00   -2.206E+00   -2.205E+00   -2.204E+00   -2.203E+00   -2.202E+00   -2.201E+00   -2.200E+00
 Ala      Conc. = 1.72E+01
