 LCModel (Version 6.3-1L) Copyright: S.W. Provencher.          Ref.: Magn. Reson. Med. 30:672-679 (1993).                
 Slice#3 Row#5 Col#5  PD_05_press_1_raw_act
 36 lines in following concentration table = NCONC+1
    Conc.  %SD /Cr+PCr  Metabolite                                         
    0.000 999%   0.000 Ala                                                 
    0.000 999%   0.000 Asp                                                 
  992.430  19%   0.682 Cr                                                  
  462.293  41%   0.318 PCr                                                 
    0.000 999%   0.000 GABA                                                
    0.000 999%   0.000 Glc                                                 
  644.688  30%   0.443 Gln                                                 
 1.46E+03  15%   1.003 Glu                                                 
  444.800   4%   0.306 GPC                                                 
    0.000 999%   0.000 PCh                                                 
  475.964  11%   0.327 GSH                                                 
  351.809  56%   0.242 Ins                                                 
    0.000 999%   0.000 Lac                                                 
 1.93E+03   6%   1.328 NAA                                                 
  118.368 105% 8.1E-02 NAAG                                                
    0.904 999% 6.2E-04 Scyllo                                              
    0.000 999%   0.000 Tau                                                 
    0.000 999%   0.000 -CrCH2                                              
  444.800   4%   0.306 GPC+PCh                                             
 2.05E+03   3%   1.409 NAA+NAAG                                            
 1.45E+03   3%   1.000 Cr+PCr                                              
 2.10E+03  16%   1.446 Glu+Gln                                             
  658.601  36%   0.453 Lip13a                                              
    0.000 999%   0.000 Lip13b                                              
    0.000 999%   0.000 Lip09                                               
  849.001  17%   0.584 MM09                                                
  126.370  76% 8.7E-02 Lip20                                               
 2.04E+03  13%   1.403 MM20                                                
  284.175  30%   0.195 MM12                                                
  970.232  23%   0.667 MM14                                                
  739.173  21%   0.508 MM17                                                
  658.601  36%   0.453 Lip13a+Lip13b                                       
 1.91E+03  16%   1.315 MM14+Lip13a+Lip13b+MM12                             
  849.001  17%   0.584 MM09+Lip09                                          
 2.17E+03  12%   1.490 MM20+Lip20                                          
   6 lines in following misc. output table
  FWHM = 0.054 ppm    S/N =  14                                            
  Data shift =-0.015 ppm                                                   
  Ph:   6 deg       0.4 deg/ppm                                            
  alphaB,S = 7.2E-01,   5.0E+01                                            
   14 spline knots.   Ns = 8(1)                                            
  (16) 4 infls.   (13) 1 extrs.                                            
  498 points on ppm-axis = NY
      4.000000     3.992357     3.984714     3.977070     3.969427     3.961784     3.954141     3.946497     3.938854     3.931211
      3.923568     3.915925     3.908281     3.900638     3.892995     3.885352     3.877708     3.870065     3.862422     3.854779
      3.847136     3.839492     3.831849     3.824206     3.816563     3.808919     3.801276     3.793633     3.785990     3.778347
      3.770703     3.763060     3.755417     3.747774     3.740130     3.732487     3.724844     3.717201     3.709558     3.701914
      3.694271     3.686628     3.678985     3.671341     3.663698     3.656055     3.648412     3.640769     3.633125     3.625482
      3.617839     3.610196     3.602552     3.594909     3.587266     3.579623     3.571980     3.564336     3.556693     3.549050
      3.541407     3.533763     3.526120     3.518477     3.510834     3.503191     3.495547     3.487904     3.480261     3.472618
      3.464974     3.457331     3.449688     3.442045     3.434402     3.426758     3.419115     3.411472     3.403829     3.396185
      3.388542     3.380899     3.373256     3.365613     3.357969     3.350326     3.342683     3.335040     3.327396     3.319753
      3.312110     3.304467     3.296824     3.289180     3.281537     3.273894     3.266251     3.258607     3.250964     3.243321
      3.235678     3.228034     3.220391     3.212748     3.205105     3.197462     3.189818     3.182175     3.174532     3.166889
      3.159245     3.151602     3.143959     3.136316     3.128673     3.121029     3.113386     3.105743     3.098100     3.090456
      3.082813     3.075170     3.067527     3.059884     3.052240     3.044597     3.036954     3.029311     3.021667     3.014024
      3.006381     2.998738     2.991095     2.983451     2.975808     2.968165     2.960522     2.952878     2.945235     2.937592
      2.929949     2.922306     2.914662     2.907019     2.899376     2.891733     2.884089     2.876446     2.868803     2.861160
      2.853517     2.845873     2.838230     2.830587     2.822944     2.815300     2.807657     2.800014     2.792371     2.784728
      2.777084     2.769441     2.761798     2.754155     2.746511     2.738868     2.731225     2.723582     2.715939     2.708295
      2.700652     2.693009     2.685366     2.677722     2.670079     2.662436     2.654793     2.647150     2.639506     2.631863
      2.624220     2.616577     2.608933     2.601290     2.593647     2.586004     2.578361     2.570717     2.563074     2.555431
      2.547788     2.540144     2.532501     2.524858     2.517215     2.509572     2.501928     2.494285     2.486642     2.478999
      2.471355     2.463712     2.456069     2.448426     2.440783     2.433139     2.425496     2.417853     2.410210     2.402566
      2.394923     2.387280     2.379637     2.371994     2.364350     2.356707     2.349064     2.341421     2.333777     2.326134
      2.318491     2.310848     2.303205     2.295561     2.287918     2.280275     2.272632     2.264988     2.257345     2.249702
      2.242059     2.234416     2.226772     2.219129     2.211486     2.203843     2.196199     2.188556     2.180913     2.173270
      2.165627     2.157983     2.150340     2.142697     2.135054     2.127410     2.119767     2.112124     2.104481     2.096838
      2.089194     2.081551     2.073908     2.066265     2.058621     2.050978     2.043335     2.035692     2.028049     2.020405
      2.012762     2.005119     1.997476     1.989833     1.982190     1.974546     1.966903     1.959260     1.951617     1.943974
      1.936331     1.928688     1.921045     1.913402     1.905759     1.898115     1.890472     1.882829     1.875186     1.867543
      1.859900     1.852257     1.844614     1.836971     1.829327     1.821684     1.814041     1.806398     1.798755     1.791112
      1.783469     1.775826     1.768183     1.760540     1.752896     1.745253     1.737610     1.729967     1.722324     1.714681
      1.707038     1.699395     1.691752     1.684108     1.676465     1.668822     1.661179     1.653536     1.645893     1.638250
      1.630607     1.622964     1.615321     1.607677     1.600034     1.592391     1.584748     1.577105     1.569462     1.561819
      1.554176     1.546533     1.538890     1.531246     1.523603     1.515960     1.508317     1.500674     1.493031     1.485388
      1.477745     1.470102     1.462458     1.454815     1.447172     1.439529     1.431886     1.424243     1.416600     1.408957
      1.401314     1.393671     1.386027     1.378384     1.370741     1.363098     1.355455     1.347812     1.340169     1.332526
      1.324883     1.317240     1.309596     1.301953     1.294310     1.286667     1.279024     1.271381     1.263738     1.256095
      1.248452     1.240808     1.233165     1.225522     1.217879     1.210236     1.202593     1.194950     1.187307     1.179664
      1.172021     1.164377     1.156734     1.149091     1.141448     1.133805     1.126162     1.118519     1.110876     1.103233
      1.095590     1.087946     1.080303     1.072660     1.065017     1.057374     1.049731     1.042088     1.034445     1.026802
      1.019158     1.011515     1.003872     0.996229     0.988586     0.980943     0.973300     0.965657     0.958014     0.950371
      0.942727     0.935084     0.927441     0.919798     0.912155     0.904512     0.896869     0.889226     0.881583     0.873940
      0.866296     0.858653     0.851010     0.843367     0.835724     0.828081     0.820438     0.812795     0.805152     0.797508
      0.789865     0.782222     0.774579     0.766936     0.759293     0.751650     0.744007     0.736364     0.728721     0.721077
      0.713434     0.705791     0.698148     0.690505     0.682862     0.675219     0.667576     0.659933     0.652290     0.644646
      0.637003     0.629360     0.621717     0.614074     0.606431     0.598788     0.591145     0.583502     0.575858     0.568215
      0.560572     0.552929     0.545286     0.537643     0.530000     0.522357     0.514714     0.507071     0.499427     0.491784
      0.484141     0.476498     0.468855     0.461212     0.453569     0.445925     0.438282     0.430639     0.422996     0.415353
      0.407710     0.400067     0.392424     0.384780     0.377137     0.369494     0.361851     0.354208     0.346565     0.338922
      0.331278     0.323635     0.315992     0.308349     0.300706     0.293063     0.285420     0.277777     0.270133     0.262490
      0.254847     0.247204     0.239561     0.231918     0.224275     0.216631     0.208988     0.201345
 NY phased data points follow
   3.32910E+01  3.27244E+01  3.46486E+01  3.57445E+01  3.85210E+01  4.10557E+01  4.60509E+01  4.88543E+01  5.41565E+01  5.34972E+01
   5.89388E+01  5.86781E+01  5.73753E+01  5.54984E+01  5.39058E+01  4.45537E+01  4.27294E+01  3.56385E+01  3.47863E+01  3.21213E+01
   3.38172E+01  3.15247E+01  3.41520E+01  3.26887E+01  3.30756E+01  3.41862E+01  3.33731E+01  3.34502E+01  3.39551E+01  3.29722E+01
   3.46151E+01  3.43582E+01  3.40441E+01  3.42920E+01  3.19833E+01  2.96438E+01  2.72867E+01  2.56899E+01  2.61647E+01  2.79951E+01
   2.64991E+01  2.20950E+01  2.80486E+01  2.58028E+01  2.88738E+01  2.89438E+01  2.54164E+01  2.94616E+01  2.99836E+01  2.78406E+01
   2.74751E+01  2.67516E+01  2.25902E+01  2.49595E+01  2.09792E+01  2.14170E+01  2.23108E+01  2.07350E+01  1.90889E+01  2.32507E+01
   1.95859E+01  1.94696E+01  1.62139E+01  1.51602E+01  1.54389E+01  1.42614E+01  1.26238E+01  1.14415E+01  1.02819E+01  1.14727E+01
   1.32044E+01  1.14286E+01  1.43949E+01  1.26297E+01  1.33370E+01  1.11017E+01  1.17667E+01  1.26786E+01  1.19899E+01  1.23130E+01
   1.10763E+01  1.14904E+01  9.48319E+00  1.36296E+01  1.22790E+01  1.34868E+01  1.25366E+01  9.71547E+00  9.16691E+00  1.21218E+01
   1.26425E+01  1.18223E+01  1.11616E+01  1.41945E+01  1.32687E+01  1.69043E+01  1.80554E+01  1.94318E+01  2.23883E+01  2.55703E+01
   2.92030E+01  3.86689E+01  4.15134E+01  4.50461E+01  4.46117E+01  4.52524E+01  3.81445E+01  2.74230E+01  2.59048E+01  1.99416E+01
   1.73768E+01  1.46688E+01  1.33880E+01  1.35945E+01  1.37793E+01  1.34134E+01  1.36896E+01  1.36652E+01  1.57297E+01  1.43783E+01
   1.79850E+01  2.25905E+01  2.37544E+01  2.64543E+01  3.64222E+01  3.72946E+01  4.49207E+01  4.54023E+01  4.76418E+01  4.38472E+01
   3.74084E+01  3.48926E+01  2.63344E+01  1.94311E+01  1.72150E+01  1.19069E+01  1.02384E+01  1.09965E+01  7.67685E+00  9.33555E+00
   7.23093E+00  9.29504E+00  8.38603E+00  6.44894E+00  5.41197E+00  6.76949E+00  7.23020E+00  5.14512E+00  4.36611E+00  5.24886E+00
   4.67004E+00  6.90757E+00  4.96794E+00  4.29331E+00  5.53971E+00  4.86551E+00  2.17927E+00  1.72765E+00  7.67798E-02  8.28261E-01
   2.40589E+00  3.91012E+00  2.01077E+00  8.11868E-01  2.34214E+00 -7.54719E-01  1.94923E+00  1.57736E+00  3.06388E+00 -2.49521E-01
   8.89730E-01 -2.87499E+00 -3.24219E-01 -3.91034E+00 -3.91170E+00 -5.60572E+00 -5.35586E+00 -3.80340E+00 -5.83224E+00 -1.42785E+00
  -6.38924E+00 -5.76566E+00 -4.31421E+00 -4.46491E+00 -4.94153E+00 -5.16407E+00 -3.66455E+00 -1.93642E+00 -1.63056E-01  3.16518E+00
   3.45812E+00  5.84931E+00  7.38803E+00  4.87891E+00  6.02840E+00  4.99025E+00  8.93214E+00  1.83528E+00  1.84249E+00  1.54089E+00
   7.07353E-01  1.98624E+00  4.79675E+00  7.68857E+00  4.91966E+00  4.48411E+00  3.25940E+00  1.49963E+00  2.05722E+00  1.98656E+00
   3.86014E+00  1.97203E+00  7.62084E+00  5.03812E+00  6.97254E+00  9.24639E+00  1.39066E+01  9.04702E+00  5.69959E+00  5.05204E+00
   7.03269E+00  9.29494E-01  1.60269E+00  1.34496E+00  3.40456E+00  2.84663E+00  7.18348E+00  7.59327E+00  9.06961E+00  1.00207E+01
   8.42683E+00  6.80350E+00  8.79557E+00  8.25629E+00  7.92130E+00  7.34920E+00  1.05453E+01  9.27735E+00  1.01992E+01  8.52796E+00
   7.56361E+00  6.55881E+00  7.82505E+00  7.96105E+00  7.88766E+00  1.35666E+01  1.04164E+01  8.72210E+00  1.18495E+01  1.22969E+01
   1.47447E+01  2.08512E+01  2.32383E+01  2.64309E+01  3.10485E+01  3.46419E+01  4.17657E+01  4.82020E+01  5.58851E+01  6.55151E+01
   6.47236E+01  6.37843E+01  5.97744E+01  4.97763E+01  3.86686E+01  2.84808E+01  2.10292E+01  1.39909E+01  1.06115E+01  1.04744E+01
   1.38744E+01  8.57380E+00  1.25631E+01  1.09595E+01  8.69752E+00  8.63460E+00  8.79041E+00  2.73141E+00  6.94728E+00  5.94153E+00
   5.29502E+00  5.00704E+00  5.13977E+00  6.09158E+00  3.49444E+00  5.28355E+00  4.63599E+00  4.77870E+00  3.25094E+00  4.11739E+00
   7.83618E+00  2.89323E+00  4.19359E+00  3.27978E+00  6.59623E+00  6.27194E+00  5.16458E+00  5.72878E+00  4.01462E+00  6.48668E+00
   5.21547E+00  6.62651E+00  5.28310E+00  8.26737E+00  7.03483E+00  7.22475E+00  9.00788E+00  1.04286E+01  1.01655E+01  8.03761E+00
   9.45947E+00  1.06397E+01  1.11232E+01  8.12463E+00  1.09263E+01  9.80522E+00  8.58091E+00  8.52162E+00  8.51599E+00  7.84602E+00
   7.04247E+00  8.11437E+00  7.52076E+00  8.67027E+00  8.92228E+00  7.92700E+00  5.74413E+00  8.27042E+00  7.17538E+00  8.31745E+00
   6.22750E+00  9.37068E+00  6.11444E+00  8.23928E+00  9.58995E+00  5.97812E+00  8.58890E+00  7.54099E+00  7.70712E+00  5.05956E+00
   8.81498E+00  5.43891E+00  4.29195E+00  5.55841E+00  8.85082E+00  6.82870E+00  8.99242E+00  8.16907E+00  6.62645E+00  4.30607E+00
   5.99008E+00  8.32146E+00  6.06361E+00  4.45157E+00  8.45166E+00  4.88365E+00  3.95146E+00  6.32326E+00  8.85378E+00  6.19445E+00
   3.71033E+00  4.29245E+00  3.65305E+00  2.54493E+00  4.26194E+00  5.35130E+00  5.37124E+00  5.69034E+00  6.31529E+00  7.04614E+00
   5.41048E+00  6.33392E+00  4.43687E+00  2.53022E+00  5.03765E+00  3.85438E+00  5.70785E+00  3.55323E+00  2.35981E+00  9.45419E-01
   2.81209E+00  9.61966E-01  1.47213E+00  6.75387E-01  1.21158E+00  8.54600E-01 -6.87529E-01  5.12080E-01  1.60108E+00  2.44234E+00
   1.10712E+00  1.39813E+00  3.26312E+00  2.78720E+00  3.81463E-01  4.34804E+00  3.52777E+00  4.46321E+00  4.43067E+00  4.24095E+00
   2.88996E+00  1.40368E+00  1.77186E+00  3.39960E+00  1.24278E+00  2.78743E+00  3.30911E+00  4.26472E+00  5.01881E+00  6.35416E+00
   3.75142E+00  2.69799E+00  5.37519E+00  4.97174E+00  3.45498E+00  4.12580E+00  4.85966E+00  3.45458E+00  1.09498E+00  4.10100E+00
   6.12246E-01  6.25528E-02  1.59273E+00  1.73049E-01  3.81004E+00  2.83294E-01 -2.07454E+00 -7.13168E-01 -2.28058E-01  1.53260E+00
   1.46993E+00  6.53919E-02  1.07554E+00  2.25960E+00 -1.61138E+00  1.95519E-02 -2.25530E+00  2.00227E+00  8.92700E-01 -3.56938E+00
   1.22804E+00 -1.67271E+00 -7.23050E-01 -2.23713E+00 -6.88610E-03 -2.39777E+00 -1.99255E+00 -1.17629E+00 -3.86811E-01 -5.65453E-01
  -3.76001E-01 -2.91080E+00  2.24150E+00  1.35394E+00  2.14094E+00 -9.81848E-01 -2.95275E+00 -4.95316E-01 -1.97880E-01 -6.40956E-01
  -2.49666E+00 -4.13736E-01 -2.13648E-02  1.57097E+00 -1.49819E+00 -3.35242E-02 -2.20563E+00 -3.08362E+00  2.62008E-01 -6.41202E-01
  -1.79283E+00 -9.95729E-01 -2.02147E-01 -3.57744E-01  1.37193E+00 -5.03315E-01 -6.93691E-01 -1.80616E+00 -1.29563E+00 -2.79597E+00
  -2.31228E-02 -2.66461E+00 -1.13283E-01 -5.37734E-01 -9.21355E-02 -1.11120E+00  8.00070E-01 -1.38955E+00  1.26572E-01  1.66538E+00
  -2.26972E+00 -3.16985E+00 -2.20936E+00 -7.48508E-01  4.28124E-01 -5.61522E-01 -1.02594E+00 -8.56247E-01
 NY points of the fit to the data follow
   3.28478E+01  3.35921E+01  3.48022E+01  3.68939E+01  3.92589E+01  4.12852E+01  4.38337E+01  4.71735E+01  5.09513E+01  5.44941E+01
   5.70800E+01  5.79319E+01  5.68530E+01  5.41592E+01  5.01633E+01  4.56504E+01  4.14832E+01  3.80920E+01  3.54715E+01  3.36590E+01
   3.19745E+01  3.10099E+01  3.11675E+01  3.10640E+01  3.10268E+01  3.12388E+01  3.17918E+01  3.26626E+01  3.37992E+01  3.50067E+01
   3.58954E+01  3.63855E+01  3.61341E+01  3.48111E+01  3.27732E+01  3.04624E+01  2.82633E+01  2.66220E+01  2.56432E+01  2.51759E+01
   2.52426E+01  2.54793E+01  2.58000E+01  2.60147E+01  2.61295E+01  2.61792E+01  2.60441E+01  2.57977E+01  2.54415E+01  2.48327E+01
   2.40895E+01  2.33489E+01  2.25981E+01  2.18659E+01  2.12869E+01  2.07876E+01  2.03051E+01  1.99071E+01  1.96118E+01  1.93350E+01
   1.90285E+01  1.86863E+01  1.82861E+01  1.78625E+01  1.74566E+01  1.70623E+01  1.67266E+01  1.64753E+01  1.62874E+01  1.61374E+01
   1.60024E+01  1.58511E+01  1.56689E+01  1.54526E+01  1.52035E+01  1.49293E+01  1.46462E+01  1.43681E+01  1.40905E+01  1.37993E+01
   1.35079E+01  1.32112E+01  1.29283E+01  1.26426E+01  1.23401E+01  1.20231E+01  1.17119E+01  1.14252E+01  1.11979E+01  1.10396E+01
   1.09495E+01  1.09473E+01  1.10481E+01  1.13082E+01  1.22118E+01  1.54327E+01  1.89869E+01  2.08351E+01  2.30844E+01  2.66628E+01
   3.14732E+01  3.69807E+01  4.20565E+01  4.50696E+01  4.55116E+01  4.33502E+01  3.83691E+01  3.19188E+01  2.55144E+01  1.98646E+01
   1.58904E+01  1.36994E+01  1.17411E+01  1.01299E+01  9.58198E+00  9.39900E+00  9.39746E+00  9.66422E+00  1.09620E+01  1.49305E+01
   1.84471E+01  2.05954E+01  2.35711E+01  2.80629E+01  3.38348E+01  4.02271E+01  4.56966E+01  4.84044E+01  4.83177E+01  4.53511E+01
   3.94892E+01  3.24969E+01  2.56173E+01  1.95576E+01  1.52551E+01  1.24806E+01  9.70635E+00  7.80245E+00  7.19830E+00  7.14457E+00
   7.39554E+00  7.72785E+00  7.86836E+00  7.79338E+00  7.56096E+00  7.17521E+00  6.71622E+00  6.27033E+00  5.86817E+00  5.52931E+00
   5.20875E+00  4.90454E+00  4.56735E+00  4.17106E+00  3.90909E+00  3.74959E+00  3.65635E+00  3.54992E+00  3.23554E+00  2.86624E+00
   2.57178E+00  2.37919E+00  2.24999E+00  2.19905E+00  2.15909E+00  2.00922E+00  1.74223E+00  1.28349E+00  6.42536E-01  1.79939E-01
  -8.31011E-02 -3.68428E-01 -7.08694E-01 -1.13906E+00 -1.45839E+00 -1.58043E+00 -1.59177E+00 -1.62829E+00 -1.67750E+00 -1.70547E+00
  -1.56232E+00 -1.35284E+00 -1.14956E+00 -9.22090E-01 -5.91381E-01 -1.34497E-01  4.42250E-01  1.21617E+00  2.08257E+00  2.91096E+00
   3.57293E+00  4.05047E+00  4.18051E+00  3.97221E+00  3.52619E+00  3.09696E+00  2.89847E+00  2.95011E+00  3.32929E+00  3.92642E+00
   4.72721E+00  5.44416E+00  5.80687E+00  6.12885E+00  5.97060E+00  5.12256E+00  4.02095E+00  2.92062E+00  2.14668E+00  1.42400E+00
   1.09265E+00  1.51575E+00  2.72650E+00  4.37705E+00  5.75890E+00  6.75918E+00  7.35371E+00  7.14387E+00  5.90190E+00  4.05996E+00
   1.99618E+00  3.70310E-01 -3.13707E-01 -7.44326E-02  1.03969E+00  2.73468E+00  4.72092E+00  6.39973E+00  7.53154E+00  8.26640E+00
   8.46527E+00  8.39939E+00  8.36494E+00  8.39707E+00  8.45923E+00  8.62362E+00  8.98122E+00  9.35624E+00  9.48735E+00  9.25068E+00
   8.84844E+00  8.39022E+00  8.02200E+00  7.93829E+00  8.27394E+00  9.07009E+00  1.00109E+01  1.10058E+01  1.21090E+01  1.30399E+01
   1.38651E+01  1.63388E+01  2.28348E+01  2.79708E+01  3.13135E+01  3.58049E+01  4.20432E+01  4.94562E+01  5.70933E+01  6.31140E+01
   6.54171E+01  6.41078E+01  5.88296E+01  4.98510E+01  3.96964E+01  2.99922E+01  2.18565E+01  1.66394E+01  1.35943E+01  1.03339E+01
   8.27845E+00  7.54638E+00  7.17270E+00  6.89974E+00  6.71878E+00  6.58841E+00  6.41968E+00  6.21289E+00  5.97667E+00  5.72251E+00
   5.47733E+00  5.27157E+00  5.09879E+00  4.95204E+00  4.83901E+00  4.75393E+00  4.68950E+00  4.63911E+00  4.60237E+00  4.58872E+00
   4.60539E+00  4.64943E+00  4.72441E+00  4.83186E+00  4.97182E+00  5.14119E+00  5.33821E+00  5.56297E+00  5.81473E+00  6.09251E+00
   6.39414E+00  6.71318E+00  7.04338E+00  7.37601E+00  7.70167E+00  8.01055E+00  8.29254E+00  8.53981E+00  8.74679E+00  8.90765E+00
   9.01918E+00  9.08054E+00  9.09211E+00  9.05702E+00  8.98045E+00  8.86892E+00  8.73018E+00  8.57265E+00  8.40499E+00  8.23561E+00
   8.07217E+00  7.92103E+00  7.78708E+00  7.67364E+00  7.58238E+00  7.51349E+00  7.46569E+00  7.43652E+00  7.42256E+00  7.41983E+00
   7.42415E+00  7.43143E+00  7.43777E+00  7.43976E+00  7.43460E+00  7.42030E+00  7.39571E+00  7.36045E+00  7.31481E+00  7.25966E+00
   7.19635E+00  7.12665E+00  7.05251E+00  6.97589E+00  6.89853E+00  6.82194E+00  6.74726E+00  6.67524E+00  6.60617E+00  6.53980E+00
   6.47537E+00  6.41169E+00  6.34731E+00  6.28055E+00  6.20959E+00  6.13254E+00  6.04758E+00  5.95311E+00  5.84781E+00  5.73079E+00
   5.60145E+00  5.45963E+00  5.30557E+00  5.13996E+00  4.96392E+00  4.77892E+00  4.58666E+00  4.38904E+00  4.18813E+00  3.98614E+00
   3.78532E+00  3.58788E+00  3.39588E+00  3.21130E+00  3.03596E+00  2.87156E+00  2.71964E+00  2.58151E+00  2.45826E+00  2.35088E+00
   2.26023E+00  2.18706E+00  2.13204E+00  2.09567E+00  2.07842E+00  2.08065E+00  2.10272E+00  2.14486E+00  2.20716E+00  2.28948E+00
   2.39146E+00  2.51248E+00  2.65160E+00  2.80743E+00  2.97808E+00  3.16112E+00  3.35360E+00  3.55204E+00  3.75250E+00  3.95055E+00
   4.14139E+00  4.32004E+00  4.48149E+00  4.62089E+00  4.73376E+00  4.81611E+00  4.86463E+00  4.87691E+00  4.85155E+00  4.78819E+00
   4.68754E+00  4.55131E+00  4.38217E+00  4.18362E+00  3.95985E+00  3.71552E+00  3.45550E+00  3.18472E+00  2.90799E+00  2.62985E+00
   2.35443E+00  2.08535E+00  1.82560E+00  1.57755E+00  1.34299E+00  1.12319E+00  9.18857E-01  7.30256E-01  5.57226E-01  3.99314E-01
   2.55861E-01  1.26059E-01  8.98733E-03 -9.63620E-02 -1.91022E-01 -2.75989E-01 -3.52194E-01 -4.20504E-01 -4.81738E-01 -5.36670E-01
  -5.86000E-01 -6.30334E-01 -6.70191E-01 -7.06036E-01 -7.38305E-01 -7.67398E-01 -7.93661E-01 -8.17370E-01 -8.38758E-01 -8.58046E-01
  -8.75452E-01 -8.91178E-01 -9.05380E-01 -9.18174E-01 -9.29659E-01 -9.39947E-01 -9.49152E-01 -9.57377E-01 -9.64687E-01 -9.71128E-01
  -9.76753E-01 -9.81635E-01 -9.85847E-01 -9.89436E-01 -9.92425E-01 -9.94834E-01 -9.96702E-01 -9.98083E-01 -9.99024E-01 -9.99545E-01
  -9.99650E-01 -9.99350E-01 -9.98678E-01 -9.97677E-01 -9.96371E-01 -9.94763E-01 -9.92848E-01 -9.90644E-01 -9.88184E-01 -9.85499E-01
  -9.82599E-01 -9.79473E-01 -9.76118E-01 -9.72553E-01 -9.68809E-01 -9.64903E-01 -9.60829E-01 -9.56570E-01 -9.52129E-01 -9.47527E-01
  -9.42788E-01 -9.37912E-01 -9.32877E-01 -9.27666E-01 -9.22282E-01 -9.16741E-01 -9.11047E-01 -9.05176E-01
 NY background values follow
     3.108E+01    3.084E+01    3.060E+01    3.036E+01    3.012E+01    2.988E+01    2.964E+01    2.940E+01    2.916E+01    2.892E+01
     2.868E+01    2.843E+01    2.819E+01    2.795E+01    2.771E+01    2.747E+01    2.723E+01    2.699E+01    2.675E+01    2.651E+01
     2.627E+01    2.603E+01    2.579E+01    2.555E+01    2.531E+01    2.507E+01    2.484E+01    2.460E+01    2.436E+01    2.412E+01
     2.389E+01    2.365E+01    2.341E+01    2.318E+01    2.294E+01    2.271E+01    2.247E+01    2.224E+01    2.201E+01    2.177E+01
     2.154E+01    2.131E+01    2.108E+01    2.085E+01    2.062E+01    2.039E+01    2.016E+01    1.994E+01    1.971E+01    1.949E+01
     1.926E+01    1.904E+01    1.881E+01    1.859E+01    1.837E+01    1.815E+01    1.793E+01    1.771E+01    1.750E+01    1.728E+01
     1.706E+01    1.685E+01    1.664E+01    1.643E+01    1.621E+01    1.600E+01    1.580E+01    1.559E+01    1.538E+01    1.518E+01
     1.497E+01    1.477E+01    1.457E+01    1.437E+01    1.417E+01    1.397E+01    1.378E+01    1.358E+01    1.339E+01    1.320E+01
     1.301E+01    1.282E+01    1.263E+01    1.245E+01    1.226E+01    1.208E+01    1.190E+01    1.172E+01    1.154E+01    1.136E+01
     1.119E+01    1.102E+01    1.085E+01    1.068E+01    1.051E+01    1.034E+01    1.018E+01    1.001E+01    9.852E+00    9.692E+00
     9.534E+00    9.377E+00    9.222E+00    9.069E+00    8.917E+00    8.766E+00    8.618E+00    8.471E+00    8.325E+00    8.181E+00
     8.039E+00    7.898E+00    7.759E+00    7.621E+00    7.485E+00    7.350E+00    7.217E+00    7.085E+00    6.955E+00    6.826E+00
     6.699E+00    6.573E+00    6.449E+00    6.326E+00    6.204E+00    6.084E+00    5.966E+00    5.849E+00    5.733E+00    5.619E+00
     5.507E+00    5.395E+00    5.285E+00    5.177E+00    5.070E+00    4.964E+00    4.860E+00    4.757E+00    4.655E+00    4.555E+00
     4.456E+00    4.359E+00    4.263E+00    4.169E+00    4.076E+00    3.985E+00    3.895E+00    3.806E+00    3.720E+00    3.635E+00
     3.551E+00    3.469E+00    3.389E+00    3.310E+00    3.233E+00    3.158E+00    3.084E+00    3.012E+00    2.941E+00    2.873E+00
     2.806E+00    2.741E+00    2.678E+00    2.616E+00    2.556E+00    2.498E+00    2.442E+00    2.388E+00    2.336E+00    2.285E+00
     2.237E+00    2.190E+00    2.145E+00    2.102E+00    2.061E+00    2.022E+00    1.986E+00    1.951E+00    1.918E+00    1.887E+00
     1.858E+00    1.831E+00    1.807E+00    1.784E+00    1.763E+00    1.744E+00    1.727E+00    1.712E+00    1.699E+00    1.687E+00
     1.677E+00    1.669E+00    1.662E+00    1.657E+00    1.653E+00    1.650E+00    1.649E+00    1.650E+00    1.651E+00    1.654E+00
     1.658E+00    1.662E+00    1.668E+00    1.675E+00    1.683E+00    1.692E+00    1.702E+00    1.712E+00    1.724E+00    1.736E+00
     1.748E+00    1.762E+00    1.775E+00    1.790E+00    1.804E+00    1.820E+00    1.835E+00    1.851E+00    1.867E+00    1.883E+00
     1.899E+00    1.916E+00    1.933E+00    1.949E+00    1.966E+00    1.982E+00    1.998E+00    2.014E+00    2.030E+00    2.046E+00
     2.061E+00    2.076E+00    2.091E+00    2.106E+00    2.120E+00    2.134E+00    2.148E+00    2.162E+00    2.175E+00    2.188E+00
     2.201E+00    2.213E+00    2.226E+00    2.237E+00    2.249E+00    2.260E+00    2.271E+00    2.281E+00    2.291E+00    2.301E+00
     2.310E+00    2.319E+00    2.327E+00    2.335E+00    2.343E+00    2.350E+00    2.357E+00    2.363E+00    2.369E+00    2.374E+00
     2.379E+00    2.384E+00    2.388E+00    2.391E+00    2.394E+00    2.397E+00    2.399E+00    2.400E+00    2.401E+00    2.401E+00
     2.401E+00    2.401E+00    2.399E+00    2.397E+00    2.395E+00    2.392E+00    2.389E+00    2.384E+00    2.380E+00    2.375E+00
     2.369E+00    2.363E+00    2.356E+00    2.348E+00    2.340E+00    2.332E+00    2.323E+00    2.313E+00    2.303E+00    2.293E+00
     2.282E+00    2.270E+00    2.258E+00    2.245E+00    2.232E+00    2.218E+00    2.204E+00    2.189E+00    2.173E+00    2.158E+00
     2.141E+00    2.124E+00    2.107E+00    2.089E+00    2.071E+00    2.052E+00    2.032E+00    2.012E+00    1.992E+00    1.971E+00
     1.950E+00    1.928E+00    1.905E+00    1.882E+00    1.859E+00    1.835E+00    1.811E+00    1.786E+00    1.761E+00    1.735E+00
     1.709E+00    1.682E+00    1.655E+00    1.627E+00    1.600E+00    1.571E+00    1.543E+00    1.514E+00    1.484E+00    1.454E+00
     1.424E+00    1.394E+00    1.363E+00    1.332E+00    1.301E+00    1.269E+00    1.237E+00    1.205E+00    1.173E+00    1.140E+00
     1.107E+00    1.074E+00    1.041E+00    1.008E+00    9.741E-01    9.404E-01    9.065E-01    8.725E-01    8.383E-01    8.040E-01
     7.697E-01    7.352E-01    7.006E-01    6.660E-01    6.313E-01    5.966E-01    5.618E-01    5.271E-01    4.923E-01    4.575E-01
     4.227E-01    3.879E-01    3.532E-01    3.185E-01    2.839E-01    2.494E-01    2.150E-01    1.806E-01    1.464E-01    1.124E-01
     7.847E-02    4.474E-02    1.120E-02   -2.214E-02   -5.525E-02   -8.813E-02   -1.208E-01   -1.531E-01   -1.852E-01   -2.170E-01
    -2.485E-01   -2.796E-01   -3.104E-01   -3.409E-01   -3.709E-01   -4.006E-01   -4.299E-01   -4.587E-01   -4.871E-01   -5.151E-01
    -5.426E-01   -5.696E-01   -5.961E-01   -6.221E-01   -6.476E-01   -6.725E-01   -6.969E-01   -7.206E-01   -7.438E-01   -7.664E-01
    -7.884E-01   -8.097E-01   -8.304E-01   -8.504E-01   -8.697E-01   -8.883E-01   -9.062E-01   -9.233E-01   -9.398E-01   -9.555E-01
    -9.705E-01   -9.848E-01   -9.984E-01   -1.011E+00   -1.024E+00   -1.035E+00   -1.046E+00   -1.057E+00   -1.066E+00   -1.075E+00
    -1.084E+00   -1.092E+00   -1.099E+00   -1.106E+00   -1.113E+00   -1.119E+00   -1.124E+00   -1.129E+00   -1.133E+00   -1.137E+00
    -1.140E+00   -1.143E+00   -1.146E+00   -1.148E+00   -1.150E+00   -1.151E+00   -1.152E+00   -1.152E+00   -1.152E+00   -1.152E+00
    -1.152E+00   -1.151E+00   -1.150E+00   -1.148E+00   -1.147E+00   -1.145E+00   -1.142E+00   -1.140E+00   -1.137E+00   -1.134E+00
    -1.131E+00   -1.128E+00   -1.124E+00   -1.121E+00   -1.117E+00   -1.113E+00   -1.108E+00   -1.104E+00   -1.100E+00   -1.095E+00
    -1.090E+00   -1.085E+00   -1.080E+00   -1.075E+00   -1.070E+00   -1.064E+00   -1.059E+00   -1.053E+00   -1.048E+00   -1.042E+00
    -1.036E+00   -1.030E+00   -1.024E+00   -1.018E+00   -1.012E+00   -1.006E+00   -9.993E-01   -9.929E-01   -9.865E-01   -9.801E-01
    -9.736E-01   -9.671E-01   -9.606E-01   -9.540E-01   -9.475E-01   -9.409E-01   -9.343E-01   -9.277E-01   -9.211E-01   -9.145E-01
    -9.079E-01   -9.013E-01   -8.948E-01   -8.883E-01   -8.818E-01   -8.753E-01   -8.689E-01   -8.626E-01
 Cr       Conc. = 9.92E+02
