 LCModel (Version 6.3-1L) Copyright: S.W. Provencher.          Ref.: Magn. Reson. Med. 30:672-679 (1993).                
 Slice#3 Row#12 Col#9  PD_05_press_1_raw_act
 36 lines in following concentration table = NCONC+1
    Conc.  %SD /Cr+PCr  Metabolite                                         
    0.000 999%   0.000 Ala                                                 
  177.321  67%   0.223 Asp                                                 
    0.000 999%   0.000 Cr                                                  
  795.728   4%   1.000 PCr                                                 
    0.000 999%   0.000 GABA                                                
    0.000 999%   0.000 Glc                                                 
  683.945  31%   0.860 Gln                                                 
  820.153  30%   1.031 Glu                                                 
  214.681  46%   0.270 GPC                                                 
   31.778 314% 4.0E-02 PCh                                                 
   52.367  92% 6.6E-02 GSH                                                 
  116.817 150%   0.147 Ins                                                 
   11.909 918% 1.5E-02 Lac                                                 
 1.23E+03   8%   1.547 NAA                                                 
   46.405 240% 5.8E-02 NAAG                                                
   51.714  33% 6.5E-02 Scyllo                                              
    0.000 999%   0.000 Tau                                                 
  208.093  35%   0.262 -CrCH2                                              
  246.459   6%   0.310 GPC+PCh                                             
 1.28E+03   4%   1.606 NAA+NAAG                                            
  795.728   4%   1.000 Cr+PCr                                              
 1.50E+03  26%   1.890 Glu+Gln                                             
  318.443  45%   0.400 Lip13a                                              
    0.000 999%   0.000 Lip13b                                              
    0.000 999%   0.000 Lip09                                               
  628.365  13%   0.790 MM09                                                
   52.338 109% 6.6E-02 Lip20                                               
 1.61E+03  12%   2.018 MM20                                                
  253.715  30%   0.319 MM12                                                
  688.304  21%   0.865 MM14                                                
  363.170  30%   0.456 MM17                                                
  318.443  45%   0.400 Lip13a+Lip13b                                       
 1.26E+03  13%   1.584 MM14+Lip13a+Lip13b+MM12                             
  628.365  13%   0.790 MM09+Lip09                                          
 1.66E+03  12%   2.084 MM20+Lip20                                          
   6 lines in following misc. output table
  FWHM = 0.076 ppm    S/N =  10                                            
  Data shift = 0.069 ppm                                                   
  Ph: -53 deg     -22.5 deg/ppm                                            
  alphaB,S = 2.7E+00,   1.0E+02                                            
   14 spline knots.   Ns =11(1)                                            
  (16) 7 infls.   (13) 3 extrs.                                            
  498 points on ppm-axis = NY
      4.000000     3.992357     3.984714     3.977070     3.969427     3.961784     3.954141     3.946497     3.938854     3.931211
      3.923568     3.915925     3.908281     3.900638     3.892995     3.885352     3.877708     3.870065     3.862422     3.854779
      3.847136     3.839492     3.831849     3.824206     3.816563     3.808919     3.801276     3.793633     3.785990     3.778347
      3.770703     3.763060     3.755417     3.747774     3.740130     3.732487     3.724844     3.717201     3.709558     3.701914
      3.694271     3.686628     3.678985     3.671341     3.663698     3.656055     3.648412     3.640769     3.633125     3.625482
      3.617839     3.610196     3.602552     3.594909     3.587266     3.579623     3.571980     3.564336     3.556693     3.549050
      3.541407     3.533763     3.526120     3.518477     3.510834     3.503191     3.495547     3.487904     3.480261     3.472618
      3.464974     3.457331     3.449688     3.442045     3.434402     3.426758     3.419115     3.411472     3.403829     3.396185
      3.388542     3.380899     3.373256     3.365613     3.357969     3.350326     3.342683     3.335040     3.327396     3.319753
      3.312110     3.304467     3.296824     3.289180     3.281537     3.273894     3.266251     3.258607     3.250964     3.243321
      3.235678     3.228034     3.220391     3.212748     3.205105     3.197462     3.189818     3.182175     3.174532     3.166889
      3.159245     3.151602     3.143959     3.136316     3.128673     3.121029     3.113386     3.105743     3.098100     3.090456
      3.082813     3.075170     3.067527     3.059884     3.052240     3.044597     3.036954     3.029311     3.021667     3.014024
      3.006381     2.998738     2.991095     2.983451     2.975808     2.968165     2.960522     2.952878     2.945235     2.937592
      2.929949     2.922306     2.914662     2.907019     2.899376     2.891733     2.884089     2.876446     2.868803     2.861160
      2.853517     2.845873     2.838230     2.830587     2.822944     2.815300     2.807657     2.800014     2.792371     2.784728
      2.777084     2.769441     2.761798     2.754155     2.746511     2.738868     2.731225     2.723582     2.715939     2.708295
      2.700652     2.693009     2.685366     2.677722     2.670079     2.662436     2.654793     2.647150     2.639506     2.631863
      2.624220     2.616577     2.608933     2.601290     2.593647     2.586004     2.578361     2.570717     2.563074     2.555431
      2.547788     2.540144     2.532501     2.524858     2.517215     2.509572     2.501928     2.494285     2.486642     2.478999
      2.471355     2.463712     2.456069     2.448426     2.440783     2.433139     2.425496     2.417853     2.410210     2.402566
      2.394923     2.387280     2.379637     2.371994     2.364350     2.356707     2.349064     2.341421     2.333777     2.326134
      2.318491     2.310848     2.303205     2.295561     2.287918     2.280275     2.272632     2.264988     2.257345     2.249702
      2.242059     2.234416     2.226772     2.219129     2.211486     2.203843     2.196199     2.188556     2.180913     2.173270
      2.165627     2.157983     2.150340     2.142697     2.135054     2.127410     2.119767     2.112124     2.104481     2.096838
      2.089194     2.081551     2.073908     2.066265     2.058621     2.050978     2.043335     2.035692     2.028049     2.020405
      2.012762     2.005119     1.997476     1.989833     1.982190     1.974546     1.966903     1.959260     1.951617     1.943974
      1.936331     1.928688     1.921045     1.913402     1.905759     1.898115     1.890472     1.882829     1.875186     1.867543
      1.859900     1.852257     1.844614     1.836971     1.829327     1.821684     1.814041     1.806398     1.798755     1.791112
      1.783469     1.775826     1.768183     1.760540     1.752896     1.745253     1.737610     1.729967     1.722324     1.714681
      1.707038     1.699395     1.691752     1.684108     1.676465     1.668822     1.661179     1.653536     1.645893     1.638250
      1.630607     1.622964     1.615321     1.607677     1.600034     1.592391     1.584748     1.577105     1.569462     1.561819
      1.554176     1.546533     1.538890     1.531246     1.523603     1.515960     1.508317     1.500674     1.493031     1.485388
      1.477745     1.470102     1.462458     1.454815     1.447172     1.439529     1.431886     1.424243     1.416600     1.408957
      1.401314     1.393671     1.386027     1.378384     1.370741     1.363098     1.355455     1.347812     1.340169     1.332526
      1.324883     1.317240     1.309596     1.301953     1.294310     1.286667     1.279024     1.271381     1.263738     1.256095
      1.248452     1.240808     1.233165     1.225522     1.217879     1.210236     1.202593     1.194950     1.187307     1.179664
      1.172021     1.164377     1.156734     1.149091     1.141448     1.133805     1.126162     1.118519     1.110876     1.103233
      1.095590     1.087946     1.080303     1.072660     1.065017     1.057374     1.049731     1.042088     1.034445     1.026802
      1.019158     1.011515     1.003872     0.996229     0.988586     0.980943     0.973300     0.965657     0.958014     0.950371
      0.942727     0.935084     0.927441     0.919798     0.912155     0.904512     0.896869     0.889226     0.881583     0.873940
      0.866296     0.858653     0.851010     0.843367     0.835724     0.828081     0.820438     0.812795     0.805152     0.797508
      0.789865     0.782222     0.774579     0.766936     0.759293     0.751650     0.744007     0.736364     0.728721     0.721077
      0.713434     0.705791     0.698148     0.690505     0.682862     0.675219     0.667576     0.659933     0.652290     0.644646
      0.637003     0.629360     0.621717     0.614074     0.606431     0.598788     0.591145     0.583502     0.575858     0.568215
      0.560572     0.552929     0.545286     0.537643     0.530000     0.522357     0.514714     0.507071     0.499427     0.491784
      0.484141     0.476498     0.468855     0.461212     0.453569     0.445925     0.438282     0.430639     0.422996     0.415353
      0.407710     0.400067     0.392424     0.384780     0.377137     0.369494     0.361851     0.354208     0.346565     0.338922
      0.331278     0.323635     0.315992     0.308349     0.300706     0.293063     0.285420     0.277777     0.270133     0.262490
      0.254847     0.247204     0.239561     0.231918     0.224275     0.216631     0.208988     0.201345
 NY phased data points follow
  -1.03663E+01 -9.95229E+00 -9.96634E+00 -9.15060E+00 -6.55270E+00 -3.82286E+00 -4.10232E+00 -1.66333E+00 -3.85471E+00 -2.11677E+00
  -1.59887E+00  1.18100E-01 -4.01642E+00 -3.43069E+00 -4.76840E+00 -6.60770E+00 -7.91625E+00 -1.00307E+01 -7.65535E+00 -5.95574E+00
  -9.82314E+00 -1.07057E+01 -1.13185E+01 -9.96765E+00 -9.96848E+00 -1.20134E+01 -1.29806E+01 -8.90010E+00 -8.89044E+00 -9.25051E+00
  -8.01816E+00 -8.49131E+00 -9.05256E+00 -7.79495E+00 -5.46018E+00 -7.09394E+00 -9.34461E+00 -9.65699E+00 -7.07048E+00 -8.38911E+00
  -9.53027E+00 -8.50859E+00 -9.28668E+00 -8.21538E+00 -8.33770E+00 -4.45798E+00 -4.58432E+00 -6.52795E+00 -6.60968E+00 -6.41791E+00
  -6.09241E+00 -7.95558E+00 -7.78162E+00 -5.63202E+00 -8.36550E+00 -9.69696E+00 -9.56189E+00 -8.26327E+00 -7.43259E+00 -8.87300E+00
  -7.47045E+00 -9.16083E+00 -8.13880E+00 -7.17463E+00 -9.56713E+00 -1.03296E+01 -9.25329E+00 -1.05414E+01 -1.07996E+01 -8.84756E+00
  -1.04718E+01 -1.10940E+01 -8.14156E+00 -8.50213E+00 -8.34136E+00 -8.27563E+00 -8.65919E+00 -7.54833E+00 -9.51230E+00 -7.73439E+00
  -8.08873E+00 -4.62916E+00 -6.25092E+00 -3.40749E+00 -7.65250E+00 -6.18690E+00 -5.53062E+00 -6.40085E+00 -5.84715E+00 -4.79463E+00
  -6.35530E+00 -3.70821E+00 -4.23262E+00 -1.50158E+00 -1.73778E+00 -4.59379E+00 -2.01036E+00 -1.20471E+00  4.81003E-01  4.00537E+00
   8.01003E+00  8.10666E+00  8.36536E+00  7.27193E+00  6.86103E+00  7.71304E+00  5.15495E+00  5.06459E+00  4.82646E+00  1.55584E+00
   4.21657E-01 -3.27722E-01 -4.08827E+00 -8.55103E-01 -1.82167E+00 -1.95368E+00 -8.53758E-01 -1.36515E+00 -3.74040E-01 -2.22773E+00
  -2.80603E+00  1.97086E+00  2.92136E+00  6.02828E+00  7.88526E+00  8.46044E+00  1.06067E+01  1.25696E+01  1.36147E+01  1.07520E+01
   1.03632E+01  7.61674E+00  8.39865E+00  6.41074E+00  1.93508E+00  2.63566E+00 -2.21213E+00  7.89019E-01 -1.26903E+00 -1.05650E+00
  -3.11235E+00 -5.34881E+00 -2.67361E+00 -4.29680E+00 -4.01230E+00 -4.60102E+00 -2.60947E+00 -6.27737E+00 -4.11065E+00 -4.35117E+00
  -4.79021E+00 -5.73263E+00 -2.49211E+00 -5.54679E+00 -5.68364E+00 -6.84529E+00 -7.38322E+00 -4.87263E+00 -5.73021E+00 -5.36924E+00
  -4.96970E+00 -5.86207E+00 -3.40940E+00 -5.29487E+00 -4.76646E+00 -5.50342E+00 -7.38952E+00 -5.25705E+00 -5.22873E+00 -2.94639E+00
  -5.63311E+00 -5.50927E+00 -6.15824E+00 -7.05418E+00 -6.87409E+00 -7.03799E+00 -7.77317E+00 -6.74087E+00 -5.99309E+00 -7.02861E+00
  -6.64568E+00 -7.07054E+00 -8.19417E+00 -3.85718E+00 -7.04203E+00 -4.80338E+00 -5.13238E+00 -3.08682E+00 -2.35925E+00 -2.32355E+00
  -2.16430E+00 -1.24697E+00 -5.06393E-01  9.78803E-01  7.65365E-01  1.67502E-01 -1.80519E+00  1.19236E+00 -1.25783E-01 -5.00977E-01
  -2.29088E+00  5.92650E-01  2.06266E+00 -7.47414E-01  3.12736E+00 -3.16453E-01 -7.65252E-01 -1.59433E+00 -2.45227E+00  6.65987E-01
  -3.44633E+00 -2.82659E+00  1.88427E+00 -9.04018E-01  3.04134E+00  8.10548E-01  3.62038E+00  2.21899E+00  3.17102E+00  1.70996E+00
   1.79585E+00  1.37432E+00 -4.01645E-01  1.49301E+00 -3.28141E-01  2.05394E+00  1.15808E+00  8.67739E-01  3.45700E+00  2.98041E+00
   2.69107E+00  1.93016E+00  4.25639E+00  2.87149E+00  2.41153E+00  4.94411E+00  4.18631E+00  4.81867E+00  4.53143E+00  2.48743E+00
   2.52530E+00  1.27350E+00  2.65711E+00  4.23067E+00  3.33862E+00  3.92689E+00  4.77805E+00  6.68246E+00  5.08061E+00  8.01464E+00
   7.12854E+00  1.05697E+01  1.09267E+01  1.29107E+01  1.26124E+01  1.59179E+01  2.08789E+01  2.48437E+01  3.01698E+01  3.18871E+01
   3.05371E+01  3.19431E+01  3.23099E+01  2.95642E+01  2.63014E+01  2.22771E+01  1.93826E+01  1.55466E+01  1.38616E+01  1.01526E+01
   1.13807E+01  7.32966E+00  7.51270E+00  7.58693E+00  8.02015E+00  4.84517E+00  3.98695E+00  6.04000E+00  3.51668E+00  3.05500E+00
   4.64193E+00  5.62748E+00  3.38461E+00  3.04986E+00  5.11758E+00  2.09536E+00  2.42050E+00  5.29992E+00  3.64303E+00  2.42110E+00
   2.27966E+00  4.96224E+00  4.07904E+00  3.75815E+00  3.77927E+00  2.64623E+00  4.83750E+00  5.85281E-01  3.72256E+00  3.00854E+00
   3.79336E+00  3.80320E+00  3.89258E+00  3.53587E+00  4.88010E+00  3.88985E+00  6.02408E+00  2.59951E+00  4.21661E+00  4.72119E+00
   5.35975E+00  4.01236E+00  3.14062E+00  3.01102E+00  3.02816E+00  3.74510E+00  6.79036E+00  3.69041E+00  4.55831E+00  3.83051E+00
   5.32096E+00  5.46676E+00  7.62488E+00  4.21413E+00  5.06252E+00  5.57669E+00  4.66307E+00  3.68527E+00  5.53239E+00  7.27199E+00
   6.26790E+00  7.18227E+00  6.70882E+00  6.81895E+00  6.17566E+00  8.35936E+00  5.67425E+00  5.92818E+00  6.81908E+00  7.52914E+00
   6.08495E+00  6.05479E+00  5.36287E+00  6.06428E+00  4.01975E+00  4.57237E+00  5.86349E+00  3.16296E+00  5.97461E+00  5.52135E+00
   5.06863E+00  5.22737E+00  4.98023E+00  7.60492E+00  6.55927E+00  6.38165E+00  6.10859E+00  6.27939E+00  5.01256E+00  5.69143E+00
   4.92523E+00  5.85233E+00  5.66422E+00  9.66313E+00  5.99746E+00  6.89163E+00  6.95892E+00  8.43470E+00  7.84420E+00  5.00341E+00
   7.59605E+00  5.57352E+00  5.03668E+00  5.96520E+00  3.85652E+00  4.84596E+00  2.31182E+00  4.65645E+00  3.68428E+00  7.77557E+00
   4.32077E+00  2.34799E+00  3.78818E+00  4.65924E+00  5.78560E+00  4.84827E+00  7.03849E+00  5.42018E+00  6.50608E+00  6.92263E+00
   4.28752E+00  6.82608E+00  3.85001E+00  5.83731E+00  6.68816E+00  5.83513E+00  4.73289E+00  6.24962E+00  7.30707E+00  5.59142E+00
   7.69652E+00  9.02506E+00  7.01994E+00  8.56969E+00  6.01656E+00  6.64732E+00  7.04138E+00  6.25494E+00  8.37028E+00  7.90098E+00
   6.36074E+00  6.82463E+00  9.15681E+00  6.99512E+00  7.22490E+00  8.45651E+00  6.01037E+00  6.02487E+00  6.32548E+00  5.93063E+00
   6.45142E+00  5.59163E+00  5.46347E+00  4.85107E+00  4.67927E+00  4.80279E+00  4.26770E+00  6.76045E+00  4.22176E+00  5.85796E+00
   5.20221E+00  4.50906E+00  5.63074E+00  6.08627E+00  6.58529E+00  5.92988E+00  4.08903E+00  6.03995E+00  4.02626E+00  7.91947E+00
   4.51851E+00  3.43963E+00  3.80444E+00  4.70286E+00  4.55952E+00  3.91509E+00  5.57622E+00  5.83367E+00  5.16601E+00  5.62508E+00
   5.86826E+00  4.76041E+00  4.76611E+00  2.15411E+00  4.61580E+00  4.23950E+00  3.72362E+00  3.60728E+00  5.77526E+00  7.57902E+00
   3.60507E+00  4.09895E+00  5.04878E+00  3.87200E+00  3.15197E+00  2.42531E+00  5.17810E+00  4.68685E+00  2.86687E+00  7.43466E+00
   2.91982E+00  5.89349E+00  3.45580E+00  3.81123E+00  5.37338E+00  2.78913E+00  4.28356E+00  4.75823E+00  4.65220E+00  3.20185E+00
   4.56873E+00  3.24926E+00  3.14007E+00  6.98647E+00  2.93482E+00  4.41420E+00  4.31669E+00  1.62744E+00  4.09514E+00  5.11692E+00
   2.67673E+00  3.41351E+00  4.41953E+00  4.35766E+00  5.88303E+00  3.13917E+00  4.64445E+00  4.58915E+00
 NY points of the fit to the data follow
  -9.77908E+00 -9.69043E+00 -9.35008E+00 -8.44714E+00 -7.00228E+00 -5.32115E+00 -3.83035E+00 -2.88191E+00 -2.42563E+00 -2.16707E+00
  -2.06461E+00 -2.29740E+00 -2.88443E+00 -3.63701E+00 -4.47859E+00 -5.48945E+00 -6.51394E+00 -7.32559E+00 -7.78091E+00 -7.97780E+00
  -8.31491E+00 -8.82014E+00 -9.05559E+00 -9.22790E+00 -9.46755E+00 -9.65429E+00 -9.67004E+00 -9.45946E+00 -9.05493E+00 -8.58327E+00
  -8.16726E+00 -7.87809E+00 -7.71886E+00 -7.73783E+00 -7.87630E+00 -8.01709E+00 -8.13063E+00 -8.24199E+00 -8.35150E+00 -8.41357E+00
  -8.33299E+00 -8.17207E+00 -8.01541E+00 -7.88662E+00 -7.79544E+00 -7.72334E+00 -7.70221E+00 -7.70529E+00 -7.67409E+00 -7.65146E+00
  -7.67511E+00 -7.74555E+00 -7.85313E+00 -7.99657E+00 -8.14888E+00 -8.26411E+00 -8.30935E+00 -8.34171E+00 -8.39426E+00 -8.43970E+00
  -8.47152E+00 -8.50231E+00 -8.53160E+00 -8.54466E+00 -8.54680E+00 -8.53813E+00 -8.51972E+00 -8.49142E+00 -8.44738E+00 -8.39093E+00
  -8.33009E+00 -8.27665E+00 -8.22563E+00 -8.16892E+00 -8.08626E+00 -7.90918E+00 -7.70193E+00 -7.58885E+00 -7.55916E+00 -7.50713E+00
  -7.32171E+00 -6.97673E+00 -6.54080E+00 -6.13357E+00 -5.85402E+00 -5.70242E+00 -5.60294E+00 -5.52515E+00 -5.50939E+00 -5.56432E+00
  -5.58267E+00 -5.21195E+00 -4.21804E+00 -3.44087E+00 -3.31731E+00 -3.42138E+00 -2.96225E+00 -1.47708E+00  9.05114E-01  3.68495E+00
   6.09646E+00  7.57098E+00  8.27899E+00  8.66376E+00  8.67584E+00  7.98313E+00  6.63322E+00  5.01823E+00  3.32774E+00  1.52242E+00
  -2.01740E-01 -1.48006E+00 -2.13265E+00 -2.53896E+00 -3.32202E+00 -3.97913E+00 -3.18002E+00 -2.09632E+00 -1.70638E+00 -1.72264E+00
  -1.26309E+00  3.55773E-01  3.11400E+00  6.34441E+00  9.13092E+00  1.08443E+01  1.16426E+01  1.20842E+01  1.21830E+01  1.15304E+01
   1.00952E+01  8.30139E+00  6.39949E+00  4.33847E+00  2.31535E+00  7.45982E-01 -1.34342E-01 -7.01924E-01 -1.75214E+00 -3.19803E+00
  -3.87590E+00 -4.01357E+00 -4.03928E+00 -4.04661E+00 -4.06369E+00 -4.09363E+00 -4.12205E+00 -4.13954E+00 -4.16010E+00 -4.20346E+00
  -4.28415E+00 -4.37101E+00 -4.42015E+00 -4.41854E+00 -4.38311E+00 -4.40123E+00 -4.52019E+00 -4.69606E+00 -4.85021E+00 -4.91377E+00
  -4.89271E+00 -4.85023E+00 -4.82528E+00 -4.81984E+00 -4.82047E+00 -4.83594E+00 -4.85891E+00 -4.84148E+00 -4.80627E+00 -4.81906E+00
  -4.95150E+00 -5.16401E+00 -5.31595E+00 -5.33212E+00 -5.26879E+00 -5.22678E+00 -5.28428E+00 -5.37386E+00 -5.32978E+00 -5.15283E+00
  -4.94087E+00 -4.78125E+00 -4.68907E+00 -4.59335E+00 -4.41472E+00 -4.15815E+00 -3.84346E+00 -3.52813E+00 -3.23176E+00 -2.97932E+00
  -2.76613E+00 -2.55575E+00 -2.35329E+00 -2.13682E+00 -1.94726E+00 -1.81628E+00 -1.70229E+00 -1.54312E+00 -1.29979E+00 -1.02817E+00
  -6.49196E-01 -1.90749E-01  1.32332E-01  1.34347E-01 -1.56980E-01 -5.59194E-01 -9.95000E-01 -1.52588E+00 -2.05166E+00 -2.43528E+00
  -2.50366E+00 -2.21874E+00 -1.66823E+00 -9.62885E-01 -2.02774E-01  4.37286E-01  8.21622E-01  8.73313E-01  5.64845E-01  4.54402E-02
  -3.77918E-01 -4.97625E-01 -4.17048E-01 -3.85065E-01 -2.54850E-01  1.10321E-01  6.63431E-01  1.21840E+00  1.64233E+00  2.01184E+00
   2.35894E+00  2.48330E+00  2.41630E+00  2.44270E+00  2.79262E+00  3.34299E+00  3.76891E+00  3.99577E+00  4.12506E+00  4.17021E+00
   4.14858E+00  4.12386E+00  4.14239E+00  4.19849E+00  4.27424E+00  4.39505E+00  4.61102E+00  4.95088E+00  5.52459E+00  7.06654E+00
   9.53909E+00  1.12393E+01  1.17149E+01  1.19500E+01  1.33814E+01  1.66123E+01  2.11469E+01  2.57918E+01  2.92470E+01  3.09902E+01
   3.16549E+01  3.18664E+01  3.12566E+01  2.93750E+01  2.65879E+01  2.35362E+01  2.03077E+01  1.68379E+01  1.36222E+01  1.13655E+01
   1.01567E+01  8.97389E+00  6.85071E+00  4.87846E+00  4.17250E+00  3.89664E+00  3.70815E+00  3.56536E+00  3.46405E+00  3.36947E+00
   3.28704E+00  3.21686E+00  3.15823E+00  3.11968E+00  3.10616E+00  3.10293E+00  3.10091E+00  3.10952E+00  3.13652E+00  3.17826E+00
   3.22898E+00  3.28706E+00  3.35528E+00  3.43256E+00  3.51107E+00  3.58799E+00  3.66373E+00  3.73747E+00  3.80722E+00  3.87138E+00
   3.92954E+00  3.98099E+00  4.02492E+00  4.06072E+00  4.08844E+00  4.10918E+00  4.12442E+00  4.13529E+00  4.14360E+00  4.15129E+00
   4.16098E+00  4.17485E+00  4.19473E+00  4.22249E+00  4.26007E+00  4.30843E+00  4.36870E+00  4.44139E+00  4.52664E+00  4.62382E+00
   4.73212E+00  4.84998E+00  4.97577E+00  5.10718E+00  5.24191E+00  5.37720E+00  5.51051E+00  5.63900E+00  5.76026E+00  5.87177E+00
   5.97163E+00  6.05804E+00  6.13004E+00  6.18692E+00  6.22901E+00  6.25739E+00  6.27466E+00  6.27692E+00  6.26071E+00  6.23265E+00
   6.20192E+00  6.17346E+00  6.14596E+00  6.11498E+00  6.08254E+00  6.04815E+00  6.00982E+00  5.97016E+00  5.93319E+00  5.90265E+00
   5.88461E+00  5.88397E+00  5.89907E+00  5.92127E+00  5.94513E+00  5.97224E+00  6.00320E+00  6.03050E+00  6.04422E+00  6.04348E+00
   6.03727E+00  6.02396E+00  5.99632E+00  5.95589E+00  5.90750E+00  5.85406E+00  5.79233E+00  5.71751E+00  5.63652E+00  5.55489E+00
   5.47267E+00  5.39060E+00  5.31024E+00  5.23301E+00  5.16062E+00  5.09445E+00  5.03609E+00  4.98675E+00  4.94778E+00  4.92017E+00
   4.90500E+00  4.90299E+00  4.91504E+00  4.94164E+00  4.98346E+00  5.04076E+00  5.11393E+00  5.20293E+00  5.30779E+00  5.42807E+00
   5.56326E+00  5.71230E+00  5.87397E+00  6.04643E+00  6.22766E+00  6.41495E+00  6.60542E+00  6.79556E+00  6.98182E+00  7.16023E+00
   7.32697E+00  7.47803E+00  7.60989E+00  7.71911E+00  7.80304E+00  7.85944E+00  7.88703E+00  7.88510E+00  7.85400E+00  7.79467E+00
   7.70903E+00  7.59946E+00  7.46907E+00  7.32117E+00  7.15951E+00  6.98772E+00  6.80961E+00  6.62855E+00  6.44787E+00  6.27028E+00
   6.09826E+00  5.93367E+00  5.77811E+00  5.63251E+00  5.49764E+00  5.37369E+00  5.26075E+00  5.15848E+00  5.06658E+00  4.98437E+00
   4.91131E+00  4.84657E+00  4.78957E+00  4.73947E+00  4.69571E+00  4.65754E+00  4.62445E+00  4.59579E+00  4.57117E+00  4.55005E+00
   4.53214E+00  4.51697E+00  4.50435E+00  4.49388E+00  4.48544E+00  4.47873E+00  4.47364E+00  4.46993E+00  4.46753E+00  4.46623E+00
   4.46603E+00  4.46671E+00  4.46831E+00  4.47063E+00  4.47370E+00  4.47737E+00  4.48169E+00  4.48651E+00  4.49187E+00  4.49765E+00
   4.50389E+00  4.51048E+00  4.51749E+00  4.52480E+00  4.53246E+00  4.54037E+00  4.54859E+00  4.55702E+00  4.56575E+00  4.57465E+00
   4.58380E+00  4.59309E+00  4.60262E+00  4.61229E+00  4.62216E+00  4.63215E+00  4.64232E+00  4.65258E+00  4.66303E+00  4.67356E+00
   4.68425E+00  4.69501E+00  4.70592E+00  4.71690E+00  4.72802E+00  4.73920E+00  4.75051E+00  4.76187E+00  4.77335E+00  4.78488E+00
   4.79654E+00  4.80825E+00  4.82007E+00  4.83192E+00  4.84390E+00  4.85592E+00  4.86807E+00  4.88026E+00
 NY background values follow
    -1.270E+01   -1.265E+01   -1.259E+01   -1.254E+01   -1.248E+01   -1.243E+01   -1.237E+01   -1.232E+01   -1.226E+01   -1.221E+01
    -1.216E+01   -1.210E+01   -1.205E+01   -1.199E+01   -1.194E+01   -1.188E+01   -1.183E+01   -1.178E+01   -1.172E+01   -1.167E+01
    -1.161E+01   -1.156E+01   -1.150E+01   -1.145E+01   -1.139E+01   -1.134E+01   -1.129E+01   -1.123E+01   -1.118E+01   -1.112E+01
    -1.107E+01   -1.101E+01   -1.096E+01   -1.091E+01   -1.085E+01   -1.080E+01   -1.074E+01   -1.069E+01   -1.063E+01   -1.058E+01
    -1.053E+01   -1.047E+01   -1.042E+01   -1.036E+01   -1.031E+01   -1.026E+01   -1.020E+01   -1.015E+01   -1.009E+01   -1.004E+01
    -9.985E+00   -9.931E+00   -9.877E+00   -9.823E+00   -9.769E+00   -9.715E+00   -9.661E+00   -9.607E+00   -9.553E+00   -9.499E+00
    -9.445E+00   -9.391E+00   -9.338E+00   -9.284E+00   -9.230E+00   -9.176E+00   -9.123E+00   -9.069E+00   -9.015E+00   -8.962E+00
    -8.908E+00   -8.854E+00   -8.801E+00   -8.748E+00   -8.694E+00   -8.641E+00   -8.587E+00   -8.534E+00   -8.481E+00   -8.427E+00
    -8.374E+00   -8.321E+00   -8.268E+00   -8.215E+00   -8.162E+00   -8.109E+00   -8.056E+00   -8.003E+00   -7.950E+00   -7.897E+00
    -7.845E+00   -7.792E+00   -7.739E+00   -7.687E+00   -7.634E+00   -7.582E+00   -7.529E+00   -7.477E+00   -7.425E+00   -7.372E+00
    -7.320E+00   -7.268E+00   -7.216E+00   -7.164E+00   -7.112E+00   -7.060E+00   -7.008E+00   -6.956E+00   -6.905E+00   -6.853E+00
    -6.801E+00   -6.750E+00   -6.698E+00   -6.647E+00   -6.596E+00   -6.544E+00   -6.493E+00   -6.442E+00   -6.391E+00   -6.340E+00
    -6.289E+00   -6.238E+00   -6.187E+00   -6.136E+00   -6.086E+00   -6.035E+00   -5.985E+00   -5.934E+00   -5.884E+00   -5.833E+00
    -5.783E+00   -5.733E+00   -5.683E+00   -5.633E+00   -5.583E+00   -5.533E+00   -5.483E+00   -5.434E+00   -5.384E+00   -5.335E+00
    -5.285E+00   -5.236E+00   -5.187E+00   -5.137E+00   -5.088E+00   -5.039E+00   -4.990E+00   -4.941E+00   -4.893E+00   -4.844E+00
    -4.795E+00   -4.747E+00   -4.699E+00   -4.650E+00   -4.602E+00   -4.554E+00   -4.506E+00   -4.458E+00   -4.410E+00   -4.362E+00
    -4.315E+00   -4.267E+00   -4.220E+00   -4.172E+00   -4.125E+00   -4.078E+00   -4.031E+00   -3.984E+00   -3.937E+00   -3.891E+00
    -3.844E+00   -3.797E+00   -3.751E+00   -3.705E+00   -3.659E+00   -3.612E+00   -3.567E+00   -3.521E+00   -3.475E+00   -3.429E+00
    -3.384E+00   -3.338E+00   -3.293E+00   -3.248E+00   -3.203E+00   -3.158E+00   -3.113E+00   -3.068E+00   -3.024E+00   -2.979E+00
    -2.935E+00   -2.891E+00   -2.847E+00   -2.803E+00   -2.759E+00   -2.715E+00   -2.672E+00   -2.628E+00   -2.585E+00   -2.542E+00
    -2.499E+00   -2.456E+00   -2.413E+00   -2.371E+00   -2.328E+00   -2.286E+00   -2.244E+00   -2.202E+00   -2.160E+00   -2.118E+00
    -2.077E+00   -2.035E+00   -1.994E+00   -1.953E+00   -1.912E+00   -1.871E+00   -1.831E+00   -1.790E+00   -1.750E+00   -1.710E+00
    -1.670E+00   -1.630E+00   -1.590E+00   -1.550E+00   -1.511E+00   -1.472E+00   -1.433E+00   -1.394E+00   -1.355E+00   -1.317E+00
    -1.279E+00   -1.240E+00   -1.202E+00   -1.165E+00   -1.127E+00   -1.089E+00   -1.052E+00   -1.015E+00   -9.779E-01   -9.411E-01
    -9.044E-01   -8.679E-01   -8.316E-01   -7.954E-01   -7.594E-01   -7.235E-01   -6.878E-01   -6.523E-01   -6.169E-01   -5.817E-01
    -5.467E-01   -5.118E-01   -4.771E-01   -4.425E-01   -4.081E-01   -3.738E-01   -3.397E-01   -3.058E-01   -2.720E-01   -2.384E-01
    -2.049E-01   -1.716E-01   -1.384E-01   -1.054E-01   -7.260E-02   -3.990E-02   -7.365E-03    2.502E-02    5.726E-02    8.934E-02
     1.213E-01    1.530E-01    1.847E-01    2.162E-01    2.475E-01    2.787E-01    3.097E-01    3.406E-01    3.713E-01    4.019E-01
     4.323E-01    4.626E-01    4.928E-01    5.228E-01    5.526E-01    5.823E-01    6.119E-01    6.413E-01    6.706E-01    6.998E-01
     7.288E-01    7.576E-01    7.863E-01    8.149E-01    8.434E-01    8.717E-01    8.998E-01    9.278E-01    9.557E-01    9.835E-01
     1.011E+00    1.039E+00    1.066E+00    1.093E+00    1.120E+00    1.147E+00    1.174E+00    1.201E+00    1.227E+00    1.254E+00
     1.280E+00    1.306E+00    1.332E+00    1.358E+00    1.384E+00    1.409E+00    1.435E+00    1.460E+00    1.486E+00    1.511E+00
     1.536E+00    1.561E+00    1.585E+00    1.610E+00    1.635E+00    1.659E+00    1.683E+00    1.707E+00    1.731E+00    1.755E+00
     1.779E+00    1.803E+00    1.826E+00    1.850E+00    1.873E+00    1.897E+00    1.920E+00    1.943E+00    1.966E+00    1.988E+00
     2.011E+00    2.034E+00    2.056E+00    2.078E+00    2.101E+00    2.123E+00    2.145E+00    2.167E+00    2.189E+00    2.210E+00
     2.232E+00    2.253E+00    2.275E+00    2.296E+00    2.317E+00    2.339E+00    2.360E+00    2.380E+00    2.401E+00    2.422E+00
     2.443E+00    2.463E+00    2.484E+00    2.504E+00    2.524E+00    2.544E+00    2.565E+00    2.585E+00    2.604E+00    2.624E+00
     2.644E+00    2.664E+00    2.683E+00    2.703E+00    2.722E+00    2.741E+00    2.761E+00    2.780E+00    2.799E+00    2.818E+00
     2.837E+00    2.855E+00    2.874E+00    2.893E+00    2.911E+00    2.930E+00    2.948E+00    2.967E+00    2.985E+00    3.003E+00
     3.021E+00    3.040E+00    3.058E+00    3.075E+00    3.093E+00    3.111E+00    3.129E+00    3.147E+00    3.164E+00    3.182E+00
     3.199E+00    3.217E+00    3.234E+00    3.251E+00    3.268E+00    3.286E+00    3.303E+00    3.320E+00    3.337E+00    3.354E+00
     3.371E+00    3.387E+00    3.404E+00    3.421E+00    3.437E+00    3.454E+00    3.471E+00    3.487E+00    3.504E+00    3.520E+00
     3.536E+00    3.553E+00    3.569E+00    3.585E+00    3.601E+00    3.617E+00    3.633E+00    3.649E+00    3.665E+00    3.681E+00
     3.697E+00    3.713E+00    3.729E+00    3.744E+00    3.760E+00    3.776E+00    3.791E+00    3.807E+00    3.822E+00    3.838E+00
     3.853E+00    3.869E+00    3.884E+00    3.899E+00    3.915E+00    3.930E+00    3.945E+00    3.960E+00    3.976E+00    3.991E+00
     4.006E+00    4.021E+00    4.036E+00    4.051E+00    4.066E+00    4.081E+00    4.096E+00    4.111E+00    4.125E+00    4.140E+00
     4.155E+00    4.170E+00    4.185E+00    4.199E+00    4.214E+00    4.229E+00    4.243E+00    4.258E+00    4.273E+00    4.287E+00
     4.302E+00    4.317E+00    4.331E+00    4.346E+00    4.360E+00    4.375E+00    4.389E+00    4.404E+00    4.418E+00    4.433E+00
     4.447E+00    4.462E+00    4.476E+00    4.491E+00    4.505E+00    4.520E+00    4.534E+00    4.548E+00    4.563E+00    4.577E+00
     4.592E+00    4.606E+00    4.621E+00    4.635E+00    4.650E+00    4.664E+00    4.678E+00    4.693E+00
 Asp      Conc. = 1.77E+02
