 LCModel (Version 6.3-1L) Copyright: S.W. Provencher.          Ref.: Magn. Reson. Med. 30:672-679 (1993).                
 Slice#3 Row#9 Col#4  PD_05_press_1_raw_act
 36 lines in following concentration table = NCONC+1
    Conc.  %SD /Cr+PCr  Metabolite                                         
    0.000 999%   0.000 Ala                                                 
    0.000 999%   0.000 Asp                                                 
  123.903 113%   0.138 Cr                                                  
  772.569  19%   0.862 PCr                                                 
    0.000 999%   0.000 GABA                                                
    0.000 999%   0.000 Glc                                                 
  575.227  27%   0.642 Gln                                                 
  852.391  20%   0.951 Glu                                                 
  234.302   4%   0.261 GPC                                                 
    0.000 999%   0.000 PCh                                                 
  212.667  18%   0.237 GSH                                                 
    0.000 999%   0.000 Ins                                                 
    0.000 999%   0.000 Lac                                                 
 1.40E+03   6%   1.556 NAA                                                 
   96.985  95%   0.108 NAAG                                                
    0.000 999%   0.000 Scyllo                                              
    0.000 999%   0.000 Tau                                                 
    0.000 999%   0.000 -CrCH2                                              
  234.302   4%   0.261 GPC+PCh                                             
 1.49E+03   3%   1.664 NAA+NAAG                                            
  896.471   3%   1.000 Cr+PCr                                              
 1.43E+03  19%   1.592 Glu+Gln                                             
    0.000 999%   0.000 Lip13a                                              
   18.592 281% 2.1E-02 Lip13b                                              
    4.632 318% 5.2E-03 Lip09                                               
  710.099  15%   0.792 MM09                                                
    2.997 284% 3.3E-03 Lip20                                               
 1.74E+03  11%   1.945 MM20                                                
  146.184  47%   0.163 MM12                                                
  618.885  24%   0.690 MM14                                                
  394.997  29%   0.441 MM17                                                
   18.592 281% 2.1E-02 Lip13a+Lip13b                                       
  783.660  23%   0.874 MM14+Lip13a+Lip13b+MM12                             
  714.732  15%   0.797 MM09+Lip09                                          
 1.75E+03  11%   1.949 MM20+Lip20                                          
   6 lines in following misc. output table
  FWHM = 0.061 ppm    S/N =  14                                            
  Data shift = 0.000 ppm                                                   
  Ph:   0 deg      -7.9 deg/ppm                                            
  alphaB,S = 7.3E-01,   2.0E+02                                            
   14 spline knots.   Ns = 9(1)                                            
  (17) 3 infls.   (19) 1 extrs.                                            
  498 points on ppm-axis = NY
      4.000000     3.992357     3.984714     3.977070     3.969427     3.961784     3.954141     3.946497     3.938854     3.931211
      3.923568     3.915925     3.908281     3.900638     3.892995     3.885352     3.877708     3.870065     3.862422     3.854779
      3.847136     3.839492     3.831849     3.824206     3.816563     3.808919     3.801276     3.793633     3.785990     3.778347
      3.770703     3.763060     3.755417     3.747774     3.740130     3.732487     3.724844     3.717201     3.709558     3.701914
      3.694271     3.686628     3.678985     3.671341     3.663698     3.656055     3.648412     3.640769     3.633125     3.625482
      3.617839     3.610196     3.602552     3.594909     3.587266     3.579623     3.571980     3.564336     3.556693     3.549050
      3.541407     3.533763     3.526120     3.518477     3.510834     3.503191     3.495547     3.487904     3.480261     3.472618
      3.464974     3.457331     3.449688     3.442045     3.434402     3.426758     3.419115     3.411472     3.403829     3.396185
      3.388542     3.380899     3.373256     3.365613     3.357969     3.350326     3.342683     3.335040     3.327396     3.319753
      3.312110     3.304467     3.296824     3.289180     3.281537     3.273894     3.266251     3.258607     3.250964     3.243321
      3.235678     3.228034     3.220391     3.212748     3.205105     3.197462     3.189818     3.182175     3.174532     3.166889
      3.159245     3.151602     3.143959     3.136316     3.128673     3.121029     3.113386     3.105743     3.098100     3.090456
      3.082813     3.075170     3.067527     3.059884     3.052240     3.044597     3.036954     3.029311     3.021667     3.014024
      3.006381     2.998738     2.991095     2.983451     2.975808     2.968165     2.960522     2.952878     2.945235     2.937592
      2.929949     2.922306     2.914662     2.907019     2.899376     2.891733     2.884089     2.876446     2.868803     2.861160
      2.853517     2.845873     2.838230     2.830587     2.822944     2.815300     2.807657     2.800014     2.792371     2.784728
      2.777084     2.769441     2.761798     2.754155     2.746511     2.738868     2.731225     2.723582     2.715939     2.708295
      2.700652     2.693009     2.685366     2.677722     2.670079     2.662436     2.654793     2.647150     2.639506     2.631863
      2.624220     2.616577     2.608933     2.601290     2.593647     2.586004     2.578361     2.570717     2.563074     2.555431
      2.547788     2.540144     2.532501     2.524858     2.517215     2.509572     2.501928     2.494285     2.486642     2.478999
      2.471355     2.463712     2.456069     2.448426     2.440783     2.433139     2.425496     2.417853     2.410210     2.402566
      2.394923     2.387280     2.379637     2.371994     2.364350     2.356707     2.349064     2.341421     2.333777     2.326134
      2.318491     2.310848     2.303205     2.295561     2.287918     2.280275     2.272632     2.264988     2.257345     2.249702
      2.242059     2.234416     2.226772     2.219129     2.211486     2.203843     2.196199     2.188556     2.180913     2.173270
      2.165627     2.157983     2.150340     2.142697     2.135054     2.127410     2.119767     2.112124     2.104481     2.096838
      2.089194     2.081551     2.073908     2.066265     2.058621     2.050978     2.043335     2.035692     2.028049     2.020405
      2.012762     2.005119     1.997476     1.989833     1.982190     1.974546     1.966903     1.959260     1.951617     1.943974
      1.936331     1.928688     1.921045     1.913402     1.905759     1.898115     1.890472     1.882829     1.875186     1.867543
      1.859900     1.852257     1.844614     1.836971     1.829327     1.821684     1.814041     1.806398     1.798755     1.791112
      1.783469     1.775826     1.768183     1.760540     1.752896     1.745253     1.737610     1.729967     1.722324     1.714681
      1.707038     1.699395     1.691752     1.684108     1.676465     1.668822     1.661179     1.653536     1.645893     1.638250
      1.630607     1.622964     1.615321     1.607677     1.600034     1.592391     1.584748     1.577105     1.569462     1.561819
      1.554176     1.546533     1.538890     1.531246     1.523603     1.515960     1.508317     1.500674     1.493031     1.485388
      1.477745     1.470102     1.462458     1.454815     1.447172     1.439529     1.431886     1.424243     1.416600     1.408957
      1.401314     1.393671     1.386027     1.378384     1.370741     1.363098     1.355455     1.347812     1.340169     1.332526
      1.324883     1.317240     1.309596     1.301953     1.294310     1.286667     1.279024     1.271381     1.263738     1.256095
      1.248452     1.240808     1.233165     1.225522     1.217879     1.210236     1.202593     1.194950     1.187307     1.179664
      1.172021     1.164377     1.156734     1.149091     1.141448     1.133805     1.126162     1.118519     1.110876     1.103233
      1.095590     1.087946     1.080303     1.072660     1.065017     1.057374     1.049731     1.042088     1.034445     1.026802
      1.019158     1.011515     1.003872     0.996229     0.988586     0.980943     0.973300     0.965657     0.958014     0.950371
      0.942727     0.935084     0.927441     0.919798     0.912155     0.904512     0.896869     0.889226     0.881583     0.873940
      0.866296     0.858653     0.851010     0.843367     0.835724     0.828081     0.820438     0.812795     0.805152     0.797508
      0.789865     0.782222     0.774579     0.766936     0.759293     0.751650     0.744007     0.736364     0.728721     0.721077
      0.713434     0.705791     0.698148     0.690505     0.682862     0.675219     0.667576     0.659933     0.652290     0.644646
      0.637003     0.629360     0.621717     0.614074     0.606431     0.598788     0.591145     0.583502     0.575858     0.568215
      0.560572     0.552929     0.545286     0.537643     0.530000     0.522357     0.514714     0.507071     0.499427     0.491784
      0.484141     0.476498     0.468855     0.461212     0.453569     0.445925     0.438282     0.430639     0.422996     0.415353
      0.407710     0.400067     0.392424     0.384780     0.377137     0.369494     0.361851     0.354208     0.346565     0.338922
      0.331278     0.323635     0.315992     0.308349     0.300706     0.293063     0.285420     0.277777     0.270133     0.262490
      0.254847     0.247204     0.239561     0.231918     0.224275     0.216631     0.208988     0.201345
 NY phased data points follow
   3.89801E+01  3.79914E+01  3.96506E+01  4.05409E+01  4.07289E+01  4.35922E+01  4.49118E+01  4.82422E+01  4.88263E+01  4.89712E+01
   5.10210E+01  5.02032E+01  4.93321E+01  4.67753E+01  4.34371E+01  4.29214E+01  3.92073E+01  3.72007E+01  3.43903E+01  3.35176E+01
   3.59897E+01  3.49772E+01  3.12565E+01  3.42839E+01  3.39083E+01  3.34448E+01  3.13595E+01  3.40537E+01  3.41770E+01  3.46043E+01
   3.22276E+01  3.37809E+01  3.28438E+01  3.08713E+01  2.96789E+01  3.05870E+01  2.79046E+01  3.10139E+01  2.90639E+01  2.76244E+01
   2.76119E+01  2.82930E+01  2.81924E+01  2.82754E+01  2.63260E+01  2.68575E+01  2.86144E+01  2.82184E+01  3.02374E+01  2.87697E+01
   2.72586E+01  2.54937E+01  2.64195E+01  2.57858E+01  2.59668E+01  2.31016E+01  2.39017E+01  2.27746E+01  2.17635E+01  2.13557E+01
   2.46982E+01  2.21155E+01  2.09265E+01  2.00318E+01  1.73489E+01  1.70260E+01  1.92755E+01  1.94876E+01  1.91366E+01  1.86078E+01
   1.78005E+01  1.67677E+01  1.96028E+01  1.90083E+01  1.96427E+01  1.87991E+01  1.92394E+01  1.75257E+01  1.64429E+01  1.72752E+01
   1.73632E+01  1.84692E+01  1.62162E+01  1.69101E+01  1.73402E+01  1.84812E+01  1.80407E+01  1.71564E+01  1.53920E+01  1.87278E+01
   1.95285E+01  1.82918E+01  1.81684E+01  1.82794E+01  1.83846E+01  1.97619E+01  1.97251E+01  2.15156E+01  2.43515E+01  2.46252E+01
   2.68334E+01  3.17470E+01  3.33922E+01  3.45703E+01  3.37473E+01  3.28429E+01  2.82912E+01  2.63491E+01  2.46989E+01  2.33495E+01
   1.96670E+01  1.87811E+01  1.63861E+01  1.50117E+01  1.89904E+01  1.72111E+01  1.66096E+01  1.89623E+01  1.71551E+01  1.83666E+01
   2.00227E+01  2.10458E+01  2.34946E+01  2.51655E+01  3.06943E+01  3.34228E+01  3.61073E+01  3.81420E+01  3.61247E+01  3.38017E+01
   3.19654E+01  2.79398E+01  2.67505E+01  2.48379E+01  2.18410E+01  1.93950E+01  1.72586E+01  1.64800E+01  1.56099E+01  1.55846E+01
   1.34128E+01  1.55046E+01  1.27050E+01  1.38472E+01  1.38232E+01  1.43357E+01  1.47160E+01  1.10468E+01  1.12513E+01  1.34143E+01
   1.36541E+01  1.39899E+01  1.19146E+01  1.10718E+01  1.11751E+01  1.15540E+01  1.33000E+01  1.05624E+01  1.05853E+01  1.36520E+01
   1.33860E+01  9.73815E+00  9.16004E+00  9.90434E+00  1.03071E+01  1.16441E+01  1.18283E+01  9.52128E+00  9.01097E+00  8.09715E+00
   1.00031E+01  9.23348E+00  4.71809E+00  6.90214E+00  4.09447E+00  5.28985E+00  4.39158E+00  3.80117E+00  5.24978E+00  6.54601E+00
   4.67398E+00  5.12894E+00  3.42567E+00  5.47756E+00  3.73362E+00  4.29375E+00  5.37638E+00  8.14366E+00  5.50360E+00  1.02555E+01
   1.03834E+01  7.94267E+00  9.95397E+00  1.10264E+01  1.08226E+01  1.03576E+01  1.13338E+01  1.02219E+01  1.05790E+01  9.74452E+00
   9.61283E+00  1.08791E+01  8.14809E+00  8.70344E+00  9.85252E+00  8.62702E+00  7.80090E+00  7.14569E+00  7.68609E+00  7.68641E+00
   5.63997E+00  9.43837E+00  6.58931E+00  1.03132E+01  1.17005E+01  9.43819E+00  1.24121E+01  1.27730E+01  1.16129E+01  9.10375E+00
   8.65166E+00  6.57032E+00  5.68798E+00  7.57619E+00  7.92004E+00  1.18148E+01  9.79728E+00  1.09814E+01  9.27687E+00  1.05299E+01
   9.96323E+00  1.05287E+01  1.12210E+01  1.10479E+01  1.03540E+01  1.14085E+01  1.08069E+01  1.16546E+01  9.82661E+00  1.10341E+01
   9.78959E+00  1.04271E+01  1.04509E+01  1.06541E+01  1.14121E+01  1.21847E+01  1.16657E+01  1.32017E+01  1.16372E+01  1.66135E+01
   1.57237E+01  1.63149E+01  1.94617E+01  2.19309E+01  2.63652E+01  2.92698E+01  3.22603E+01  3.92552E+01  4.10717E+01  4.81253E+01
   5.02552E+01  4.85705E+01  4.85765E+01  4.00536E+01  3.16584E+01  2.52814E+01  2.22528E+01  1.88978E+01  1.58141E+01  1.29467E+01
   1.16379E+01  1.02818E+01  9.39107E+00  1.06050E+01  9.43270E+00  7.29332E+00  7.08111E+00  6.54535E+00  7.26492E+00  7.98402E+00
   8.95566E+00  7.22206E+00  6.41556E+00  6.65877E+00  6.63622E+00  6.53616E+00  4.86828E+00  5.95174E+00  2.04026E+00  5.49306E+00
   4.50301E+00  5.69555E+00  4.41101E+00  4.99405E+00  5.73778E+00  4.94389E+00  5.52602E+00  5.59262E+00  5.24542E+00  4.86319E+00
   6.72060E+00  5.53724E+00  3.36340E+00  5.47040E+00  4.22667E+00  4.57037E+00  5.43526E+00  5.60002E+00  7.30236E+00  6.32032E+00
   5.78352E+00  7.91052E+00  4.90817E+00  6.64566E+00  6.39214E+00  4.80362E+00  8.02330E+00  4.24935E+00  7.38512E+00  3.86590E+00
   5.89706E+00  5.59079E+00  6.07306E+00  3.33840E+00  4.77358E+00  4.63441E+00  3.28834E+00  6.59787E+00  5.76809E+00  6.55024E+00
   6.74352E+00  5.51296E+00  4.66515E+00  3.37180E+00  5.52798E+00  4.36283E+00  3.14397E+00  5.51089E+00  5.77119E+00  3.24534E+00
   3.53519E+00  4.23775E+00  4.76034E+00  4.42895E+00  3.80162E+00  4.00213E+00  4.48068E+00  3.15936E+00  5.54714E+00  2.85065E+00
   3.15543E+00  4.24634E+00  1.11486E+00  4.13094E+00  3.65331E+00  7.63161E-01  2.64048E+00  2.94124E+00  3.12914E+00  2.80674E+00
   8.35006E-01  2.11313E+00  2.52693E+00  2.17424E+00  8.30234E-01 -7.51981E-01  1.18575E+00  4.24004E+00  2.91125E+00  1.16238E+00
  -1.01753E+00  6.82977E-01 -5.41121E-01  1.01452E+00 -9.65465E-01 -1.01067E-01  1.21700E+00  1.15575E+00 -2.15401E-01  1.11807E+00
   1.27779E+00  3.62681E-01  1.28193E+00  1.37903E+00  2.41936E-01  3.02420E+00  2.13927E+00  2.16494E+00  3.26109E+00  2.79353E+00
   2.80084E+00  2.37231E+00  2.12578E+00  4.12670E+00  3.28040E+00  2.00457E+00  4.47790E+00  3.01011E+00  6.39541E+00  5.01940E+00
   3.35701E+00  7.47863E+00  2.84154E+00  4.65940E+00  3.47642E+00  2.64261E+00  3.46797E+00  3.58843E+00  3.84969E+00  4.42962E+00
   2.78464E+00  3.53047E+00  3.39342E+00  2.96253E+00  4.58384E+00  3.44352E+00  3.52623E+00  2.62689E+00  2.46469E+00  5.70935E-01
   2.59544E+00  1.04946E+00  2.60295E+00  3.84546E+00  6.55810E-01  5.80228E-01 -5.16137E-01  3.77343E+00  3.01455E+00  1.68297E-01
   1.98018E+00  5.66051E-01 -9.76929E-01  2.40704E+00  1.30954E+00 -1.35171E-01  6.14041E-01 -8.34141E-01  1.26340E+00 -4.46882E-01
   1.63148E+00  8.31113E-02 -4.18510E-01 -9.50229E-01 -1.97701E-01 -1.18775E-01  1.61577E-01  1.75117E+00  2.94782E-01  4.19728E-01
   2.35524E-01 -7.67905E-01  2.03235E+00  3.46931E-01  4.35060E-01 -2.19794E-01 -1.75664E+00  1.09180E-01 -8.74971E-01 -1.33035E-01
  -8.43083E-01  3.76074E-01  2.10402E+00 -3.35291E+00  1.21578E-01 -6.33521E-01 -1.32442E+00  1.40287E+00  1.16474E+00  1.44855E+00
  -4.29186E-01 -3.54297E-01  1.15273E+00  7.35635E-01 -9.74835E-01  1.03164E+00  3.60282E+00 -3.89250E-01  6.81083E-01 -1.29275E-02
   2.85566E-01 -2.97775E-01  1.70054E+00  7.26957E-01  1.09511E+00  2.22468E+00  5.33173E-01 -5.59073E-02 -2.97957E-01  9.93159E-01
  -7.15705E-01 -1.80059E-01  2.17632E+00 -4.23677E-01  2.53443E-01  4.15360E-01  1.25462E+00  1.23115E+00
 NY points of the fit to the data follow
   3.60430E+01  3.69130E+01  3.80198E+01  3.92385E+01  4.06035E+01  4.22436E+01  4.42171E+01  4.63593E+01  4.83021E+01  4.95875E+01
   4.98520E+01  4.89752E+01  4.71392E+01  4.48169E+01  4.25283E+01  4.05361E+01  3.88096E+01  3.72408E+01  3.57913E+01  3.44681E+01
   3.34897E+01  3.29867E+01  3.27240E+01  3.25723E+01  3.24732E+01  3.24731E+01  3.26318E+01  3.29465E+01  3.33705E+01  3.37910E+01
   3.40475E+01  3.40110E+01  3.35617E+01  3.27231E+01  3.16872E+01  3.06573E+01  2.97505E+01  2.90533E+01  2.86008E+01  2.83189E+01
   2.81511E+01  2.80588E+01  2.79580E+01  2.78169E+01  2.76351E+01  2.74250E+01  2.71833E+01  2.69062E+01  2.66081E+01  2.62999E+01
   2.59873E+01  2.56881E+01  2.53816E+01  2.50498E+01  2.47054E+01  2.43630E+01  2.40248E+01  2.37001E+01  2.33903E+01  2.30848E+01
   2.27865E+01  2.25097E+01  2.22552E+01  2.20158E+01  2.17872E+01  2.15671E+01  2.13563E+01  2.11534E+01  2.09561E+01  2.07632E+01
   2.05743E+01  2.03889E+01  2.02067E+01  2.00272E+01  1.98504E+01  1.96763E+01  1.95054E+01  1.93372E+01  1.91716E+01  1.90081E+01
   1.88470E+01  1.86882E+01  1.85323E+01  1.83793E+01  1.82293E+01  1.80827E+01  1.79398E+01  1.78014E+01  1.76686E+01  1.75434E+01
   1.74291E+01  1.73333E+01  1.72787E+01  1.73858E+01  1.81044E+01  1.94125E+01  2.08255E+01  2.22533E+01  2.38891E+01  2.59635E+01
   2.84793E+01  3.10904E+01  3.32263E+01  3.43124E+01  3.40029E+01  3.23047E+01  2.96282E+01  2.67052E+01  2.41561E+01  2.21163E+01
   2.04002E+01  1.88608E+01  1.74942E+01  1.64090E+01  1.58245E+01  1.56509E+01  1.56374E+01  1.58427E+01  1.67462E+01  1.84232E+01
   2.03021E+01  2.22232E+01  2.43925E+01  2.70918E+01  3.03611E+01  3.37887E+01  3.66520E+01  3.82350E+01  3.80946E+01  3.62099E+01
   3.30430E+01  2.94302E+01  2.61388E+01  2.33813E+01  2.09676E+01  1.87567E+01  1.67964E+01  1.52653E+01  1.44267E+01  1.41756E+01
   1.40976E+01  1.40200E+01  1.38892E+01  1.37060E+01  1.34979E+01  1.32789E+01  1.30504E+01  1.28206E+01  1.25881E+01  1.23534E+01
   1.21294E+01  1.19124E+01  1.16802E+01  1.14472E+01  1.12414E+01  1.10752E+01  1.09484E+01  1.07998E+01  1.05876E+01  1.03343E+01
   1.00921E+01  9.90751E+00  9.79738E+00  9.73970E+00  9.67722E+00  9.53817E+00  9.28010E+00  8.91099E+00  8.50875E+00  8.18412E+00
   7.94862E+00  7.73628E+00  7.46060E+00  7.14302E+00  6.86797E+00  6.69132E+00  6.62273E+00  6.61385E+00  6.60036E+00  6.58683E+00
   6.59679E+00  6.63375E+00  6.71983E+00  6.87759E+00  7.09441E+00  7.35994E+00  7.67148E+00  8.03334E+00  8.45149E+00  8.86706E+00
   9.19078E+00  9.35577E+00  9.35100E+00  9.23737E+00  9.11521E+00  9.10649E+00  9.24008E+00  9.49157E+00  9.80381E+00  1.01306E+01
   1.03961E+01  1.05484E+01  1.05938E+01  1.04437E+01  9.98422E+00  9.25076E+00  8.37883E+00  7.60071E+00  7.05131E+00  6.79360E+00
   6.90407E+00  7.39675E+00  8.17395E+00  8.99658E+00  9.65167E+00  1.00887E+01  1.02487E+01  1.00165E+01  9.37442E+00  8.46960E+00
   7.56319E+00  6.92163E+00  6.68595E+00  6.85395E+00  7.36275E+00  8.08457E+00  8.80768E+00  9.41138E+00  9.85709E+00  1.01541E+01
   1.03512E+01  1.04996E+01  1.06221E+01  1.07018E+01  1.07689E+01  1.08961E+01  1.10934E+01  1.12848E+01  1.13724E+01  1.12928E+01
   1.10641E+01  1.07924E+01  1.05914E+01  1.05546E+01  1.07426E+01  1.11224E+01  1.16057E+01  1.21656E+01  1.27532E+01  1.33273E+01
   1.41043E+01  1.60061E+01  1.92459E+01  2.27213E+01  2.60648E+01  2.95641E+01  3.36609E+01  3.84450E+01  4.33706E+01  4.74214E+01
   4.95119E+01  4.89039E+01  4.54751E+01  3.98957E+01  3.36063E+01  2.79851E+01  2.34556E+01  1.96933E+01  1.63409E+01  1.33207E+01
   1.08210E+01  9.28877E+00  8.65016E+00  8.28276E+00  7.99959E+00  7.75238E+00  7.50917E+00  7.25649E+00  7.00670E+00  6.76917E+00
   6.54890E+00  6.34637E+00  6.16006E+00  5.98912E+00  5.83502E+00  5.69804E+00  5.57590E+00  5.46763E+00  5.37441E+00  5.29805E+00
   5.23892E+00  5.19610E+00  5.16817E+00  5.15493E+00  5.15557E+00  5.16879E+00  5.19348E+00  5.22954E+00  5.27658E+00  5.33344E+00
   5.39836E+00  5.46899E+00  5.54230E+00  5.61516E+00  5.68404E+00  5.74572E+00  5.79749E+00  5.83720E+00  5.86320E+00  5.87431E+00
   5.86979E+00  5.84995E+00  5.81585E+00  5.76905E+00  5.71180E+00  5.64672E+00  5.57662E+00  5.50443E+00  5.43302E+00  5.36505E+00
   5.30282E+00  5.24813E+00  5.20219E+00  5.16555E+00  5.13812E+00  5.11916E+00  5.10736E+00  5.10090E+00  5.09756E+00  5.09486E+00
   5.09018E+00  5.08091E+00  5.06456E+00  5.03889E+00  5.00199E+00  4.95237E+00  4.88906E+00  4.81160E+00  4.72007E+00  4.61509E+00
   4.49780E+00  4.36982E+00  4.23326E+00  4.09056E+00  3.94447E+00  3.79789E+00  3.65372E+00  3.51462E+00  3.38282E+00  3.25980E+00
   3.14609E+00  3.04125E+00  2.94386E+00  2.85178E+00  2.76256E+00  2.67385E+00  2.58390E+00  2.49182E+00  2.39779E+00  2.30288E+00
   2.20881E+00  2.11753E+00  2.03082E+00  1.95005E+00  1.87598E+00  1.80878E+00  1.74815E+00  1.69350E+00  1.64413E+00  1.59946E+00
   1.55906E+00  1.52276E+00  1.49066E+00  1.46306E+00  1.44051E+00  1.42368E+00  1.41340E+00  1.41056E+00  1.41615E+00  1.43116E+00
   1.45663E+00  1.49361E+00  1.54310E+00  1.60607E+00  1.68337E+00  1.77575E+00  1.88373E+00  2.00762E+00  2.14740E+00  2.30264E+00
   2.47247E+00  2.65553E+00  2.84988E+00  3.05300E+00  3.26180E+00  3.47264E+00  3.68140E+00  3.88358E+00  4.07448E+00  4.24928E+00
   4.40332E+00  4.53225E+00  4.63221E+00  4.70009E+00  4.73359E+00  4.73139E+00  4.69320E+00  4.61977E+00  4.51287E+00  4.37515E+00
   4.21007E+00  4.02167E+00  3.81439E+00  3.59291E+00  3.36192E+00  3.12594E+00  2.88918E+00  2.65542E+00  2.42789E+00  2.20929E+00
   2.00169E+00  1.80663E+00  1.62508E+00  1.45755E+00  1.30414E+00  1.16462E+00  1.03849E+00  9.25051E-01  8.23489E-01  7.32901E-01
   6.52361E-01  5.80949E-01  5.17773E-01  4.61986E-01  4.12802E-01  3.69503E-01  3.31445E-01  2.98049E-01  2.68801E-01  2.43242E-01
   2.20969E-01  2.01631E-01  1.84924E-01  1.70577E-01  1.58352E-01  1.48038E-01  1.39449E-01  1.32428E-01  1.26834E-01  1.22541E-01
   1.19435E-01  1.17413E-01  1.16386E-01  1.16279E-01  1.17025E-01  1.18561E-01  1.20828E-01  1.23774E-01  1.27356E-01  1.31534E-01
   1.36269E-01  1.41527E-01  1.47271E-01  1.53475E-01  1.60113E-01  1.67161E-01  1.74594E-01  1.82387E-01  1.90520E-01  1.98975E-01
   2.07737E-01  2.16790E-01  2.26118E-01  2.35703E-01  2.45532E-01  2.55595E-01  2.65880E-01  2.76374E-01  2.87063E-01  2.97936E-01
   3.08984E-01  3.20200E-01  3.31576E-01  3.43100E-01  3.54762E-01  3.66554E-01  3.78473E-01  3.90512E-01  4.02663E-01  4.14919E-01
   4.27272E-01  4.39719E-01  4.52257E-01  4.64884E-01  4.77593E-01  4.90379E-01  5.03242E-01  5.16185E-01
 NY background values follow
     3.488E+01    3.466E+01    3.444E+01    3.422E+01    3.400E+01    3.378E+01    3.356E+01    3.334E+01    3.311E+01    3.289E+01
     3.267E+01    3.245E+01    3.223E+01    3.201E+01    3.179E+01    3.157E+01    3.135E+01    3.113E+01    3.091E+01    3.069E+01
     3.047E+01    3.025E+01    3.003E+01    2.981E+01    2.959E+01    2.938E+01    2.916E+01    2.894E+01    2.873E+01    2.851E+01
     2.830E+01    2.809E+01    2.787E+01    2.766E+01    2.745E+01    2.724E+01    2.703E+01    2.682E+01    2.661E+01    2.640E+01
     2.620E+01    2.599E+01    2.578E+01    2.558E+01    2.538E+01    2.518E+01    2.497E+01    2.478E+01    2.458E+01    2.438E+01
     2.418E+01    2.399E+01    2.379E+01    2.360E+01    2.341E+01    2.322E+01    2.303E+01    2.284E+01    2.265E+01    2.247E+01
     2.228E+01    2.210E+01    2.192E+01    2.173E+01    2.155E+01    2.138E+01    2.120E+01    2.102E+01    2.085E+01    2.068E+01
     2.050E+01    2.033E+01    2.017E+01    2.000E+01    1.983E+01    1.967E+01    1.950E+01    1.934E+01    1.918E+01    1.902E+01
     1.886E+01    1.871E+01    1.855E+01    1.840E+01    1.825E+01    1.810E+01    1.795E+01    1.780E+01    1.766E+01    1.752E+01
     1.737E+01    1.723E+01    1.709E+01    1.696E+01    1.682E+01    1.669E+01    1.655E+01    1.642E+01    1.629E+01    1.617E+01
     1.604E+01    1.591E+01    1.579E+01    1.567E+01    1.555E+01    1.543E+01    1.531E+01    1.519E+01    1.508E+01    1.496E+01
     1.485E+01    1.474E+01    1.462E+01    1.451E+01    1.441E+01    1.430E+01    1.419E+01    1.409E+01    1.398E+01    1.388E+01
     1.378E+01    1.368E+01    1.358E+01    1.348E+01    1.338E+01    1.328E+01    1.318E+01    1.309E+01    1.299E+01    1.290E+01
     1.281E+01    1.272E+01    1.262E+01    1.253E+01    1.244E+01    1.235E+01    1.227E+01    1.218E+01    1.209E+01    1.200E+01
     1.192E+01    1.183E+01    1.175E+01    1.167E+01    1.158E+01    1.150E+01    1.142E+01    1.134E+01    1.126E+01    1.118E+01
     1.110E+01    1.102E+01    1.094E+01    1.087E+01    1.079E+01    1.071E+01    1.064E+01    1.056E+01    1.049E+01    1.042E+01
     1.035E+01    1.027E+01    1.020E+01    1.013E+01    1.006E+01    9.993E+00    9.924E+00    9.856E+00    9.788E+00    9.722E+00
     9.655E+00    9.590E+00    9.525E+00    9.460E+00    9.397E+00    9.334E+00    9.271E+00    9.209E+00    9.148E+00    9.087E+00
     9.027E+00    8.967E+00    8.908E+00    8.850E+00    8.792E+00    8.735E+00    8.678E+00    8.622E+00    8.566E+00    8.511E+00
     8.456E+00    8.402E+00    8.348E+00    8.295E+00    8.242E+00    8.189E+00    8.137E+00    8.085E+00    8.033E+00    7.982E+00
     7.931E+00    7.880E+00    7.830E+00    7.780E+00    7.730E+00    7.680E+00    7.631E+00    7.582E+00    7.533E+00    7.484E+00
     7.435E+00    7.386E+00    7.338E+00    7.290E+00    7.242E+00    7.194E+00    7.146E+00    7.098E+00    7.050E+00    7.002E+00
     6.954E+00    6.906E+00    6.858E+00    6.810E+00    6.762E+00    6.714E+00    6.666E+00    6.617E+00    6.569E+00    6.521E+00
     6.472E+00    6.423E+00    6.375E+00    6.326E+00    6.277E+00    6.228E+00    6.179E+00    6.130E+00    6.080E+00    6.031E+00
     5.982E+00    5.932E+00    5.882E+00    5.833E+00    5.783E+00    5.733E+00    5.683E+00    5.633E+00    5.583E+00    5.533E+00
     5.483E+00    5.433E+00    5.382E+00    5.332E+00    5.281E+00    5.231E+00    5.180E+00    5.130E+00    5.079E+00    5.028E+00
     4.977E+00    4.926E+00    4.875E+00    4.824E+00    4.773E+00    4.722E+00    4.671E+00    4.620E+00    4.568E+00    4.517E+00
     4.466E+00    4.414E+00    4.363E+00    4.311E+00    4.260E+00    4.208E+00    4.157E+00    4.105E+00    4.053E+00    4.002E+00
     3.950E+00    3.898E+00    3.847E+00    3.795E+00    3.743E+00    3.692E+00    3.640E+00    3.589E+00    3.537E+00    3.486E+00
     3.434E+00    3.383E+00    3.332E+00    3.280E+00    3.229E+00    3.178E+00    3.127E+00    3.076E+00    3.025E+00    2.974E+00
     2.924E+00    2.873E+00    2.823E+00    2.772E+00    2.722E+00    2.672E+00    2.622E+00    2.572E+00    2.522E+00    2.473E+00
     2.424E+00    2.374E+00    2.325E+00    2.276E+00    2.228E+00    2.179E+00    2.131E+00    2.082E+00    2.034E+00    1.987E+00
     1.939E+00    1.892E+00    1.845E+00    1.798E+00    1.751E+00    1.705E+00    1.659E+00    1.613E+00    1.567E+00    1.522E+00
     1.477E+00    1.433E+00    1.388E+00    1.345E+00    1.301E+00    1.258E+00    1.215E+00    1.172E+00    1.130E+00    1.089E+00
     1.047E+00    1.007E+00    9.662E-01    9.262E-01    8.867E-01    8.476E-01    8.090E-01    7.708E-01    7.332E-01    6.960E-01
     6.593E-01    6.231E-01    5.875E-01    5.524E-01    5.178E-01    4.838E-01    4.504E-01    4.175E-01    3.852E-01    3.534E-01
     3.223E-01    2.918E-01    2.619E-01    2.326E-01    2.040E-01    1.759E-01    1.485E-01    1.217E-01    9.549E-02    6.989E-02
     4.490E-02    2.052E-02   -3.266E-03   -2.645E-02   -4.904E-02   -7.103E-02   -9.242E-02   -1.132E-01   -1.334E-01   -1.531E-01
    -1.721E-01   -1.906E-01   -2.084E-01   -2.257E-01   -2.425E-01   -2.586E-01   -2.742E-01   -2.892E-01   -3.036E-01   -3.175E-01
    -3.308E-01   -3.435E-01   -3.557E-01   -3.673E-01   -3.783E-01   -3.889E-01   -3.988E-01   -4.082E-01   -4.171E-01   -4.254E-01
    -4.331E-01   -4.403E-01   -4.470E-01   -4.532E-01   -4.588E-01   -4.638E-01   -4.684E-01   -4.724E-01   -4.758E-01   -4.788E-01
    -4.813E-01   -4.832E-01   -4.847E-01   -4.857E-01   -4.862E-01   -4.862E-01   -4.857E-01   -4.849E-01   -4.835E-01   -4.818E-01
    -4.796E-01   -4.770E-01   -4.739E-01   -4.705E-01   -4.667E-01   -4.625E-01   -4.579E-01   -4.529E-01   -4.476E-01   -4.419E-01
    -4.359E-01   -4.296E-01   -4.229E-01   -4.159E-01   -4.085E-01   -4.009E-01   -3.930E-01   -3.848E-01   -3.763E-01   -3.675E-01
    -3.584E-01   -3.492E-01   -3.396E-01   -3.298E-01   -3.198E-01   -3.096E-01   -2.991E-01   -2.885E-01   -2.776E-01   -2.666E-01
    -2.553E-01   -2.439E-01   -2.324E-01   -2.206E-01   -2.087E-01   -1.967E-01   -1.845E-01   -1.722E-01   -1.597E-01   -1.471E-01
    -1.344E-01   -1.215E-01   -1.085E-01   -9.541E-02   -8.219E-02   -6.886E-02   -5.542E-02   -4.188E-02   -2.824E-02   -1.451E-02
    -6.825E-04    1.323E-02    2.722E-02    4.130E-02    5.544E-02    6.966E-02    8.395E-02    9.829E-02    1.127E-01    1.272E-01
     1.417E-01    1.562E-01    1.708E-01    1.855E-01    2.001E-01    2.148E-01    2.296E-01    2.443E-01    2.591E-01    2.739E-01
     2.887E-01    3.035E-01    3.183E-01    3.331E-01    3.479E-01    3.627E-01    3.774E-01    3.922E-01
 Cr       Conc. = 1.24E+02
