 LCModel (Version 6.3-1L) Copyright: S.W. Provencher.          Ref.: Magn. Reson. Med. 30:672-679 (1993).                
 Slice#2 Row#2 Col#3  PD_05_press_1_raw_act
 36 lines in following concentration table = NCONC+1
    Conc.  %SD /Cr+PCr  Metabolite                                         
  819.458  24%   5.515 Ala                                                 
    0.000 999%   0.000 Asp                                                 
    0.000 999%   0.000 Cr                                                  
  148.586  20%   1.000 PCr                                                 
    7.286 224% 4.9E-02 GABA                                                
    6.662 246% 4.5E-02 Glc                                                 
  666.774  36%   4.487 Gln                                                 
  886.533  32%   5.966 Glu                                                 
   33.686  35%   0.227 GPC                                                 
    0.000 999%   0.000 PCh                                                 
    0.000 999%   0.000 GSH                                                 
  224.494  63%   1.511 Ins                                                 
  878.121  25%   5.910 Lac                                                 
    0.000 999%   0.000 NAA                                                 
    0.000 999%   0.000 NAAG                                                
    3.345 157% 2.3E-02 Scyllo                                              
   12.155 219% 8.2E-02 Tau                                                 
    0.000 999%   0.000 -CrCH2                                              
   33.686  35%   0.227 GPC+PCh                                             
    0.000 999%   0.000 NAA+NAAG                                            
  148.586  20%   1.000 Cr+PCr                                              
 1.55E+03  27%  10.454 Glu+Gln                                             
  289.127 144%   1.946 Lip13a                                              
  219.109  48%   1.475 Lip13b                                              
  110.914  81%   0.746 Lip09                                               
   98.965  46%   0.666 MM09                                                
   58.740  95%   0.395 Lip20                                               
    0.000 999%   0.000 MM20                                                
   35.984  71%   0.242 MM12                                                
  498.501  13%   3.355+MM14                                                
  269.763  21%   1.816+MM17                                                
  508.237  65%   3.420 Lip13a+Lip13b                                       
 1.04E+03  32%   7.018 MM14+Lip13a+Lip13b+MM12                             
  209.880  40%   1.413 MM09+Lip09                                          
   58.740  95%   0.395 MM20+Lip20                                          
   6 lines in following misc. output table
  FWHM = 0.153 ppm    S/N =   2                                            
  Data shift = 0.000 ppm                                                   
  Ph: 118 deg     -14.8 deg/ppm                                            
  alphaB,S = 5.7E-01,   2.6E+01                                            
   14 spline knots.   Ns =10(1)                                            
  (16) 9 infls.   (15) 7 extrs.                                            
  498 points on ppm-axis = NY
      4.000000     3.992357     3.984714     3.977070     3.969427     3.961784     3.954141     3.946497     3.938854     3.931211
      3.923568     3.915925     3.908281     3.900638     3.892995     3.885352     3.877708     3.870065     3.862422     3.854779
      3.847136     3.839492     3.831849     3.824206     3.816563     3.808919     3.801276     3.793633     3.785990     3.778347
      3.770703     3.763060     3.755417     3.747774     3.740130     3.732487     3.724844     3.717201     3.709558     3.701914
      3.694271     3.686628     3.678985     3.671341     3.663698     3.656055     3.648412     3.640769     3.633125     3.625482
      3.617839     3.610196     3.602552     3.594909     3.587266     3.579623     3.571980     3.564336     3.556693     3.549050
      3.541407     3.533763     3.526120     3.518477     3.510834     3.503191     3.495547     3.487904     3.480261     3.472618
      3.464974     3.457331     3.449688     3.442045     3.434402     3.426758     3.419115     3.411472     3.403829     3.396185
      3.388542     3.380899     3.373256     3.365613     3.357969     3.350326     3.342683     3.335040     3.327396     3.319753
      3.312110     3.304467     3.296824     3.289180     3.281537     3.273894     3.266251     3.258607     3.250964     3.243321
      3.235678     3.228034     3.220391     3.212748     3.205105     3.197462     3.189818     3.182175     3.174532     3.166889
      3.159245     3.151602     3.143959     3.136316     3.128673     3.121029     3.113386     3.105743     3.098100     3.090456
      3.082813     3.075170     3.067527     3.059884     3.052240     3.044597     3.036954     3.029311     3.021667     3.014024
      3.006381     2.998738     2.991095     2.983451     2.975808     2.968165     2.960522     2.952878     2.945235     2.937592
      2.929949     2.922306     2.914662     2.907019     2.899376     2.891733     2.884089     2.876446     2.868803     2.861160
      2.853517     2.845873     2.838230     2.830587     2.822944     2.815300     2.807657     2.800014     2.792371     2.784728
      2.777084     2.769441     2.761798     2.754155     2.746511     2.738868     2.731225     2.723582     2.715939     2.708295
      2.700652     2.693009     2.685366     2.677722     2.670079     2.662436     2.654793     2.647150     2.639506     2.631863
      2.624220     2.616577     2.608933     2.601290     2.593647     2.586004     2.578361     2.570717     2.563074     2.555431
      2.547788     2.540144     2.532501     2.524858     2.517215     2.509572     2.501928     2.494285     2.486642     2.478999
      2.471355     2.463712     2.456069     2.448426     2.440783     2.433139     2.425496     2.417853     2.410210     2.402566
      2.394923     2.387280     2.379637     2.371994     2.364350     2.356707     2.349064     2.341421     2.333777     2.326134
      2.318491     2.310848     2.303205     2.295561     2.287918     2.280275     2.272632     2.264988     2.257345     2.249702
      2.242059     2.234416     2.226772     2.219129     2.211486     2.203843     2.196199     2.188556     2.180913     2.173270
      2.165627     2.157983     2.150340     2.142697     2.135054     2.127410     2.119767     2.112124     2.104481     2.096838
      2.089194     2.081551     2.073908     2.066265     2.058621     2.050978     2.043335     2.035692     2.028049     2.020405
      2.012762     2.005119     1.997476     1.989833     1.982190     1.974546     1.966903     1.959260     1.951617     1.943974
      1.936331     1.928688     1.921045     1.913402     1.905759     1.898115     1.890472     1.882829     1.875186     1.867543
      1.859900     1.852257     1.844614     1.836971     1.829327     1.821684     1.814041     1.806398     1.798755     1.791112
      1.783469     1.775826     1.768183     1.760540     1.752896     1.745253     1.737610     1.729967     1.722324     1.714681
      1.707038     1.699395     1.691752     1.684108     1.676465     1.668822     1.661179     1.653536     1.645893     1.638250
      1.630607     1.622964     1.615321     1.607677     1.600034     1.592391     1.584748     1.577105     1.569462     1.561819
      1.554176     1.546533     1.538890     1.531246     1.523603     1.515960     1.508317     1.500674     1.493031     1.485388
      1.477745     1.470102     1.462458     1.454815     1.447172     1.439529     1.431886     1.424243     1.416600     1.408957
      1.401314     1.393671     1.386027     1.378384     1.370741     1.363098     1.355455     1.347812     1.340169     1.332526
      1.324883     1.317240     1.309596     1.301953     1.294310     1.286667     1.279024     1.271381     1.263738     1.256095
      1.248452     1.240808     1.233165     1.225522     1.217879     1.210236     1.202593     1.194950     1.187307     1.179664
      1.172021     1.164377     1.156734     1.149091     1.141448     1.133805     1.126162     1.118519     1.110876     1.103233
      1.095590     1.087946     1.080303     1.072660     1.065017     1.057374     1.049731     1.042088     1.034445     1.026802
      1.019158     1.011515     1.003872     0.996229     0.988586     0.980943     0.973300     0.965657     0.958014     0.950371
      0.942727     0.935084     0.927441     0.919798     0.912155     0.904512     0.896869     0.889226     0.881583     0.873940
      0.866296     0.858653     0.851010     0.843367     0.835724     0.828081     0.820438     0.812795     0.805152     0.797508
      0.789865     0.782222     0.774579     0.766936     0.759293     0.751650     0.744007     0.736364     0.728721     0.721077
      0.713434     0.705791     0.698148     0.690505     0.682862     0.675219     0.667576     0.659933     0.652290     0.644646
      0.637003     0.629360     0.621717     0.614074     0.606431     0.598788     0.591145     0.583502     0.575858     0.568215
      0.560572     0.552929     0.545286     0.537643     0.530000     0.522357     0.514714     0.507071     0.499427     0.491784
      0.484141     0.476498     0.468855     0.461212     0.453569     0.445925     0.438282     0.430639     0.422996     0.415353
      0.407710     0.400067     0.392424     0.384780     0.377137     0.369494     0.361851     0.354208     0.346565     0.338922
      0.331278     0.323635     0.315992     0.308349     0.300706     0.293063     0.285420     0.277777     0.270133     0.262490
      0.254847     0.247204     0.239561     0.231918     0.224275     0.216631     0.208988     0.201345
 NY phased data points follow
   1.15092E+01  1.14265E+01  1.02453E+01  1.10639E+01  1.09275E+01  1.25272E+01  1.00344E+01  1.11561E+01  1.14173E+01  1.05390E+01
   1.10228E+01  1.08287E+01  9.94792E+00  1.07475E+01  1.08937E+01  1.26884E+01  1.01255E+01  1.22608E+01  8.67792E+00  9.34189E+00
   9.55133E+00  7.49813E+00  8.07944E+00  8.23139E+00  8.52711E+00  1.01221E+01  8.24749E+00  6.17717E+00  9.03376E+00  7.76241E+00
   6.81054E+00  6.94334E+00  6.43199E+00  8.15280E+00  8.64452E+00  7.10114E+00  7.40958E+00  8.20035E+00  9.61288E+00  7.91409E+00
   6.26559E+00  6.45115E+00  8.25897E+00  5.58458E+00  9.45796E+00  6.25140E+00  6.91215E+00  6.24887E+00  6.31769E+00  7.27276E+00
   8.85379E+00  7.06714E+00  5.42636E+00  6.18905E+00  7.52442E+00  6.09777E+00  5.97186E+00  8.36322E+00  8.14007E+00  4.55656E+00
   7.70892E+00  7.16986E+00  5.34015E+00  6.90530E+00  7.28292E+00  5.28391E+00  8.22868E+00  3.66654E+00  2.41838E+00  6.72443E+00
   5.40713E+00  6.48345E+00  3.71770E+00  4.74047E+00  5.13733E+00  5.91068E+00  6.22536E+00  4.92313E+00  4.41747E+00  5.14515E+00
   1.49997E+00  4.17587E+00  4.46566E+00  4.68567E+00  6.44586E+00  5.91884E+00  5.77581E+00  3.02649E+00  2.68193E+00  3.59408E+00
   5.06008E+00  4.29050E+00  5.12361E+00  4.63238E+00  5.37816E+00  3.33787E+00  3.53668E+00  2.60925E+00  3.02780E+00  4.34218E+00
   4.66023E+00  3.68862E+00  4.81333E+00  3.59689E+00  4.66689E+00  3.87932E+00  4.12198E+00  5.01309E+00  5.55777E+00  4.84511E+00
   5.36537E+00  5.31555E+00  4.34365E+00  3.32605E+00  3.57128E+00  3.61309E+00  3.33981E+00  3.56622E+00  3.86878E+00  3.34755E+00
   1.99778E+00  4.18156E+00  3.36822E+00  3.62836E+00 -5.53057E-01  5.24616E+00  3.92405E+00  4.15205E+00  3.15803E+00  2.57664E+00
   2.80466E+00  2.41883E+00  5.49050E+00  4.29831E+00  3.84562E+00  4.54448E+00  2.32533E+00  4.75772E+00  4.04663E+00  3.27178E+00
   1.47384E+00  1.65081E+00 -7.42334E-01  8.09702E-01  2.71601E+00  2.95722E+00  2.50321E+00  2.53508E+00  2.95164E+00  1.87905E+00
   1.83729E+00  1.09890E+00  6.70853E-01  9.78386E-01  2.63017E+00  9.66396E-01  3.33751E+00  4.30408E+00  8.97048E-01  1.93315E+00
   1.93590E+00  2.42929E+00  1.47938E+00  3.30273E+00  2.93879E+00  1.22426E+00 -5.50373E-03  1.64903E+00  1.65393E+00  6.53603E-01
   8.89172E-01  1.79932E+00  2.03517E-01 -2.42017E-02  2.09605E+00 -7.11280E-01  2.00617E+00  1.71797E+00  2.77850E-01  5.61387E-01
  -6.41548E-01 -1.97720E+00 -2.09863E-01  8.42347E-02 -1.83372E+00 -6.58537E-01  1.27408E+00 -1.13762E+00  5.46596E-01 -4.41902E-01
  -2.83098E-01  7.67413E-01  1.19614E+00 -1.96588E+00 -1.66160E+00  2.48811E-01  1.36445E+00 -1.75607E+00 -3.51535E-01  1.10210E+00
  -9.65309E-01  3.81462E-01 -6.86086E-01 -3.27494E+00  1.11218E+00  1.53259E+00 -1.49538E+00 -1.82827E+00 -2.42539E+00 -9.68053E-01
   1.29172E+00  5.38749E-01  8.17810E-02 -8.80892E-01 -2.60638E+00 -2.23313E+00 -5.21566E-01  3.39336E-01 -1.43422E+00 -5.46193E-01
  -4.23131E-01 -1.22454E+00  5.49027E-01  4.96677E-01 -2.48408E+00 -8.70176E-01 -1.19324E+00 -3.71925E+00 -4.60357E-01 -7.10695E-01
   2.08373E-02  3.82246E-01 -2.52663E+00 -9.80243E-01 -3.40021E-01 -9.18090E-01 -2.06335E+00  4.38157E-01 -1.98024E-01 -1.30411E-01
  -2.98126E+00  1.22936E-01 -1.59147E+00 -4.32971E-01 -1.23537E+00  2.55940E-01 -1.13638E+00  1.36139E+00  5.79396E-02 -7.24274E-01
  -2.17513E+00 -4.31053E-01 -1.56619E+00 -6.53451E-01  7.01346E-01 -7.70043E-01 -1.05435E+00  6.12105E-01  3.33004E-02  3.05203E-01
   2.21863E+00 -1.72586E-01 -9.57074E-01  3.99281E+00  1.03785E+00  2.85114E-01  1.74789E+00  1.79620E+00  1.82338E+00  1.40456E+00
   6.77616E-01 -3.75928E-01 -1.83363E+00  2.37299E-01  3.39036E-01  4.77095E-01  3.50700E+00  1.18107E+00  3.73113E+00  2.56269E+00
   1.78641E+00  2.12967E-01  1.67996E+00  7.71719E-01  2.03639E+00  1.04708E+00  7.87416E-01  1.40304E+00  9.84891E-01 -2.19578E-01
   1.87675E+00  2.48482E+00  5.05194E+00  2.03119E+00  3.20872E+00  4.25173E+00  4.44939E+00  5.26677E+00  4.39369E+00  2.80449E+00
   6.34313E+00  2.19418E+00  3.08212E+00  3.58715E+00  5.95956E+00  3.11022E+00  6.74162E+00  5.13228E+00  3.80260E+00  3.76077E+00
   6.14483E+00  4.79978E+00  5.34281E+00  5.43221E+00  4.90576E+00  6.50012E+00  5.16532E+00  6.89298E+00  6.85282E+00  8.52133E+00
   7.07762E+00  8.96807E+00  7.93191E+00  5.90973E+00  7.36472E+00  8.33460E+00  6.69275E+00  6.65995E+00  7.16954E+00  9.41824E+00
   4.27228E+00  7.15771E+00  6.53748E+00  8.52322E+00  6.93689E+00  7.38726E+00  6.47734E+00  5.92834E+00  6.39678E+00  5.72825E+00
   5.59540E+00  3.45372E+00  7.01362E+00  6.61783E+00  6.28929E+00  6.62807E+00  7.40132E+00  5.35967E+00  5.04394E+00  1.04327E+01
   5.01116E+00  8.53150E+00  6.95296E+00  5.27483E+00  4.87563E+00  5.34791E+00  6.87836E+00  8.73505E+00  6.14282E+00  6.24997E+00
   6.59309E+00  6.23733E+00  7.26393E+00  6.47696E+00  5.70401E+00  7.76631E+00  4.60803E+00  5.53605E+00  5.92915E+00  4.31453E+00
   3.07405E+00  4.20100E+00  3.71003E+00  2.48971E+00  5.24447E+00  3.83580E+00  4.36468E+00  2.09137E+00  2.56987E+00  2.03755E+00
   4.64724E+00  4.00598E+00  3.24851E+00  5.73569E-01  1.27526E+00  1.19355E+00  3.05421E+00  2.42761E+00  1.87509E+00  2.78083E+00
   2.35160E+00  1.86479E+00 -2.83457E-01  2.07005E+00  1.23951E+00  3.61787E+00 -2.47851E-01  3.58182E+00  3.13746E+00  9.01409E-01
   2.93432E+00  3.74439E+00 -7.07793E-01  2.06611E+00  1.26800E+00  4.40333E+00  7.31569E-01  2.23688E+00  2.01805E+00  3.16701E+00
   2.63561E+00  1.40397E+00  2.04888E+00 -5.46019E-01  5.67092E-01  2.87731E+00  3.54002E+00  2.29071E+00  3.75975E+00  4.65293E+00
   2.40981E+00  1.73365E+00  4.20204E+00  2.69263E+00  2.72287E+00  3.69117E+00  1.97741E+00  5.06512E-01  4.28960E-01  2.69236E+00
  -1.94466E-01  1.23678E+00  7.86062E-01  3.76935E+00  1.46480E+00  1.90327E+00  6.40871E-01  1.35740E+00  4.00244E-01 -9.05645E-01
   3.20570E+00  2.36484E+00  3.27686E+00  1.13609E+00  7.09427E-01  2.00816E+00  1.60716E+00  1.80839E+00  4.03493E-01  2.62567E+00
   1.31438E+00  1.49846E+00  2.09168E-01  3.67702E+00 -5.76897E-01  1.84380E+00  1.05119E+00  2.10073E+00  1.02542E+00  2.44388E+00
   7.56393E-01  1.24730E+00  5.16705E-01  4.34743E-01  2.92401E+00 -9.29686E-01  1.65813E+00  1.39737E+00  2.81544E+00  2.80427E+00
  -1.01724E-01  6.59766E-01  1.00057E+00  2.91813E+00  1.64349E+00 -3.77663E-01 -8.62224E-01  4.42792E-01  8.12342E-01  2.18503E-01
   4.47092E-01  1.93539E+00  8.23082E-01  1.94645E-01  6.08520E-01  2.21930E+00  2.15005E+00  2.65916E+00  1.14175E+00  1.87205E+00
  -4.09840E-02  2.01116E-01  1.48689E+00  2.30754E+00 -4.04949E-02  2.16686E+00  1.37752E+00  1.08585E+00
 NY points of the fit to the data follow
   1.04639E+01  1.06836E+01  1.03601E+01  1.00910E+01  9.80808E+00  9.78476E+00  9.97973E+00  1.00214E+01  9.95024E+00  9.84855E+00
   9.74790E+00  9.86623E+00  1.01090E+01  1.03363E+01  1.04886E+01  1.05304E+01  1.04299E+01  1.00063E+01  9.55218E+00  9.27325E+00
   8.77378E+00  8.28759E+00  8.54111E+00  8.65259E+00  8.55502E+00  8.44497E+00  8.31688E+00  8.34715E+00  8.36792E+00  8.45587E+00
   8.62384E+00  8.32753E+00  7.76859E+00  7.44906E+00  7.40838E+00  7.64838E+00  7.82146E+00  7.77946E+00  8.03323E+00  8.20087E+00
   8.10287E+00  8.19485E+00  8.28667E+00  8.14009E+00  8.10445E+00  7.68249E+00  7.17571E+00  6.88105E+00  6.91171E+00  7.27226E+00
   7.40191E+00  7.22641E+00  7.18741E+00  7.09171E+00  6.83246E+00  6.60944E+00  6.53120E+00  6.51517E+00  6.36586E+00  6.09349E+00
   5.89038E+00  5.81322E+00  5.81063E+00  5.82261E+00  5.82759E+00  5.81113E+00  5.74661E+00  5.63689E+00  5.56458E+00  5.54206E+00
   5.48059E+00  5.38578E+00  5.29189E+00  5.20912E+00  5.16087E+00  5.12119E+00  5.09387E+00  5.03811E+00  4.93704E+00  4.82014E+00
   4.70105E+00  4.62119E+00  4.56363E+00  4.46292E+00  4.35036E+00  4.24631E+00  4.16618E+00  4.11200E+00  4.06119E+00  3.99889E+00
   3.91897E+00  3.84481E+00  3.86788E+00  4.13791E+00  4.36124E+00  4.43217E+00  4.45064E+00  4.32202E+00  4.26852E+00  4.51192E+00
   4.80610E+00  4.84130E+00  4.66170E+00  4.44136E+00  4.41017E+00  4.53984E+00  4.62589E+00  4.62063E+00  4.47576E+00  4.20672E+00
   3.91970E+00  3.74878E+00  3.79323E+00  3.75096E+00  3.25779E+00  2.89217E+00  2.84358E+00  3.08170E+00  3.57852E+00  3.80251E+00
   3.88726E+00  3.89224E+00  3.74556E+00  3.85111E+00  4.29968E+00  4.59112E+00  4.50033E+00  4.21538E+00  4.01966E+00  4.16236E+00
   4.39535E+00  4.50312E+00  4.47408E+00  4.18592E+00  3.75310E+00  3.37655E+00  3.26237E+00  3.37157E+00  3.01998E+00  2.20175E+00
   1.87083E+00  1.77087E+00  1.71061E+00  1.66394E+00  1.62365E+00  1.58781E+00  1.55383E+00  1.51791E+00  1.48461E+00  1.45324E+00
   1.41970E+00  1.38549E+00  1.35152E+00  1.31829E+00  1.28537E+00  1.25244E+00  1.21932E+00  1.18555E+00  1.15150E+00  1.11847E+00
   1.08585E+00  1.05225E+00  1.01894E+00  9.85624E-01  9.52405E-01  9.21178E-01  8.90083E-01  8.57504E-01  8.23872E-01  7.90454E-01
   7.58513E-01  7.28008E-01  6.99092E-01  6.70785E-01  6.42264E-01  6.14214E-01  5.86375E-01  5.62561E-01  5.42881E-01  5.20121E-01
   4.96742E-01  4.75159E-01  4.53427E-01  4.19644E-01  3.43859E-01  2.70530E-01  1.48329E-01  1.28791E-02 -5.69867E-02 -1.12959E-01
  -1.58485E-01 -9.33207E-02  3.93495E-02  1.45608E-01  2.48613E-01  4.04090E-01  4.99438E-01  4.80090E-01  4.69823E-01  2.52077E-01
  -3.70144E-01 -6.80290E-01 -5.82555E-01 -4.40503E-01 -6.62335E-02  3.18633E-01  4.72000E-01  5.01867E-01  6.75026E-01  9.00484E-01
   8.92064E-01  5.45241E-01 -5.19258E-02 -6.64194E-01 -1.01355E+00 -9.43667E-01 -7.14627E-01 -2.28203E-01  1.11625E-02 -3.16646E-01
  -1.28532E-01  7.89185E-01  1.12008E+00  7.82750E-01  3.82942E-01  1.37871E-01 -3.29334E-01 -9.76741E-01 -8.55252E-01 -3.45926E-01
   1.37443E-01  3.89386E-01  4.04168E-01  6.29782E-01  1.11606E+00  1.20748E+00  1.02603E+00  9.32741E-01  7.07588E-01  2.46670E-01
  -2.06169E-01 -3.29205E-01 -1.27630E-01  1.88530E-01  2.56644E-01  4.99809E-02 -1.11174E-01 -6.23367E-02 -1.33228E-01 -1.85417E-01
  -8.71411E-02 -4.21831E-02 -2.85834E-01 -3.36026E-01 -2.82208E-03  8.15558E-02  1.94433E-01  5.50219E-01  8.06003E-01  7.88711E-01
   7.47382E-01  7.48034E-01  7.38478E-01  7.68189E-01  8.20984E-01  8.84492E-01  8.85865E-01  8.09025E-01  7.54791E-01  8.55184E-01
   9.96904E-01  1.03781E+00  1.00316E+00  9.71501E-01  9.06848E-01  8.16293E-01  8.47778E-01  9.14943E-01  9.39771E-01  9.71042E-01
   9.99287E-01  1.01901E+00  1.06455E+00  1.14500E+00  1.19560E+00  1.21639E+00  1.26064E+00  1.33319E+00  1.42319E+00  1.52421E+00
   1.63973E+00  1.78730E+00  1.95675E+00  2.13035E+00  2.31156E+00  2.49885E+00  2.68745E+00  2.87139E+00  3.04828E+00  3.21837E+00
   3.37362E+00  3.50813E+00  3.62394E+00  3.72016E+00  3.79629E+00  3.85624E+00  3.90362E+00  3.94420E+00  3.98497E+00  4.03379E+00
   4.09954E+00  4.19218E+00  4.32343E+00  4.50663E+00  4.75969E+00  5.11627E+00  5.65198E+00  6.56152E+00  7.62678E+00  7.64246E+00
   7.23623E+00  6.82959E+00  6.27021E+00  6.29765E+00  6.63844E+00  6.16278E+00  5.75844E+00  5.63938E+00  5.83361E+00  6.73614E+00
   6.86569E+00  6.01740E+00  5.74041E+00  5.91428E+00  5.91214E+00  5.80898E+00  6.05457E+00  7.18454E+00  6.86391E+00  5.49014E+00
   6.03638E+00  6.60025E+00  6.81520E+00  7.01024E+00  6.67447E+00  7.30860E+00  8.15889E+00  7.47973E+00  7.29198E+00  7.07948E+00
   6.34914E+00  6.47003E+00  6.86317E+00  6.68945E+00  6.17713E+00  5.77670E+00  6.26107E+00  6.30247E+00  5.22698E+00  5.88857E+00
   7.04260E+00  7.19699E+00  6.66884E+00  6.24470E+00  6.97210E+00  7.67042E+00  6.28739E+00  4.91523E+00  4.16913E+00  3.69676E+00
   3.36381E+00  3.11531E+00  2.92271E+00  2.76891E+00  2.64276E+00  2.53697E+00  2.44713E+00  2.37080E+00  2.30639E+00  2.25252E+00
   2.20789E+00  2.17160E+00  2.14329E+00  2.12296E+00  2.11045E+00  2.10536E+00  2.10717E+00  2.11560E+00  2.13065E+00  2.15230E+00
   2.18023E+00  2.21378E+00  2.25221E+00  2.29494E+00  2.34139E+00  2.39078E+00  2.44194E+00  2.49347E+00  2.54401E+00  2.59234E+00
   2.63732E+00  2.67764E+00  2.71191E+00  2.73883E+00  2.75750E+00  2.76735E+00  2.76806E+00  2.75938E+00  2.74122E+00  2.71386E+00
   2.67797E+00  2.63453E+00  2.58458E+00  2.52911E+00  2.46916E+00  2.40593E+00  2.34073E+00  2.27479E+00  2.20911E+00  2.14446E+00
   2.08150E+00  2.02090E+00  1.96328E+00  1.90904E+00  1.85829E+00  1.81102E+00  1.76720E+00  1.72687E+00  1.69000E+00  1.65643E+00
   1.62584E+00  1.59792E+00  1.57249E+00  1.54944E+00  1.52860E+00  1.50973E+00  1.49252E+00  1.47675E+00  1.46233E+00  1.44922E+00
   1.43730E+00  1.42637E+00  1.41623E+00  1.40679E+00  1.39809E+00  1.39010E+00  1.38273E+00  1.37583E+00  1.36931E+00  1.36316E+00
   1.35744E+00  1.35214E+00  1.34717E+00  1.34241E+00  1.33784E+00  1.33350E+00  1.32946E+00  1.32567E+00  1.32204E+00  1.31850E+00
   1.31507E+00  1.31183E+00  1.30880E+00  1.30591E+00  1.30309E+00  1.30030E+00  1.29762E+00  1.29509E+00  1.29271E+00  1.29040E+00
   1.28811E+00  1.28584E+00  1.28368E+00  1.28165E+00  1.27972E+00  1.27781E+00  1.27589E+00  1.27401E+00  1.27224E+00  1.27059E+00
   1.26898E+00  1.26736E+00  1.26575E+00  1.26420E+00  1.26276E+00  1.26141E+00  1.26006E+00  1.25871E+00  1.25738E+00  1.25614E+00
   1.25500E+00  1.25391E+00  1.25283E+00  1.25176E+00  1.25075E+00  1.24984E+00  1.24904E+00  1.24828E+00
 NY background values follow
     8.511E+00    8.457E+00    8.402E+00    8.347E+00    8.293E+00    8.238E+00    8.183E+00    8.128E+00    8.074E+00    8.019E+00
     7.964E+00    7.910E+00    7.855E+00    7.800E+00    7.746E+00    7.691E+00    7.637E+00    7.582E+00    7.528E+00    7.473E+00
     7.419E+00    7.365E+00    7.310E+00    7.256E+00    7.202E+00    7.148E+00    7.093E+00    7.039E+00    6.985E+00    6.932E+00
     6.878E+00    6.824E+00    6.770E+00    6.716E+00    6.663E+00    6.609E+00    6.556E+00    6.503E+00    6.449E+00    6.396E+00
     6.343E+00    6.290E+00    6.237E+00    6.185E+00    6.132E+00    6.079E+00    6.027E+00    5.974E+00    5.922E+00    5.870E+00
     5.818E+00    5.766E+00    5.714E+00    5.663E+00    5.611E+00    5.560E+00    5.508E+00    5.457E+00    5.406E+00    5.355E+00
     5.304E+00    5.254E+00    5.203E+00    5.153E+00    5.102E+00    5.052E+00    5.002E+00    4.952E+00    4.903E+00    4.853E+00
     4.804E+00    4.754E+00    4.705E+00    4.656E+00    4.608E+00    4.559E+00    4.511E+00    4.462E+00    4.414E+00    4.366E+00
     4.318E+00    4.271E+00    4.223E+00    4.176E+00    4.129E+00    4.082E+00    4.035E+00    3.988E+00    3.942E+00    3.896E+00
     3.850E+00    3.804E+00    3.758E+00    3.712E+00    3.667E+00    3.622E+00    3.577E+00    3.532E+00    3.488E+00    3.443E+00
     3.399E+00    3.355E+00    3.312E+00    3.268E+00    3.225E+00    3.182E+00    3.139E+00    3.096E+00    3.053E+00    3.011E+00
     2.969E+00    2.927E+00    2.885E+00    2.844E+00    2.802E+00    2.761E+00    2.720E+00    2.680E+00    2.639E+00    2.599E+00
     2.559E+00    2.519E+00    2.480E+00    2.441E+00    2.402E+00    2.363E+00    2.324E+00    2.286E+00    2.247E+00    2.210E+00
     2.172E+00    2.134E+00    2.097E+00    2.060E+00    2.023E+00    1.987E+00    1.950E+00    1.914E+00    1.879E+00    1.843E+00
     1.808E+00    1.773E+00    1.738E+00    1.703E+00    1.669E+00    1.635E+00    1.601E+00    1.568E+00    1.534E+00    1.501E+00
     1.469E+00    1.436E+00    1.404E+00    1.372E+00    1.341E+00    1.309E+00    1.278E+00    1.248E+00    1.217E+00    1.187E+00
     1.157E+00    1.128E+00    1.099E+00    1.070E+00    1.041E+00    1.013E+00    9.846E-01    9.570E-01    9.296E-01    9.025E-01
     8.758E-01    8.494E-01    8.233E-01    7.975E-01    7.721E-01    7.470E-01    7.223E-01    6.979E-01    6.738E-01    6.501E-01
     6.267E-01    6.037E-01    5.810E-01    5.587E-01    5.367E-01    5.151E-01    4.938E-01    4.729E-01    4.524E-01    4.323E-01
     4.125E-01    3.931E-01    3.741E-01    3.554E-01    3.371E-01    3.193E-01    3.018E-01    2.847E-01    2.680E-01    2.517E-01
     2.358E-01    2.202E-01    2.051E-01    1.904E-01    1.762E-01    1.623E-01    1.488E-01    1.358E-01    1.231E-01    1.109E-01
     9.916E-02    8.781E-02    7.689E-02    6.640E-02    5.635E-02    4.673E-02    3.756E-02    2.883E-02    2.055E-02    1.271E-02
     5.327E-03   -1.602E-03   -8.074E-03   -1.409E-02   -1.964E-02   -2.472E-02   -2.934E-02   -3.349E-02   -3.718E-02   -4.042E-02
    -4.321E-02   -4.555E-02   -4.747E-02   -4.895E-02   -5.002E-02   -5.068E-02   -5.093E-02   -5.078E-02   -5.025E-02   -4.933E-02
    -4.803E-02   -4.636E-02   -4.434E-02   -4.196E-02   -3.923E-02   -3.616E-02   -3.276E-02   -2.903E-02   -2.498E-02   -2.062E-02
    -1.596E-02   -1.099E-02   -5.743E-03   -2.077E-04    5.603E-03    1.168E-02    1.803E-02    2.462E-02    3.147E-02    3.855E-02
     4.587E-02    5.341E-02    6.117E-02    6.915E-02    7.732E-02    8.570E-02    9.427E-02    1.030E-01    1.119E-01    1.210E-01
     1.303E-01    1.397E-01    1.493E-01    1.590E-01    1.688E-01    1.788E-01    1.888E-01    1.991E-01    2.094E-01    2.198E-01
     2.303E-01    2.409E-01    2.517E-01    2.624E-01    2.733E-01    2.843E-01    2.953E-01    3.063E-01    3.175E-01    3.286E-01
     3.398E-01    3.511E-01    3.624E-01    3.737E-01    3.850E-01    3.963E-01    4.077E-01    4.190E-01    4.304E-01    4.417E-01
     4.530E-01    4.643E-01    4.756E-01    4.868E-01    4.980E-01    5.091E-01    5.202E-01    5.313E-01    5.422E-01    5.532E-01
     5.640E-01    5.747E-01    5.854E-01    5.960E-01    6.065E-01    6.168E-01    6.271E-01    6.373E-01    6.473E-01    6.572E-01
     6.670E-01    6.767E-01    6.863E-01    6.957E-01    7.051E-01    7.143E-01    7.234E-01    7.324E-01    7.413E-01    7.501E-01
     7.588E-01    7.673E-01    7.758E-01    7.841E-01    7.923E-01    8.004E-01    8.084E-01    8.163E-01    8.241E-01    8.317E-01
     8.393E-01    8.468E-01    8.541E-01    8.613E-01    8.685E-01    8.755E-01    8.824E-01    8.892E-01    8.959E-01    9.025E-01
     9.090E-01    9.154E-01    9.217E-01    9.279E-01    9.340E-01    9.399E-01    9.458E-01    9.516E-01    9.572E-01    9.628E-01
     9.682E-01    9.736E-01    9.789E-01    9.840E-01    9.891E-01    9.940E-01    9.989E-01    1.004E+00    1.008E+00    1.013E+00
     1.017E+00    1.022E+00    1.026E+00    1.030E+00    1.034E+00    1.039E+00    1.042E+00    1.046E+00    1.050E+00    1.054E+00
     1.058E+00    1.061E+00    1.065E+00    1.068E+00    1.071E+00    1.075E+00    1.078E+00    1.081E+00    1.084E+00    1.087E+00
     1.090E+00    1.093E+00    1.095E+00    1.098E+00    1.101E+00    1.103E+00    1.106E+00    1.108E+00    1.111E+00    1.113E+00
     1.115E+00    1.118E+00    1.120E+00    1.122E+00    1.124E+00    1.126E+00    1.128E+00    1.130E+00    1.132E+00    1.134E+00
     1.136E+00    1.138E+00    1.139E+00    1.141E+00    1.143E+00    1.144E+00    1.146E+00    1.147E+00    1.149E+00    1.150E+00
     1.152E+00    1.153E+00    1.154E+00    1.156E+00    1.157E+00    1.158E+00    1.159E+00    1.160E+00    1.161E+00    1.162E+00
     1.163E+00    1.164E+00    1.165E+00    1.166E+00    1.167E+00    1.168E+00    1.169E+00    1.170E+00    1.170E+00    1.171E+00
     1.172E+00    1.172E+00    1.173E+00    1.174E+00    1.174E+00    1.175E+00    1.175E+00    1.176E+00    1.176E+00    1.177E+00
     1.177E+00    1.177E+00    1.178E+00    1.178E+00    1.178E+00    1.179E+00    1.179E+00    1.179E+00    1.179E+00    1.180E+00
     1.180E+00    1.180E+00    1.180E+00    1.180E+00    1.180E+00    1.180E+00    1.180E+00    1.181E+00    1.181E+00    1.181E+00
     1.181E+00    1.181E+00    1.181E+00    1.181E+00    1.181E+00    1.181E+00    1.181E+00    1.181E+00    1.180E+00    1.180E+00
     1.180E+00    1.180E+00    1.180E+00    1.180E+00    1.180E+00    1.180E+00    1.180E+00    1.180E+00    1.180E+00    1.180E+00
     1.180E+00    1.180E+00    1.180E+00    1.180E+00    1.180E+00    1.180E+00    1.180E+00    1.180E+00
 Ala      Conc. = 8.19E+02
