 LCModel (Version 6.3-1L) Copyright: S.W. Provencher.          Ref.: Magn. Reson. Med. 30:672-679 (1993).                
 Slice#1 Row#14 Col#5  PD_05_press_1_raw_act
 36 lines in following concentration table = NCONC+1
    Conc.  %SD /Cr+PCr  Metabolite                                         
    0.000 999%   0.000 Ala                                                 
    1.442 550% 3.7E-02 Asp                                                 
    0.000 999%   0.000 Cr                                                  
   38.847  43%   1.000 PCr                                                 
    1.015 469% 2.6E-02 GABA                                                
    0.858 556% 2.2E-02 Glc                                                 
   28.038 483%   0.722 Gln                                                 
    0.000 999%   0.000 Glu                                                 
    0.000 999%   0.000 GPC                                                 
    0.000 999%   0.000 PCh                                                 
    0.000 999%   0.000 GSH                                                 
    0.000 999%   0.000 Ins                                                 
    0.000 999%   0.000 Lac                                                 
    0.000 999%   0.000 NAA                                                 
    0.000 999%   0.000 NAAG                                                
    0.220 715% 5.7E-03 Scyllo                                              
    0.229 999% 5.9E-03 Tau                                                 
    0.000 999%   0.000 -CrCH2                                              
    0.000 999%   0.000 GPC+PCh                                             
    0.000 999%   0.000 NAA+NAAG                                            
   38.847  43%   1.000 Cr+PCr                                              
   28.038 483%   0.722 Glu+Gln                                             
  152.294  89%   3.920 Lip13a                                              
  118.376  42%   3.047 Lip13b                                              
   70.442  42%   1.813 Lip09                                               
    0.000 999%   0.000 MM09                                                
   39.804  44%   1.025 Lip20                                               
    0.000 999%   0.000 MM20                                                
    0.354 999% 9.1E-03 MM12                                                
    1.889 999% 4.9E-02 MM14                                                
    0.000 999%   0.000 MM17                                                
  270.670  38%   6.968 Lip13a+Lip13b                                       
  272.913  37%   7.025 MM14+Lip13a+Lip13b+MM12                             
   70.442  42%   1.813 MM09+Lip09                                          
   39.804  44%   1.025 MM20+Lip20                                          
   6 lines in following misc. output table
  FWHM = 0.099 ppm    S/N =   1                                            
  Data shift = 0.023 ppm                                                   
  Ph: 105 deg     -30.2 deg/ppm                                            
  alphaB,S = 6.3E-01,   2.5E+02                                            
   14 spline knots.   Ns =10(1)                                            
  ( 4) 2 infls.   ( 1) 1 extrs.                                            
  498 points on ppm-axis = NY
      4.000000     3.992357     3.984714     3.977070     3.969427     3.961784     3.954141     3.946497     3.938854     3.931211
      3.923568     3.915925     3.908281     3.900638     3.892995     3.885352     3.877708     3.870065     3.862422     3.854779
      3.847136     3.839492     3.831849     3.824206     3.816563     3.808919     3.801276     3.793633     3.785990     3.778347
      3.770703     3.763060     3.755417     3.747774     3.740130     3.732487     3.724844     3.717201     3.709558     3.701914
      3.694271     3.686628     3.678985     3.671341     3.663698     3.656055     3.648412     3.640769     3.633125     3.625482
      3.617839     3.610196     3.602552     3.594909     3.587266     3.579623     3.571980     3.564336     3.556693     3.549050
      3.541407     3.533763     3.526120     3.518477     3.510834     3.503191     3.495547     3.487904     3.480261     3.472618
      3.464974     3.457331     3.449688     3.442045     3.434402     3.426758     3.419115     3.411472     3.403829     3.396185
      3.388542     3.380899     3.373256     3.365613     3.357969     3.350326     3.342683     3.335040     3.327396     3.319753
      3.312110     3.304467     3.296824     3.289180     3.281537     3.273894     3.266251     3.258607     3.250964     3.243321
      3.235678     3.228034     3.220391     3.212748     3.205105     3.197462     3.189818     3.182175     3.174532     3.166889
      3.159245     3.151602     3.143959     3.136316     3.128673     3.121029     3.113386     3.105743     3.098100     3.090456
      3.082813     3.075170     3.067527     3.059884     3.052240     3.044597     3.036954     3.029311     3.021667     3.014024
      3.006381     2.998738     2.991095     2.983451     2.975808     2.968165     2.960522     2.952878     2.945235     2.937592
      2.929949     2.922306     2.914662     2.907019     2.899376     2.891733     2.884089     2.876446     2.868803     2.861160
      2.853517     2.845873     2.838230     2.830587     2.822944     2.815300     2.807657     2.800014     2.792371     2.784728
      2.777084     2.769441     2.761798     2.754155     2.746511     2.738868     2.731225     2.723582     2.715939     2.708295
      2.700652     2.693009     2.685366     2.677722     2.670079     2.662436     2.654793     2.647150     2.639506     2.631863
      2.624220     2.616577     2.608933     2.601290     2.593647     2.586004     2.578361     2.570717     2.563074     2.555431
      2.547788     2.540144     2.532501     2.524858     2.517215     2.509572     2.501928     2.494285     2.486642     2.478999
      2.471355     2.463712     2.456069     2.448426     2.440783     2.433139     2.425496     2.417853     2.410210     2.402566
      2.394923     2.387280     2.379637     2.371994     2.364350     2.356707     2.349064     2.341421     2.333777     2.326134
      2.318491     2.310848     2.303205     2.295561     2.287918     2.280275     2.272632     2.264988     2.257345     2.249702
      2.242059     2.234416     2.226772     2.219129     2.211486     2.203843     2.196199     2.188556     2.180913     2.173270
      2.165627     2.157983     2.150340     2.142697     2.135054     2.127410     2.119767     2.112124     2.104481     2.096838
      2.089194     2.081551     2.073908     2.066265     2.058621     2.050978     2.043335     2.035692     2.028049     2.020405
      2.012762     2.005119     1.997476     1.989833     1.982190     1.974546     1.966903     1.959260     1.951617     1.943974
      1.936331     1.928688     1.921045     1.913402     1.905759     1.898115     1.890472     1.882829     1.875186     1.867543
      1.859900     1.852257     1.844614     1.836971     1.829327     1.821684     1.814041     1.806398     1.798755     1.791112
      1.783469     1.775826     1.768183     1.760540     1.752896     1.745253     1.737610     1.729967     1.722324     1.714681
      1.707038     1.699395     1.691752     1.684108     1.676465     1.668822     1.661179     1.653536     1.645893     1.638250
      1.630607     1.622964     1.615321     1.607677     1.600034     1.592391     1.584748     1.577105     1.569462     1.561819
      1.554176     1.546533     1.538890     1.531246     1.523603     1.515960     1.508317     1.500674     1.493031     1.485388
      1.477745     1.470102     1.462458     1.454815     1.447172     1.439529     1.431886     1.424243     1.416600     1.408957
      1.401314     1.393671     1.386027     1.378384     1.370741     1.363098     1.355455     1.347812     1.340169     1.332526
      1.324883     1.317240     1.309596     1.301953     1.294310     1.286667     1.279024     1.271381     1.263738     1.256095
      1.248452     1.240808     1.233165     1.225522     1.217879     1.210236     1.202593     1.194950     1.187307     1.179664
      1.172021     1.164377     1.156734     1.149091     1.141448     1.133805     1.126162     1.118519     1.110876     1.103233
      1.095590     1.087946     1.080303     1.072660     1.065017     1.057374     1.049731     1.042088     1.034445     1.026802
      1.019158     1.011515     1.003872     0.996229     0.988586     0.980943     0.973300     0.965657     0.958014     0.950371
      0.942727     0.935084     0.927441     0.919798     0.912155     0.904512     0.896869     0.889226     0.881583     0.873940
      0.866296     0.858653     0.851010     0.843367     0.835724     0.828081     0.820438     0.812795     0.805152     0.797508
      0.789865     0.782222     0.774579     0.766936     0.759293     0.751650     0.744007     0.736364     0.728721     0.721077
      0.713434     0.705791     0.698148     0.690505     0.682862     0.675219     0.667576     0.659933     0.652290     0.644646
      0.637003     0.629360     0.621717     0.614074     0.606431     0.598788     0.591145     0.583502     0.575858     0.568215
      0.560572     0.552929     0.545286     0.537643     0.530000     0.522357     0.514714     0.507071     0.499427     0.491784
      0.484141     0.476498     0.468855     0.461212     0.453569     0.445925     0.438282     0.430639     0.422996     0.415353
      0.407710     0.400067     0.392424     0.384780     0.377137     0.369494     0.361851     0.354208     0.346565     0.338922
      0.331278     0.323635     0.315992     0.308349     0.300706     0.293063     0.285420     0.277777     0.270133     0.262490
      0.254847     0.247204     0.239561     0.231918     0.224275     0.216631     0.208988     0.201345
 NY phased data points follow
   2.75308E+01  2.78280E+01  2.99089E+01  2.79517E+01  2.79306E+01  2.76279E+01  2.64961E+01  2.84064E+01  2.67743E+01  2.83312E+01
   2.60893E+01  2.68511E+01  2.71060E+01  2.56067E+01  2.40469E+01  2.40251E+01  2.35981E+01  2.49193E+01  2.29208E+01  2.26860E+01
   2.29368E+01  2.24786E+01  2.12015E+01  2.22584E+01  2.10389E+01  2.29393E+01  2.28249E+01  2.21731E+01  2.17952E+01  2.21605E+01
   1.99641E+01  2.13566E+01  2.05664E+01  2.06420E+01  1.90936E+01  2.00917E+01  1.77528E+01  2.04883E+01  2.06424E+01  1.94779E+01
   1.93136E+01  1.92352E+01  1.83168E+01  1.80233E+01  2.13077E+01  2.03702E+01  1.87215E+01  1.86219E+01  1.75351E+01  1.90823E+01
   1.77525E+01  1.88615E+01  1.72526E+01  1.82076E+01  1.92475E+01  1.80425E+01  1.66313E+01  1.83850E+01  1.75283E+01  1.52635E+01
   1.53584E+01  1.57008E+01  1.77741E+01  1.71304E+01  1.81895E+01  1.68206E+01  1.39947E+01  1.41243E+01  1.79566E+01  1.42602E+01
   1.53355E+01  1.52944E+01  1.46981E+01  1.58481E+01  1.53667E+01  1.61584E+01  1.58353E+01  1.52423E+01  1.45521E+01  1.42649E+01
   1.54011E+01  1.43840E+01  1.44504E+01  1.37314E+01  1.43905E+01  1.34844E+01  1.40248E+01  1.36568E+01  1.39219E+01  1.33854E+01
   1.18020E+01  1.39165E+01  1.43098E+01  1.35235E+01  1.17567E+01  1.20838E+01  1.27571E+01  1.15741E+01  1.22852E+01  1.14063E+01
   1.22953E+01  1.21153E+01  1.22435E+01  1.29652E+01  1.30110E+01  1.18396E+01  1.36138E+01  1.20649E+01  1.18576E+01  1.14701E+01
   1.13042E+01  1.23451E+01  1.21098E+01  1.10967E+01  1.05675E+01  1.23395E+01  1.19640E+01  1.01960E+01  1.17568E+01  1.15067E+01
   1.19416E+01  9.81719E+00  8.56357E+00  9.02646E+00  1.06913E+01  8.93883E+00  9.19845E+00  9.92596E+00  1.13389E+01  9.95530E+00
   1.01299E+01  1.16188E+01  8.36582E+00  8.38834E+00  8.65441E+00  9.69048E+00  1.14199E+01  1.12769E+01  9.87274E+00  9.14925E+00
   9.09927E+00  9.77382E+00  8.10437E+00  8.78989E+00  9.10793E+00  1.00953E+01  8.13928E+00  9.77929E+00  1.01174E+01  1.05270E+01
   7.95568E+00  9.34976E+00  8.73568E+00  9.62061E+00  8.64112E+00  9.42759E+00  8.22568E+00  7.84750E+00  9.66891E+00  7.24406E+00
   8.53610E+00  7.53239E+00  8.72847E+00  9.30544E+00  8.55177E+00  7.83074E+00  7.16316E+00  7.64342E+00  6.71209E+00  8.55368E+00
   7.94910E+00  6.77416E+00  8.11312E+00  7.05598E+00  9.28734E+00  7.67116E+00  7.13463E+00  7.73503E+00  7.80140E+00  7.32304E+00
   6.84523E+00  7.44643E+00  8.46512E+00  8.42855E+00  6.34647E+00  5.15681E+00  7.14662E+00  8.41244E+00  8.15077E+00  5.72217E+00
   6.50440E+00  8.34485E+00  6.50819E+00  6.14021E+00  7.17241E+00  6.26461E+00  7.82022E+00  4.56434E+00  5.61292E+00  7.97592E+00
   8.22503E+00  6.19306E+00  5.42084E+00  5.94738E+00  5.65004E+00  6.88803E+00  6.61814E+00  7.08373E+00  6.79651E+00  6.17705E+00
   6.61665E+00  6.34595E+00  6.93527E+00  5.14592E+00  4.92826E+00  6.36934E+00  5.79284E+00  6.85452E+00  7.27427E+00  7.90967E+00
   5.71760E+00  7.48824E+00  3.95432E+00  6.30137E+00  4.71322E+00  5.81305E+00  4.25953E+00  5.43175E+00  6.03119E+00  5.00093E+00
   5.74781E+00  4.62807E+00  6.25964E+00  5.15206E+00  5.26104E+00  4.50642E+00  5.57029E+00  5.37112E+00  6.74375E+00  4.23880E+00
   6.59400E+00  6.34673E+00  5.68278E+00  4.91615E+00  5.50903E+00  6.76145E+00  5.91781E+00  4.42315E+00  5.54319E+00  3.60842E+00
   3.65685E+00  3.65641E+00  2.90033E+00  3.21563E+00  5.63915E+00  3.34438E+00  3.45156E+00  3.49241E+00  4.70456E+00  5.17533E+00
   4.84818E+00  3.71618E+00  4.54312E+00  5.82523E+00  4.62185E+00  4.17128E+00  6.70919E+00  6.08333E+00  4.02110E+00  5.21104E+00
   4.44479E+00  5.09595E+00  5.17149E+00  5.00239E+00  5.08840E+00  3.95095E+00  4.66406E+00  4.23243E+00  4.23546E+00  4.12435E+00
   3.70112E+00  4.19879E+00  5.64538E+00  4.51680E+00  3.53676E+00  6.05465E+00  2.82582E+00  5.92157E+00  4.39993E+00  5.03277E+00
   4.78135E+00  4.71709E+00  4.79183E+00  4.05917E+00  4.83069E+00  4.81847E+00  3.06613E+00  4.33109E+00  3.55042E+00  2.98696E+00
   3.78606E+00  3.84741E+00  4.10397E+00  2.45602E+00  2.47714E+00  3.97725E+00  2.47904E+00  4.34857E+00  2.98677E+00  2.99279E+00
   2.37953E+00  4.10459E+00  3.88356E+00  3.08277E+00  3.42333E+00  2.89975E+00  4.27292E+00  4.92317E+00  3.72347E+00  3.93000E+00
   3.43834E+00  4.83447E+00  4.23609E+00  4.45779E+00  1.32106E+00  4.39962E+00  4.65487E+00  4.73276E+00  3.54559E+00  4.27212E+00
   2.98579E+00  3.78152E+00  3.91714E+00  4.59009E+00  4.55558E+00  2.55878E+00  1.66145E+00  2.37083E+00  3.51256E+00  4.63321E+00
   2.24486E+00  2.79106E+00  2.98420E+00  5.25446E+00  4.55205E+00  5.04300E+00  3.31556E+00  4.28639E+00  4.40816E+00  5.32115E+00
   4.93062E+00  5.65403E+00  5.26190E+00  5.36781E+00  5.40318E+00  4.05746E+00  5.70163E+00  2.17754E+00  3.28972E+00  3.15743E+00
   3.44065E+00  3.01543E+00  4.29852E+00  2.94015E+00  2.87650E+00  1.26502E+00  3.68702E+00  1.41347E+00  4.63915E+00  3.02086E+00
   2.79019E+00  1.27159E+00  2.63011E+00  2.48540E+00  2.01052E+00  3.36328E+00  1.77434E+00  1.72429E+00  1.90769E+00  2.66423E+00
   1.60418E+00  3.84686E+00  1.97452E+00  2.57436E+00  6.15030E-01  2.90353E+00  2.87671E+00  3.18603E-01  2.07972E+00  1.14469E+00
   3.13717E+00  3.07587E+00  1.52034E+00  2.04375E-01  1.22490E+00  8.94201E-01  2.23296E+00  2.28035E+00  1.58197E+00  1.68325E+00
   2.05094E+00  1.52199E+00  1.55116E+00  2.37741E+00  7.56377E-01  1.59007E+00  1.33349E+00 -3.35866E-01  2.86136E-01  2.26591E+00
   2.49844E+00  1.21769E+00  1.72948E+00  3.42634E-01  6.00645E-01  1.11917E+00  1.35927E+00  1.35564E+00  1.92091E+00  2.11422E+00
   2.49446E+00  1.66364E+00  1.57656E+00  3.09032E-01  7.84573E-01  5.89788E-01  2.10560E+00  4.75916E-01  2.84774E+00  7.05151E-01
   2.75656E+00  5.46499E-01  1.87351E+00  2.24126E+00  1.40018E-01  1.43367E+00  7.99188E-01 -1.06736E+00 -5.77737E-02 -1.05789E+00
  -6.79392E-02 -6.39935E-01  7.30247E-01 -9.87476E-01 -1.16167E-01  4.21076E-01 -9.84037E-01  1.22659E+00  9.45144E-01  4.48050E-02
  -7.18906E-01  2.79571E-01 -1.70371E-01  5.13138E-01  1.19227E+00  8.53440E-01  1.67131E+00  1.25655E+00 -2.76880E+00 -1.17671E+00
   1.05055E+00  4.71499E-01  1.70810E-01 -5.00702E-01 -3.30495E+00 -7.69100E-01 -4.29829E-01 -8.18991E-01  8.82663E-01 -2.66710E-01
  -1.21090E+00 -2.15383E-01 -3.99531E-01 -3.81401E-01 -2.56797E-01 -2.11903E+00  2.72679E-01 -1.33182E+00 -3.85432E-01  1.01486E+00
  -4.29682E-01  7.69305E-01 -2.41446E+00  3.28346E-01 -1.04066E-01  3.05053E-02  1.39890E+00 -7.24178E-01  2.16458E-01 -1.86227E+00
  -1.70071E-01 -1.00063E+00 -3.09431E-01 -2.28030E-01 -1.49768E+00 -1.81648E+00 -1.78160E+00 -1.81286E+00
 NY points of the fit to the data follow
   2.65263E+01  2.64276E+01  2.63318E+01  2.62330E+01  2.61275E+01  2.60129E+01  2.58874E+01  2.57494E+01  2.55977E+01  2.54312E+01
   2.52496E+01  2.50530E+01  2.48432E+01  2.46225E+01  2.43950E+01  2.41651E+01  2.39369E+01  2.37137E+01  2.34995E+01  2.32983E+01
   2.31140E+01  2.29466E+01  2.27876E+01  2.26324E+01  2.24790E+01  2.23262E+01  2.21730E+01  2.20187E+01  2.18630E+01  2.17069E+01
   2.15512E+01  2.13962E+01  2.12418E+01  2.10880E+01  2.09344E+01  2.07809E+01  2.06273E+01  2.04735E+01  2.03192E+01  2.01651E+01
   2.00122E+01  1.98610E+01  1.97121E+01  1.95657E+01  1.94216E+01  1.92783E+01  1.91346E+01  1.89902E+01  1.88455E+01  1.87006E+01
   1.85562E+01  1.84132E+01  1.82716E+01  1.81310E+01  1.79913E+01  1.78527E+01  1.77149E+01  1.75780E+01  1.74420E+01  1.73068E+01
   1.71725E+01  1.70392E+01  1.69067E+01  1.67751E+01  1.66445E+01  1.65149E+01  1.63862E+01  1.62585E+01  1.61317E+01  1.60058E+01
   1.58808E+01  1.57567E+01  1.56334E+01  1.55111E+01  1.53896E+01  1.52691E+01  1.51497E+01  1.50315E+01  1.49143E+01  1.47981E+01
   1.46827E+01  1.45680E+01  1.44542E+01  1.43412E+01  1.42289E+01  1.41175E+01  1.40068E+01  1.38970E+01  1.37880E+01  1.36798E+01
   1.35726E+01  1.34663E+01  1.33610E+01  1.32568E+01  1.31538E+01  1.30520E+01  1.29515E+01  1.28524E+01  1.27546E+01  1.26579E+01
   1.25624E+01  1.24678E+01  1.23744E+01  1.22820E+01  1.21907E+01  1.21006E+01  1.20117E+01  1.19240E+01  1.18376E+01  1.17527E+01
   1.16694E+01  1.15879E+01  1.15084E+01  1.14316E+01  1.13583E+01  1.12915E+01  1.12415E+01  1.12227E+01  1.12288E+01  1.12469E+01
   1.12658E+01  1.12777E+01  1.12777E+01  1.12627E+01  1.12303E+01  1.11786E+01  1.11060E+01  1.10118E+01  1.08956E+01  1.07589E+01
   1.06043E+01  1.04363E+01  1.02610E+01  1.00854E+01  9.91663E+00  9.76100E+00  9.62427E+00  9.51179E+00  9.42722E+00  9.36499E+00
   9.30883E+00  9.25317E+00  9.19756E+00  9.14199E+00  9.08650E+00  9.03110E+00  8.97583E+00  8.92073E+00  8.86581E+00  8.81106E+00
   8.75648E+00  8.70208E+00  8.64789E+00  8.59392E+00  8.54015E+00  8.48662E+00  8.43336E+00  8.38044E+00  8.32789E+00  8.27568E+00
   8.22379E+00  8.17223E+00  8.12101E+00  8.07015E+00  8.01966E+00  7.96955E+00  7.91982E+00  7.87043E+00  7.82139E+00  7.77266E+00
   7.72424E+00  7.67616E+00  7.62841E+00  7.58107E+00  7.53419E+00  7.48783E+00  7.44199E+00  7.39668E+00  7.35193E+00  7.30770E+00
   7.26392E+00  7.22055E+00  7.17750E+00  7.13461E+00  7.09150E+00  7.04807E+00  7.00400E+00  6.95922E+00  6.91409E+00  6.86910E+00
   6.82491E+00  6.78270E+00  6.74359E+00  6.70788E+00  6.67507E+00  6.64491E+00  6.61665E+00  6.58901E+00  6.56052E+00  6.52923E+00
   6.49290E+00  6.45233E+00  6.41010E+00  6.36773E+00  6.32585E+00  6.28474E+00  6.24459E+00  6.20588E+00  6.16913E+00  6.13524E+00
   6.10507E+00  6.07915E+00  6.05770E+00  6.04056E+00  6.02660E+00  6.01390E+00  6.00061E+00  5.98541E+00  5.96685E+00  5.94398E+00
   5.91644E+00  5.88443E+00  5.84924E+00  5.81375E+00  5.77915E+00  5.74444E+00  5.70827E+00  5.67115E+00  5.63446E+00  5.59948E+00
   5.56732E+00  5.53877E+00  5.51308E+00  5.48830E+00  5.46333E+00  5.43748E+00  5.41028E+00  5.38182E+00  5.35248E+00  5.32260E+00
   5.29267E+00  5.26338E+00  5.23505E+00  5.20769E+00  5.18126E+00  5.15576E+00  5.13100E+00  5.10675E+00  5.08345E+00  5.06216E+00
   5.04315E+00  5.02586E+00  5.00938E+00  4.99234E+00  4.97295E+00  4.95030E+00  4.92483E+00  4.89693E+00  4.86727E+00  4.83675E+00
   4.80611E+00  4.77590E+00  4.74668E+00  4.71864E+00  4.69149E+00  4.66487E+00  4.63853E+00  4.61226E+00  4.58593E+00  4.55952E+00
   4.53318E+00  4.50697E+00  4.48112E+00  4.45577E+00  4.43092E+00  4.40659E+00  4.38278E+00  4.35947E+00  4.33662E+00  4.31419E+00
   4.29216E+00  4.27049E+00  4.24917E+00  4.22821E+00  4.20760E+00  4.18731E+00  4.16733E+00  4.14764E+00  4.12823E+00  4.10904E+00
   4.09004E+00  4.07120E+00  4.05252E+00  4.03397E+00  4.01558E+00  3.99734E+00  3.97927E+00  3.96139E+00  3.94372E+00  3.92625E+00
   3.90899E+00  3.89194E+00  3.87511E+00  3.85849E+00  3.84209E+00  3.82591E+00  3.80996E+00  3.79425E+00  3.77879E+00  3.76361E+00
   3.74870E+00  3.73410E+00  3.71982E+00  3.70588E+00  3.69231E+00  3.67914E+00  3.66640E+00  3.65412E+00  3.64234E+00  3.63110E+00
   3.62045E+00  3.61044E+00  3.60113E+00  3.59259E+00  3.58487E+00  3.57807E+00  3.57226E+00  3.56754E+00  3.56401E+00  3.56179E+00
   3.56099E+00  3.56176E+00  3.56426E+00  3.56867E+00  3.57522E+00  3.58425E+00  3.59620E+00  3.61174E+00  3.63186E+00  3.65795E+00
   3.69197E+00  3.73645E+00  3.79444E+00  3.86919E+00  3.96364E+00  4.07952E+00  4.21628E+00  4.37002E+00  4.53265E+00  4.69179E+00
   4.83150E+00  4.93418E+00  4.98317E+00  4.96578E+00  4.87595E+00  4.71576E+00  4.49549E+00  4.23198E+00  3.94580E+00  3.65790E+00
   3.38644E+00  3.14463E+00  2.93978E+00  2.77361E+00  2.64342E+00  2.54378E+00  2.46807E+00  2.40983E+00  2.36352E+00  2.32494E+00
   2.29116E+00  2.26033E+00  2.23146E+00  2.20404E+00  2.17792E+00  2.15305E+00  2.12948E+00  2.10725E+00  2.08637E+00  2.06684E+00
   2.04865E+00  2.03174E+00  2.01609E+00  2.00162E+00  1.98827E+00  1.97599E+00  1.96470E+00  1.95431E+00  1.94474E+00  1.93586E+00
   1.92756E+00  1.91967E+00  1.91201E+00  1.90439E+00  1.89656E+00  1.88826E+00  1.87922E+00  1.86911E+00  1.85765E+00  1.84450E+00
   1.82939E+00  1.81202E+00  1.79217E+00  1.76963E+00  1.74427E+00  1.71601E+00  1.68487E+00  1.65091E+00  1.61428E+00  1.57520E+00
   1.53394E+00  1.49082E+00  1.44621E+00  1.40048E+00  1.35404E+00  1.30726E+00  1.26051E+00  1.21412E+00  1.16838E+00  1.12356E+00
   1.07983E+00  1.03736E+00  9.96245E-01  9.56542E-01  9.18266E-01  8.81399E-01  8.45895E-01  8.11686E-01  7.78686E-01  7.46802E-01
   7.15934E-01  6.85980E-01  6.56842E-01  6.28425E-01  6.00640E-01  5.73404E-01  5.46645E-01  5.20295E-01  4.94297E-01  4.68599E-01
   4.43156E-01  4.17930E-01  3.92888E-01  3.68002E-01  3.43247E-01  3.18604E-01  2.94056E-01  2.69588E-01  2.45187E-01  2.20845E-01
   1.96552E-01  1.72302E-01  1.48088E-01  1.23906E-01  9.97511E-02  7.56199E-02  5.15093E-02  2.74165E-02  3.33959E-03 -2.07232E-02
  -4.47733E-02 -6.88116E-02 -9.28392E-02 -1.16857E-01 -1.40865E-01 -1.64863E-01 -1.88853E-01 -2.12834E-01 -2.36805E-01 -2.60768E-01
  -2.84721E-01 -3.08665E-01 -3.32598E-01 -3.56522E-01 -3.80435E-01 -4.04336E-01 -4.28227E-01 -4.52105E-01 -4.75970E-01 -4.99822E-01
  -5.23660E-01 -5.47484E-01 -5.71292E-01 -5.95084E-01 -6.18860E-01 -6.42619E-01 -6.66360E-01 -6.90081E-01 -7.13783E-01 -7.37465E-01
  -7.61125E-01 -7.84763E-01 -8.08377E-01 -8.31967E-01 -8.55532E-01 -8.79069E-01 -9.02579E-01 -9.26059E-01
 NY background values follow
     2.634E+01    2.618E+01    2.602E+01    2.585E+01    2.569E+01    2.553E+01    2.536E+01    2.520E+01    2.504E+01    2.488E+01
     2.471E+01    2.455E+01    2.439E+01    2.423E+01    2.406E+01    2.390E+01    2.374E+01    2.358E+01    2.342E+01    2.326E+01
     2.310E+01    2.294E+01    2.278E+01    2.262E+01    2.246E+01    2.230E+01    2.214E+01    2.199E+01    2.183E+01    2.167E+01
     2.152E+01    2.136E+01    2.121E+01    2.105E+01    2.090E+01    2.074E+01    2.059E+01    2.044E+01    2.029E+01    2.014E+01
     1.999E+01    1.984E+01    1.969E+01    1.954E+01    1.939E+01    1.924E+01    1.910E+01    1.895E+01    1.881E+01    1.867E+01
     1.852E+01    1.838E+01    1.824E+01    1.810E+01    1.796E+01    1.782E+01    1.768E+01    1.755E+01    1.741E+01    1.727E+01
     1.714E+01    1.701E+01    1.687E+01    1.674E+01    1.661E+01    1.648E+01    1.635E+01    1.622E+01    1.609E+01    1.597E+01
     1.584E+01    1.572E+01    1.559E+01    1.547E+01    1.535E+01    1.522E+01    1.510E+01    1.498E+01    1.486E+01    1.475E+01
     1.463E+01    1.451E+01    1.440E+01    1.429E+01    1.417E+01    1.406E+01    1.395E+01    1.384E+01    1.373E+01    1.362E+01
     1.351E+01    1.341E+01    1.330E+01    1.320E+01    1.309E+01    1.299E+01    1.289E+01    1.279E+01    1.269E+01    1.259E+01
     1.249E+01    1.240E+01    1.230E+01    1.221E+01    1.211E+01    1.202E+01    1.193E+01    1.184E+01    1.175E+01    1.166E+01
     1.157E+01    1.148E+01    1.139E+01    1.131E+01    1.122E+01    1.114E+01    1.106E+01    1.097E+01    1.089E+01    1.081E+01
     1.073E+01    1.065E+01    1.057E+01    1.050E+01    1.042E+01    1.034E+01    1.027E+01    1.019E+01    1.012E+01    1.005E+01
     9.977E+00    9.906E+00    9.835E+00    9.766E+00    9.697E+00    9.629E+00    9.562E+00    9.496E+00    9.430E+00    9.365E+00
     9.301E+00    9.238E+00    9.175E+00    9.113E+00    9.052E+00    8.991E+00    8.931E+00    8.872E+00    8.813E+00    8.755E+00
     8.697E+00    8.640E+00    8.584E+00    8.529E+00    8.474E+00    8.419E+00    8.365E+00    8.312E+00    8.259E+00    8.207E+00
     8.155E+00    8.104E+00    8.053E+00    8.003E+00    7.953E+00    7.904E+00    7.855E+00    7.807E+00    7.759E+00    7.711E+00
     7.664E+00    7.618E+00    7.572E+00    7.526E+00    7.480E+00    7.435E+00    7.391E+00    7.346E+00    7.303E+00    7.259E+00
     7.216E+00    7.173E+00    7.130E+00    7.088E+00    7.046E+00    7.004E+00    6.963E+00    6.922E+00    6.881E+00    6.841E+00
     6.800E+00    6.761E+00    6.721E+00    6.682E+00    6.643E+00    6.604E+00    6.566E+00    6.528E+00    6.490E+00    6.452E+00
     6.415E+00    6.378E+00    6.342E+00    6.305E+00    6.269E+00    6.233E+00    6.198E+00    6.162E+00    6.127E+00    6.093E+00
     6.058E+00    6.024E+00    5.990E+00    5.956E+00    5.923E+00    5.890E+00    5.857E+00    5.824E+00    5.792E+00    5.760E+00
     5.728E+00    5.696E+00    5.665E+00    5.634E+00    5.603E+00    5.572E+00    5.542E+00    5.511E+00    5.482E+00    5.452E+00
     5.422E+00    5.393E+00    5.364E+00    5.335E+00    5.307E+00    5.278E+00    5.250E+00    5.222E+00    5.194E+00    5.167E+00
     5.139E+00    5.112E+00    5.085E+00    5.058E+00    5.032E+00    5.005E+00    4.979E+00    4.953E+00    4.927E+00    4.902E+00
     4.876E+00    4.851E+00    4.825E+00    4.800E+00    4.775E+00    4.751E+00    4.726E+00    4.702E+00    4.677E+00    4.653E+00
     4.629E+00    4.605E+00    4.581E+00    4.558E+00    4.534E+00    4.511E+00    4.487E+00    4.464E+00    4.441E+00    4.418E+00
     4.395E+00    4.372E+00    4.350E+00    4.327E+00    4.305E+00    4.282E+00    4.260E+00    4.238E+00    4.216E+00    4.194E+00
     4.172E+00    4.150E+00    4.128E+00    4.106E+00    4.085E+00    4.063E+00    4.042E+00    4.020E+00    3.999E+00    3.977E+00
     3.956E+00    3.935E+00    3.914E+00    3.893E+00    3.872E+00    3.851E+00    3.830E+00    3.809E+00    3.788E+00    3.767E+00
     3.746E+00    3.725E+00    3.705E+00    3.684E+00    3.663E+00    3.643E+00    3.622E+00    3.601E+00    3.581E+00    3.560E+00
     3.539E+00    3.519E+00    3.498E+00    3.478E+00    3.457E+00    3.436E+00    3.416E+00    3.395E+00    3.375E+00    3.354E+00
     3.333E+00    3.313E+00    3.292E+00    3.272E+00    3.251E+00    3.230E+00    3.210E+00    3.189E+00    3.168E+00    3.147E+00
     3.127E+00    3.106E+00    3.085E+00    3.064E+00    3.043E+00    3.022E+00    3.002E+00    2.981E+00    2.960E+00    2.939E+00
     2.917E+00    2.896E+00    2.875E+00    2.854E+00    2.833E+00    2.812E+00    2.790E+00    2.769E+00    2.748E+00    2.726E+00
     2.705E+00    2.683E+00    2.662E+00    2.640E+00    2.618E+00    2.597E+00    2.575E+00    2.553E+00    2.531E+00    2.509E+00
     2.487E+00    2.465E+00    2.443E+00    2.421E+00    2.398E+00    2.376E+00    2.354E+00    2.331E+00    2.309E+00    2.286E+00
     2.263E+00    2.241E+00    2.218E+00    2.195E+00    2.172E+00    2.149E+00    2.126E+00    2.103E+00    2.080E+00    2.057E+00
     2.034E+00    2.011E+00    1.987E+00    1.964E+00    1.941E+00    1.917E+00    1.894E+00    1.870E+00    1.847E+00    1.823E+00
     1.799E+00    1.776E+00    1.752E+00    1.728E+00    1.704E+00    1.680E+00    1.656E+00    1.632E+00    1.608E+00    1.584E+00
     1.560E+00    1.536E+00    1.511E+00    1.487E+00    1.463E+00    1.439E+00    1.414E+00    1.390E+00    1.365E+00    1.341E+00
     1.316E+00    1.292E+00    1.267E+00    1.243E+00    1.218E+00    1.193E+00    1.168E+00    1.144E+00    1.119E+00    1.094E+00
     1.069E+00    1.045E+00    1.020E+00    9.948E-01    9.699E-01    9.450E-01    9.200E-01    8.951E-01    8.701E-01    8.451E-01
     8.201E-01    7.951E-01    7.701E-01    7.450E-01    7.200E-01    6.949E-01    6.699E-01    6.448E-01    6.197E-01    5.946E-01
     5.695E-01    5.444E-01    5.193E-01    4.942E-01    4.692E-01    4.441E-01    4.190E-01    3.939E-01    3.688E-01    3.437E-01
     3.186E-01    2.936E-01    2.685E-01    2.435E-01    2.184E-01    1.934E-01    1.684E-01    1.434E-01    1.184E-01    9.338E-02
     6.841E-02    4.345E-02    1.850E-02   -6.434E-03   -3.135E-02   -5.626E-02   -8.115E-02   -1.060E-01   -1.309E-01   -1.557E-01
    -1.806E-01   -2.054E-01   -2.301E-01   -2.549E-01   -2.797E-01   -3.044E-01   -3.291E-01   -3.538E-01   -3.785E-01   -4.031E-01
    -4.278E-01   -4.524E-01   -4.769E-01   -5.015E-01   -5.260E-01   -5.506E-01   -5.750E-01   -5.995E-01   -6.239E-01   -6.484E-01
    -6.727E-01   -6.971E-01   -7.214E-01   -7.457E-01   -7.700E-01   -7.943E-01   -8.185E-01   -8.427E-01
 Asp      Conc. = 1.44E+00
