 LCModel (Version 6.3-1L) Copyright: S.W. Provencher.          Ref.: Magn. Reson. Med. 30:672-679 (1993).                
 Slice#1 Row#7 Col#5  PD_05_press_1_raw_act
 36 lines in following concentration table = NCONC+1
    Conc.  %SD /Cr+PCr  Metabolite                                         
   91.385  81%   0.130 Ala                                                 
   11.795 999% 1.7E-02 Asp                                                 
  168.787  89%   0.240 Cr                                                  
  535.701  29%   0.760 PCr                                                 
   45.230 199% 6.4E-02 GABA                                                
   86.998 105%   0.123 Glc                                                 
  549.498  28%   0.780 Gln                                                 
 1.02E+03  18%   1.447 Glu                                                 
    0.000 999%   0.000 GPC                                                 
  316.398   5%   0.449 PCh                                                 
  178.779  30%   0.254 GSH                                                 
  725.457  25%   1.030 Ins                                                 
    0.000 999%   0.000 Lac                                                 
 1.55E+03   5%   2.200 NAA                                                 
  127.650  68%   0.181 NAAG                                                
   58.284  32% 8.3E-02 Scyllo                                              
  399.734  32%   0.567 Tau                                                 
  295.633  26%   0.420 -CrCH2                                              
  316.398   5%   0.449 GPC+PCh                                             
 1.68E+03   4%   2.382 NAA+NAAG                                            
  704.488   6%   1.000 Cr+PCr                                              
 1.57E+03  15%   2.227 Glu+Gln                                             
 1.14E+03  37%   1.616 Lip13a                                              
    0.000 999%   0.000 Lip13b                                              
   17.271 999% 2.5E-02 Lip09                                               
 1.13E+03  21%   1.605 MM09                                                
  188.739  83%   0.268 Lip20                                               
 2.40E+03  13%   3.407 MM20                                                
  355.182  39%   0.504 MM12                                                
  965.595  32%   1.371 MM14                                                
  554.231  31%   0.787 MM17                                                
 1.14E+03  37%   1.616 Lip13a+Lip13b                                       
 2.46E+03  11%   3.491 MM14+Lip13a+Lip13b+MM12                             
 1.15E+03  13%   1.630 MM09+Lip09                                          
 2.59E+03  12%   3.675 MM20+Lip20                                          
   6 lines in following misc. output table
  FWHM = 0.038 ppm    S/N =  12                                            
  Data shift = 0.000 ppm                                                   
  Ph: -44 deg      -4.3 deg/ppm                                            
  alphaB,S = 2.0E+00,   7.3E+01                                            
   14 spline knots.   Ns = 6(1)                                            
  ( 8) 2 infls.   ( 5) 1 extrs.                                            
  498 points on ppm-axis = NY
      4.000000     3.992357     3.984714     3.977070     3.969427     3.961784     3.954141     3.946497     3.938854     3.931211
      3.923568     3.915925     3.908281     3.900638     3.892995     3.885352     3.877708     3.870065     3.862422     3.854779
      3.847136     3.839492     3.831849     3.824206     3.816563     3.808919     3.801276     3.793633     3.785990     3.778347
      3.770703     3.763060     3.755417     3.747774     3.740130     3.732487     3.724844     3.717201     3.709558     3.701914
      3.694271     3.686628     3.678985     3.671341     3.663698     3.656055     3.648412     3.640769     3.633125     3.625482
      3.617839     3.610196     3.602552     3.594909     3.587266     3.579623     3.571980     3.564336     3.556693     3.549050
      3.541407     3.533763     3.526120     3.518477     3.510834     3.503191     3.495547     3.487904     3.480261     3.472618
      3.464974     3.457331     3.449688     3.442045     3.434402     3.426758     3.419115     3.411472     3.403829     3.396185
      3.388542     3.380899     3.373256     3.365613     3.357969     3.350326     3.342683     3.335040     3.327396     3.319753
      3.312110     3.304467     3.296824     3.289180     3.281537     3.273894     3.266251     3.258607     3.250964     3.243321
      3.235678     3.228034     3.220391     3.212748     3.205105     3.197462     3.189818     3.182175     3.174532     3.166889
      3.159245     3.151602     3.143959     3.136316     3.128673     3.121029     3.113386     3.105743     3.098100     3.090456
      3.082813     3.075170     3.067527     3.059884     3.052240     3.044597     3.036954     3.029311     3.021667     3.014024
      3.006381     2.998738     2.991095     2.983451     2.975808     2.968165     2.960522     2.952878     2.945235     2.937592
      2.929949     2.922306     2.914662     2.907019     2.899376     2.891733     2.884089     2.876446     2.868803     2.861160
      2.853517     2.845873     2.838230     2.830587     2.822944     2.815300     2.807657     2.800014     2.792371     2.784728
      2.777084     2.769441     2.761798     2.754155     2.746511     2.738868     2.731225     2.723582     2.715939     2.708295
      2.700652     2.693009     2.685366     2.677722     2.670079     2.662436     2.654793     2.647150     2.639506     2.631863
      2.624220     2.616577     2.608933     2.601290     2.593647     2.586004     2.578361     2.570717     2.563074     2.555431
      2.547788     2.540144     2.532501     2.524858     2.517215     2.509572     2.501928     2.494285     2.486642     2.478999
      2.471355     2.463712     2.456069     2.448426     2.440783     2.433139     2.425496     2.417853     2.410210     2.402566
      2.394923     2.387280     2.379637     2.371994     2.364350     2.356707     2.349064     2.341421     2.333777     2.326134
      2.318491     2.310848     2.303205     2.295561     2.287918     2.280275     2.272632     2.264988     2.257345     2.249702
      2.242059     2.234416     2.226772     2.219129     2.211486     2.203843     2.196199     2.188556     2.180913     2.173270
      2.165627     2.157983     2.150340     2.142697     2.135054     2.127410     2.119767     2.112124     2.104481     2.096838
      2.089194     2.081551     2.073908     2.066265     2.058621     2.050978     2.043335     2.035692     2.028049     2.020405
      2.012762     2.005119     1.997476     1.989833     1.982190     1.974546     1.966903     1.959260     1.951617     1.943974
      1.936331     1.928688     1.921045     1.913402     1.905759     1.898115     1.890472     1.882829     1.875186     1.867543
      1.859900     1.852257     1.844614     1.836971     1.829327     1.821684     1.814041     1.806398     1.798755     1.791112
      1.783469     1.775826     1.768183     1.760540     1.752896     1.745253     1.737610     1.729967     1.722324     1.714681
      1.707038     1.699395     1.691752     1.684108     1.676465     1.668822     1.661179     1.653536     1.645893     1.638250
      1.630607     1.622964     1.615321     1.607677     1.600034     1.592391     1.584748     1.577105     1.569462     1.561819
      1.554176     1.546533     1.538890     1.531246     1.523603     1.515960     1.508317     1.500674     1.493031     1.485388
      1.477745     1.470102     1.462458     1.454815     1.447172     1.439529     1.431886     1.424243     1.416600     1.408957
      1.401314     1.393671     1.386027     1.378384     1.370741     1.363098     1.355455     1.347812     1.340169     1.332526
      1.324883     1.317240     1.309596     1.301953     1.294310     1.286667     1.279024     1.271381     1.263738     1.256095
      1.248452     1.240808     1.233165     1.225522     1.217879     1.210236     1.202593     1.194950     1.187307     1.179664
      1.172021     1.164377     1.156734     1.149091     1.141448     1.133805     1.126162     1.118519     1.110876     1.103233
      1.095590     1.087946     1.080303     1.072660     1.065017     1.057374     1.049731     1.042088     1.034445     1.026802
      1.019158     1.011515     1.003872     0.996229     0.988586     0.980943     0.973300     0.965657     0.958014     0.950371
      0.942727     0.935084     0.927441     0.919798     0.912155     0.904512     0.896869     0.889226     0.881583     0.873940
      0.866296     0.858653     0.851010     0.843367     0.835724     0.828081     0.820438     0.812795     0.805152     0.797508
      0.789865     0.782222     0.774579     0.766936     0.759293     0.751650     0.744007     0.736364     0.728721     0.721077
      0.713434     0.705791     0.698148     0.690505     0.682862     0.675219     0.667576     0.659933     0.652290     0.644646
      0.637003     0.629360     0.621717     0.614074     0.606431     0.598788     0.591145     0.583502     0.575858     0.568215
      0.560572     0.552929     0.545286     0.537643     0.530000     0.522357     0.514714     0.507071     0.499427     0.491784
      0.484141     0.476498     0.468855     0.461212     0.453569     0.445925     0.438282     0.430639     0.422996     0.415353
      0.407710     0.400067     0.392424     0.384780     0.377137     0.369494     0.361851     0.354208     0.346565     0.338922
      0.331278     0.323635     0.315992     0.308349     0.300706     0.293063     0.285420     0.277777     0.270133     0.262490
      0.254847     0.247204     0.239561     0.231918     0.224275     0.216631     0.208988     0.201345
 NY phased data points follow
  -2.54780E+01 -2.45707E+01 -2.61515E+01 -2.51244E+01 -2.24502E+01 -2.08310E+01 -1.65391E+01 -1.15556E+01 -1.42817E+01 -9.62380E+00
  -1.27333E+01 -8.48619E+00 -1.15501E+01 -1.13967E+01 -1.08325E+01 -1.84162E+01 -1.78775E+01 -2.20482E+01 -2.02656E+01 -2.15813E+01
  -2.20211E+01 -1.55301E+01 -1.64688E+01 -1.45587E+01 -1.73624E+01 -1.57230E+01 -1.54454E+01 -1.71000E+01 -1.39538E+01 -1.36085E+01
  -1.54384E+01 -1.44958E+01 -1.03912E+01 -1.22636E+01 -1.29602E+01 -1.52484E+01 -1.68874E+01 -1.82854E+01 -1.50593E+01 -1.43897E+01
  -1.70791E+01 -1.30017E+01 -1.31517E+01 -1.08199E+01 -1.06193E+01 -1.06199E+01 -1.28293E+01 -8.54200E+00 -1.09757E+01 -9.55493E+00
  -1.30433E+01 -1.50172E+01 -1.31873E+01 -1.23851E+01 -1.25847E+01 -1.47819E+01 -1.84412E+01 -1.43861E+01 -1.15357E+01 -1.13456E+01
  -1.25076E+01 -1.44194E+01 -1.42607E+01 -1.47894E+01 -1.78291E+01 -1.79896E+01 -1.26373E+01 -1.40250E+01 -1.13822E+01 -1.52382E+01
  -1.05099E+01 -1.38177E+01 -1.41428E+01 -1.29851E+01 -1.57299E+01 -1.05157E+01 -1.32444E+01 -1.09936E+01 -7.02140E+00 -1.39465E+01
  -1.22909E+01 -1.42590E+01 -1.11869E+01 -1.04479E+01 -1.22679E+01 -1.22336E+01 -1.15513E+01 -9.40691E+00 -1.62354E+01 -8.45773E+00
  -1.37562E+01 -8.12652E+00 -6.58297E+00 -8.49440E+00 -8.29822E+00 -1.24057E+01 -9.53249E+00 -8.70941E+00 -9.09272E+00  3.72739E-01
  -8.98139E-01  1.33901E+01  1.69402E+01  2.27273E+01  2.32178E+01  1.28731E+01  4.93336E+00  6.12652E-02 -3.03100E+00 -3.58364E+00
  -4.50295E+00 -9.05661E+00 -1.05308E+01 -8.83685E+00 -9.42362E+00 -1.07795E+01 -5.74157E+00 -9.45132E+00 -7.33479E+00 -1.08792E+01
  -1.00704E+01 -1.58925E+01 -5.26398E+00 -7.58361E+00 -2.41691E-01  5.30095E+00  1.21980E+01  1.81492E+01  1.89462E+01  1.51357E+01
   2.36074E+00 -1.04621E+00 -6.07155E+00 -5.22605E+00 -1.29701E+01 -8.15307E+00 -8.82621E+00 -1.21325E+01 -8.61974E+00 -1.00906E+01
  -6.62860E+00 -1.01329E+01 -9.70753E+00 -8.09072E+00 -1.06531E+01 -7.82572E+00 -1.14129E+01 -8.78800E+00 -1.22760E+01 -1.06290E+01
  -7.90031E+00 -1.35378E+01 -1.08310E+01 -1.09868E+01 -7.74236E+00 -1.31278E+01 -1.26439E+01 -1.18849E+01 -1.38493E+01 -7.93036E+00
  -8.77470E+00 -1.30324E+01 -1.52855E+01 -1.35072E+01 -1.05040E+01 -1.32758E+01 -1.13926E+01 -1.38839E+01 -1.16805E+01 -1.48275E+01
  -1.92971E+01 -1.59315E+01 -1.09373E+01 -2.08348E+01 -2.10554E+01 -2.22434E+01 -1.90084E+01 -2.07816E+01 -2.13078E+01 -1.20645E+01
  -1.32147E+01 -1.64217E+01 -1.52496E+01 -2.02368E+01 -1.49671E+01 -1.27023E+01 -1.08064E+01 -1.11192E+01 -6.72775E+00 -1.00650E+01
  -5.53184E+00 -4.15276E+00 -7.96477E+00 -8.90825E+00 -1.07903E+01 -9.20063E+00 -8.84361E+00 -1.15509E+01 -1.29261E+01 -1.38465E+01
  -9.14232E+00 -9.77423E+00 -8.63995E+00 -2.67763E+00 -8.82216E+00 -5.08316E+00 -3.26568E+00 -8.77670E+00 -1.34635E+01 -1.05824E+01
  -1.19054E+01 -1.13059E+01 -8.43618E+00 -5.79036E+00 -4.87901E+00  2.35536E-01  5.87115E+00  2.03670E+00  1.27460E-01 -2.60116E+00
  -7.18505E+00 -8.93114E+00 -9.24216E+00 -1.34806E+01 -8.37833E+00 -5.42388E+00 -6.91391E+00 -1.68664E+00 -1.09334E+00 -6.68218E+00
  -5.27584E+00 -1.68252E+00 -5.66482E+00  1.00649E+00 -5.74224E-01 -5.37295E+00 -4.89874E+00 -1.53371E+00  2.23395E+00  2.18313E+00
  -6.30616E-01 -5.09918E+00 -5.52481E+00 -5.26322E+00 -7.57757E+00 -4.88301E+00  2.29466E+00  5.82624E-01  2.75193E+00  3.99810E+00
   6.50976E+00  1.24470E-01  4.70042E+00  5.89462E+00  7.38753E+00  1.48701E+01  2.22390E+01  2.90351E+01  3.74522E+01  4.94393E+01
   5.99704E+01  6.25191E+01  5.58731E+01  3.43053E+01  2.10209E+01  1.41792E+01  8.03554E+00  2.21246E+00 -3.44881E-01  1.54704E+00
   6.66623E-01 -4.75563E-01 -2.59939E-01  1.65889E+00 -3.37597E+00 -2.01310E+00 -3.95028E+00 -6.83341E+00 -7.43935E+00 -8.37128E+00
  -3.88571E+00 -2.95032E+00 -3.46913E+00 -5.61895E+00 -4.70033E+00 -6.66943E+00 -1.08081E+00 -5.35181E+00 -5.09267E+00 -7.62798E+00
  -4.79278E+00 -2.81834E+00 -2.13023E+00 -3.11847E+00 -4.84612E+00 -6.31278E+00 -4.40606E+00 -3.70293E+00 -3.02232E+00 -3.27971E+00
  -5.65876E+00 -4.31538E+00 -7.56737E+00 -1.65694E+00 -5.69257E+00 -6.96783E+00 -5.44664E+00 -3.79526E+00 -3.27115E+00  6.19817E-01
  -3.34217E+00 -3.48033E+00 -2.62152E+00 -1.32219E+00 -1.31103E+00 -2.70306E+00 -2.28089E+00  4.68083E+00 -2.20675E+00 -5.09161E+00
   3.18831E-01 -2.10547E+00 -4.80924E+00 -2.34075E+00 -4.68146E+00 -7.53189E+00 -8.55169E+00 -5.36816E+00 -9.44548E+00 -7.18697E+00
  -6.41458E+00  1.70907E-01 -2.34226E+00 -1.84671E+00 -3.19148E+00  2.67106E+00 -9.35029E-01  3.26590E+00 -7.26319E-01  1.11406E+00
   3.60356E+00  1.12124E+00  4.63563E+00 -4.22001E-01  4.57894E+00  5.73014E+00  6.97064E+00  4.10454E+00  3.88017E+00  1.32073E+00
   7.46515E+00  2.21404E+00  4.86735E+00  2.32110E+00  5.49724E+00  4.08820E+00  3.91882E+00  2.19880E-01  6.73088E-01 -8.37285E-01
  -4.31838E+00 -2.07464E+00 -3.66198E+00 -9.13324E-01  2.39621E+00 -3.33197E+00 -1.14495E+00 -2.63352E+00  4.94096E+00 -1.07284E+00
   3.84202E+00  4.59268E+00  5.04949E+00 -3.44401E-01 -2.00738E+00 -6.77371E-01 -6.49593E+00 -5.70440E+00 -8.40282E+00 -1.33921E+00
  -4.01063E+00 -4.67705E+00 -3.25502E+00 -1.64200E+00  3.79638E-02 -5.11070E+00 -2.26078E+00 -3.84424E+00 -6.44214E+00 -5.93704E+00
  -4.12291E+00 -4.29520E+00 -4.76974E+00  2.95479E+00  1.00625E+00  2.23105E+00 -3.94281E+00  3.37309E+00 -1.94241E+00  1.59705E+00
   2.44994E+00 -8.02070E-02  1.08244E+00  3.50640E+00  4.71413E+00  2.02181E+00  1.58598E+00  3.02183E+00  4.09389E+00  5.35772E+00
   3.30093E+00  2.64328E+00  1.96002E+00 -2.61521E+00 -1.09917E-01  5.42701E-01 -3.22079E-01 -1.43310E+00 -2.25216E+00 -1.43427E+00
  -2.82972E+00 -6.54315E+00 -5.55252E+00 -1.37621E+00 -4.95291E+00 -5.25505E+00 -7.55797E-02 -2.57685E+00 -5.46197E+00 -3.72058E+00
  -3.06746E+00 -5.94534E+00 -4.86004E+00 -2.25436E+00 -4.66018E+00 -8.45344E+00 -4.63629E+00 -3.81909E+00 -4.71468E+00 -5.68551E+00
  -4.55726E+00 -3.60203E+00 -6.96738E+00 -3.61776E+00 -7.55659E+00 -8.47737E+00 -7.32328E+00 -7.34002E+00 -8.35391E+00 -5.74779E+00
  -6.34615E+00 -5.45591E+00 -9.89877E+00 -6.67699E+00 -4.17899E+00 -3.06174E+00 -4.15146E+00 -8.26814E+00 -5.89623E+00 -7.63805E+00
  -3.18966E+00 -7.94370E+00 -4.46246E+00 -2.12394E+00 -3.70078E+00 -3.46697E+00 -1.38172E+00 -7.00734E+00 -4.21986E+00 -7.63356E+00
  -6.92078E+00 -6.29054E+00 -5.72105E+00 -6.65471E-01 -7.24154E+00 -6.56007E+00 -5.39041E+00 -4.51814E+00 -2.17055E+00 -5.24169E+00
  -6.12398E+00 -5.15825E+00 -2.73977E+00 -5.97428E+00 -2.60967E+00 -5.39695E+00 -5.48500E+00 -4.23770E+00 -7.19591E+00 -7.22811E+00
  -2.76841E+00 -3.55929E+00 -6.69227E+00 -7.36667E+00 -7.31121E+00 -5.94825E+00 -5.02704E+00 -3.31814E+00
 NY points of the fit to the data follow
  -1.91463E+01 -1.93542E+01 -1.94991E+01 -1.94771E+01 -1.90590E+01 -1.82710E+01 -1.70774E+01 -1.53916E+01 -1.31956E+01 -1.08454E+01
  -9.12435E+00 -8.85267E+00 -1.01824E+01 -1.23530E+01 -1.44081E+01 -1.58972E+01 -1.69064E+01 -1.75430E+01 -1.77478E+01 -1.76587E+01
  -1.73616E+01 -1.70160E+01 -1.67498E+01 -1.66443E+01 -1.66058E+01 -1.65846E+01 -1.64745E+01 -1.60586E+01 -1.51218E+01 -1.36725E+01
  -1.20571E+01 -1.07879E+01 -1.02620E+01 -1.05418E+01 -1.15003E+01 -1.28991E+01 -1.45794E+01 -1.62506E+01 -1.73923E+01 -1.78287E+01
  -1.75707E+01 -1.67627E+01 -1.57016E+01 -1.46186E+01 -1.34841E+01 -1.21553E+01 -1.08420E+01 -1.01809E+01 -1.06982E+01 -1.22562E+01
  -1.41198E+01 -1.54941E+01 -1.61049E+01 -1.61959E+01 -1.60468E+01 -1.56905E+01 -1.51442E+01 -1.44903E+01 -1.38296E+01 -1.32985E+01
  -1.30508E+01 -1.31728E+01 -1.35970E+01 -1.40684E+01 -1.43215E+01 -1.42711E+01 -1.39850E+01 -1.35990E+01 -1.32832E+01 -1.30801E+01
  -1.28755E+01 -1.26102E+01 -1.23200E+01 -1.20175E+01 -1.16925E+01 -1.14071E+01 -1.13572E+01 -1.17208E+01 -1.25052E+01 -1.33814E+01
  -1.38425E+01 -1.36651E+01 -1.30768E+01 -1.23463E+01 -1.16031E+01 -1.10277E+01 -1.08075E+01 -1.10382E+01 -1.16919E+01 -1.24781E+01
  -1.29628E+01 -1.30699E+01 -1.31105E+01 -1.32940E+01 -1.35296E+01 -1.35819E+01 -1.30536E+01 -1.10211E+01 -7.35656E+00 -2.55733E+00
   3.42968E+00  1.06301E+01  1.78265E+01  2.23731E+01  2.16773E+01  1.55346E+01  7.11759E+00  2.54936E-01 -3.97732E+00 -6.83065E+00
  -9.22234E+00 -1.06402E+01 -1.11840E+01 -1.14570E+01 -1.16105E+01 -1.17183E+01 -1.17825E+01 -1.18039E+01 -1.17879E+01 -1.16962E+01
  -1.13510E+01 -1.00797E+01 -7.59453E+00 -4.14989E+00  4.23805E-01  6.28761E+00  1.24793E+01  1.67242E+01  1.67376E+01  1.21716E+01
   5.48718E+00 -1.35770E-01 -3.67210E+00 -6.13764E+00 -8.43138E+00 -1.00807E+01 -1.08707E+01 -1.11735E+01 -1.10715E+01 -1.07058E+01
  -1.02710E+01 -9.92754E+00 -9.77196E+00 -9.82425E+00 -1.00020E+01 -1.02060E+01 -1.03891E+01 -1.05381E+01 -1.06703E+01 -1.07936E+01
  -1.09015E+01 -1.10019E+01 -1.10883E+01 -1.11442E+01 -1.11630E+01 -1.11808E+01 -1.12219E+01 -1.13020E+01 -1.14766E+01 -1.17617E+01
  -1.21087E+01 -1.23683E+01 -1.23351E+01 -1.19609E+01 -1.14953E+01 -1.13122E+01 -1.15735E+01 -1.21155E+01 -1.26315E+01 -1.29745E+01
  -1.32010E+01 -1.34235E+01 -1.36587E+01 -1.38881E+01 -1.41449E+01 -1.43972E+01 -1.44656E+01 -1.42112E+01 -1.37446E+01 -1.33861E+01
  -1.33620E+01 -1.35661E+01 -1.36600E+01 -1.34536E+01 -1.31199E+01 -1.28567E+01 -1.25283E+01 -1.18865E+01 -1.08449E+01 -9.63816E+00
  -8.68825E+00 -8.26989E+00 -8.40131E+00 -8.86567E+00 -9.39574E+00 -9.81228E+00 -9.99899E+00 -9.88824E+00 -9.43673E+00 -8.62074E+00
  -7.51188E+00 -6.31988E+00 -5.35034E+00 -4.86115E+00 -5.06914E+00 -6.00030E+00 -7.63229E+00 -9.77406E+00 -1.19227E+01 -1.34028E+01
  -1.37182E+01 -1.27219E+01 -1.07618E+01 -8.34061E+00 -5.76783E+00 -3.31063E+00 -1.65156E+00 -1.62973E+00 -3.45535E+00 -6.30628E+00
  -9.13015E+00 -1.13506E+01 -1.26425E+01 -1.26626E+01 -1.12084E+01 -8.60777E+00 -5.94855E+00 -4.08252E+00 -3.15618E+00 -2.88586E+00
  -3.02274E+00 -3.37343E+00 -3.66020E+00 -3.64046E+00 -3.28563E+00 -2.68281E+00 -1.90703E+00 -1.07423E+00 -4.27488E-01 -2.71732E-01
  -7.06043E-01 -1.50125E+00 -2.28236E+00 -2.68124E+00 -2.43863E+00 -1.56570E+00 -4.61364E-01  4.68753E-01  1.15087E+00  1.73321E+00
   2.38566E+00  3.15843E+00  4.16142E+00  5.74663E+00  8.97676E+00  1.45860E+01  2.15176E+01  2.95880E+01  3.96356E+01  5.10913E+01
   6.01543E+01  6.15447E+01  5.28087E+01  3.76386E+01  2.33567E+01  1.38704E+01  7.87114E+00  2.99202E+00 -5.44585E-01 -1.98036E+00
  -2.67559E+00 -3.14107E+00 -3.42419E+00 -3.53540E+00 -3.56386E+00 -3.60195E+00 -3.71908E+00 -3.93840E+00 -4.21752E+00 -4.49680E+00
  -4.75012E+00 -4.97039E+00 -5.13630E+00 -5.23215E+00 -5.27304E+00 -5.28885E+00 -5.29544E+00 -5.29142E+00 -5.27246E+00 -5.23848E+00
  -5.18370E+00 -5.10093E+00 -4.99376E+00 -4.87220E+00 -4.74319E+00 -4.60919E+00 -4.46961E+00 -4.32488E+00 -4.17724E+00 -4.02850E+00
  -3.87855E+00 -3.73040E+00 -3.59121E+00 -3.46786E+00 -3.36486E+00 -3.28463E+00 -3.22889E+00 -3.19812E+00 -3.18989E+00 -3.20103E+00
  -3.22889E+00 -3.27023E+00 -3.32091E+00 -3.37590E+00 -3.42971E+00 -3.47646E+00 -3.51028E+00 -3.52479E+00 -3.51252E+00 -3.46258E+00
  -3.35531E+00 -3.17516E+00 -2.95970E+00 -2.73320E+00 -2.50708E+00 -2.33653E+00 -2.32504E+00 -2.54501E+00 -2.93954E+00 -3.27635E+00
  -3.33447E+00 -3.07647E+00 -2.58155E+00 -1.89365E+00 -1.01927E+00 -5.37577E-02  7.59582E-01  1.26201E+00  1.50124E+00  1.64442E+00
   1.79921E+00  1.95796E+00  2.08817E+00  2.22545E+00  2.37655E+00  2.52107E+00  2.64923E+00  2.75631E+00  2.83924E+00  2.89575E+00
   2.92383E+00  2.92205E+00  2.88942E+00  2.82556E+00  2.73024E+00  2.60361E+00  2.44607E+00  2.25886E+00  2.04374E+00  1.80319E+00
   1.53988E+00  1.25687E+00  9.57467E-01  6.45564E-01  3.25201E-01  5.49768E-04 -3.24569E-01 -6.46431E-01 -9.61554E-01 -1.26641E+00
  -1.55788E+00 -1.83316E+00 -2.09008E+00 -2.32666E+00 -2.54121E+00 -2.73203E+00 -2.89778E+00 -3.03732E+00 -3.14985E+00 -3.23440E+00
  -3.28999E+00 -3.31541E+00 -3.30961E+00 -3.27152E+00 -3.20019E+00 -3.09441E+00 -2.95306E+00 -2.77507E+00 -2.55997E+00 -2.30776E+00
  -2.01918E+00 -1.69556E+00 -1.33929E+00 -9.53908E-01 -5.44529E-01 -1.17561E-01  3.19200E-01  7.56981E-01  1.18585E+00  1.59516E+00
   1.97363E+00  2.31026E+00  2.59463E+00  2.81767E+00  2.97172E+00  3.05112E+00  3.05234E+00  2.97458E+00  2.81962E+00  2.59187E+00
   2.29776E+00  1.94560E+00  1.54501E+00  1.10678E+00  6.42060E-01  1.62014E-01 -3.23020E-01 -8.03587E-01 -1.27155E+00 -1.71991E+00
  -2.14329E+00 -2.53771E+00 -2.90086E+00 -3.23160E+00 -3.52992E+00 -3.79644E+00 -4.03261E+00 -4.24036E+00 -4.42212E+00 -4.58033E+00
  -4.71746E+00 -4.83575E+00 -4.93748E+00 -5.02475E+00 -5.09962E+00 -5.16375E+00 -5.21862E+00 -5.26536E+00 -5.30516E+00 -5.33900E+00
  -5.36785E+00 -5.39230E+00 -5.41291E+00 -5.43005E+00 -5.44426E+00 -5.45593E+00 -5.46548E+00 -5.47304E+00 -5.47880E+00 -5.48287E+00
  -5.48558E+00 -5.48708E+00 -5.48754E+00 -5.48693E+00 -5.48533E+00 -5.48280E+00 -5.47957E+00 -5.47570E+00 -5.47125E+00 -5.46612E+00
  -5.46041E+00 -5.45414E+00 -5.44752E+00 -5.44051E+00 -5.43313E+00 -5.42526E+00 -5.41702E+00 -5.40846E+00 -5.39971E+00 -5.39070E+00
  -5.38142E+00 -5.37177E+00 -5.36189E+00 -5.35182E+00 -5.34164E+00 -5.33123E+00 -5.32060E+00 -5.30968E+00 -5.29864E+00 -5.28748E+00
  -5.27624E+00 -5.26479E+00 -5.25314E+00 -5.24128E+00 -5.22936E+00 -5.21734E+00 -5.20523E+00 -5.19289E+00 -5.18037E+00 -5.16769E+00
  -5.15497E+00 -5.14214E+00 -5.12917E+00 -5.11595E+00 -5.10255E+00 -5.08900E+00 -5.07537E+00 -5.06155E+00
 NY background values follow
    -2.031E+01   -2.025E+01   -2.018E+01   -2.012E+01   -2.006E+01   -2.000E+01   -1.994E+01   -1.988E+01   -1.982E+01   -1.976E+01
    -1.970E+01   -1.964E+01   -1.958E+01   -1.952E+01   -1.946E+01   -1.940E+01   -1.933E+01   -1.927E+01   -1.921E+01   -1.915E+01
    -1.909E+01   -1.903E+01   -1.897E+01   -1.891E+01   -1.885E+01   -1.879E+01   -1.873E+01   -1.867E+01   -1.861E+01   -1.855E+01
    -1.849E+01   -1.843E+01   -1.837E+01   -1.831E+01   -1.825E+01   -1.819E+01   -1.813E+01   -1.807E+01   -1.801E+01   -1.795E+01
    -1.789E+01   -1.784E+01   -1.778E+01   -1.772E+01   -1.766E+01   -1.760E+01   -1.754E+01   -1.748E+01   -1.742E+01   -1.737E+01
    -1.731E+01   -1.725E+01   -1.719E+01   -1.713E+01   -1.708E+01   -1.702E+01   -1.696E+01   -1.690E+01   -1.685E+01   -1.679E+01
    -1.673E+01   -1.668E+01   -1.662E+01   -1.656E+01   -1.651E+01   -1.645E+01   -1.639E+01   -1.634E+01   -1.628E+01   -1.623E+01
    -1.617E+01   -1.612E+01   -1.606E+01   -1.601E+01   -1.595E+01   -1.590E+01   -1.584E+01   -1.579E+01   -1.573E+01   -1.568E+01
    -1.563E+01   -1.557E+01   -1.552E+01   -1.547E+01   -1.541E+01   -1.536E+01   -1.531E+01   -1.526E+01   -1.520E+01   -1.515E+01
    -1.510E+01   -1.505E+01   -1.500E+01   -1.495E+01   -1.490E+01   -1.485E+01   -1.480E+01   -1.475E+01   -1.470E+01   -1.465E+01
    -1.460E+01   -1.455E+01   -1.450E+01   -1.445E+01   -1.440E+01   -1.435E+01   -1.430E+01   -1.425E+01   -1.421E+01   -1.416E+01
    -1.411E+01   -1.406E+01   -1.402E+01   -1.397E+01   -1.392E+01   -1.388E+01   -1.383E+01   -1.378E+01   -1.374E+01   -1.369E+01
    -1.365E+01   -1.360E+01   -1.355E+01   -1.351E+01   -1.346E+01   -1.342E+01   -1.337E+01   -1.333E+01   -1.329E+01   -1.324E+01
    -1.320E+01   -1.315E+01   -1.311E+01   -1.307E+01   -1.302E+01   -1.298E+01   -1.294E+01   -1.290E+01   -1.285E+01   -1.281E+01
    -1.277E+01   -1.273E+01   -1.269E+01   -1.264E+01   -1.260E+01   -1.256E+01   -1.252E+01   -1.248E+01   -1.244E+01   -1.240E+01
    -1.236E+01   -1.232E+01   -1.228E+01   -1.224E+01   -1.220E+01   -1.216E+01   -1.212E+01   -1.208E+01   -1.204E+01   -1.200E+01
    -1.196E+01   -1.192E+01   -1.188E+01   -1.184E+01   -1.180E+01   -1.177E+01   -1.173E+01   -1.169E+01   -1.165E+01   -1.161E+01
    -1.158E+01   -1.154E+01   -1.150E+01   -1.146E+01   -1.142E+01   -1.139E+01   -1.135E+01   -1.131E+01   -1.128E+01   -1.124E+01
    -1.120E+01   -1.117E+01   -1.113E+01   -1.109E+01   -1.106E+01   -1.102E+01   -1.098E+01   -1.095E+01   -1.091E+01   -1.088E+01
    -1.084E+01   -1.081E+01   -1.077E+01   -1.073E+01   -1.070E+01   -1.066E+01   -1.063E+01   -1.059E+01   -1.056E+01   -1.053E+01
    -1.049E+01   -1.046E+01   -1.042E+01   -1.039E+01   -1.035E+01   -1.032E+01   -1.029E+01   -1.025E+01   -1.022E+01   -1.019E+01
    -1.015E+01   -1.012E+01   -1.009E+01   -1.006E+01   -1.002E+01   -9.991E+00   -9.958E+00   -9.927E+00   -9.895E+00   -9.863E+00
    -9.832E+00   -9.800E+00   -9.769E+00   -9.738E+00   -9.707E+00   -9.677E+00   -9.646E+00   -9.616E+00   -9.586E+00   -9.556E+00
    -9.526E+00   -9.496E+00   -9.467E+00   -9.438E+00   -9.409E+00   -9.380E+00   -9.351E+00   -9.323E+00   -9.294E+00   -9.266E+00
    -9.238E+00   -9.210E+00   -9.182E+00   -9.155E+00   -9.127E+00   -9.100E+00   -9.073E+00   -9.046E+00   -9.019E+00   -8.993E+00
    -8.966E+00   -8.940E+00   -8.914E+00   -8.888E+00   -8.862E+00   -8.837E+00   -8.811E+00   -8.786E+00   -8.761E+00   -8.736E+00
    -8.711E+00   -8.686E+00   -8.661E+00   -8.637E+00   -8.613E+00   -8.589E+00   -8.565E+00   -8.541E+00   -8.517E+00   -8.493E+00
    -8.470E+00   -8.447E+00   -8.424E+00   -8.401E+00   -8.378E+00   -8.355E+00   -8.333E+00   -8.310E+00   -8.288E+00   -8.266E+00
    -8.244E+00   -8.222E+00   -8.200E+00   -8.179E+00   -8.157E+00   -8.136E+00   -8.115E+00   -8.094E+00   -8.073E+00   -8.052E+00
    -8.031E+00   -8.010E+00   -7.990E+00   -7.970E+00   -7.949E+00   -7.929E+00   -7.909E+00   -7.889E+00   -7.869E+00   -7.850E+00
    -7.830E+00   -7.811E+00   -7.791E+00   -7.772E+00   -7.753E+00   -7.734E+00   -7.715E+00   -7.696E+00   -7.678E+00   -7.659E+00
    -7.641E+00   -7.622E+00   -7.604E+00   -7.586E+00   -7.568E+00   -7.550E+00   -7.532E+00   -7.514E+00   -7.496E+00   -7.478E+00
    -7.461E+00   -7.443E+00   -7.426E+00   -7.409E+00   -7.391E+00   -7.374E+00   -7.357E+00   -7.340E+00   -7.323E+00   -7.307E+00
    -7.290E+00   -7.273E+00   -7.257E+00   -7.240E+00   -7.224E+00   -7.207E+00   -7.191E+00   -7.175E+00   -7.159E+00   -7.143E+00
    -7.127E+00   -7.111E+00   -7.095E+00   -7.079E+00   -7.064E+00   -7.048E+00   -7.032E+00   -7.017E+00   -7.001E+00   -6.986E+00
    -6.971E+00   -6.955E+00   -6.940E+00   -6.925E+00   -6.910E+00   -6.895E+00   -6.880E+00   -6.865E+00   -6.850E+00   -6.835E+00
    -6.820E+00   -6.805E+00   -6.791E+00   -6.776E+00   -6.762E+00   -6.747E+00   -6.732E+00   -6.718E+00   -6.704E+00   -6.689E+00
    -6.675E+00   -6.660E+00   -6.646E+00   -6.632E+00   -6.618E+00   -6.604E+00   -6.589E+00   -6.575E+00   -6.561E+00   -6.547E+00
    -6.533E+00   -6.519E+00   -6.505E+00   -6.491E+00   -6.477E+00   -6.463E+00   -6.450E+00   -6.436E+00   -6.422E+00   -6.408E+00
    -6.394E+00   -6.381E+00   -6.367E+00   -6.353E+00   -6.339E+00   -6.326E+00   -6.312E+00   -6.298E+00   -6.285E+00   -6.271E+00
    -6.257E+00   -6.244E+00   -6.230E+00   -6.216E+00   -6.203E+00   -6.189E+00   -6.176E+00   -6.162E+00   -6.148E+00   -6.135E+00
    -6.121E+00   -6.107E+00   -6.094E+00   -6.080E+00   -6.067E+00   -6.053E+00   -6.039E+00   -6.026E+00   -6.012E+00   -5.998E+00
    -5.985E+00   -5.971E+00   -5.958E+00   -5.944E+00   -5.930E+00   -5.917E+00   -5.903E+00   -5.889E+00   -5.876E+00   -5.862E+00
    -5.849E+00   -5.835E+00   -5.821E+00   -5.808E+00   -5.794E+00   -5.780E+00   -5.767E+00   -5.753E+00   -5.739E+00   -5.726E+00
    -5.712E+00   -5.698E+00   -5.685E+00   -5.671E+00   -5.657E+00   -5.644E+00   -5.630E+00   -5.616E+00   -5.603E+00   -5.589E+00
    -5.575E+00   -5.561E+00   -5.548E+00   -5.534E+00   -5.520E+00   -5.507E+00   -5.493E+00   -5.479E+00   -5.465E+00   -5.452E+00
    -5.438E+00   -5.424E+00   -5.410E+00   -5.397E+00   -5.383E+00   -5.369E+00   -5.355E+00   -5.342E+00   -5.328E+00   -5.314E+00
    -5.300E+00   -5.287E+00   -5.273E+00   -5.259E+00   -5.245E+00   -5.231E+00   -5.218E+00   -5.204E+00   -5.190E+00   -5.176E+00
    -5.163E+00   -5.149E+00   -5.135E+00   -5.121E+00   -5.107E+00   -5.094E+00   -5.080E+00   -5.066E+00   -5.052E+00   -5.039E+00
    -5.025E+00   -5.011E+00   -4.997E+00   -4.984E+00   -4.970E+00   -4.956E+00   -4.942E+00   -4.929E+00
 Ala      Conc. = 9.14E+01
