 LCModel (Version 6.3-1L) Copyright: S.W. Provencher.          Ref.: Magn. Reson. Med. 30:672-679 (1993).                
 Slice#3 Row#6 Col#12  PD_05_press_1_raw_act
 36 lines in following concentration table = NCONC+1
    Conc.  %SD /Cr+PCr  Metabolite                                         
  290.221  41%   0.806 Ala                                                 
   60.118 150%   0.167 Asp                                                 
    0.000 999%   0.000 Cr                                                  
  359.931  10%   1.000 PCr                                                 
   16.391 341% 4.6E-02 GABA                                                
   73.447  76%   0.204 Glc                                                 
  554.163  42%   1.540 Gln                                                 
  969.185  27%   2.693 Glu                                                 
    0.000 999%   0.000 GPC                                                 
   70.346  22%   0.195 PCh                                                 
   26.406 226% 7.3E-02 GSH                                                 
  148.528 126%   0.413 Ins                                                 
   80.099 167%   0.223 Lac                                                 
 1.12E+03   6%   3.119 NAA                                                 
    0.000 999%   0.000 NAAG                                                
   33.872  43% 9.4E-02 Scyllo                                              
  183.790  48%   0.511 Tau                                                 
  165.395  44%   0.460 -CrCH2                                              
   70.346  22%   0.195 GPC+PCh                                             
 1.12E+03   6%   3.119 NAA+NAAG                                            
  359.931  10%   1.000 Cr+PCr                                              
 1.52E+03  26%   4.232 Glu+Gln                                             
 1.65E+04  10%  45.718 Lip13a                                              
    0.000 999%   0.000 Lip13b                                              
 3.34E+03  17%   9.284 Lip09                                               
    0.000 999%   0.000 MM09                                                
  585.747  44%   1.627-Lip20                                               
    0.000 999%   0.000 MM20                                                
  288.415 112%   0.801 MM12                                                
 7.10E+03  13%  19.712+MM14                                                
 1.77E+03  24%   4.915 MM17                                                
 1.65E+04  10%  45.718 Lip13a+Lip13b                                       
 2.38E+04   6%  66.232 MM14+Lip13a+Lip13b+MM12                             
 3.34E+03  17%   9.284 MM09+Lip09                                          
  585.747  44%   1.627 MM20+Lip20                                          
   6 lines in following misc. output table
  FWHM = 0.076 ppm    S/N =  25                                            
  Data shift = 0.054 ppm                                                   
  Ph: -25 deg     -43.1 deg/ppm                                            
  alphaB,S = 3.0E+00,   7.5E+01                                            
    7 spline knots.   Ns = 9(2)                                            
  (10) 8 infls.   ( 7) 3 extrs.                                            
  498 points on ppm-axis = NY
      4.000000     3.992357     3.984714     3.977070     3.969427     3.961784     3.954141     3.946497     3.938854     3.931211
      3.923568     3.915925     3.908281     3.900638     3.892995     3.885352     3.877708     3.870065     3.862422     3.854779
      3.847136     3.839492     3.831849     3.824206     3.816563     3.808919     3.801276     3.793633     3.785990     3.778347
      3.770703     3.763060     3.755417     3.747774     3.740130     3.732487     3.724844     3.717201     3.709558     3.701914
      3.694271     3.686628     3.678985     3.671341     3.663698     3.656055     3.648412     3.640769     3.633125     3.625482
      3.617839     3.610196     3.602552     3.594909     3.587266     3.579623     3.571980     3.564336     3.556693     3.549050
      3.541407     3.533763     3.526120     3.518477     3.510834     3.503191     3.495547     3.487904     3.480261     3.472618
      3.464974     3.457331     3.449688     3.442045     3.434402     3.426758     3.419115     3.411472     3.403829     3.396185
      3.388542     3.380899     3.373256     3.365613     3.357969     3.350326     3.342683     3.335040     3.327396     3.319753
      3.312110     3.304467     3.296824     3.289180     3.281537     3.273894     3.266251     3.258607     3.250964     3.243321
      3.235678     3.228034     3.220391     3.212748     3.205105     3.197462     3.189818     3.182175     3.174532     3.166889
      3.159245     3.151602     3.143959     3.136316     3.128673     3.121029     3.113386     3.105743     3.098100     3.090456
      3.082813     3.075170     3.067527     3.059884     3.052240     3.044597     3.036954     3.029311     3.021667     3.014024
      3.006381     2.998738     2.991095     2.983451     2.975808     2.968165     2.960522     2.952878     2.945235     2.937592
      2.929949     2.922306     2.914662     2.907019     2.899376     2.891733     2.884089     2.876446     2.868803     2.861160
      2.853517     2.845873     2.838230     2.830587     2.822944     2.815300     2.807657     2.800014     2.792371     2.784728
      2.777084     2.769441     2.761798     2.754155     2.746511     2.738868     2.731225     2.723582     2.715939     2.708295
      2.700652     2.693009     2.685366     2.677722     2.670079     2.662436     2.654793     2.647150     2.639506     2.631863
      2.624220     2.616577     2.608933     2.601290     2.593647     2.586004     2.578361     2.570717     2.563074     2.555431
      2.547788     2.540144     2.532501     2.524858     2.517215     2.509572     2.501928     2.494285     2.486642     2.478999
      2.471355     2.463712     2.456069     2.448426     2.440783     2.433139     2.425496     2.417853     2.410210     2.402566
      2.394923     2.387280     2.379637     2.371994     2.364350     2.356707     2.349064     2.341421     2.333777     2.326134
      2.318491     2.310848     2.303205     2.295561     2.287918     2.280275     2.272632     2.264988     2.257345     2.249702
      2.242059     2.234416     2.226772     2.219129     2.211486     2.203843     2.196199     2.188556     2.180913     2.173270
      2.165627     2.157983     2.150340     2.142697     2.135054     2.127410     2.119767     2.112124     2.104481     2.096838
      2.089194     2.081551     2.073908     2.066265     2.058621     2.050978     2.043335     2.035692     2.028049     2.020405
      2.012762     2.005119     1.997476     1.989833     1.982190     1.974546     1.966903     1.959260     1.951617     1.943974
      1.936331     1.928688     1.921045     1.913402     1.905759     1.898115     1.890472     1.882829     1.875186     1.867543
      1.859900     1.852257     1.844614     1.836971     1.829327     1.821684     1.814041     1.806398     1.798755     1.791112
      1.783469     1.775826     1.768183     1.760540     1.752896     1.745253     1.737610     1.729967     1.722324     1.714681
      1.707038     1.699395     1.691752     1.684108     1.676465     1.668822     1.661179     1.653536     1.645893     1.638250
      1.630607     1.622964     1.615321     1.607677     1.600034     1.592391     1.584748     1.577105     1.569462     1.561819
      1.554176     1.546533     1.538890     1.531246     1.523603     1.515960     1.508317     1.500674     1.493031     1.485388
      1.477745     1.470102     1.462458     1.454815     1.447172     1.439529     1.431886     1.424243     1.416600     1.408957
      1.401314     1.393671     1.386027     1.378384     1.370741     1.363098     1.355455     1.347812     1.340169     1.332526
      1.324883     1.317240     1.309596     1.301953     1.294310     1.286667     1.279024     1.271381     1.263738     1.256095
      1.248452     1.240808     1.233165     1.225522     1.217879     1.210236     1.202593     1.194950     1.187307     1.179664
      1.172021     1.164377     1.156734     1.149091     1.141448     1.133805     1.126162     1.118519     1.110876     1.103233
      1.095590     1.087946     1.080303     1.072660     1.065017     1.057374     1.049731     1.042088     1.034445     1.026802
      1.019158     1.011515     1.003872     0.996229     0.988586     0.980943     0.973300     0.965657     0.958014     0.950371
      0.942727     0.935084     0.927441     0.919798     0.912155     0.904512     0.896869     0.889226     0.881583     0.873940
      0.866296     0.858653     0.851010     0.843367     0.835724     0.828081     0.820438     0.812795     0.805152     0.797508
      0.789865     0.782222     0.774579     0.766936     0.759293     0.751650     0.744007     0.736364     0.728721     0.721077
      0.713434     0.705791     0.698148     0.690505     0.682862     0.675219     0.667576     0.659933     0.652290     0.644646
      0.637003     0.629360     0.621717     0.614074     0.606431     0.598788     0.591145     0.583502     0.575858     0.568215
      0.560572     0.552929     0.545286     0.537643     0.530000     0.522357     0.514714     0.507071     0.499427     0.491784
      0.484141     0.476498     0.468855     0.461212     0.453569     0.445925     0.438282     0.430639     0.422996     0.415353
      0.407710     0.400067     0.392424     0.384780     0.377137     0.369494     0.361851     0.354208     0.346565     0.338922
      0.331278     0.323635     0.315992     0.308349     0.300706     0.293063     0.285420     0.277777     0.270133     0.262490
      0.254847     0.247204     0.239561     0.231918     0.224275     0.216631     0.208988     0.201345
 NY phased data points follow
   1.49013E+01  1.42704E+01  1.44512E+01  1.41021E+01  1.49451E+01  1.54693E+01  1.51415E+01  1.42343E+01  1.49034E+01  1.34475E+01
   1.27853E+01  1.50696E+01  1.36062E+01  1.67598E+01  1.42935E+01  1.59585E+01  1.62969E+01  1.37823E+01  1.65918E+01  1.57759E+01
   1.61890E+01  1.51551E+01  1.62865E+01  1.42156E+01  1.31232E+01  1.51320E+01  1.56679E+01  1.41224E+01  1.40645E+01  1.37987E+01
   1.67383E+01  1.55946E+01  1.57315E+01  1.39597E+01  1.42945E+01  1.60750E+01  1.63858E+01  1.34518E+01  1.47246E+01  1.67774E+01
   1.53455E+01  1.51162E+01  1.39417E+01  1.48290E+01  1.57842E+01  1.35723E+01  1.28864E+01  1.33486E+01  1.30901E+01  1.30133E+01
   1.58298E+01  1.30953E+01  1.52523E+01  1.48697E+01  1.47845E+01  1.26984E+01  1.35831E+01  1.29612E+01  1.49993E+01  1.26481E+01
   1.44005E+01  1.45932E+01  1.64758E+01  1.28751E+01  1.45026E+01  1.42107E+01  1.36514E+01  1.51387E+01  1.31061E+01  1.55319E+01
   1.33705E+01  1.24835E+01  1.36694E+01  1.58606E+01  1.26268E+01  1.23923E+01  1.40496E+01  1.26518E+01  1.20875E+01  1.37809E+01
   1.56818E+01  1.47441E+01  1.34839E+01  1.31358E+01  1.25242E+01  1.25216E+01  1.55640E+01  1.40510E+01  1.49114E+01  1.46614E+01
   1.33298E+01  1.35503E+01  1.52588E+01  1.46707E+01  1.46135E+01  1.49487E+01  1.53931E+01  1.69887E+01  1.57416E+01  1.58394E+01
   1.42961E+01  1.26979E+01  1.35428E+01  1.22033E+01  1.07535E+01  1.06002E+01  1.40157E+01  1.45433E+01  1.22497E+01  1.39883E+01
   1.36026E+01  1.33791E+01  1.31190E+01  1.40084E+01  1.35470E+01  1.49925E+01  1.39632E+01  1.68248E+01  1.55451E+01  1.66317E+01
   1.68398E+01  1.81714E+01  1.91256E+01  1.60356E+01  1.60878E+01  1.59620E+01  1.37083E+01  1.26320E+01  1.32805E+01  1.40011E+01
   1.60097E+01  1.35678E+01  1.28554E+01  1.11704E+01  1.28256E+01  1.18543E+01  1.24623E+01  1.28594E+01  1.28411E+01  1.45151E+01
   1.28989E+01  1.32893E+01  1.11217E+01  1.19277E+01  1.08437E+01  1.12502E+01  1.35089E+01  1.09384E+01  1.25245E+01  1.05040E+01
   1.21072E+01  1.34812E+01  1.35325E+01  1.40994E+01  1.22658E+01  1.22497E+01  1.40155E+01  1.24049E+01  1.17729E+01  1.01327E+01
   1.09455E+01  1.26129E+01  1.36749E+01  1.15108E+01  1.20249E+01  1.22144E+01  1.06161E+01  1.11521E+01  1.13601E+01  1.10295E+01
   1.33838E+01  1.10255E+01  9.34208E+00  1.07282E+01  1.13278E+01  1.21983E+01  1.35352E+01  1.19855E+01  1.50432E+01  1.43343E+01
   1.18129E+01  1.19454E+01  1.19535E+01  1.40819E+01  1.46019E+01  1.26426E+01  1.31541E+01  1.44137E+01  1.61659E+01  1.26683E+01
   1.46139E+01  1.53949E+01  1.30201E+01  1.59287E+01  1.63841E+01  1.66649E+01  1.61704E+01  1.55601E+01  1.88643E+01  1.88053E+01
   1.80037E+01  1.71694E+01  1.71309E+01  1.89544E+01  1.57395E+01  1.85366E+01  2.06960E+01  2.08627E+01  2.05625E+01  2.10854E+01
   2.16668E+01  2.16469E+01  2.25139E+01  2.23258E+01  2.24092E+01  2.05921E+01  2.00304E+01  1.91650E+01  1.96428E+01  2.13695E+01
   2.01059E+01  2.26105E+01  2.32131E+01  2.11056E+01  2.22470E+01  2.43181E+01  2.38301E+01  2.42521E+01  2.50442E+01  2.35254E+01
   2.44369E+01  2.44189E+01  2.38684E+01  2.51940E+01  2.68547E+01  2.37175E+01  2.58826E+01  2.54885E+01  2.45196E+01  2.65446E+01
   2.59592E+01  2.75059E+01  2.82589E+01  2.74794E+01  2.84247E+01  2.90959E+01  3.04274E+01  2.99510E+01  3.09369E+01  3.42418E+01
   3.45433E+01  3.81556E+01  4.15913E+01  4.48458E+01  4.90577E+01  5.41438E+01  5.33748E+01  4.93106E+01  4.72880E+01  4.50692E+01
   4.40615E+01  4.24061E+01  4.01563E+01  4.24233E+01  4.24599E+01  4.14368E+01  4.01628E+01  4.09081E+01  4.18971E+01  4.39993E+01
   4.24831E+01  4.33184E+01  4.46532E+01  4.18615E+01  4.26051E+01  4.19089E+01  4.07491E+01  4.25593E+01  4.33842E+01  4.38685E+01
   4.24310E+01  4.30923E+01  4.46605E+01  4.22059E+01  4.42397E+01  4.49106E+01  4.53488E+01  4.57013E+01  4.54584E+01  4.60204E+01
   4.56656E+01  4.72657E+01  4.69646E+01  4.75526E+01  4.75823E+01  4.73075E+01  4.64476E+01  4.86208E+01  4.88861E+01  4.99145E+01
   4.75607E+01  5.12403E+01  4.97678E+01  5.17598E+01  5.27068E+01  5.22952E+01  5.28775E+01  5.23425E+01  5.51516E+01  5.46590E+01
   5.64391E+01  5.61019E+01  5.60243E+01  6.01173E+01  5.91255E+01  6.03417E+01  6.00893E+01  6.36622E+01  6.50934E+01  6.55594E+01
   6.55983E+01  6.84737E+01  7.04055E+01  7.31393E+01  7.66891E+01  7.71690E+01  8.15037E+01  8.13832E+01  8.64458E+01  8.81068E+01
   9.00903E+01  9.44668E+01  9.74466E+01  9.99568E+01  1.04339E+02  1.05491E+02  1.08913E+02  1.08480E+02  1.09474E+02  1.10912E+02
   1.13231E+02  1.13878E+02  1.13993E+02  1.10380E+02  1.09832E+02  1.10327E+02  1.08912E+02  1.09613E+02  1.06454E+02  1.05575E+02
   1.05285E+02  1.03193E+02  1.00369E+02  9.92498E+01  9.75592E+01  9.60504E+01  9.39473E+01  9.22100E+01  9.04332E+01  9.02568E+01
   8.74769E+01  8.75885E+01  8.45356E+01  8.41486E+01  8.42167E+01  8.11151E+01  7.97620E+01  8.04503E+01  7.77412E+01  7.58831E+01
   7.44316E+01  7.39471E+01  7.36931E+01  7.46967E+01  7.18081E+01  7.07969E+01  6.99567E+01  7.06366E+01  6.95802E+01  7.03257E+01
   6.69752E+01  6.55376E+01  6.54912E+01  6.51129E+01  6.31264E+01  6.11596E+01  6.20715E+01  6.14602E+01  6.32755E+01  6.00147E+01
   5.89541E+01  6.05585E+01  6.04749E+01  5.82657E+01  5.87272E+01  5.76009E+01  5.76663E+01  5.76514E+01  5.97751E+01  5.67050E+01
   5.67406E+01  5.68300E+01  5.68931E+01  5.55010E+01  5.51910E+01  5.45506E+01  5.30233E+01  5.35816E+01  5.26338E+01  5.13845E+01
   5.16279E+01  5.33195E+01  4.91122E+01  4.97971E+01  5.02334E+01  4.79824E+01  5.00568E+01  4.68094E+01  4.57757E+01  4.64954E+01
   4.59935E+01  4.45471E+01  4.55276E+01  4.39499E+01  4.34284E+01  4.22411E+01  4.18760E+01  4.28612E+01  4.18965E+01  4.07516E+01
   4.26499E+01  4.03962E+01  4.04844E+01  3.98271E+01  3.71894E+01  4.07552E+01  3.75463E+01  3.72638E+01  3.92977E+01  3.61808E+01
   3.70961E+01  3.61659E+01  3.66524E+01  3.72010E+01  3.42558E+01  3.55504E+01  3.64072E+01  3.47535E+01  3.50327E+01  3.34817E+01
   3.53815E+01  3.30136E+01  3.26609E+01  3.25985E+01  3.33170E+01  3.32842E+01  3.33580E+01  3.09211E+01  3.22053E+01  3.12699E+01
   2.90066E+01  2.95742E+01  3.00061E+01  2.94270E+01  2.87675E+01  2.84845E+01  2.78633E+01  2.86905E+01  2.92108E+01  2.74338E+01
   2.80828E+01  2.72191E+01  2.72980E+01  2.77882E+01  2.85998E+01  2.80167E+01  2.63857E+01  2.79105E+01  2.64405E+01  2.70828E+01
   2.44795E+01  2.43292E+01  2.39104E+01  2.51159E+01  2.68915E+01  2.68918E+01  2.32378E+01  2.40385E+01  2.53625E+01  2.29512E+01
   2.33499E+01  2.45122E+01  2.15837E+01  2.14665E+01  2.21798E+01  2.22680E+01  2.29392E+01  2.19340E+01
 NY points of the fit to the data follow
   1.45603E+01  1.47747E+01  1.53442E+01  1.53181E+01  1.54886E+01  1.53043E+01  1.50989E+01  1.49269E+01  1.46986E+01  1.46021E+01
   1.45243E+01  1.45185E+01  1.46201E+01  1.46574E+01  1.48008E+01  1.49451E+01  1.51493E+01  1.52846E+01  1.53022E+01  1.53352E+01
   1.50443E+01  1.50191E+01  1.46622E+01  1.47715E+01  1.48040E+01  1.50550E+01  1.54820E+01  1.54885E+01  1.57139E+01  1.53962E+01
   1.54130E+01  1.48784E+01  1.47942E+01  1.44553E+01  1.46184E+01  1.44912E+01  1.47415E+01  1.46741E+01  1.48720E+01  1.48135E+01
   1.49489E+01  1.48739E+01  1.50136E+01  1.48517E+01  1.48978E+01  1.46012E+01  1.45948E+01  1.43339E+01  1.43974E+01  1.41744E+01
   1.42078E+01  1.40291E+01  1.40301E+01  1.39349E+01  1.39451E+01  1.39303E+01  1.40128E+01  1.40037E+01  1.40156E+01  1.39596E+01
   1.38622E+01  1.38508E+01  1.37340E+01  1.37812E+01  1.36593E+01  1.37441E+01  1.36603E+01  1.37417E+01  1.36982E+01  1.37729E+01
   1.37356E+01  1.37080E+01  1.36334E+01  1.35327E+01  1.35016E+01  1.34426E+01  1.35588E+01  1.35606E+01  1.37979E+01  1.37528E+01
   1.39951E+01  1.37813E+01  1.38666E+01  1.35703E+01  1.35295E+01  1.32503E+01  1.31878E+01  1.29558E+01  1.29878E+01  1.29175E+01
   1.30948E+01  1.32680E+01  1.35072E+01  1.40555E+01  1.42703E+01  1.51306E+01  1.50299E+01  1.60307E+01  1.53251E+01  1.59520E+01
   1.48754E+01  1.50164E+01  1.40480E+01  1.40206E+01  1.33500E+01  1.33628E+01  1.29029E+01  1.31069E+01  1.27460E+01  1.29570E+01
   1.26834E+01  1.30281E+01  1.28888E+01  1.33261E+01  1.33669E+01  1.38613E+01  1.43256E+01  1.48527E+01  1.58284E+01  1.62057E+01
   1.73386E+01  1.72075E+01  1.73432E+01  1.65581E+01  1.59924E+01  1.52471E+01  1.45956E+01  1.40535E+01  1.37088E+01  1.34161E+01
   1.34335E+01  1.32257E+01  1.32241E+01  1.31252E+01  1.33463E+01  1.32832E+01  1.34853E+01  1.33513E+01  1.33902E+01  1.31821E+01
   1.30701E+01  1.28453E+01  1.26571E+01  1.24800E+01  1.23251E+01  1.21300E+01  1.17628E+01  1.17307E+01  1.17988E+01  1.18399E+01
   1.19215E+01  1.19233E+01  1.19969E+01  1.19406E+01  1.20308E+01  1.19704E+01  1.20998E+01  1.21426E+01  1.22431E+01  1.23814E+01
   1.23447E+01  1.24461E+01  1.23119E+01  1.23365E+01  1.22112E+01  1.21896E+01  1.21038E+01  1.20918E+01  1.20428E+01  1.20292E+01
   1.20510E+01  1.20365E+01  1.22293E+01  1.21898E+01  1.24707E+01  1.23858E+01  1.26682E+01  1.26163E+01  1.28989E+01  1.29050E+01
   1.32354E+01  1.33290E+01  1.37446E+01  1.38733E+01  1.42315E+01  1.43699E+01  1.46627E+01  1.48550E+01  1.50040E+01  1.52694E+01
   1.53542E+01  1.57920E+01  1.59261E+01  1.65259E+01  1.67643E+01  1.73536E+01  1.76727E+01  1.80520E+01  1.81555E+01  1.81798E+01
   1.79257E+01  1.77690E+01  1.72204E+01  1.72386E+01  1.68467E+01  1.75051E+01  1.77606E+01  1.87393E+01  1.95420E+01  2.01713E+01
   2.09829E+01  2.09059E+01  2.10434E+01  2.04435E+01  1.99962E+01  1.94901E+01  1.91444E+01  1.91176E+01  1.93814E+01  2.00874E+01
   2.07100E+01  2.15662E+01  2.20714E+01  2.27374E+01  2.30767E+01  2.34099E+01  2.36147E+01  2.38428E+01  2.40131E+01  2.43587E+01
   2.44556E+01  2.48264E+01  2.48671E+01  2.54087E+01  2.53755E+01  2.57260E+01  2.55997E+01  2.59017E+01  2.61013E+01  2.63700E+01
   2.67921E+01  2.72037E+01  2.78419E+01  2.82837E+01  2.87127E+01  2.92846E+01  3.01612E+01  3.11737E+01  3.26507E+01  3.42466E+01
   3.68259E+01  3.90415E+01  4.28029E+01  4.52327E+01  4.87605E+01  5.03588E+01  5.05338E+01  5.05252E+01  4.76460E+01  4.68728E+01
   4.38469E+01  4.33644E+01  4.16398E+01  4.18112E+01  4.13440E+01  4.17554E+01  4.12492E+01  4.18338E+01  4.20886E+01  4.27997E+01
   4.30038E+01  4.35420E+01  4.32390E+01  4.34781E+01  4.27820E+01  4.28939E+01  4.21576E+01  4.23174E+01  4.19160E+01  4.19873E+01
   4.09936E+01  4.13097E+01  4.18924E+01  4.25478E+01  4.31654E+01  4.38232E+01  4.44465E+01  4.50447E+01  4.56222E+01  4.61685E+01
   4.66866E+01  4.71676E+01  4.76226E+01  4.80274E+01  4.84058E+01  4.87539E+01  4.90841E+01  4.93907E+01  4.96852E+01  4.99677E+01
   5.02506E+01  5.05357E+01  5.08285E+01  5.11409E+01  5.14787E+01  5.18527E+01  5.22686E+01  5.27385E+01  5.32685E+01  5.38704E+01
   5.45481E+01  5.53159E+01  5.61936E+01  5.72011E+01  5.83170E+01  5.95713E+01  6.09660E+01  6.24880E+01  6.41721E+01  6.58514E+01
   6.77526E+01  6.93870E+01  7.14885E+01  7.29229E+01  7.53324E+01  7.69425E+01  7.98919E+01  8.20583E+01  8.56425E+01  8.82417E+01
   9.22663E+01  9.48331E+01  9.86100E+01  1.00730E+02  1.03789E+02  1.05508E+02  1.07797E+02  1.08987E+02  1.10547E+02  1.11150E+02
   1.12036E+02  1.11987E+02  1.12084E+02  1.11451E+02  1.11033E+02  1.09996E+02  1.09204E+02  1.07902E+02  1.06853E+02  1.05610E+02
   1.04275E+02  1.02817E+02  1.01234E+02  9.96206E+01  9.79745E+01  9.62956E+01  9.44968E+01  9.29262E+01  9.12982E+01  8.98557E+01
   8.83413E+01  8.69729E+01  8.55574E+01  8.42832E+01  8.29550E+01  8.17496E+01  8.04742E+01  7.92968E+01  7.81075E+01  7.69888E+01
   7.58300E+01  7.47306E+01  7.36242E+01  7.25767E+01  7.15323E+01  7.05088E+01  6.95448E+01  6.86336E+01  6.77688E+01  6.69534E+01
   6.61838E+01  6.54629E+01  6.47863E+01  6.41560E+01  6.35664E+01  6.30185E+01  6.25058E+01  6.20283E+01  6.15787E+01  6.11566E+01
   6.07541E+01  6.03703E+01  5.99974E+01  5.96346E+01  5.92738E+01  5.89147E+01  5.85498E+01  5.81791E+01  5.77960E+01  5.74013E+01
   5.69891E+01  5.65614E+01  5.61132E+01  5.56476E+01  5.51605E+01  5.46561E+01  5.41313E+01  5.35910E+01  5.30329E+01  5.24626E+01
   5.18785E+01  5.12865E+01  5.06851E+01  5.00805E+01  4.94713E+01  4.88637E+01  4.82559E+01  4.76539E+01  4.70556E+01  4.64668E+01
   4.58848E+01  4.53149E+01  4.47542E+01  4.42075E+01  4.36713E+01  4.31501E+01  4.26402E+01  4.21457E+01  4.16624E+01  4.11943E+01
   4.07371E+01  4.02945E+01  3.98620E+01  3.94433E+01  3.90337E+01  3.86369E+01  3.82483E+01  3.78713E+01  3.75015E+01  3.71423E+01
   3.67892E+01  3.64457E+01  3.61073E+01  3.57777E+01  3.54522E+01  3.51347E+01  3.48206E+01  3.45137E+01  3.42094E+01  3.39117E+01
   3.36161E+01  3.33265E+01  3.30383E+01  3.27557E+01  3.24741E+01  3.21976E+01  3.19217E+01  3.16506E+01  3.13798E+01  3.11134E+01
   3.08470E+01  3.05849E+01  3.03224E+01  3.00640E+01  2.98051E+01  2.95500E+01  2.92943E+01  2.90422E+01  2.87894E+01  2.85401E+01
   2.82900E+01  2.80433E+01  2.77956E+01  2.75513E+01  2.73059E+01  2.70639E+01  2.68207E+01  2.65809E+01  2.63399E+01  2.61022E+01
   2.58632E+01  2.56276E+01  2.53907E+01  2.51572E+01  2.49224E+01  2.46909E+01  2.44581E+01  2.42287E+01  2.39981E+01  2.37709E+01
   2.35424E+01  2.33174E+01  2.30912E+01  2.28686E+01  2.26447E+01  2.24245E+01  2.22032E+01  2.19856E+01
 NY background values follow
     1.105E+01    1.112E+01    1.119E+01    1.126E+01    1.132E+01    1.138E+01    1.144E+01    1.149E+01    1.154E+01    1.159E+01
     1.163E+01    1.168E+01    1.172E+01    1.175E+01    1.179E+01    1.182E+01    1.185E+01    1.187E+01    1.190E+01    1.192E+01
     1.194E+01    1.196E+01    1.197E+01    1.198E+01    1.199E+01    1.200E+01    1.201E+01    1.201E+01    1.201E+01    1.201E+01
     1.201E+01    1.200E+01    1.200E+01    1.199E+01    1.198E+01    1.197E+01    1.195E+01    1.194E+01    1.192E+01    1.190E+01
     1.188E+01    1.186E+01    1.183E+01    1.181E+01    1.178E+01    1.176E+01    1.173E+01    1.170E+01    1.166E+01    1.163E+01
     1.160E+01    1.156E+01    1.153E+01    1.149E+01    1.145E+01    1.141E+01    1.137E+01    1.133E+01    1.129E+01    1.124E+01
     1.120E+01    1.116E+01    1.111E+01    1.107E+01    1.102E+01    1.097E+01    1.093E+01    1.088E+01    1.083E+01    1.078E+01
     1.073E+01    1.068E+01    1.063E+01    1.058E+01    1.053E+01    1.048E+01    1.043E+01    1.038E+01    1.033E+01    1.028E+01
     1.023E+01    1.018E+01    1.013E+01    1.008E+01    1.003E+01    9.984E+00    9.935E+00    9.886E+00    9.838E+00    9.790E+00
     9.743E+00    9.696E+00    9.650E+00    9.605E+00    9.560E+00    9.515E+00    9.472E+00    9.429E+00    9.387E+00    9.346E+00
     9.305E+00    9.266E+00    9.228E+00    9.190E+00    9.154E+00    9.119E+00    9.084E+00    9.051E+00    9.020E+00    8.989E+00
     8.960E+00    8.932E+00    8.906E+00    8.881E+00    8.857E+00    8.835E+00    8.814E+00    8.795E+00    8.778E+00    8.762E+00
     8.748E+00    8.736E+00    8.726E+00    8.717E+00    8.710E+00    8.706E+00    8.703E+00    8.702E+00    8.703E+00    8.705E+00
     8.710E+00    8.717E+00    8.725E+00    8.736E+00    8.748E+00    8.762E+00    8.778E+00    8.796E+00    8.816E+00    8.837E+00
     8.861E+00    8.886E+00    8.913E+00    8.942E+00    8.973E+00    9.005E+00    9.040E+00    9.076E+00    9.114E+00    9.153E+00
     9.195E+00    9.238E+00    9.284E+00    9.331E+00    9.379E+00    9.430E+00    9.482E+00    9.536E+00    9.592E+00    9.649E+00
     9.708E+00    9.769E+00    9.832E+00    9.896E+00    9.963E+00    1.003E+01    1.010E+01    1.017E+01    1.024E+01    1.032E+01
     1.040E+01    1.047E+01    1.055E+01    1.063E+01    1.072E+01    1.080E+01    1.089E+01    1.098E+01    1.107E+01    1.116E+01
     1.125E+01    1.135E+01    1.144E+01    1.154E+01    1.164E+01    1.174E+01    1.184E+01    1.195E+01    1.205E+01    1.216E+01
     1.227E+01    1.238E+01    1.249E+01    1.261E+01    1.272E+01    1.284E+01    1.296E+01    1.308E+01    1.320E+01    1.332E+01
     1.345E+01    1.357E+01    1.370E+01    1.383E+01    1.396E+01    1.409E+01    1.423E+01    1.436E+01    1.450E+01    1.464E+01
     1.478E+01    1.492E+01    1.506E+01    1.520E+01    1.535E+01    1.550E+01    1.564E+01    1.579E+01    1.595E+01    1.610E+01
     1.625E+01    1.641E+01    1.657E+01    1.672E+01    1.688E+01    1.704E+01    1.721E+01    1.737E+01    1.754E+01    1.770E+01
     1.787E+01    1.804E+01    1.821E+01    1.838E+01    1.856E+01    1.873E+01    1.891E+01    1.909E+01    1.927E+01    1.945E+01
     1.963E+01    1.981E+01    2.000E+01    2.018E+01    2.037E+01    2.056E+01    2.075E+01    2.094E+01    2.113E+01    2.132E+01
     2.152E+01    2.171E+01    2.191E+01    2.211E+01    2.231E+01    2.251E+01    2.271E+01    2.291E+01    2.311E+01    2.332E+01
     2.352E+01    2.373E+01    2.394E+01    2.414E+01    2.435E+01    2.456E+01    2.477E+01    2.498E+01    2.519E+01    2.540E+01
     2.561E+01    2.582E+01    2.603E+01    2.624E+01    2.645E+01    2.666E+01    2.687E+01    2.709E+01    2.730E+01    2.751E+01
     2.772E+01    2.793E+01    2.814E+01    2.835E+01    2.857E+01    2.878E+01    2.899E+01    2.920E+01    2.941E+01    2.961E+01
     2.982E+01    3.003E+01    3.024E+01    3.045E+01    3.065E+01    3.086E+01    3.106E+01    3.126E+01    3.147E+01    3.167E+01
     3.187E+01    3.207E+01    3.227E+01    3.247E+01    3.266E+01    3.286E+01    3.305E+01    3.324E+01    3.344E+01    3.363E+01
     3.382E+01    3.400E+01    3.419E+01    3.437E+01    3.456E+01    3.474E+01    3.492E+01    3.509E+01    3.527E+01    3.544E+01
     3.562E+01    3.579E+01    3.595E+01    3.612E+01    3.629E+01    3.645E+01    3.661E+01    3.677E+01    3.692E+01    3.708E+01
     3.723E+01    3.738E+01    3.752E+01    3.767E+01    3.781E+01    3.795E+01    3.809E+01    3.822E+01    3.835E+01    3.848E+01
     3.861E+01    3.873E+01    3.885E+01    3.897E+01    3.908E+01    3.919E+01    3.930E+01    3.941E+01    3.951E+01    3.961E+01
     3.971E+01    3.980E+01    3.989E+01    3.998E+01    4.006E+01    4.014E+01    4.022E+01    4.029E+01    4.036E+01    4.043E+01
     4.049E+01    4.055E+01    4.060E+01    4.065E+01    4.070E+01    4.074E+01    4.078E+01    4.082E+01    4.085E+01    4.088E+01
     4.090E+01    4.092E+01    4.094E+01    4.095E+01    4.096E+01    4.096E+01    4.096E+01    4.095E+01    4.094E+01    4.093E+01
     4.091E+01    4.089E+01    4.087E+01    4.084E+01    4.081E+01    4.077E+01    4.073E+01    4.068E+01    4.064E+01    4.059E+01
     4.053E+01    4.047E+01    4.041E+01    4.035E+01    4.028E+01    4.021E+01    4.013E+01    4.005E+01    3.997E+01    3.989E+01
     3.980E+01    3.971E+01    3.961E+01    3.951E+01    3.941E+01    3.931E+01    3.920E+01    3.909E+01    3.898E+01    3.887E+01
     3.875E+01    3.863E+01    3.850E+01    3.838E+01    3.825E+01    3.812E+01    3.799E+01    3.785E+01    3.771E+01    3.757E+01
     3.743E+01    3.728E+01    3.713E+01    3.698E+01    3.683E+01    3.667E+01    3.652E+01    3.636E+01    3.620E+01    3.603E+01
     3.587E+01    3.570E+01    3.553E+01    3.536E+01    3.519E+01    3.501E+01    3.484E+01    3.466E+01    3.448E+01    3.430E+01
     3.411E+01    3.393E+01    3.374E+01    3.356E+01    3.337E+01    3.318E+01    3.298E+01    3.279E+01    3.260E+01    3.240E+01
     3.220E+01    3.201E+01    3.181E+01    3.161E+01    3.140E+01    3.120E+01    3.100E+01    3.079E+01    3.059E+01    3.038E+01
     3.018E+01    2.997E+01    2.976E+01    2.955E+01    2.934E+01    2.913E+01    2.892E+01    2.871E+01    2.850E+01    2.828E+01
     2.807E+01    2.786E+01    2.764E+01    2.743E+01    2.722E+01    2.700E+01    2.679E+01    2.657E+01    2.636E+01    2.614E+01
     2.593E+01    2.571E+01    2.550E+01    2.528E+01    2.507E+01    2.485E+01    2.464E+01    2.442E+01    2.421E+01    2.400E+01
     2.378E+01    2.357E+01    2.336E+01    2.315E+01    2.293E+01    2.272E+01    2.251E+01    2.230E+01
 Ala      Conc. = 2.90E+02
