 LCModel (Version 6.3-1L) Copyright: S.W. Provencher.          Ref.: Magn. Reson. Med. 30:672-679 (1993).                
 Slice#2 Row#5 Col#6  PD_05_press_1_raw_act
 36 lines in following concentration table = NCONC+1
    Conc.  %SD /Cr+PCr  Metabolite                                         
    0.000 999%   0.000 Ala                                                 
   11.647 999% 7.6E-03 Asp                                                 
  707.624  34%   0.460 Cr                                                  
  831.959  30%   0.540 PCr                                                 
  102.100 172% 6.6E-02 GABA                                                
  118.688 140% 7.7E-02 Glc                                                 
 1.11E+03  22%   0.724 Gln                                                 
 1.91E+03  16%   1.241 Glu                                                 
  730.304   3%   0.474 GPC                                                 
    0.000 999%   0.000 PCh                                                 
  450.815  17%   0.293 GSH                                                 
 1.64E+03  18%   1.062 Ins                                                 
  177.166  73%   0.115 Lac                                                 
 2.65E+03   3%   1.719 NAA                                                 
    0.000 999%   0.000 NAAG                                                
  171.559  17%   0.111 Scyllo                                              
    0.000 999%   0.000 Tau                                                 
  142.364  83% 9.2E-02 -CrCH2                                              
  730.304   3%   0.474 GPC+PCh                                             
 2.65E+03   3%   1.719 NAA+NAAG                                            
 1.54E+03   4%   1.000 Cr+PCr                                              
 3.03E+03  14%   1.965 Glu+Gln                                             
    0.000 999%   0.000 Lip13a                                              
  338.649  70%   0.220 Lip13b                                              
    0.000 999%   0.000 Lip09                                               
 1.61E+03  16%   1.048 MM09                                                
   33.992 376% 2.2E-02 Lip20                                               
 2.79E+03  16%   1.811 MM20                                                
  699.980  31%   0.455 MM12                                                
 1.17E+03  30%   0.762 MM14                                                
  844.391  32%   0.548 MM17                                                
  338.649  70%   0.220 Lip13a+Lip13b                                       
 2.21E+03  21%   1.437 MM14+Lip13a+Lip13b+MM12                             
 1.61E+03  16%   1.048 MM09+Lip09                                          
 2.82E+03  16%   1.833 MM20+Lip20                                          
   6 lines in following misc. output table
  FWHM = 0.061 ppm    S/N =  14                                            
  Data shift =-0.038 ppm                                                   
  Ph: -44 deg     -12.5 deg/ppm                                            
  alphaB,S = 6.1E-01,   6.1E+01                                            
   14 spline knots.   Ns = 8(1)                                            
  (12) 2 infls.   ( 7) 1 extrs.                                            
  498 points on ppm-axis = NY
      4.000000     3.992357     3.984714     3.977070     3.969427     3.961784     3.954141     3.946497     3.938854     3.931211
      3.923568     3.915925     3.908281     3.900638     3.892995     3.885352     3.877708     3.870065     3.862422     3.854779
      3.847136     3.839492     3.831849     3.824206     3.816563     3.808919     3.801276     3.793633     3.785990     3.778347
      3.770703     3.763060     3.755417     3.747774     3.740130     3.732487     3.724844     3.717201     3.709558     3.701914
      3.694271     3.686628     3.678985     3.671341     3.663698     3.656055     3.648412     3.640769     3.633125     3.625482
      3.617839     3.610196     3.602552     3.594909     3.587266     3.579623     3.571980     3.564336     3.556693     3.549050
      3.541407     3.533763     3.526120     3.518477     3.510834     3.503191     3.495547     3.487904     3.480261     3.472618
      3.464974     3.457331     3.449688     3.442045     3.434402     3.426758     3.419115     3.411472     3.403829     3.396185
      3.388542     3.380899     3.373256     3.365613     3.357969     3.350326     3.342683     3.335040     3.327396     3.319753
      3.312110     3.304467     3.296824     3.289180     3.281537     3.273894     3.266251     3.258607     3.250964     3.243321
      3.235678     3.228034     3.220391     3.212748     3.205105     3.197462     3.189818     3.182175     3.174532     3.166889
      3.159245     3.151602     3.143959     3.136316     3.128673     3.121029     3.113386     3.105743     3.098100     3.090456
      3.082813     3.075170     3.067527     3.059884     3.052240     3.044597     3.036954     3.029311     3.021667     3.014024
      3.006381     2.998738     2.991095     2.983451     2.975808     2.968165     2.960522     2.952878     2.945235     2.937592
      2.929949     2.922306     2.914662     2.907019     2.899376     2.891733     2.884089     2.876446     2.868803     2.861160
      2.853517     2.845873     2.838230     2.830587     2.822944     2.815300     2.807657     2.800014     2.792371     2.784728
      2.777084     2.769441     2.761798     2.754155     2.746511     2.738868     2.731225     2.723582     2.715939     2.708295
      2.700652     2.693009     2.685366     2.677722     2.670079     2.662436     2.654793     2.647150     2.639506     2.631863
      2.624220     2.616577     2.608933     2.601290     2.593647     2.586004     2.578361     2.570717     2.563074     2.555431
      2.547788     2.540144     2.532501     2.524858     2.517215     2.509572     2.501928     2.494285     2.486642     2.478999
      2.471355     2.463712     2.456069     2.448426     2.440783     2.433139     2.425496     2.417853     2.410210     2.402566
      2.394923     2.387280     2.379637     2.371994     2.364350     2.356707     2.349064     2.341421     2.333777     2.326134
      2.318491     2.310848     2.303205     2.295561     2.287918     2.280275     2.272632     2.264988     2.257345     2.249702
      2.242059     2.234416     2.226772     2.219129     2.211486     2.203843     2.196199     2.188556     2.180913     2.173270
      2.165627     2.157983     2.150340     2.142697     2.135054     2.127410     2.119767     2.112124     2.104481     2.096838
      2.089194     2.081551     2.073908     2.066265     2.058621     2.050978     2.043335     2.035692     2.028049     2.020405
      2.012762     2.005119     1.997476     1.989833     1.982190     1.974546     1.966903     1.959260     1.951617     1.943974
      1.936331     1.928688     1.921045     1.913402     1.905759     1.898115     1.890472     1.882829     1.875186     1.867543
      1.859900     1.852257     1.844614     1.836971     1.829327     1.821684     1.814041     1.806398     1.798755     1.791112
      1.783469     1.775826     1.768183     1.760540     1.752896     1.745253     1.737610     1.729967     1.722324     1.714681
      1.707038     1.699395     1.691752     1.684108     1.676465     1.668822     1.661179     1.653536     1.645893     1.638250
      1.630607     1.622964     1.615321     1.607677     1.600034     1.592391     1.584748     1.577105     1.569462     1.561819
      1.554176     1.546533     1.538890     1.531246     1.523603     1.515960     1.508317     1.500674     1.493031     1.485388
      1.477745     1.470102     1.462458     1.454815     1.447172     1.439529     1.431886     1.424243     1.416600     1.408957
      1.401314     1.393671     1.386027     1.378384     1.370741     1.363098     1.355455     1.347812     1.340169     1.332526
      1.324883     1.317240     1.309596     1.301953     1.294310     1.286667     1.279024     1.271381     1.263738     1.256095
      1.248452     1.240808     1.233165     1.225522     1.217879     1.210236     1.202593     1.194950     1.187307     1.179664
      1.172021     1.164377     1.156734     1.149091     1.141448     1.133805     1.126162     1.118519     1.110876     1.103233
      1.095590     1.087946     1.080303     1.072660     1.065017     1.057374     1.049731     1.042088     1.034445     1.026802
      1.019158     1.011515     1.003872     0.996229     0.988586     0.980943     0.973300     0.965657     0.958014     0.950371
      0.942727     0.935084     0.927441     0.919798     0.912155     0.904512     0.896869     0.889226     0.881583     0.873940
      0.866296     0.858653     0.851010     0.843367     0.835724     0.828081     0.820438     0.812795     0.805152     0.797508
      0.789865     0.782222     0.774579     0.766936     0.759293     0.751650     0.744007     0.736364     0.728721     0.721077
      0.713434     0.705791     0.698148     0.690505     0.682862     0.675219     0.667576     0.659933     0.652290     0.644646
      0.637003     0.629360     0.621717     0.614074     0.606431     0.598788     0.591145     0.583502     0.575858     0.568215
      0.560572     0.552929     0.545286     0.537643     0.530000     0.522357     0.514714     0.507071     0.499427     0.491784
      0.484141     0.476498     0.468855     0.461212     0.453569     0.445925     0.438282     0.430639     0.422996     0.415353
      0.407710     0.400067     0.392424     0.384780     0.377137     0.369494     0.361851     0.354208     0.346565     0.338922
      0.331278     0.323635     0.315992     0.308349     0.300706     0.293063     0.285420     0.277777     0.270133     0.262490
      0.254847     0.247204     0.239561     0.231918     0.224275     0.216631     0.208988     0.201345
 NY phased data points follow
  -9.72620E+01 -9.65873E+01 -9.71752E+01 -9.23213E+01 -8.66211E+01 -7.61831E+01 -6.94882E+01 -6.26200E+01 -6.06726E+01 -5.96429E+01
  -5.12098E+01 -5.39027E+01 -5.48117E+01 -5.53428E+01 -5.83054E+01 -6.55615E+01 -6.64143E+01 -7.06901E+01 -6.83582E+01 -7.02707E+01
  -6.94904E+01 -6.89049E+01 -6.83645E+01 -6.69152E+01 -6.25623E+01 -6.33029E+01 -6.09048E+01 -6.39099E+01 -6.32283E+01 -5.94578E+01
  -5.82922E+01 -5.81320E+01 -5.68812E+01 -5.70745E+01 -6.21658E+01 -5.61175E+01 -5.50415E+01 -5.45121E+01 -5.92942E+01 -5.30300E+01
  -5.70217E+01 -5.37231E+01 -4.80735E+01 -4.88719E+01 -4.85351E+01 -4.58185E+01 -4.59276E+01 -4.57324E+01 -4.54424E+01 -4.78296E+01
  -4.81350E+01 -4.76423E+01 -5.09531E+01 -5.12731E+01 -4.97215E+01 -5.06220E+01 -5.01166E+01 -4.86546E+01 -4.72351E+01 -4.93339E+01
  -4.85244E+01 -5.19660E+01 -5.28115E+01 -5.09405E+01 -5.22743E+01 -5.61433E+01 -5.42234E+01 -5.41862E+01 -5.29428E+01 -5.29202E+01
  -5.12492E+01 -5.15336E+01 -4.84426E+01 -4.63229E+01 -4.76105E+01 -4.27012E+01 -4.63065E+01 -4.69631E+01 -4.38229E+01 -4.59532E+01
  -4.19012E+01 -4.08316E+01 -4.65914E+01 -3.79805E+01 -3.96022E+01 -3.59464E+01 -3.95604E+01 -4.09647E+01 -3.88297E+01 -4.62018E+01
  -4.22125E+01 -4.22874E+01 -3.89071E+01 -4.01374E+01 -3.85990E+01 -3.64802E+01 -3.05056E+01 -3.08094E+01 -1.83470E+01 -1.35221E+01
  -2.17744E+00  5.99689E+00  1.32840E+01  1.59106E+01  1.43744E+01  1.07091E+01  2.68859E+00 -1.08798E+01 -1.66665E+01 -2.21655E+01
  -2.59972E+01 -2.97252E+01 -3.11569E+01 -3.59317E+01 -3.65897E+01 -3.21149E+01 -3.25788E+01 -3.60263E+01 -3.49839E+01 -3.23088E+01
  -3.40382E+01 -2.60211E+01 -2.02627E+01 -1.29380E+01 -5.35219E+00  2.05235E+00  5.09189E+00  9.68349E+00  5.96208E+00  6.81789E+00
   1.12261E-01 -5.27670E+00 -1.43945E+01 -2.01919E+01 -2.67342E+01 -3.20103E+01 -3.20004E+01 -3.23455E+01 -2.96607E+01 -3.02771E+01
  -3.22446E+01 -3.54539E+01 -3.54449E+01 -3.34018E+01 -3.44537E+01 -3.34456E+01 -3.22779E+01 -3.57550E+01 -3.23405E+01 -3.21213E+01
  -3.18452E+01 -3.16777E+01 -2.97226E+01 -2.93150E+01 -3.50079E+01 -3.30858E+01 -3.28998E+01 -2.89907E+01 -3.31629E+01 -3.57070E+01
  -3.55682E+01 -3.45569E+01 -3.43061E+01 -3.45617E+01 -3.15182E+01 -3.47759E+01 -3.07683E+01 -3.15716E+01 -3.13026E+01 -2.87836E+01
  -3.29187E+01 -3.05677E+01 -3.13981E+01 -3.41142E+01 -3.63710E+01 -3.65495E+01 -3.69529E+01 -3.95913E+01 -3.72778E+01 -3.50523E+01
  -3.47049E+01 -3.75609E+01 -3.47868E+01 -3.44536E+01 -3.58212E+01 -3.55946E+01 -3.07261E+01 -2.86724E+01 -2.49184E+01 -2.55779E+01
  -2.17679E+01 -1.78536E+01 -2.13465E+01 -1.65250E+01 -2.10853E+01 -1.95351E+01 -2.18270E+01 -2.09451E+01 -1.86031E+01 -1.78134E+01
  -2.26742E+01 -2.39098E+01 -1.64817E+01 -1.98543E+01 -2.15344E+01 -2.14288E+01 -1.95198E+01 -2.38981E+01 -2.25146E+01 -2.50949E+01
  -2.26529E+01 -2.01587E+01 -1.77988E+01 -1.78144E+01 -1.23134E+01 -1.10287E+01 -9.90415E+00 -1.13526E+01 -1.13302E+01 -1.20635E+01
  -1.86161E+01 -1.71247E+01 -2.10940E+01 -1.77768E+01 -1.89567E+01 -1.68421E+01 -1.32578E+01 -1.01121E+01 -1.09570E+01 -1.17401E+01
  -5.07762E+00 -8.20664E+00 -1.08064E+01 -9.08066E+00 -9.08489E+00 -4.50899E+00 -1.04573E+01 -7.23130E+00 -7.54798E+00 -7.78498E+00
  -6.87301E+00 -6.41788E+00 -7.92431E+00 -9.45967E+00 -1.15901E+01 -1.12852E+01 -9.82456E+00 -6.88064E+00 -7.44405E+00 -5.59346E+00
  -6.36623E+00 -1.23704E+00  8.54872E-01  3.37004E+00  1.31049E+01  1.74296E+01  3.70970E+01  4.26264E+01  5.59318E+01  6.44949E+01
   6.45043E+01  6.59598E+01  6.08433E+01  5.33941E+01  3.91724E+01  2.56684E+01  1.10763E+01  7.25326E+00 -2.76173E+00 -9.54111E+00
  -7.33996E+00 -6.59599E+00 -5.51390E+00 -5.48551E+00 -5.77216E+00 -8.14784E+00 -7.43921E+00 -1.18356E+01 -1.32852E+01 -1.60329E+01
  -1.36725E+01 -1.62201E+01 -1.33064E+01 -1.56088E+01 -1.77279E+01 -1.37687E+01 -1.30210E+01 -1.51833E+01 -1.48990E+01 -1.36616E+01
  -1.22729E+01 -1.11033E+01 -1.21966E+01 -1.39240E+01 -8.93941E+00 -1.18506E+01 -1.38883E+01 -8.29334E+00 -1.04134E+01 -1.30043E+01
  -1.20873E+01 -9.02940E+00 -1.15520E+01 -1.08518E+01 -4.96236E+00 -1.04908E+01 -1.30804E+01 -9.29761E+00 -7.26852E+00 -3.20682E+00
  -8.26725E+00 -2.28797E+00 -4.23392E+00 -3.10373E+00 -1.66454E+00 -3.83267E+00 -2.62198E+00 -9.32184E+00 -8.58866E+00 -7.05169E+00
  -1.06918E+01 -8.09804E+00 -9.37825E+00 -7.54357E+00 -6.89288E+00 -7.88781E+00 -7.34093E+00 -7.30861E+00 -8.41893E+00 -7.05150E+00
  -3.73159E+00 -4.76723E+00 -2.91987E+00 -5.50643E+00 -1.19693E+00 -3.90604E+00 -3.06138E+00 -4.94467E+00 -6.89729E+00 -6.66246E+00
  -7.69663E+00 -6.22938E+00 -7.86646E+00 -5.63502E+00 -6.20888E+00 -4.20293E+00 -5.33146E+00 -7.94041E+00 -6.89532E+00 -3.36359E+00
  -1.10649E+01 -5.95886E+00 -6.34106E+00 -3.68498E+00 -4.16354E+00 -2.36875E+00 -1.77959E+00 -3.67832E+00 -4.82161E-01 -5.23332E+00
  -2.84054E+00 -1.54940E+00 -1.44146E+00 -4.34902E+00 -5.11386E+00 -1.94982E+00 -4.64462E+00 -3.20113E+00 -1.88369E+00 -4.60241E+00
  -3.46777E+00 -1.34509E+00 -1.13219E+00 -5.31769E+00 -7.37094E+00 -8.09834E+00 -8.57260E+00 -4.67941E+00 -8.74659E+00 -5.71978E+00
  -9.28611E+00 -7.24038E+00 -1.09231E+01 -8.09360E+00 -5.97797E+00 -4.96086E+00 -1.02849E+01 -4.16045E+00 -7.01947E+00 -5.96184E+00
  -1.74815E+00 -3.58614E+00 -2.05850E+00  2.67891E-01 -4.02601E+00 -4.40086E+00 -1.76918E+00  5.26856E-01  1.02999E+00  1.82551E+00
   9.96052E-02 -5.73284E-01  1.59267E+00 -3.23575E-01  2.21977E+00  3.00558E+00  1.77992E+00  2.71179E+00  5.58590E-01  4.78841E+00
   7.50019E+00  7.04474E+00  9.69094E+00  6.69120E+00  3.00218E+00  6.19293E+00  5.33728E+00  7.90510E+00  4.64125E+00  2.36103E-01
   3.06011E+00  7.29264E-01 -1.83250E-01 -1.04799E+00  1.95482E+00  4.81664E-01  1.96272E+00 -1.49538E+00  6.45146E-01 -2.85645E+00
   1.34542E+00 -2.42718E-01 -1.74025E+00 -1.41806E+00 -9.81053E-01 -2.73590E+00 -1.79928E+00 -3.92680E+00 -5.29770E+00 -2.91642E+00
  -1.84429E+00  2.45207E-01 -3.15400E+00 -3.00069E+00 -1.82935E+00 -3.81420E+00 -3.84455E+00 -2.25709E+00 -3.62862E+00 -1.62702E+00
   5.97134E-01  4.34494E-01 -2.27320E+00 -2.29738E+00 -3.25622E+00 -2.53263E+00 -2.76535E+00 -2.29038E+00 -5.91306E-01 -6.00201E+00
  -2.39248E+00 -6.48380E-01 -1.97577E-01 -1.48653E+00 -2.35902E+00  8.05279E-01  1.17412E-01 -2.75156E+00 -6.92514E-01 -2.52984E+00
  -1.15481E+00  3.09756E-01 -2.06961E+00 -4.58542E+00 -1.34429E+00 -2.67855E+00 -2.31023E+00  4.12653E-01 -3.00360E+00 -3.44822E+00
  -3.19503E+00 -3.69200E+00 -1.50981E+00 -2.54052E+00  3.86845E-01  1.49005E+00 -1.36885E+00 -3.72421E-01 -2.63507E+00  1.85729E+00
   7.54467E-01  5.33807E-01  8.80837E-01 -4.58950E-01 -7.30792E-01 -5.46885E-01  8.99329E-01  2.77702E-01
 NY points of the fit to the data follow
  -8.98135E+01 -8.92310E+01 -8.76142E+01 -8.50380E+01 -8.15264E+01 -7.69648E+01 -7.17244E+01 -6.63065E+01 -6.12651E+01 -5.72195E+01
  -5.45841E+01 -5.33862E+01 -5.36667E+01 -5.56554E+01 -5.89866E+01 -6.25417E+01 -6.53448E+01 -6.73506E+01 -6.89356E+01 -7.01212E+01
  -7.07829E+01 -7.09162E+01 -7.05060E+01 -6.98935E+01 -6.88968E+01 -6.74266E+01 -6.56527E+01 -6.34696E+01 -6.11754E+01 -5.90332E+01
  -5.71902E+01 -5.58636E+01 -5.52663E+01 -5.55763E+01 -5.65568E+01 -5.77236E+01 -5.89108E+01 -6.00136E+01 -6.05043E+01 -6.01236E+01
  -5.89532E+01 -5.70559E+01 -5.45988E+01 -5.20521E+01 -4.97778E+01 -4.80255E+01 -4.70592E+01 -4.68186E+01 -4.71555E+01 -4.81501E+01
  -4.97195E+01 -5.13031E+01 -5.22754E+01 -5.25131E+01 -5.24020E+01 -5.21064E+01 -5.15119E+01 -5.07667E+01 -5.01515E+01 -4.98124E+01
  -4.97140E+01 -4.97985E+01 -5.00596E+01 -5.03514E+01 -5.05089E+01 -5.04058E+01 -5.00035E+01 -4.93975E+01 -4.86783E+01 -4.79293E+01
  -4.72656E+01 -4.67317E+01 -4.63240E+01 -4.60388E+01 -4.59016E+01 -4.58765E+01 -4.58557E+01 -4.57042E+01 -4.52527E+01 -4.46258E+01
  -4.38851E+01 -4.28684E+01 -4.18032E+01 -4.08638E+01 -4.00996E+01 -3.96803E+01 -3.96136E+01 -3.97716E+01 -4.01727E+01 -4.09432E+01
  -4.18483E+01 -4.24698E+01 -4.26913E+01 -4.26884E+01 -4.20906E+01 -3.93981E+01 -3.48608E+01 -2.87049E+01 -2.02315E+01 -1.07383E+01
  -1.34271E+00  7.07354E+00  1.28283E+01  1.52919E+01  1.47337E+01  1.08616E+01  3.12149E+00 -6.96023E+00 -1.62057E+01 -2.28880E+01
  -2.79798E+01 -3.22390E+01 -3.52683E+01 -3.67121E+01 -3.71724E+01 -3.73322E+01 -3.73502E+01 -3.72183E+01 -3.66336E+01 -3.45898E+01
  -3.10545E+01 -2.64107E+01 -2.00340E+01 -1.26447E+01 -5.33006E+00  1.34941E+00  6.15558E+00  8.43675E+00  8.42025E+00  5.89870E+00
   3.41299E-01 -7.37010E+00 -1.49075E+01 -2.06102E+01 -2.48915E+01 -2.85152E+01 -3.11710E+01 -3.24667E+01 -3.26668E+01 -3.23916E+01
  -3.19781E+01 -3.15905E+01 -3.13063E+01 -3.11657E+01 -3.11890E+01 -3.13346E+01 -3.15317E+01 -3.17253E+01 -3.19050E+01 -3.20539E+01
  -3.21520E+01 -3.21821E+01 -3.21636E+01 -3.21633E+01 -3.21935E+01 -3.22371E+01 -3.23396E+01 -3.24311E+01 -3.24902E+01 -3.25522E+01
  -3.25232E+01 -3.24194E+01 -3.23045E+01 -3.21816E+01 -3.20527E+01 -3.19255E+01 -3.18789E+01 -3.20270E+01 -3.23965E+01 -3.28796E+01
  -3.32616E+01 -3.35542E+01 -3.38246E+01 -3.40340E+01 -3.41550E+01 -3.40964E+01 -3.39220E+01 -3.37164E+01 -3.34521E+01 -3.31644E+01
  -3.28292E+01 -3.24620E+01 -3.21731E+01 -3.17879E+01 -3.10429E+01 -3.00053E+01 -2.88232E+01 -2.76076E+01 -2.64480E+01 -2.53611E+01
  -2.44349E+01 -2.38245E+01 -2.36012E+01 -2.36695E+01 -2.38025E+01 -2.37594E+01 -2.33466E+01 -2.25307E+01 -2.13753E+01 -1.99187E+01
  -1.84219E+01 -1.71699E+01 -1.64943E+01 -1.64609E+01 -1.71552E+01 -1.86276E+01 -2.04510E+01 -2.22401E+01 -2.36684E+01 -2.42012E+01
  -2.37635E+01 -2.23033E+01 -1.99341E+01 -1.71605E+01 -1.46333E+01 -1.30846E+01 -1.26762E+01 -1.31295E+01 -1.44962E+01 -1.66405E+01
  -1.89912E+01 -2.07263E+01 -2.12999E+01 -2.08215E+01 -1.96940E+01 -1.79431E+01 -1.57002E+01 -1.34798E+01 -1.19050E+01 -1.09852E+01
  -1.04486E+01 -1.00684E+01 -9.72238E+00 -9.40996E+00 -9.00070E+00 -8.46296E+00 -8.00420E+00 -7.78231E+00 -7.75510E+00 -7.84318E+00
  -8.11131E+00 -8.54498E+00 -8.89550E+00 -8.96394E+00 -8.80704E+00 -8.39285E+00 -7.62828E+00 -6.62624E+00 -5.65529E+00 -4.80980E+00
  -3.94039E+00 -2.76866E+00  1.51929E-02  5.59286E+00  1.25129E+01  2.18899E+01  3.36093E+01  4.50271E+01  5.54574E+01  6.32126E+01
   6.66032E+01  6.59144E+01  6.14858E+01  5.24528E+01  3.89530E+01  2.47497E+01  1.37062E+01  5.97046E+00 -5.61525E-01 -5.76979E+00
  -8.89353E+00 -1.00391E+01 -1.04776E+01 -1.06978E+01 -1.08098E+01 -1.08846E+01 -1.09899E+01 -1.11525E+01 -1.13848E+01 -1.16665E+01
  -1.19489E+01 -1.22037E+01 -1.24246E+01 -1.26016E+01 -1.27197E+01 -1.27784E+01 -1.27960E+01 -1.27876E+01 -1.27573E+01 -1.27078E+01
  -1.26396E+01 -1.25493E+01 -1.24309E+01 -1.22801E+01 -1.20942E+01 -1.18692E+01 -1.16029E+01 -1.12964E+01 -1.09523E+01 -1.05744E+01
  -1.01684E+01 -9.74140E+00 -9.30154E+00 -8.85811E+00 -8.42120E+00 -8.00102E+00 -7.60789E+00 -7.25171E+00 -6.94054E+00 -6.68018E+00
  -6.47441E+00 -6.32520E+00 -6.23191E+00 -6.19115E+00 -6.19695E+00 -6.24154E+00 -6.31571E+00 -6.40947E+00 -6.51256E+00 -6.61503E+00
  -6.70772E+00 -6.78295E+00 -6.83490E+00 -6.85982E+00 -6.85603E+00 -6.82374E+00 -6.76489E+00 -6.68300E+00 -6.58277E+00 -6.46971E+00
  -6.34946E+00 -6.22742E+00 -6.10832E+00 -5.99595E+00 -5.89261E+00 -5.79858E+00 -5.71104E+00 -5.62207E+00 -5.51225E+00 -5.34924E+00
  -5.18042E+00 -5.03819E+00 -4.90380E+00 -4.85347E+00 -4.92688E+00 -5.12274E+00 -5.45310E+00 -5.79829E+00 -6.08582E+00 -6.29186E+00
  -6.32878E+00 -6.12419E+00 -5.61481E+00 -4.86166E+00 -4.07604E+00 -3.37887E+00 -2.77762E+00 -2.32441E+00 -2.14597E+00 -2.27377E+00
  -2.58139E+00 -2.93460E+00 -3.31336E+00 -3.72065E+00 -4.11992E+00 -4.46311E+00 -4.74589E+00 -4.98576E+00 -5.19151E+00 -5.36900E+00
  -5.52311E+00 -5.65785E+00 -5.77617E+00 -5.87989E+00 -5.96967E+00 -6.04521E+00 -6.10544E+00 -6.14890E+00 -6.17390E+00 -6.17872E+00
  -6.16162E+00 -6.12093E+00 -6.05507E+00 -5.96263E+00 -5.84228E+00 -5.69276E+00 -5.51274E+00 -5.30084E+00 -5.05568E+00 -4.77593E+00
  -4.46031E+00 -4.10770E+00 -3.71714E+00 -3.28811E+00 -2.82067E+00 -2.31576E+00 -1.77528E+00 -1.20228E+00 -6.01129E-01  2.23123E-02
   6.60623E-01  1.30483E+00  1.94461E+00  2.56851E+00  3.16429E+00  3.71925E+00  4.22080E+00  4.65696E+00  5.01701E+00  5.29201E+00
   5.47527E+00  5.56268E+00  5.55296E+00  5.44779E+00  5.25179E+00  4.97225E+00  4.61872E+00  4.20255E+00  3.73628E+00  3.23315E+00
   2.70652E+00  2.16927E+00  1.63329E+00  1.10914E+00  6.05788E-01  1.30511E-01 -3.11156E-01 -7.15411E-01 -1.08007E+00 -1.40440E+00
  -1.68879E+00 -1.93459E+00 -2.14383E+00 -2.31906E+00 -2.46317E+00 -2.57922E+00 -2.67022E+00 -2.73907E+00 -2.78849E+00 -2.82106E+00
  -2.83912E+00 -2.84476E+00 -2.83981E+00 -2.82584E+00 -2.80424E+00 -2.77624E+00 -2.74291E+00 -2.70517E+00 -2.66375E+00 -2.61928E+00
  -2.57234E+00 -2.52345E+00 -2.47304E+00 -2.42147E+00 -2.36893E+00 -2.31564E+00 -2.26175E+00 -2.20747E+00 -2.15290E+00 -2.09813E+00
  -2.04321E+00 -1.98820E+00 -1.93317E+00 -1.87820E+00 -1.82330E+00 -1.76847E+00 -1.71370E+00 -1.65902E+00 -1.60446E+00 -1.55002E+00
  -1.49569E+00 -1.44142E+00 -1.38718E+00 -1.33298E+00 -1.27883E+00 -1.22470E+00 -1.17053E+00 -1.11629E+00 -1.06193E+00 -1.00747E+00
  -9.52883E-01 -8.98116E-01 -8.43102E-01 -7.87791E-01 -7.32155E-01 -6.76181E-01 -6.19823E-01 -5.63013E-01 -5.05673E-01 -4.47753E-01
  -3.89220E-01 -3.30039E-01 -2.70134E-01 -2.09412E-01 -1.47784E-01 -8.51879E-02 -2.15634E-02  4.31720E-02
 NY background values follow
    -9.213E+01   -9.141E+01   -9.070E+01   -8.999E+01   -8.927E+01   -8.856E+01   -8.786E+01   -8.715E+01   -8.645E+01   -8.574E+01
    -8.504E+01   -8.435E+01   -8.365E+01   -8.296E+01   -8.227E+01   -8.158E+01   -8.090E+01   -8.021E+01   -7.954E+01   -7.886E+01
    -7.819E+01   -7.753E+01   -7.686E+01   -7.620E+01   -7.555E+01   -7.490E+01   -7.425E+01   -7.361E+01   -7.297E+01   -7.234E+01
    -7.172E+01   -7.109E+01   -7.048E+01   -6.987E+01   -6.926E+01   -6.866E+01   -6.807E+01   -6.748E+01   -6.690E+01   -6.633E+01
    -6.576E+01   -6.520E+01   -6.464E+01   -6.409E+01   -6.355E+01   -6.302E+01   -6.249E+01   -6.197E+01   -6.146E+01   -6.096E+01
    -6.046E+01   -5.997E+01   -5.949E+01   -5.901E+01   -5.854E+01   -5.808E+01   -5.762E+01   -5.717E+01   -5.673E+01   -5.629E+01
    -5.586E+01   -5.544E+01   -5.502E+01   -5.461E+01   -5.420E+01   -5.381E+01   -5.341E+01   -5.303E+01   -5.265E+01   -5.227E+01
    -5.190E+01   -5.154E+01   -5.118E+01   -5.083E+01   -5.048E+01   -5.014E+01   -4.980E+01   -4.947E+01   -4.915E+01   -4.883E+01
    -4.851E+01   -4.820E+01   -4.790E+01   -4.760E+01   -4.730E+01   -4.701E+01   -4.672E+01   -4.644E+01   -4.616E+01   -4.589E+01
    -4.562E+01   -4.536E+01   -4.510E+01   -4.485E+01   -4.459E+01   -4.435E+01   -4.410E+01   -4.386E+01   -4.363E+01   -4.340E+01
    -4.317E+01   -4.294E+01   -4.272E+01   -4.250E+01   -4.228E+01   -4.207E+01   -4.186E+01   -4.165E+01   -4.145E+01   -4.125E+01
    -4.105E+01   -4.085E+01   -4.066E+01   -4.047E+01   -4.028E+01   -4.009E+01   -3.990E+01   -3.972E+01   -3.953E+01   -3.935E+01
    -3.917E+01   -3.900E+01   -3.882E+01   -3.864E+01   -3.847E+01   -3.830E+01   -3.812E+01   -3.795E+01   -3.778E+01   -3.761E+01
    -3.744E+01   -3.727E+01   -3.710E+01   -3.694E+01   -3.677E+01   -3.660E+01   -3.643E+01   -3.626E+01   -3.610E+01   -3.593E+01
    -3.576E+01   -3.559E+01   -3.542E+01   -3.525E+01   -3.508E+01   -3.491E+01   -3.474E+01   -3.457E+01   -3.439E+01   -3.422E+01
    -3.405E+01   -3.387E+01   -3.370E+01   -3.352E+01   -3.335E+01   -3.317E+01   -3.299E+01   -3.281E+01   -3.263E+01   -3.245E+01
    -3.226E+01   -3.208E+01   -3.189E+01   -3.170E+01   -3.152E+01   -3.133E+01   -3.113E+01   -3.094E+01   -3.075E+01   -3.055E+01
    -3.035E+01   -3.015E+01   -2.995E+01   -2.975E+01   -2.955E+01   -2.934E+01   -2.913E+01   -2.892E+01   -2.871E+01   -2.849E+01
    -2.827E+01   -2.806E+01   -2.783E+01   -2.761E+01   -2.739E+01   -2.716E+01   -2.693E+01   -2.670E+01   -2.647E+01   -2.624E+01
    -2.601E+01   -2.577E+01   -2.554E+01   -2.531E+01   -2.507E+01   -2.484E+01   -2.461E+01   -2.437E+01   -2.414E+01   -2.391E+01
    -2.368E+01   -2.345E+01   -2.322E+01   -2.299E+01   -2.277E+01   -2.255E+01   -2.232E+01   -2.211E+01   -2.189E+01   -2.167E+01
    -2.146E+01   -2.125E+01   -2.105E+01   -2.085E+01   -2.065E+01   -2.045E+01   -2.026E+01   -2.007E+01   -1.989E+01   -1.971E+01
    -1.953E+01   -1.936E+01   -1.919E+01   -1.903E+01   -1.888E+01   -1.873E+01   -1.858E+01   -1.844E+01   -1.831E+01   -1.818E+01
    -1.805E+01   -1.793E+01   -1.782E+01   -1.771E+01   -1.761E+01   -1.751E+01   -1.741E+01   -1.732E+01   -1.723E+01   -1.715E+01
    -1.707E+01   -1.699E+01   -1.692E+01   -1.685E+01   -1.679E+01   -1.673E+01   -1.667E+01   -1.661E+01   -1.656E+01   -1.651E+01
    -1.646E+01   -1.641E+01   -1.637E+01   -1.633E+01   -1.629E+01   -1.625E+01   -1.622E+01   -1.618E+01   -1.615E+01   -1.612E+01
    -1.609E+01   -1.606E+01   -1.603E+01   -1.601E+01   -1.598E+01   -1.596E+01   -1.593E+01   -1.591E+01   -1.588E+01   -1.586E+01
    -1.583E+01   -1.581E+01   -1.578E+01   -1.576E+01   -1.573E+01   -1.570E+01   -1.568E+01   -1.565E+01   -1.562E+01   -1.559E+01
    -1.556E+01   -1.554E+01   -1.551E+01   -1.548E+01   -1.544E+01   -1.541E+01   -1.538E+01   -1.535E+01   -1.532E+01   -1.528E+01
    -1.525E+01   -1.521E+01   -1.518E+01   -1.514E+01   -1.510E+01   -1.507E+01   -1.503E+01   -1.499E+01   -1.495E+01   -1.491E+01
    -1.487E+01   -1.483E+01   -1.478E+01   -1.474E+01   -1.469E+01   -1.465E+01   -1.460E+01   -1.456E+01   -1.451E+01   -1.446E+01
    -1.441E+01   -1.436E+01   -1.431E+01   -1.425E+01   -1.420E+01   -1.414E+01   -1.409E+01   -1.403E+01   -1.397E+01   -1.392E+01
    -1.386E+01   -1.380E+01   -1.373E+01   -1.367E+01   -1.361E+01   -1.354E+01   -1.348E+01   -1.341E+01   -1.334E+01   -1.328E+01
    -1.321E+01   -1.314E+01   -1.307E+01   -1.300E+01   -1.292E+01   -1.285E+01   -1.278E+01   -1.270E+01   -1.263E+01   -1.255E+01
    -1.247E+01   -1.240E+01   -1.232E+01   -1.224E+01   -1.216E+01   -1.208E+01   -1.200E+01   -1.192E+01   -1.184E+01   -1.175E+01
    -1.167E+01   -1.159E+01   -1.150E+01   -1.142E+01   -1.133E+01   -1.124E+01   -1.116E+01   -1.107E+01   -1.098E+01   -1.090E+01
    -1.081E+01   -1.072E+01   -1.063E+01   -1.054E+01   -1.045E+01   -1.036E+01   -1.027E+01   -1.018E+01   -1.008E+01   -9.992E+00
    -9.899E+00   -9.806E+00   -9.713E+00   -9.619E+00   -9.525E+00   -9.430E+00   -9.336E+00   -9.241E+00   -9.145E+00   -9.049E+00
    -8.953E+00   -8.857E+00   -8.760E+00   -8.663E+00   -8.566E+00   -8.468E+00   -8.370E+00   -8.272E+00   -8.174E+00   -8.075E+00
    -7.976E+00   -7.877E+00   -7.778E+00   -7.678E+00   -7.578E+00   -7.478E+00   -7.377E+00   -7.277E+00   -7.176E+00   -7.075E+00
    -6.974E+00   -6.872E+00   -6.771E+00   -6.669E+00   -6.567E+00   -6.465E+00   -6.363E+00   -6.260E+00   -6.158E+00   -6.055E+00
    -5.952E+00   -5.849E+00   -5.746E+00   -5.644E+00   -5.541E+00   -5.438E+00   -5.336E+00   -5.233E+00   -5.131E+00   -5.029E+00
    -4.928E+00   -4.826E+00   -4.725E+00   -4.625E+00   -4.524E+00   -4.424E+00   -4.325E+00   -4.226E+00   -4.128E+00   -4.030E+00
    -3.933E+00   -3.836E+00   -3.740E+00   -3.645E+00   -3.550E+00   -3.456E+00   -3.363E+00   -3.271E+00   -3.180E+00   -3.089E+00
    -3.000E+00   -2.911E+00   -2.824E+00   -2.737E+00   -2.652E+00   -2.567E+00   -2.484E+00   -2.402E+00   -2.321E+00   -2.241E+00
    -2.163E+00   -2.085E+00   -2.009E+00   -1.935E+00   -1.862E+00   -1.790E+00   -1.719E+00   -1.649E+00   -1.581E+00   -1.513E+00
    -1.447E+00   -1.381E+00   -1.317E+00   -1.253E+00   -1.190E+00   -1.128E+00   -1.067E+00   -1.006E+00   -9.463E-01   -8.870E-01
    -8.283E-01   -7.702E-01   -7.125E-01   -6.553E-01   -5.985E-01   -5.421E-01   -4.859E-01   -4.301E-01   -3.745E-01   -3.190E-01
    -2.637E-01   -2.085E-01   -1.533E-01   -9.815E-02   -4.296E-02    1.232E-02    6.772E-02    1.233E-01    1.791E-01    2.351E-01
     2.914E-01    3.481E-01    4.052E-01    4.627E-01    5.206E-01    5.791E-01    6.382E-01    6.978E-01
 Asp      Conc. = 1.16E+01
