 LCModel (Version 6.3-1L) Copyright: S.W. Provencher.          Ref.: Magn. Reson. Med. 30:672-679 (1993).                
 Slice#2 Row#3 Col#4  PD_05_press_1_raw_act
 36 lines in following concentration table = NCONC+1
    Conc.  %SD /Cr+PCr  Metabolite                                         
   38.855 105%   0.189 Ala                                                 
    5.881 999% 2.9E-02 Asp                                                 
  205.673  15%   1.000 Cr                                                  
    0.000 999%   0.000 PCr                                                 
    5.207 730% 2.5E-02 GABA                                                
    5.161 758% 2.5E-02 Glc                                                 
    0.000 999%   0.000 Gln                                                 
  251.147  39%   1.221 Glu                                                 
   73.152  15%   0.356 GPC                                                 
    0.000 999%   0.000 PCh                                                 
   87.851  36%   0.427 GSH                                                 
  182.301  57%   0.886 Ins                                                 
   26.276 175%   0.128 Lac                                                 
  149.659  31%   0.728 NAA                                                 
  282.531  17%   1.374 NAAG                                                
    0.000 999%   0.000 Scyllo                                              
    0.000 999%   0.000 Tau                                                 
   84.131  47%   0.409 -CrCH2                                              
   73.152  15%   0.356 GPC+PCh                                             
  432.190  12%   2.101 NAA+NAAG                                            
  205.673  15%   1.000 Cr+PCr                                              
  251.147  39%   1.221 Glu+Gln                                             
    0.000 999%   0.000 Lip13a                                              
   39.640 243%   0.193 Lip13b                                              
   10.584 244% 5.1E-02 Lip09                                               
 2.07E+03  11%  10.068 MM09                                                
    5.946 244% 2.9E-02 Lip20                                               
 3.39E+03  10%  16.499 MM20                                                
 1.16E+03  14%   5.659 MM12                                                
    0.000 999%   0.000 MM14                                                
 1.68E+03  18%   8.183 MM17                                                
   39.640 243%   0.193 Lip13a+Lip13b                                       
 1.20E+03  14%   5.852 MM14+Lip13a+Lip13b+MM12                             
 2.08E+03  10%  10.119 MM09+Lip09                                          
 3.40E+03  10%  16.528 MM20+Lip20                                          
   6 lines in following misc. output table
  FWHM = 0.046 ppm    S/N =   6                                            
  Data shift = 0.015 ppm                                                   
  Ph:  95 deg      50.3 deg/ppm                                            
  alphaB,S = 6.2E-01,   4.6E+01                                            
   14 spline knots.   Ns = 9(1)                                            
  (15) 2 infls.   (10) 2 extrs.                                            
  498 points on ppm-axis = NY
      4.000000     3.992357     3.984714     3.977070     3.969427     3.961784     3.954141     3.946497     3.938854     3.931211
      3.923568     3.915925     3.908281     3.900638     3.892995     3.885352     3.877708     3.870065     3.862422     3.854779
      3.847136     3.839492     3.831849     3.824206     3.816563     3.808919     3.801276     3.793633     3.785990     3.778347
      3.770703     3.763060     3.755417     3.747774     3.740130     3.732487     3.724844     3.717201     3.709558     3.701914
      3.694271     3.686628     3.678985     3.671341     3.663698     3.656055     3.648412     3.640769     3.633125     3.625482
      3.617839     3.610196     3.602552     3.594909     3.587266     3.579623     3.571980     3.564336     3.556693     3.549050
      3.541407     3.533763     3.526120     3.518477     3.510834     3.503191     3.495547     3.487904     3.480261     3.472618
      3.464974     3.457331     3.449688     3.442045     3.434402     3.426758     3.419115     3.411472     3.403829     3.396185
      3.388542     3.380899     3.373256     3.365613     3.357969     3.350326     3.342683     3.335040     3.327396     3.319753
      3.312110     3.304467     3.296824     3.289180     3.281537     3.273894     3.266251     3.258607     3.250964     3.243321
      3.235678     3.228034     3.220391     3.212748     3.205105     3.197462     3.189818     3.182175     3.174532     3.166889
      3.159245     3.151602     3.143959     3.136316     3.128673     3.121029     3.113386     3.105743     3.098100     3.090456
      3.082813     3.075170     3.067527     3.059884     3.052240     3.044597     3.036954     3.029311     3.021667     3.014024
      3.006381     2.998738     2.991095     2.983451     2.975808     2.968165     2.960522     2.952878     2.945235     2.937592
      2.929949     2.922306     2.914662     2.907019     2.899376     2.891733     2.884089     2.876446     2.868803     2.861160
      2.853517     2.845873     2.838230     2.830587     2.822944     2.815300     2.807657     2.800014     2.792371     2.784728
      2.777084     2.769441     2.761798     2.754155     2.746511     2.738868     2.731225     2.723582     2.715939     2.708295
      2.700652     2.693009     2.685366     2.677722     2.670079     2.662436     2.654793     2.647150     2.639506     2.631863
      2.624220     2.616577     2.608933     2.601290     2.593647     2.586004     2.578361     2.570717     2.563074     2.555431
      2.547788     2.540144     2.532501     2.524858     2.517215     2.509572     2.501928     2.494285     2.486642     2.478999
      2.471355     2.463712     2.456069     2.448426     2.440783     2.433139     2.425496     2.417853     2.410210     2.402566
      2.394923     2.387280     2.379637     2.371994     2.364350     2.356707     2.349064     2.341421     2.333777     2.326134
      2.318491     2.310848     2.303205     2.295561     2.287918     2.280275     2.272632     2.264988     2.257345     2.249702
      2.242059     2.234416     2.226772     2.219129     2.211486     2.203843     2.196199     2.188556     2.180913     2.173270
      2.165627     2.157983     2.150340     2.142697     2.135054     2.127410     2.119767     2.112124     2.104481     2.096838
      2.089194     2.081551     2.073908     2.066265     2.058621     2.050978     2.043335     2.035692     2.028049     2.020405
      2.012762     2.005119     1.997476     1.989833     1.982190     1.974546     1.966903     1.959260     1.951617     1.943974
      1.936331     1.928688     1.921045     1.913402     1.905759     1.898115     1.890472     1.882829     1.875186     1.867543
      1.859900     1.852257     1.844614     1.836971     1.829327     1.821684     1.814041     1.806398     1.798755     1.791112
      1.783469     1.775826     1.768183     1.760540     1.752896     1.745253     1.737610     1.729967     1.722324     1.714681
      1.707038     1.699395     1.691752     1.684108     1.676465     1.668822     1.661179     1.653536     1.645893     1.638250
      1.630607     1.622964     1.615321     1.607677     1.600034     1.592391     1.584748     1.577105     1.569462     1.561819
      1.554176     1.546533     1.538890     1.531246     1.523603     1.515960     1.508317     1.500674     1.493031     1.485388
      1.477745     1.470102     1.462458     1.454815     1.447172     1.439529     1.431886     1.424243     1.416600     1.408957
      1.401314     1.393671     1.386027     1.378384     1.370741     1.363098     1.355455     1.347812     1.340169     1.332526
      1.324883     1.317240     1.309596     1.301953     1.294310     1.286667     1.279024     1.271381     1.263738     1.256095
      1.248452     1.240808     1.233165     1.225522     1.217879     1.210236     1.202593     1.194950     1.187307     1.179664
      1.172021     1.164377     1.156734     1.149091     1.141448     1.133805     1.126162     1.118519     1.110876     1.103233
      1.095590     1.087946     1.080303     1.072660     1.065017     1.057374     1.049731     1.042088     1.034445     1.026802
      1.019158     1.011515     1.003872     0.996229     0.988586     0.980943     0.973300     0.965657     0.958014     0.950371
      0.942727     0.935084     0.927441     0.919798     0.912155     0.904512     0.896869     0.889226     0.881583     0.873940
      0.866296     0.858653     0.851010     0.843367     0.835724     0.828081     0.820438     0.812795     0.805152     0.797508
      0.789865     0.782222     0.774579     0.766936     0.759293     0.751650     0.744007     0.736364     0.728721     0.721077
      0.713434     0.705791     0.698148     0.690505     0.682862     0.675219     0.667576     0.659933     0.652290     0.644646
      0.637003     0.629360     0.621717     0.614074     0.606431     0.598788     0.591145     0.583502     0.575858     0.568215
      0.560572     0.552929     0.545286     0.537643     0.530000     0.522357     0.514714     0.507071     0.499427     0.491784
      0.484141     0.476498     0.468855     0.461212     0.453569     0.445925     0.438282     0.430639     0.422996     0.415353
      0.407710     0.400067     0.392424     0.384780     0.377137     0.369494     0.361851     0.354208     0.346565     0.338922
      0.331278     0.323635     0.315992     0.308349     0.300706     0.293063     0.285420     0.277777     0.270133     0.262490
      0.254847     0.247204     0.239561     0.231918     0.224275     0.216631     0.208988     0.201345
 NY phased data points follow
   4.29306E+00  2.19797E+00  1.80481E+00  3.14392E+00  2.26897E+00  2.29060E+00  1.79135E+00  6.70017E+00  5.71781E+00  7.72102E+00
   9.76840E+00  7.21004E+00  6.63665E+00  4.88944E+00  4.54076E+00  5.37258E+00 -6.01720E-01  3.70227E+00  3.62692E+00  4.31334E+00
   3.95705E+00  2.02511E+00  2.18519E+00  2.72978E+00  2.17557E+00  2.09918E+00  3.36021E+00  1.38649E+00  2.67676E+00  3.40690E+00
   1.32755E+00  3.46911E+00  4.91391E-01  1.12966E+00  2.85183E+00  5.66621E-01 -1.23457E-01  9.66798E-01  1.10921E+00  6.25268E-01
   2.08542E+00  1.07457E+00 -2.13913E-02  1.29409E+00  1.74829E+00 -4.93514E-01  2.55575E+00 -1.48066E+00  1.00734E+00  2.87486E-01
  -2.66568E-01  1.90171E+00 -6.42604E-01 -2.64182E+00 -1.15025E+00 -2.22585E+00 -1.11648E+00 -3.73691E+00 -2.31684E+00 -2.99421E+00
  -5.61420E+00 -2.54508E+00 -1.14388E+00 -3.80263E+00 -6.52867E+00 -5.64350E+00 -3.65118E+00 -2.27028E+00 -3.42572E+00 -4.84942E+00
  -4.18714E+00 -4.64167E+00 -4.12384E+00 -4.55730E+00 -4.83484E+00 -3.97196E+00 -4.13502E+00 -7.04872E+00 -4.06069E+00 -4.23010E+00
  -4.10311E+00 -4.41497E+00 -4.69291E+00 -7.21279E+00 -6.43437E+00 -5.23538E+00 -5.89981E+00 -4.54418E+00 -4.23476E+00 -4.34394E+00
  -6.51077E+00 -3.79094E+00 -3.25535E+00 -4.27853E+00 -2.86790E+00 -4.05900E+00 -6.38442E+00 -9.05296E+00 -4.78675E+00 -3.35478E+00
   6.75933E-02  3.82725E+00  3.82738E+00  2.19300E+00  1.38067E+00  1.37159E+00 -1.83105E+00 -1.49962E+00 -2.93793E+00 -5.83904E+00
  -6.45667E+00 -2.43460E+00 -5.10902E+00 -5.44517E+00 -6.61624E+00 -5.92224E+00 -4.36080E+00 -4.51587E+00 -6.76821E+00 -7.95644E+00
  -6.14314E+00 -5.50038E+00 -5.63031E+00 -2.17083E+00  3.39514E-01  1.84277E+00  2.41131E+00  3.68832E+00  4.37558E+00 -8.37828E-01
  -1.14170E+00 -2.78479E+00 -2.48068E+00 -5.04829E+00 -4.58012E+00 -8.17455E+00 -9.31908E+00 -5.41117E+00 -2.83919E+00 -5.99517E+00
  -6.55210E+00 -6.29085E+00 -4.83635E+00 -7.17625E+00 -6.24319E+00 -6.20164E+00 -7.50061E+00 -9.70825E+00 -5.09642E+00 -6.12514E+00
  -5.07829E+00 -7.18822E+00 -8.22945E+00 -9.16511E+00 -9.76136E+00 -9.52895E+00 -6.54113E+00 -1.07130E+01 -1.04163E+01 -6.71130E+00
  -7.53961E+00 -7.50007E+00 -8.90175E+00 -9.28530E+00 -9.00158E+00 -9.37768E+00 -9.21494E+00 -9.41747E+00 -1.28356E+01 -1.02254E+01
  -1.12018E+01 -9.65538E+00 -9.14934E+00 -1.03485E+01 -7.92801E+00 -1.05061E+01 -1.20102E+01 -1.13288E+01 -8.57193E+00 -1.00011E+01
  -7.41822E+00 -1.30782E+01 -9.67924E+00 -8.88052E+00 -1.04149E+01 -1.13946E+01 -6.17077E+00 -1.00904E+01 -8.80307E+00 -6.13555E+00
  -7.52476E+00 -5.88853E+00 -5.70000E+00 -5.51283E+00 -8.37941E+00 -8.02962E+00 -7.49707E+00 -9.49517E+00 -7.11538E+00 -6.47840E+00
  -6.62376E+00 -6.81841E+00 -8.44249E+00 -9.56223E+00 -6.77056E+00 -7.73172E+00 -8.09345E+00 -9.78087E+00 -1.04041E+01 -9.34737E+00
  -1.09794E+01 -6.16832E+00 -5.89992E+00 -6.37755E+00 -5.11671E+00 -4.43814E+00 -6.14307E+00 -8.78696E+00 -7.56309E+00 -5.85129E+00
  -6.34172E+00 -8.69100E+00 -9.98723E+00 -9.99379E+00 -5.90423E+00 -6.13556E+00 -6.57594E+00 -4.98626E+00 -8.62149E+00 -6.37991E+00
  -5.42012E+00 -5.93387E+00 -4.43622E+00 -4.11484E+00 -5.53295E+00 -5.59321E+00 -5.04103E+00 -6.19798E+00 -2.86773E+00 -5.51677E+00
  -4.67565E+00 -6.91740E+00 -5.31658E+00 -4.75298E+00 -3.81382E+00 -7.24298E+00 -3.17076E+00 -2.39074E+00 -3.30254E+00 -3.79299E+00
  -2.36452E+00 -3.24881E+00 -4.39520E+00 -2.30059E+00  1.50848E+00  2.66161E+00  8.60299E+00  1.02634E+01  7.36529E+00  1.17931E+01
   1.10541E+01  8.59276E+00  3.49679E+00  1.62462E+00 -1.47442E+00 -1.03716E+00 -5.78303E+00 -3.77224E+00 -7.63091E+00 -6.23957E+00
  -7.27117E+00 -8.97307E+00 -6.40433E+00 -8.70960E+00 -1.36371E+01 -9.66195E+00 -1.21712E+01 -9.70109E+00 -1.05137E+01 -1.19659E+01
  -1.29982E+01 -8.10957E+00 -9.92944E+00 -8.46598E+00 -1.07400E+01 -9.64247E+00 -1.11398E+01 -1.10987E+01 -9.47425E+00 -1.20836E+01
  -9.84248E+00 -1.06973E+01 -9.73993E+00 -1.20048E+01 -9.53934E+00 -1.19795E+01 -1.09742E+01 -9.09282E+00 -1.02759E+01 -8.96899E+00
  -1.10647E+01 -1.21402E+01 -1.17216E+01 -1.11288E+01 -1.31936E+01 -1.18327E+01 -1.00628E+01 -1.19726E+01 -1.38867E+01 -9.97144E+00
  -1.60261E+01 -1.36085E+01 -1.37105E+01 -1.30345E+01 -1.40355E+01 -1.39365E+01 -1.37461E+01 -1.23650E+01 -1.69129E+01 -1.97954E+01
  -1.75492E+01 -1.64425E+01 -1.52225E+01 -1.76840E+01 -1.65380E+01 -1.77472E+01 -1.87528E+01 -2.03320E+01 -1.99614E+01 -1.99643E+01
  -1.80224E+01 -2.20156E+01 -2.32746E+01 -2.32709E+01 -2.16364E+01 -2.35630E+01 -2.71806E+01 -2.57342E+01 -2.66467E+01 -2.40312E+01
  -2.49271E+01 -2.54954E+01 -3.01919E+01 -2.59819E+01 -2.64409E+01 -2.47586E+01 -2.24166E+01 -2.58010E+01 -2.41360E+01 -2.41772E+01
  -2.39183E+01 -2.49579E+01 -2.63483E+01 -2.47321E+01 -2.60080E+01 -2.57810E+01 -2.48501E+01 -2.22609E+01 -2.13737E+01 -2.34234E+01
  -2.31803E+01 -2.19756E+01 -2.03678E+01 -2.11777E+01 -1.86814E+01 -1.71073E+01 -1.56068E+01 -1.95639E+01 -2.00990E+01 -1.93516E+01
  -1.60593E+01 -1.57871E+01 -1.64375E+01 -1.27600E+01 -1.73976E+01 -1.47132E+01 -1.27972E+01 -1.68945E+01 -1.36650E+01 -1.25619E+01
  -1.25133E+01 -1.35798E+01 -1.19164E+01 -1.13757E+01 -1.27806E+01 -1.32005E+01 -1.33803E+01 -1.21848E+01 -1.14646E+01 -1.06619E+01
  -1.14302E+01 -1.22913E+01 -1.03547E+01 -1.48367E+01 -1.17576E+01 -1.07045E+01 -1.22623E+01 -1.01710E+01 -1.03718E+01 -1.04554E+01
  -7.68173E+00 -1.21920E+01 -1.03886E+01 -1.28223E+01 -9.94599E+00 -1.20332E+01 -1.03910E+01 -1.35102E+01 -1.16085E+01 -1.42649E+01
  -1.26032E+01 -1.08004E+01 -1.53185E+01 -1.05142E+01 -1.37666E+01 -1.51237E+01 -1.28893E+01 -1.29132E+01 -1.39741E+01 -9.60542E+00
  -1.39350E+01 -1.38477E+01 -1.46770E+01 -1.43916E+01 -1.37979E+01 -1.15896E+01 -1.44717E+01 -1.38955E+01 -1.29422E+01 -1.46894E+01
  -1.57497E+01 -1.44029E+01 -1.25393E+01 -1.63927E+01 -1.22323E+01 -1.55713E+01 -1.32865E+01 -1.29334E+01 -1.26049E+01 -1.39529E+01
  -1.32181E+01 -1.05809E+01 -1.29601E+01 -1.12143E+01 -1.35362E+01 -1.34810E+01 -1.13709E+01 -1.24627E+01 -1.04191E+01 -1.36613E+01
  -1.45815E+01 -1.19094E+01 -1.15981E+01 -1.52997E+01 -1.24366E+01 -9.39348E+00 -1.29849E+01 -1.26046E+01 -1.01567E+01 -1.53339E+01
  -1.37861E+01 -1.12878E+01 -1.40565E+01 -1.25443E+01 -1.11831E+01 -1.34986E+01 -1.28245E+01 -1.18161E+01 -1.13678E+01 -1.16753E+01
  -1.35903E+01 -1.24282E+01 -8.14316E+00 -1.10735E+01 -1.09764E+01 -1.24466E+01 -1.25704E+01 -1.32394E+01 -1.06184E+01 -1.11885E+01
  -9.14423E+00 -1.28163E+01 -9.62042E+00 -1.30404E+01 -1.00156E+01 -8.59975E+00 -1.00129E+01 -1.27706E+01 -1.03952E+01 -1.03864E+01
  -1.26745E+01 -1.05619E+01 -9.38596E+00 -8.98034E+00 -9.83499E+00 -1.06367E+01 -1.05578E+01 -1.11939E+01
 NY points of the fit to the data follow
   3.87977E+00  3.77504E+00  3.46890E+00  3.06328E+00  2.80921E+00  2.93328E+00  3.57227E+00  4.66619E+00  5.92890E+00  6.96991E+00
   7.43207E+00  7.15124E+00  6.30251E+00  5.26757E+00  4.27771E+00  3.33174E+00  2.48106E+00  1.91557E+00  1.70656E+00  1.67459E+00
   1.60196E+00  1.43547E+00  1.28801E+00  1.23850E+00  1.33957E+00  1.63247E+00  2.09791E+00  2.63316E+00  3.08388E+00  3.28761E+00
   3.14534E+00  2.70734E+00  2.12990E+00  1.49569E+00  8.27224E-01  2.33816E-01 -1.51600E-01 -3.52727E-01 -4.90416E-01 -5.87398E-01
  -5.73050E-01 -4.14275E-01 -1.40278E-01  1.97898E-01  5.10602E-01  6.98535E-01  6.82315E-01  4.23969E-01 -3.20936E-02 -5.62534E-01
  -1.06125E+00 -1.49668E+00 -1.85346E+00 -2.07750E+00 -2.13386E+00 -2.06612E+00 -1.95409E+00 -1.85414E+00 -1.80696E+00 -1.85392E+00
  -2.01270E+00 -2.24990E+00 -2.50826E+00 -2.74321E+00 -2.92477E+00 -3.03529E+00 -3.07178E+00 -3.05125E+00 -3.00694E+00 -2.97286E+00
  -2.97237E+00 -3.01792E+00 -3.10910E+00 -3.23126E+00 -3.36226E+00 -3.48771E+00 -3.60562E+00 -3.71112E+00 -3.79341E+00 -3.85488E+00
  -3.91601E+00 -4.00377E+00 -4.13537E+00 -4.31315E+00 -4.52319E+00 -4.73435E+00 -4.90494E+00 -5.00100E+00 -5.00560E+00 -4.92564E+00
  -4.78873E+00 -4.63213E+00 -4.50111E+00 -4.47224E+00 -4.70166E+00 -5.13701E+00 -5.38793E+00 -5.07325E+00 -3.97852E+00 -2.13893E+00
   7.05688E-02  2.06137E+00  3.28207E+00  3.39390E+00  2.43172E+00  8.45804E-01 -8.40531E-01 -2.42461E+00 -3.86819E+00 -4.97120E+00
  -5.53848E+00 -5.68069E+00 -5.67145E+00 -5.63867E+00 -5.55536E+00 -5.43836E+00 -5.35410E+00 -5.36046E+00 -5.58773E+00 -5.91548E+00
  -5.97429E+00 -5.44435E+00 -4.16387E+00 -2.21689E+00 -3.57176E-03  1.92261E+00  3.08120E+00  3.20171E+00  2.36992E+00  1.01930E+00
  -4.60145E-01 -1.99613E+00 -3.56509E+00 -4.92883E+00 -5.86145E+00 -6.40502E+00 -6.71922E+00 -6.86618E+00 -6.84210E+00 -6.72090E+00
  -6.59446E+00 -6.51784E+00 -6.52156E+00 -6.60118E+00 -6.72912E+00 -6.87655E+00 -7.02402E+00 -7.16765E+00 -7.31468E+00 -7.48055E+00
  -7.67660E+00 -7.88225E+00 -8.05280E+00 -8.15849E+00 -8.19304E+00 -8.17386E+00 -8.14576E+00 -8.15112E+00 -8.20230E+00 -8.28251E+00
  -8.36606E+00 -8.43325E+00 -8.49007E+00 -8.56803E+00 -8.68388E+00 -8.82477E+00 -8.95732E+00 -9.04370E+00 -9.07523E+00 -9.06499E+00
  -9.03240E+00 -9.00789E+00 -9.01856E+00 -9.06393E+00 -9.11160E+00 -9.14295E+00 -9.16774E+00 -9.20859E+00 -9.27414E+00 -9.34904E+00
  -9.40395E+00 -9.42669E+00 -9.42579E+00 -9.40494E+00 -9.34063E+00 -9.19183E+00 -8.93591E+00 -8.58372E+00 -8.18380E+00 -7.81701E+00
  -7.57510E+00 -7.51994E+00 -7.66173E+00 -7.95945E+00 -8.32702E+00 -8.65939E+00 -8.88132E+00 -8.95755E+00 -8.87547E+00 -8.66801E+00
  -8.40146E+00 -8.13496E+00 -7.90815E+00 -7.76445E+00 -7.76208E+00 -7.93543E+00 -8.25826E+00 -8.67348E+00 -9.07116E+00 -9.32111E+00
  -9.31002E+00 -8.99087E+00 -8.41165E+00 -7.69201E+00 -7.01149E+00 -6.59112E+00 -6.59040E+00 -7.01287E+00 -7.72507E+00 -8.53557E+00
  -9.25923E+00 -9.71478E+00 -9.75053E+00 -9.36625E+00 -8.74063E+00 -8.08125E+00 -7.51565E+00 -7.11242E+00 -6.92189E+00 -6.91234E+00
  -6.94588E+00 -6.85451E+00 -6.55380E+00 -6.07133E+00 -5.50752E+00 -4.99869E+00 -4.67133E+00 -4.59484E+00 -4.74892E+00 -5.02485E+00
  -5.25820E+00 -5.30352E+00 -5.08654E+00 -4.61512E+00 -3.99223E+00 -3.38313E+00 -2.96712E+00 -3.02954E+00 -3.65305E+00 -4.45097E+00
  -4.89020E+00 -4.58265E+00 -3.31292E+00 -1.08645E+00  1.76606E+00  4.73705E+00  7.28436E+00  8.98790E+00  9.79319E+00  9.85713E+00
   9.08063E+00  7.30974E+00  4.93100E+00  2.62903E+00  6.21224E-01 -1.30125E+00 -3.14431E+00 -4.64551E+00 -5.73287E+00 -6.56816E+00
  -7.25115E+00 -7.78982E+00 -8.21757E+00 -8.60750E+00 -8.99952E+00 -9.41314E+00 -9.84678E+00 -1.02787E+01 -1.06784E+01 -1.10218E+01
  -1.12948E+01 -1.14903E+01 -1.16078E+01 -1.16651E+01 -1.16906E+01 -1.17009E+01 -1.16961E+01 -1.16708E+01 -1.16205E+01 -1.15367E+01
  -1.14086E+01 -1.12347E+01 -1.10291E+01 -1.08148E+01 -1.06135E+01 -1.04401E+01 -1.03060E+01 -1.02203E+01 -1.01860E+01 -1.01989E+01
  -1.02535E+01 -1.03506E+01 -1.04952E+01 -1.06890E+01 -1.09306E+01 -1.12192E+01 -1.15539E+01 -1.19310E+01 -1.23434E+01 -1.27835E+01
  -1.32446E+01 -1.37202E+01 -1.42037E+01 -1.46895E+01 -1.51727E+01 -1.56491E+01 -1.61158E+01 -1.65730E+01 -1.70276E+01 -1.74762E+01
  -1.78871E+01 -1.82299E+01 -1.84909E+01 -1.86776E+01 -1.88235E+01 -1.89770E+01 -1.91911E+01 -1.95233E+01 -1.99890E+01 -2.05446E+01
  -2.11180E+01 -2.16467E+01 -2.20823E+01 -2.23825E+01 -2.25310E+01 -2.25679E+01 -2.25743E+01 -2.26145E+01 -2.27052E+01 -2.28402E+01
  -2.30094E+01 -2.31957E+01 -2.33653E+01 -2.34854E+01 -2.35584E+01 -2.36174E+01 -2.37025E+01 -2.38485E+01 -2.40645E+01 -2.43186E+01
  -2.45524E+01 -2.47118E+01 -2.47600E+01 -2.46696E+01 -2.44285E+01 -2.40619E+01 -2.36259E+01 -2.31641E+01 -2.26840E+01 -2.21820E+01
  -2.16688E+01 -2.11515E+01 -2.06201E+01 -2.00628E+01 -1.94833E+01 -1.88966E+01 -1.83157E+01 -1.77511E+01 -1.72163E+01 -1.67235E+01
  -1.62822E+01 -1.58983E+01 -1.55742E+01 -1.53086E+01 -1.50964E+01 -1.49299E+01 -1.47989E+01 -1.46918E+01 -1.45963E+01 -1.45003E+01
  -1.43928E+01 -1.42646E+01 -1.41085E+01 -1.39198E+01 -1.36966E+01 -1.34396E+01 -1.31520E+01 -1.28389E+01 -1.25074E+01 -1.21656E+01
  -1.18226E+01 -1.14872E+01 -1.11686E+01 -1.08747E+01 -1.06128E+01 -1.03887E+01 -1.02068E+01 -1.00701E+01 -9.97970E+00 -9.93563E+00
  -9.93638E+00 -9.97934E+00 -1.00610E+01 -1.01770E+01 -1.03229E+01 -1.04934E+01 -1.06838E+01 -1.08891E+01 -1.11047E+01 -1.13264E+01
  -1.15503E+01 -1.17732E+01 -1.19921E+01 -1.22049E+01 -1.24096E+01 -1.26047E+01 -1.27893E+01 -1.29626E+01 -1.31241E+01 -1.32737E+01
  -1.34114E+01 -1.35372E+01 -1.36515E+01 -1.37546E+01 -1.38469E+01 -1.39289E+01 -1.40009E+01 -1.40636E+01 -1.41173E+01 -1.41626E+01
  -1.41998E+01 -1.42295E+01 -1.42519E+01 -1.42676E+01 -1.42769E+01 -1.42802E+01 -1.42777E+01 -1.42697E+01 -1.42566E+01 -1.42387E+01
  -1.42161E+01 -1.41892E+01 -1.41580E+01 -1.41229E+01 -1.40840E+01 -1.40414E+01 -1.39954E+01 -1.39461E+01 -1.38937E+01 -1.38382E+01
  -1.37798E+01 -1.37186E+01 -1.36547E+01 -1.35883E+01 -1.35193E+01 -1.34480E+01 -1.33742E+01 -1.32982E+01 -1.32199E+01 -1.31395E+01
  -1.30570E+01 -1.29723E+01 -1.28857E+01 -1.27971E+01 -1.27065E+01 -1.26141E+01 -1.25198E+01 -1.24236E+01 -1.23257E+01 -1.22260E+01
  -1.21246E+01 -1.20215E+01 -1.19167E+01 -1.18103E+01 -1.17023E+01 -1.15926E+01 -1.14814E+01 -1.13686E+01 -1.12543E+01 -1.11385E+01
  -1.10212E+01 -1.09024E+01 -1.07822E+01 -1.06605E+01 -1.05375E+01 -1.04130E+01 -1.02871E+01 -1.01599E+01 -1.00313E+01 -9.90139E+00
  -9.77019E+00 -9.63768E+00 -9.50390E+00 -9.36887E+00 -9.23260E+00 -9.09512E+00 -8.95646E+00 -8.81661E+00
 NY background values follow
     7.348E-01    6.629E-01    5.899E-01    5.159E-01    4.409E-01    3.649E-01    2.879E-01    2.099E-01    1.310E-01    5.113E-02
    -2.966E-02   -1.114E-01   -1.939E-01   -2.774E-01   -3.617E-01   -4.468E-01   -5.327E-01   -6.194E-01   -7.069E-01   -7.952E-01
    -8.841E-01   -9.738E-01   -1.064E+00   -1.155E+00   -1.247E+00   -1.339E+00   -1.432E+00   -1.525E+00   -1.619E+00   -1.714E+00
    -1.809E+00   -1.905E+00   -2.001E+00   -2.097E+00   -2.194E+00   -2.291E+00   -2.389E+00   -2.486E+00   -2.585E+00   -2.683E+00
    -2.782E+00   -2.881E+00   -2.980E+00   -3.079E+00   -3.179E+00   -3.278E+00   -3.378E+00   -3.478E+00   -3.578E+00   -3.677E+00
    -3.777E+00   -3.877E+00   -3.976E+00   -4.076E+00   -4.175E+00   -4.274E+00   -4.373E+00   -4.472E+00   -4.570E+00   -4.668E+00
    -4.766E+00   -4.863E+00   -4.960E+00   -5.056E+00   -5.152E+00   -5.248E+00   -5.342E+00   -5.437E+00   -5.530E+00   -5.623E+00
    -5.715E+00   -5.807E+00   -5.898E+00   -5.987E+00   -6.076E+00   -6.165E+00   -6.252E+00   -6.338E+00   -6.423E+00   -6.508E+00
    -6.591E+00   -6.673E+00   -6.754E+00   -6.834E+00   -6.912E+00   -6.990E+00   -7.066E+00   -7.140E+00   -7.214E+00   -7.286E+00
    -7.356E+00   -7.425E+00   -7.493E+00   -7.559E+00   -7.624E+00   -7.687E+00   -7.749E+00   -7.809E+00   -7.868E+00   -7.926E+00
    -7.982E+00   -8.037E+00   -8.090E+00   -8.142E+00   -8.193E+00   -8.242E+00   -8.290E+00   -8.337E+00   -8.382E+00   -8.426E+00
    -8.469E+00   -8.511E+00   -8.552E+00   -8.591E+00   -8.629E+00   -8.666E+00   -8.702E+00   -8.736E+00   -8.770E+00   -8.802E+00
    -8.834E+00   -8.864E+00   -8.893E+00   -8.921E+00   -8.949E+00   -8.975E+00   -9.000E+00   -9.024E+00   -9.048E+00   -9.070E+00
    -9.092E+00   -9.113E+00   -9.133E+00   -9.152E+00   -9.170E+00   -9.188E+00   -9.205E+00   -9.221E+00   -9.236E+00   -9.251E+00
    -9.265E+00   -9.279E+00   -9.292E+00   -9.304E+00   -9.316E+00   -9.327E+00   -9.338E+00   -9.348E+00   -9.358E+00   -9.368E+00
    -9.377E+00   -9.386E+00   -9.394E+00   -9.402E+00   -9.410E+00   -9.418E+00   -9.425E+00   -9.433E+00   -9.440E+00   -9.447E+00
    -9.454E+00   -9.460E+00   -9.467E+00   -9.474E+00   -9.481E+00   -9.487E+00   -9.494E+00   -9.501E+00   -9.508E+00   -9.515E+00
    -9.523E+00   -9.530E+00   -9.538E+00   -9.546E+00   -9.555E+00   -9.563E+00   -9.573E+00   -9.582E+00   -9.592E+00   -9.602E+00
    -9.613E+00   -9.624E+00   -9.636E+00   -9.649E+00   -9.662E+00   -9.675E+00   -9.690E+00   -9.705E+00   -9.721E+00   -9.737E+00
    -9.755E+00   -9.773E+00   -9.793E+00   -9.813E+00   -9.834E+00   -9.857E+00   -9.880E+00   -9.905E+00   -9.931E+00   -9.957E+00
    -9.986E+00   -1.002E+01   -1.005E+01   -1.008E+01   -1.011E+01   -1.015E+01   -1.018E+01   -1.022E+01   -1.026E+01   -1.030E+01
    -1.034E+01   -1.039E+01   -1.043E+01   -1.048E+01   -1.053E+01   -1.058E+01   -1.063E+01   -1.069E+01   -1.075E+01   -1.080E+01
    -1.086E+01   -1.093E+01   -1.099E+01   -1.106E+01   -1.113E+01   -1.120E+01   -1.127E+01   -1.135E+01   -1.142E+01   -1.150E+01
    -1.158E+01   -1.167E+01   -1.175E+01   -1.184E+01   -1.193E+01   -1.202E+01   -1.211E+01   -1.221E+01   -1.230E+01   -1.240E+01
    -1.250E+01   -1.260E+01   -1.271E+01   -1.281E+01   -1.292E+01   -1.302E+01   -1.313E+01   -1.324E+01   -1.335E+01   -1.347E+01
    -1.358E+01   -1.370E+01   -1.381E+01   -1.393E+01   -1.405E+01   -1.417E+01   -1.429E+01   -1.441E+01   -1.453E+01   -1.465E+01
    -1.478E+01   -1.490E+01   -1.503E+01   -1.516E+01   -1.528E+01   -1.541E+01   -1.554E+01   -1.567E+01   -1.580E+01   -1.592E+01
    -1.605E+01   -1.618E+01   -1.631E+01   -1.645E+01   -1.658E+01   -1.671E+01   -1.684E+01   -1.697E+01   -1.710E+01   -1.723E+01
    -1.737E+01   -1.750E+01   -1.763E+01   -1.776E+01   -1.789E+01   -1.802E+01   -1.815E+01   -1.828E+01   -1.841E+01   -1.854E+01
    -1.867E+01   -1.880E+01   -1.893E+01   -1.906E+01   -1.919E+01   -1.931E+01   -1.944E+01   -1.956E+01   -1.969E+01   -1.981E+01
    -1.994E+01   -2.006E+01   -2.018E+01   -2.030E+01   -2.042E+01   -2.054E+01   -2.066E+01   -2.078E+01   -2.090E+01   -2.101E+01
    -2.113E+01   -2.124E+01   -2.135E+01   -2.146E+01   -2.157E+01   -2.168E+01   -2.179E+01   -2.189E+01   -2.200E+01   -2.210E+01
    -2.220E+01   -2.230E+01   -2.240E+01   -2.250E+01   -2.260E+01   -2.269E+01   -2.278E+01   -2.287E+01   -2.296E+01   -2.305E+01
    -2.314E+01   -2.322E+01   -2.330E+01   -2.338E+01   -2.346E+01   -2.354E+01   -2.361E+01   -2.369E+01   -2.376E+01   -2.383E+01
    -2.389E+01   -2.396E+01   -2.402E+01   -2.408E+01   -2.414E+01   -2.419E+01   -2.425E+01   -2.430E+01   -2.435E+01   -2.439E+01
    -2.444E+01   -2.448E+01   -2.452E+01   -2.456E+01   -2.459E+01   -2.463E+01   -2.466E+01   -2.468E+01   -2.471E+01   -2.473E+01
    -2.475E+01   -2.477E+01   -2.479E+01   -2.480E+01   -2.481E+01   -2.482E+01   -2.482E+01   -2.483E+01   -2.483E+01   -2.482E+01
    -2.482E+01   -2.481E+01   -2.480E+01   -2.479E+01   -2.478E+01   -2.476E+01   -2.474E+01   -2.472E+01   -2.470E+01   -2.468E+01
    -2.465E+01   -2.462E+01   -2.459E+01   -2.456E+01   -2.452E+01   -2.448E+01   -2.445E+01   -2.440E+01   -2.436E+01   -2.432E+01
    -2.427E+01   -2.422E+01   -2.417E+01   -2.412E+01   -2.406E+01   -2.401E+01   -2.395E+01   -2.389E+01   -2.383E+01   -2.376E+01
    -2.370E+01   -2.363E+01   -2.356E+01   -2.349E+01   -2.342E+01   -2.335E+01   -2.328E+01   -2.320E+01   -2.312E+01   -2.304E+01
    -2.296E+01   -2.288E+01   -2.280E+01   -2.271E+01   -2.262E+01   -2.254E+01   -2.245E+01   -2.236E+01   -2.226E+01   -2.217E+01
    -2.208E+01   -2.198E+01   -2.188E+01   -2.179E+01   -2.169E+01   -2.159E+01   -2.148E+01   -2.138E+01   -2.128E+01   -2.117E+01
    -2.107E+01   -2.096E+01   -2.085E+01   -2.074E+01   -2.063E+01   -2.052E+01   -2.041E+01   -2.030E+01   -2.018E+01   -2.007E+01
    -1.995E+01   -1.983E+01   -1.972E+01   -1.960E+01   -1.948E+01   -1.936E+01   -1.923E+01   -1.911E+01   -1.899E+01   -1.887E+01
    -1.874E+01   -1.862E+01   -1.849E+01   -1.836E+01   -1.823E+01   -1.811E+01   -1.798E+01   -1.785E+01   -1.771E+01   -1.758E+01
    -1.745E+01   -1.732E+01   -1.718E+01   -1.705E+01   -1.691E+01   -1.677E+01   -1.663E+01   -1.650E+01   -1.636E+01   -1.621E+01
    -1.607E+01   -1.593E+01   -1.579E+01   -1.564E+01   -1.550E+01   -1.535E+01   -1.520E+01   -1.506E+01   -1.491E+01   -1.476E+01
    -1.461E+01   -1.445E+01   -1.430E+01   -1.415E+01   -1.399E+01   -1.384E+01   -1.368E+01   -1.352E+01   -1.337E+01   -1.321E+01
    -1.305E+01   -1.288E+01   -1.272E+01   -1.256E+01   -1.239E+01   -1.223E+01   -1.206E+01   -1.190E+01
 Ala      Conc. = 3.89E+01
