 LCModel (Version 6.3-1L) Copyright: S.W. Provencher.          Ref.: Magn. Reson. Med. 30:672-679 (1993).                
 Slice#3 Row#13 Col#7  PD_05_press_1_raw_act
 36 lines in following concentration table = NCONC+1
    Conc.  %SD /Cr+PCr  Metabolite                                         
    0.000 999%   0.000 Ala                                                 
   19.029 503% 3.9E-02 Asp                                                 
  488.221  10%   1.000 Cr                                                  
    0.000 999%   0.000 PCr                                                 
   56.499 108%   0.116 GABA                                                
   56.666 107%   0.116 Glc                                                 
 2.36E+03  21%   4.827 Gln                                                 
 2.74E+03  23%   5.617 Glu                                                 
  160.169  13%   0.328 GPC                                                 
    0.000 999%   0.000 PCh                                                 
  258.062  37%   0.529 GSH                                                 
 1.11E+03  26%   2.277 Ins                                                 
 1.28E+03  24%   2.621 Lac                                                 
  680.901   8%   1.395 NAA                                                 
    0.000 999%   0.000 NAAG                                                
   56.255  31%   0.115 Scyllo                                              
  163.065  58%   0.334 Tau                                                 
  461.233  27%   0.945 -CrCH2                                              
  160.169  13%   0.328 GPC+PCh                                             
  680.901   8%   1.395 NAA+NAAG                                            
  488.221  10%   1.000 Cr+PCr                                              
 5.10E+03  21%  10.444 Glu+Gln                                             
  582.497  38%   1.193 Lip13a                                              
    0.000 999%   0.000 Lip13b                                              
  138.772  65%   0.284 Lip09                                               
  146.423  61%   0.300 MM09                                                
   89.868  69%   0.184 Lip20                                               
  220.924  72%   0.453 MM20                                                
   42.739 104% 8.8E-02 MM12                                                
  363.224  32%   0.744 MM14                                                
    0.000 999%   0.000 MM17                                                
  582.497  38%   1.193 Lip13a+Lip13b                                       
  988.460  25%   2.025 MM14+Lip13a+Lip13b+MM12                             
  285.195  29%   0.584 MM09+Lip09                                          
  310.792  50%   0.637 MM20+Lip20                                          
   6 lines in following misc. output table
  FWHM = 0.122 ppm    S/N =   4                                            
  Data shift = 0.038 ppm                                                   
  Ph: -41 deg     -18.0 deg/ppm                                            
  alphaB,S = 6.4E-01,   1.0E+02                                            
   13 spline knots.   Ns = 9(2)                                            
  (12) 8 infls.   (11) 1 extrs.                                            
  498 points on ppm-axis = NY
      4.000000     3.992357     3.984714     3.977070     3.969427     3.961784     3.954141     3.946497     3.938854     3.931211
      3.923568     3.915925     3.908281     3.900638     3.892995     3.885352     3.877708     3.870065     3.862422     3.854779
      3.847136     3.839492     3.831849     3.824206     3.816563     3.808919     3.801276     3.793633     3.785990     3.778347
      3.770703     3.763060     3.755417     3.747774     3.740130     3.732487     3.724844     3.717201     3.709558     3.701914
      3.694271     3.686628     3.678985     3.671341     3.663698     3.656055     3.648412     3.640769     3.633125     3.625482
      3.617839     3.610196     3.602552     3.594909     3.587266     3.579623     3.571980     3.564336     3.556693     3.549050
      3.541407     3.533763     3.526120     3.518477     3.510834     3.503191     3.495547     3.487904     3.480261     3.472618
      3.464974     3.457331     3.449688     3.442045     3.434402     3.426758     3.419115     3.411472     3.403829     3.396185
      3.388542     3.380899     3.373256     3.365613     3.357969     3.350326     3.342683     3.335040     3.327396     3.319753
      3.312110     3.304467     3.296824     3.289180     3.281537     3.273894     3.266251     3.258607     3.250964     3.243321
      3.235678     3.228034     3.220391     3.212748     3.205105     3.197462     3.189818     3.182175     3.174532     3.166889
      3.159245     3.151602     3.143959     3.136316     3.128673     3.121029     3.113386     3.105743     3.098100     3.090456
      3.082813     3.075170     3.067527     3.059884     3.052240     3.044597     3.036954     3.029311     3.021667     3.014024
      3.006381     2.998738     2.991095     2.983451     2.975808     2.968165     2.960522     2.952878     2.945235     2.937592
      2.929949     2.922306     2.914662     2.907019     2.899376     2.891733     2.884089     2.876446     2.868803     2.861160
      2.853517     2.845873     2.838230     2.830587     2.822944     2.815300     2.807657     2.800014     2.792371     2.784728
      2.777084     2.769441     2.761798     2.754155     2.746511     2.738868     2.731225     2.723582     2.715939     2.708295
      2.700652     2.693009     2.685366     2.677722     2.670079     2.662436     2.654793     2.647150     2.639506     2.631863
      2.624220     2.616577     2.608933     2.601290     2.593647     2.586004     2.578361     2.570717     2.563074     2.555431
      2.547788     2.540144     2.532501     2.524858     2.517215     2.509572     2.501928     2.494285     2.486642     2.478999
      2.471355     2.463712     2.456069     2.448426     2.440783     2.433139     2.425496     2.417853     2.410210     2.402566
      2.394923     2.387280     2.379637     2.371994     2.364350     2.356707     2.349064     2.341421     2.333777     2.326134
      2.318491     2.310848     2.303205     2.295561     2.287918     2.280275     2.272632     2.264988     2.257345     2.249702
      2.242059     2.234416     2.226772     2.219129     2.211486     2.203843     2.196199     2.188556     2.180913     2.173270
      2.165627     2.157983     2.150340     2.142697     2.135054     2.127410     2.119767     2.112124     2.104481     2.096838
      2.089194     2.081551     2.073908     2.066265     2.058621     2.050978     2.043335     2.035692     2.028049     2.020405
      2.012762     2.005119     1.997476     1.989833     1.982190     1.974546     1.966903     1.959260     1.951617     1.943974
      1.936331     1.928688     1.921045     1.913402     1.905759     1.898115     1.890472     1.882829     1.875186     1.867543
      1.859900     1.852257     1.844614     1.836971     1.829327     1.821684     1.814041     1.806398     1.798755     1.791112
      1.783469     1.775826     1.768183     1.760540     1.752896     1.745253     1.737610     1.729967     1.722324     1.714681
      1.707038     1.699395     1.691752     1.684108     1.676465     1.668822     1.661179     1.653536     1.645893     1.638250
      1.630607     1.622964     1.615321     1.607677     1.600034     1.592391     1.584748     1.577105     1.569462     1.561819
      1.554176     1.546533     1.538890     1.531246     1.523603     1.515960     1.508317     1.500674     1.493031     1.485388
      1.477745     1.470102     1.462458     1.454815     1.447172     1.439529     1.431886     1.424243     1.416600     1.408957
      1.401314     1.393671     1.386027     1.378384     1.370741     1.363098     1.355455     1.347812     1.340169     1.332526
      1.324883     1.317240     1.309596     1.301953     1.294310     1.286667     1.279024     1.271381     1.263738     1.256095
      1.248452     1.240808     1.233165     1.225522     1.217879     1.210236     1.202593     1.194950     1.187307     1.179664
      1.172021     1.164377     1.156734     1.149091     1.141448     1.133805     1.126162     1.118519     1.110876     1.103233
      1.095590     1.087946     1.080303     1.072660     1.065017     1.057374     1.049731     1.042088     1.034445     1.026802
      1.019158     1.011515     1.003872     0.996229     0.988586     0.980943     0.973300     0.965657     0.958014     0.950371
      0.942727     0.935084     0.927441     0.919798     0.912155     0.904512     0.896869     0.889226     0.881583     0.873940
      0.866296     0.858653     0.851010     0.843367     0.835724     0.828081     0.820438     0.812795     0.805152     0.797508
      0.789865     0.782222     0.774579     0.766936     0.759293     0.751650     0.744007     0.736364     0.728721     0.721077
      0.713434     0.705791     0.698148     0.690505     0.682862     0.675219     0.667576     0.659933     0.652290     0.644646
      0.637003     0.629360     0.621717     0.614074     0.606431     0.598788     0.591145     0.583502     0.575858     0.568215
      0.560572     0.552929     0.545286     0.537643     0.530000     0.522357     0.514714     0.507071     0.499427     0.491784
      0.484141     0.476498     0.468855     0.461212     0.453569     0.445925     0.438282     0.430639     0.422996     0.415353
      0.407710     0.400067     0.392424     0.384780     0.377137     0.369494     0.361851     0.354208     0.346565     0.338922
      0.331278     0.323635     0.315992     0.308349     0.300706     0.293063     0.285420     0.277777     0.270133     0.262490
      0.254847     0.247204     0.239561     0.231918     0.224275     0.216631     0.208988     0.201345
 NY phased data points follow
  -7.58170E+01 -7.70618E+01 -7.55931E+01 -7.20485E+01 -7.04020E+01 -6.81041E+01 -7.01880E+01 -6.49126E+01 -6.74444E+01 -6.65112E+01
  -6.51462E+01 -6.20125E+01 -6.14461E+01 -5.95068E+01 -6.12016E+01 -5.85800E+01 -5.77462E+01 -5.92831E+01 -5.78311E+01 -5.68588E+01
  -5.72310E+01 -5.76563E+01 -5.67576E+01 -5.44819E+01 -5.37099E+01 -5.26704E+01 -5.17604E+01 -5.17689E+01 -5.15129E+01 -4.91937E+01
  -4.95095E+01 -5.10623E+01 -4.71264E+01 -4.73256E+01 -4.55734E+01 -4.51293E+01 -4.48438E+01 -4.59368E+01 -4.47171E+01 -4.57240E+01
  -4.49625E+01 -4.28737E+01 -4.46590E+01 -4.17534E+01 -3.95440E+01 -4.10482E+01 -4.05978E+01 -3.98895E+01 -3.85884E+01 -3.90658E+01
  -3.90915E+01 -4.05715E+01 -3.58418E+01 -4.06247E+01 -4.09289E+01 -3.79218E+01 -3.93644E+01 -3.94505E+01 -3.91021E+01 -3.85199E+01
  -3.63557E+01 -3.54911E+01 -3.61727E+01 -3.37109E+01 -3.48919E+01 -3.70745E+01 -3.43772E+01 -3.38663E+01 -3.62677E+01 -3.43022E+01
  -3.43491E+01 -3.32253E+01 -3.51099E+01 -3.28292E+01 -3.29649E+01 -3.21034E+01 -3.20085E+01 -3.08217E+01 -3.16947E+01 -3.01942E+01
  -2.80073E+01 -2.82327E+01 -2.98517E+01 -2.90113E+01 -2.75385E+01 -2.78145E+01 -2.96115E+01 -2.91187E+01 -2.61214E+01 -2.60651E+01
  -2.46855E+01 -2.67792E+01 -2.35399E+01 -2.57863E+01 -2.61171E+01 -2.18855E+01 -2.23332E+01 -2.06575E+01 -2.48996E+01 -2.45798E+01
  -2.08538E+01 -2.34928E+01 -2.06661E+01 -2.15509E+01 -1.81704E+01 -1.97889E+01 -1.59673E+01 -1.63774E+01 -1.71016E+01 -2.08131E+01
  -1.82991E+01 -2.06629E+01 -1.86314E+01 -1.77099E+01 -1.75403E+01 -1.89289E+01 -1.70874E+01 -1.86054E+01 -1.60154E+01 -1.69333E+01
  -1.60469E+01 -1.45105E+01 -1.54082E+01 -1.50389E+01 -1.46587E+01 -1.66709E+01 -1.54907E+01 -1.35897E+01 -1.24046E+01 -1.33518E+01
  -1.12329E+01 -9.53890E+00 -1.35736E+01 -1.18366E+01 -1.43031E+01 -1.37170E+01 -1.40458E+01 -1.64851E+01 -1.42124E+01 -1.54213E+01
  -1.60717E+01 -1.58979E+01 -1.67055E+01 -1.59817E+01 -1.37233E+01 -1.37160E+01 -1.62959E+01 -1.25100E+01 -1.80571E+01 -1.58066E+01
  -1.68361E+01 -1.27346E+01 -1.58215E+01 -1.58602E+01 -1.44047E+01 -1.41713E+01 -1.44548E+01 -1.50663E+01 -1.54640E+01 -1.59303E+01
  -1.51190E+01 -1.47183E+01 -1.49728E+01 -1.37757E+01 -1.61454E+01 -1.37338E+01 -1.60071E+01 -1.45393E+01 -1.23910E+01 -1.61522E+01
  -1.62070E+01 -1.43191E+01 -1.51527E+01 -1.46640E+01 -1.43237E+01 -1.47938E+01 -1.58657E+01 -1.48214E+01 -1.53922E+01 -1.62703E+01
  -1.47756E+01 -1.28164E+01 -1.42297E+01 -1.30016E+01 -1.39126E+01 -1.29846E+01 -1.38116E+01 -1.25953E+01 -1.45010E+01 -1.18754E+01
  -1.07725E+01 -1.30946E+01 -1.26674E+01 -1.32039E+01 -1.16331E+01 -1.06112E+01 -1.04731E+01 -9.72629E+00 -1.20710E+01 -1.12085E+01
  -1.17889E+01 -1.18464E+01 -1.04743E+01 -9.42112E+00 -8.85081E+00 -1.07863E+01 -8.68673E+00 -9.55023E+00 -9.51742E+00 -8.50877E+00
  -9.93391E+00 -1.10542E+01 -9.80266E+00 -1.02885E+01 -9.37727E+00 -1.14756E+01 -7.85791E+00 -7.22760E+00 -7.43645E+00 -7.54506E+00
  -7.35389E+00 -8.48512E+00 -1.08457E+01 -9.67578E+00 -9.55594E+00 -8.78757E+00 -1.07223E+01 -5.23223E+00 -7.61556E+00 -8.60621E+00
  -6.59552E+00 -5.95214E+00 -8.64055E+00 -6.60195E+00 -6.68062E+00 -6.37697E+00 -4.53479E+00 -6.59222E+00 -6.15222E+00 -7.50681E+00
  -5.74338E+00 -6.71474E+00 -5.34636E+00 -8.83028E+00 -6.54615E+00 -8.91423E+00 -5.06635E+00 -4.81879E+00 -5.63992E+00 -5.31408E+00
  -1.72394E+00 -1.54175E+00 -1.78420E+00  1.25565E+00  5.13291E-01  1.12991E+00  4.06067E+00 -3.42251E-01 -5.32600E-02  2.80965E+00
   8.19787E-01  1.63870E+00  3.57977E+00  5.71610E+00  5.12159E+00  4.83683E+00  3.71782E+00 -1.66545E-01 -1.90012E+00 -3.88644E+00
  -1.65045E+00 -2.35871E+00 -3.00698E+00 -3.82228E+00 -2.07472E+00 -2.00854E+00 -2.37705E+00 -3.30297E+00 -2.71293E+00 -6.26504E+00
  -5.24902E+00 -6.98206E+00 -6.52452E+00 -4.60913E+00 -5.38224E+00 -4.58122E+00 -5.02925E+00 -5.57805E+00 -5.83142E+00 -5.26221E+00
  -3.45267E+00 -5.03912E+00 -4.05108E+00 -6.06657E+00 -4.81986E+00 -6.34516E+00 -3.10130E+00 -6.11272E+00 -5.86308E+00 -5.55219E+00
  -5.29596E+00 -3.95078E+00 -5.45762E+00 -4.38901E+00 -6.15991E+00 -5.29878E+00 -4.96166E+00 -2.74873E+00 -3.47082E+00 -5.34514E+00
  -4.60484E+00 -5.44809E+00 -5.67049E+00 -3.44190E+00 -5.41035E+00 -1.03032E+00 -7.39847E-01 -1.44443E+00 -2.83278E+00 -5.17345E-01
  -2.52049E+00 -2.26484E+00 -2.38634E+00 -2.68640E+00 -3.37425E+00 -1.17867E+00 -1.30325E+00 -7.02482E-01  2.45366E+00  1.47112E+00
   9.84870E-01  3.38904E+00  2.15595E+00  1.18940E+00  3.55460E+00  2.45994E+00  2.48936E+00  3.96914E+00  3.47597E+00  1.43451E+00
   1.94335E+00  2.28234E+00  5.90800E+00  2.55070E+00  5.48893E+00  4.16814E+00  1.43043E+00  2.96280E+00  4.88118E+00  2.05996E+00
   2.90165E+00  9.86754E-01  2.91300E+00  3.08307E+00  1.39702E+00 -3.75584E-01  2.51993E+00  2.07294E+00  5.25067E+00  1.90480E+00
   7.37285E-01  4.28759E+00  2.81768E+00  3.77710E+00 -1.72170E+00  2.13445E+00  4.11817E+00  1.26589E+00  2.59789E+00  3.35241E+00
   1.92168E+00  3.27772E+00  1.67024E+00  8.67862E-01 -1.79825E+00  7.78831E-01  1.76804E+00 -1.93779E-01  1.26062E+00  3.23188E+00
   1.02244E+00  1.80056E+00  7.52415E-01  8.72666E-01  1.40711E+00  4.39577E-01  1.72991E+00  1.61102E+00  1.81641E+00 -1.49991E+00
  -9.28187E-01  5.77923E-01  1.13151E+00  6.58947E-01  2.22362E+00 -4.35042E-01  1.52279E+00  2.37644E+00  1.56962E+00 -6.50720E-01
   3.97840E-01  3.60041E+00  1.16863E+00  1.55798E+00  1.31995E+00  2.32129E+00  1.70017E+00  2.07379E+00  8.22250E-02  1.86327E+00
  -1.12363E+00  1.82051E+00  1.35336E+00  6.88978E-01  1.45113E+00  2.11552E+00  3.46607E+00  1.83897E+00  5.91693E-01  3.71528E+00
  -1.03133E+00  2.38098E+00  2.26012E+00  9.14688E-01  1.35796E+00 -1.04888E+00  1.52775E+00  8.51248E-01 -2.65399E-01 -3.01006E-01
   7.52643E-01  2.17086E+00  8.36460E-01  1.35780E+00  1.40398E+00  1.02608E+00 -3.10035E-01 -8.95987E-02  8.65208E-02  1.07664E+00
  -2.97496E-01 -1.10372E+00  3.04441E+00 -7.83776E-01  1.45208E+00 -6.50293E-01 -5.38107E-01  1.68818E+00 -1.40265E+00  4.60196E-01
   1.24148E-01 -7.15547E-01  2.03359E+00 -7.22232E-01  4.30493E+00  2.40085E+00 -1.29851E-01  1.57127E+00  4.30811E-02  1.50910E+00
   2.79930E+00  2.98807E-01  2.68622E+00  8.45540E-01  2.46681E-01  1.47444E+00  1.98709E+00  1.89252E+00 -4.96661E-01  2.75518E+00
   7.20684E-01  1.24784E+00  2.51972E+00  2.33968E+00  1.27938E+00  1.78540E+00  7.89321E-02  8.73036E-01 -1.04118E-01  3.74800E-01
   2.43693E+00 -3.57207E-01  1.94611E-01 -5.13755E-01  2.67996E+00  2.17556E+00  2.96128E+00  2.35526E+00  1.62236E+00  2.25141E+00
   3.12741E+00  2.41699E+00  1.31228E+00  2.99038E-01  1.21265E+00  3.53824E+00  7.56663E-01  2.10664E+00
 NY points of the fit to the data follow
  -7.18744E+01 -7.13572E+01 -7.11391E+01 -7.01082E+01 -6.97441E+01 -6.84910E+01 -6.81255E+01 -6.69827E+01 -6.70353E+01 -6.59183E+01
  -6.59034E+01 -6.43049E+01 -6.38991E+01 -6.23635E+01 -6.14673E+01 -6.02781E+01 -5.93613E+01 -5.86762E+01 -5.80089E+01 -5.73464E+01
  -5.68339E+01 -5.60067E+01 -5.51558E+01 -5.43140E+01 -5.31103E+01 -5.23011E+01 -5.12801E+01 -5.09069E+01 -5.04096E+01 -5.01581E+01
  -4.96928E+01 -4.93248E+01 -4.81174E+01 -4.72156E+01 -4.58894E+01 -4.52299E+01 -4.48183E+01 -4.46733E+01 -4.50549E+01 -4.49062E+01
  -4.48297E+01 -4.43589E+01 -4.35504E+01 -4.28017E+01 -4.19669E+01 -4.14502E+01 -4.10945E+01 -4.06050E+01 -4.05116E+01 -4.01604E+01
  -4.00885E+01 -3.97619E+01 -3.97705E+01 -3.95356E+01 -3.94491E+01 -3.90977E+01 -3.89195E+01 -3.83865E+01 -3.80865E+01 -3.75385E+01
  -3.73602E+01 -3.67895E+01 -3.66625E+01 -3.61995E+01 -3.60955E+01 -3.56614E+01 -3.54998E+01 -3.50710E+01 -3.47811E+01 -3.42022E+01
  -3.38534E+01 -3.32804E+01 -3.29195E+01 -3.24954E+01 -3.21772E+01 -3.18871E+01 -3.15296E+01 -3.12924E+01 -3.09014E+01 -3.07339E+01
  -3.04064E+01 -3.02702E+01 -2.99381E+01 -2.97998E+01 -2.94158E+01 -2.91028E+01 -2.85095E+01 -2.82642E+01 -2.76320E+01 -2.73687E+01
  -2.66243E+01 -2.65437E+01 -2.57578E+01 -2.55757E+01 -2.44801E+01 -2.42014E+01 -2.27753E+01 -2.28357E+01 -2.14070E+01 -2.18265E+01
  -2.04789E+01 -2.10776E+01 -1.97508E+01 -2.01388E+01 -1.85752E+01 -1.92692E+01 -1.78459E+01 -1.90642E+01 -1.80005E+01 -1.92878E+01
  -1.86389E+01 -1.94658E+01 -1.88667E+01 -1.89031E+01 -1.82266E+01 -1.82262E+01 -1.76562E+01 -1.74486E+01 -1.69617E+01 -1.64394E+01
  -1.61306E+01 -1.54489E+01 -1.52604E+01 -1.46998E+01 -1.46378E+01 -1.39843E+01 -1.38040E+01 -1.28997E+01 -1.27956E+01 -1.22112E+01
  -1.23814E+01 -1.24540E+01 -1.28459E+01 -1.34241E+01 -1.37852E+01 -1.42961E+01 -1.44791E+01 -1.46767E+01 -1.47867E+01 -1.50154E+01
  -1.50962E+01 -1.53314E+01 -1.53596E+01 -1.56599E+01 -1.56119E+01 -1.57969E+01 -1.57459E+01 -1.59787E+01 -1.58984E+01 -1.59058E+01
  -1.57762E+01 -1.57167E+01 -1.55860E+01 -1.55472E+01 -1.54243E+01 -1.53827E+01 -1.52675E+01 -1.52221E+01 -1.51374E+01 -1.50853E+01
  -1.50285E+01 -1.49970E+01 -1.49574E+01 -1.49219E+01 -1.48525E+01 -1.47905E+01 -1.47317E+01 -1.46736E+01 -1.46382E+01 -1.46067E+01
  -1.45514E+01 -1.45605E+01 -1.44527E+01 -1.44636E+01 -1.42867E+01 -1.42842E+01 -1.41157E+01 -1.41191E+01 -1.39579E+01 -1.40066E+01
  -1.38483E+01 -1.38932E+01 -1.37122E+01 -1.37037E+01 -1.34830E+01 -1.33862E+01 -1.32095E+01 -1.29743E+01 -1.27712E+01 -1.25021E+01
  -1.23258E+01 -1.19942E+01 -1.19843E+01 -1.16036E+01 -1.17194E+01 -1.13308E+01 -1.17563E+01 -1.12288E+01 -1.13602E+01 -1.09058E+01
  -1.09671E+01 -1.04556E+01 -1.03899E+01 -9.95663E+00 -9.94293E+00 -9.63792E+00 -9.46249E+00 -9.62086E+00 -9.46420E+00 -1.02518E+01
  -1.03136E+01 -1.10530E+01 -1.07687E+01 -1.11180E+01 -1.00914E+01 -1.00246E+01 -8.12315E+00 -8.45512E+00 -7.23644E+00 -8.11172E+00
  -8.03394E+00 -9.05748E+00 -9.66731E+00 -9.98231E+00 -9.91219E+00 -9.34326E+00 -8.48228E+00 -7.52848E+00 -6.96913E+00 -6.32602E+00
  -6.17981E+00 -6.19156E+00 -6.66805E+00 -6.93915E+00 -7.01383E+00 -7.47688E+00 -7.38461E+00 -7.64935E+00 -7.03500E+00 -7.35789E+00
  -6.55329E+00 -7.06141E+00 -5.84800E+00 -6.83392E+00 -5.66015E+00 -6.80691E+00 -5.32829E+00 -6.03056E+00 -4.59479E+00 -4.71284E+00
  -3.23844E+00 -2.82993E+00 -1.18497E+00 -6.59640E-01  5.40234E-01  1.07548E+00  1.77323E+00  2.09259E+00  2.22141E+00  2.65780E+00
   2.97395E+00  3.52218E+00  3.48515E+00  3.97275E+00  3.06101E+00  3.03193E+00  1.41379E+00  1.07878E+00 -3.99367E-01 -6.31255E-01
  -1.45604E+00 -1.52721E+00 -2.29263E+00 -2.38853E+00 -3.09124E+00 -3.25195E+00 -3.95958E+00 -4.10380E+00 -4.46086E+00 -4.57978E+00
  -4.96239E+00 -5.06764E+00 -5.14021E+00 -5.17147E+00 -5.17818E+00 -5.16718E+00 -5.12224E+00 -5.10930E+00 -5.06418E+00 -5.05481E+00
  -5.02895E+00 -5.02302E+00 -4.99252E+00 -4.98433E+00 -4.95352E+00 -4.92627E+00 -4.87941E+00 -4.83490E+00 -4.78094E+00 -4.72745E+00
  -4.66354E+00 -4.60216E+00 -4.53387E+00 -4.46595E+00 -4.38892E+00 -4.31277E+00 -4.22686E+00 -4.14139E+00 -4.04355E+00 -3.94792E+00
  -3.83839E+00 -3.72990E+00 -3.60612E+00 -3.48258E+00 -3.34246E+00 -3.20151E+00 -3.04280E+00 -2.88225E+00 -2.70279E+00 -2.52056E+00
  -2.31832E+00 -2.11199E+00 -1.88483E+00 -1.65227E+00 -1.39701E+00 -1.13317E+00 -8.41806E-01 -5.32509E-01 -1.76159E-01  2.47536E-01
   7.82786E-01  1.12926E+00  1.64531E+00  1.94258E+00  2.49560E+00  2.48588E+00  2.75298E+00  2.68146E+00  3.23101E+00  3.07116E+00
   3.74543E+00  3.17631E+00  3.85540E+00  3.03675E+00  3.46732E+00  2.50785E+00  3.12779E+00  2.30820E+00  3.64203E+00  2.49147E+00
   3.52369E+00  1.99433E+00  2.45308E+00  9.90730E-01  1.31341E+00  4.95177E-01  1.92703E+00  1.70221E+00  3.62548E+00  3.25040E+00
   4.35451E+00  3.69878E+00  3.74641E+00  2.94064E+00  2.66659E+00  2.16506E+00  2.40861E+00  2.09547E+00  2.26470E+00  2.11241E+00
   2.22564E+00  1.97158E+00  1.70732E+00  1.41642E+00  1.21379E+00  9.92455E-01  6.98216E-01  5.22198E-01  4.19768E-01  3.45815E-01
   3.05438E-01  2.77036E-01  2.73456E-01  2.76497E-01  3.00814E-01  3.29223E-01  3.76985E-01  4.27211E-01  4.95293E-01  5.64314E-01
   6.49559E-01  7.33891E-01  8.32311E-01  9.27314E-01  1.03353E+00  1.13307E+00  1.24023E+00  1.33684E+00  1.43702E+00  1.52251E+00
   1.60753E+00  1.67405E+00  1.73670E+00  1.77798E+00  1.81319E+00  1.82560E+00  1.83138E+00  1.81464E+00  1.79243E+00  1.74964E+00
   1.70399E+00  1.64091E+00  1.57855E+00  1.50256E+00  1.43116E+00  1.34991E+00  1.27682E+00  1.19712E+00  1.12842E+00  1.05546E+00
   9.95398E-01  9.32481E-01  8.83419E-01  8.32029E-01  7.94684E-01  7.54879E-01  7.28765E-01  6.99637E-01  6.83534E-01  6.63660E-01
   6.56027E-01  6.43826E-01  6.43096E-01  6.37057E-01  6.41807E-01  6.40614E-01  6.49646E-01  6.52220E-01  6.64571E-01  6.70066E-01
   6.84993E-01  6.92760E-01  7.09707E-01  7.19271E-01  7.37826E-01  7.48830E-01  7.68692E-01  7.80880E-01  8.01831E-01  8.15008E-01
   8.36864E-01  8.50855E-01  8.73461E-01  8.88132E-01  9.11370E-01  9.26614E-01  9.50393E-01  9.66131E-01  9.90377E-01  1.00654E+00
   1.03119E+00  1.04773E+00  1.07274E+00  1.08961E+00  1.11494E+00  1.13210E+00  1.15773E+00  1.17517E+00  1.20108E+00  1.21878E+00
   1.24493E+00  1.26287E+00  1.28926E+00  1.30743E+00  1.33406E+00  1.35246E+00  1.37932E+00  1.39795E+00  1.42505E+00  1.44392E+00
   1.47127E+00  1.49038E+00  1.51800E+00  1.53738E+00  1.56528E+00  1.58497E+00  1.61320E+00  1.63323E+00  1.66185E+00  1.68229E+00
   1.71136E+00  1.73230E+00  1.76194E+00  1.78352E+00  1.81390E+00  1.83633E+00  1.86770E+00  1.89131E+00
 NY background values follow
    -7.399E+01   -7.340E+01   -7.282E+01   -7.223E+01   -7.164E+01   -7.106E+01   -7.047E+01   -6.989E+01   -6.930E+01   -6.872E+01
    -6.814E+01   -6.755E+01   -6.697E+01   -6.639E+01   -6.581E+01   -6.523E+01   -6.466E+01   -6.408E+01   -6.350E+01   -6.293E+01
    -6.236E+01   -6.179E+01   -6.122E+01   -6.065E+01   -6.009E+01   -5.952E+01   -5.896E+01   -5.840E+01   -5.784E+01   -5.729E+01
    -5.673E+01   -5.618E+01   -5.563E+01   -5.509E+01   -5.454E+01   -5.400E+01   -5.346E+01   -5.293E+01   -5.239E+01   -5.186E+01
    -5.134E+01   -5.081E+01   -5.029E+01   -4.977E+01   -4.926E+01   -4.875E+01   -4.824E+01   -4.774E+01   -4.724E+01   -4.674E+01
    -4.625E+01   -4.576E+01   -4.527E+01   -4.479E+01   -4.431E+01   -4.384E+01   -4.337E+01   -4.290E+01   -4.244E+01   -4.198E+01
    -4.153E+01   -4.108E+01   -4.063E+01   -4.019E+01   -3.975E+01   -3.932E+01   -3.889E+01   -3.846E+01   -3.804E+01   -3.762E+01
    -3.720E+01   -3.679E+01   -3.638E+01   -3.598E+01   -3.558E+01   -3.518E+01   -3.479E+01   -3.440E+01   -3.401E+01   -3.363E+01
    -3.326E+01   -3.288E+01   -3.251E+01   -3.215E+01   -3.179E+01   -3.143E+01   -3.108E+01   -3.073E+01   -3.038E+01   -3.004E+01
    -2.970E+01   -2.937E+01   -2.904E+01   -2.871E+01   -2.839E+01   -2.807E+01   -2.776E+01   -2.745E+01   -2.714E+01   -2.684E+01
    -2.654E+01   -2.624E+01   -2.595E+01   -2.566E+01   -2.538E+01   -2.510E+01   -2.482E+01   -2.455E+01   -2.428E+01   -2.402E+01
    -2.375E+01   -2.350E+01   -2.324E+01   -2.299E+01   -2.274E+01   -2.250E+01   -2.226E+01   -2.202E+01   -2.178E+01   -2.155E+01
    -2.132E+01   -2.110E+01   -2.088E+01   -2.066E+01   -2.044E+01   -2.023E+01   -2.002E+01   -1.981E+01   -1.961E+01   -1.941E+01
    -1.921E+01   -1.902E+01   -1.882E+01   -1.863E+01   -1.845E+01   -1.826E+01   -1.808E+01   -1.790E+01   -1.772E+01   -1.755E+01
    -1.738E+01   -1.721E+01   -1.704E+01   -1.688E+01   -1.672E+01   -1.656E+01   -1.640E+01   -1.624E+01   -1.609E+01   -1.594E+01
    -1.579E+01   -1.564E+01   -1.550E+01   -1.536E+01   -1.522E+01   -1.508E+01   -1.494E+01   -1.481E+01   -1.467E+01   -1.454E+01
    -1.442E+01   -1.429E+01   -1.416E+01   -1.404E+01   -1.392E+01   -1.380E+01   -1.368E+01   -1.356E+01   -1.345E+01   -1.334E+01
    -1.323E+01   -1.312E+01   -1.301E+01   -1.290E+01   -1.280E+01   -1.270E+01   -1.259E+01   -1.249E+01   -1.240E+01   -1.230E+01
    -1.220E+01   -1.211E+01   -1.202E+01   -1.193E+01   -1.184E+01   -1.175E+01   -1.166E+01   -1.158E+01   -1.149E+01   -1.141E+01
    -1.133E+01   -1.124E+01   -1.116E+01   -1.109E+01   -1.101E+01   -1.093E+01   -1.086E+01   -1.078E+01   -1.071E+01   -1.064E+01
    -1.057E+01   -1.050E+01   -1.043E+01   -1.036E+01   -1.029E+01   -1.023E+01   -1.016E+01   -1.010E+01   -1.003E+01   -9.972E+00
    -9.911E+00   -9.850E+00   -9.790E+00   -9.731E+00   -9.673E+00   -9.616E+00   -9.559E+00   -9.503E+00   -9.448E+00   -9.394E+00
    -9.340E+00   -9.287E+00   -9.235E+00   -9.184E+00   -9.133E+00   -9.083E+00   -9.033E+00   -8.985E+00   -8.937E+00   -8.889E+00
    -8.842E+00   -8.796E+00   -8.750E+00   -8.705E+00   -8.660E+00   -8.616E+00   -8.572E+00   -8.529E+00   -8.486E+00   -8.444E+00
    -8.402E+00   -8.361E+00   -8.320E+00   -8.279E+00   -8.239E+00   -8.200E+00   -8.160E+00   -8.121E+00   -8.083E+00   -8.044E+00
    -8.006E+00   -7.969E+00   -7.931E+00   -7.894E+00   -7.857E+00   -7.820E+00   -7.784E+00   -7.747E+00   -7.711E+00   -7.675E+00
    -7.638E+00   -7.602E+00   -7.566E+00   -7.530E+00   -7.493E+00   -7.457E+00   -7.421E+00   -7.384E+00   -7.347E+00   -7.310E+00
    -7.273E+00   -7.236E+00   -7.198E+00   -7.160E+00   -7.122E+00   -7.084E+00   -7.045E+00   -7.006E+00   -6.966E+00   -6.926E+00
    -6.886E+00   -6.845E+00   -6.803E+00   -6.761E+00   -6.719E+00   -6.676E+00   -6.632E+00   -6.587E+00   -6.542E+00   -6.497E+00
    -6.450E+00   -6.403E+00   -6.355E+00   -6.306E+00   -6.257E+00   -6.206E+00   -6.155E+00   -6.103E+00   -6.050E+00   -5.996E+00
    -5.941E+00   -5.885E+00   -5.829E+00   -5.771E+00   -5.713E+00   -5.654E+00   -5.594E+00   -5.534E+00   -5.473E+00   -5.411E+00
    -5.349E+00   -5.286E+00   -5.223E+00   -5.159E+00   -5.094E+00   -5.029E+00   -4.964E+00   -4.898E+00   -4.832E+00   -4.766E+00
    -4.699E+00   -4.632E+00   -4.565E+00   -4.498E+00   -4.430E+00   -4.363E+00   -4.295E+00   -4.227E+00   -4.159E+00   -4.092E+00
    -4.024E+00   -3.956E+00   -3.888E+00   -3.821E+00   -3.753E+00   -3.686E+00   -3.619E+00   -3.552E+00   -3.486E+00   -3.419E+00
    -3.353E+00   -3.288E+00   -3.223E+00   -3.158E+00   -3.094E+00   -3.030E+00   -2.967E+00   -2.904E+00   -2.842E+00   -2.781E+00
    -2.720E+00   -2.659E+00   -2.600E+00   -2.541E+00   -2.482E+00   -2.424E+00   -2.367E+00   -2.310E+00   -2.254E+00   -2.199E+00
    -2.144E+00   -2.089E+00   -2.036E+00   -1.982E+00   -1.930E+00   -1.878E+00   -1.826E+00   -1.775E+00   -1.725E+00   -1.675E+00
    -1.626E+00   -1.578E+00   -1.529E+00   -1.482E+00   -1.435E+00   -1.389E+00   -1.343E+00   -1.297E+00   -1.253E+00   -1.208E+00
    -1.165E+00   -1.122E+00   -1.079E+00   -1.037E+00   -9.953E-01   -9.543E-01   -9.138E-01   -8.738E-01   -8.344E-01   -7.955E-01
    -7.571E-01   -7.192E-01   -6.818E-01   -6.449E-01   -6.086E-01   -5.727E-01   -5.373E-01   -5.025E-01   -4.682E-01   -4.343E-01
    -4.009E-01   -3.680E-01   -3.356E-01   -3.036E-01   -2.721E-01   -2.410E-01   -2.103E-01   -1.800E-01   -1.501E-01   -1.206E-01
    -9.148E-02   -6.274E-02   -3.435E-02   -6.304E-03    2.140E-02    4.878E-02    7.585E-02    1.026E-01    1.291E-01    1.553E-01
     1.812E-01    2.068E-01    2.322E-01    2.573E-01    2.823E-01    3.070E-01    3.314E-01    3.557E-01    3.798E-01    4.037E-01
     4.275E-01    4.511E-01    4.745E-01    4.978E-01    5.210E-01    5.440E-01    5.670E-01    5.898E-01    6.126E-01    6.353E-01
     6.579E-01    6.805E-01    7.030E-01    7.255E-01    7.480E-01    7.705E-01    7.929E-01    8.154E-01    8.379E-01    8.604E-01
     8.829E-01    9.054E-01    9.280E-01    9.506E-01    9.732E-01    9.958E-01    1.018E+00    1.041E+00    1.064E+00    1.086E+00
     1.109E+00    1.132E+00    1.154E+00    1.177E+00    1.200E+00    1.223E+00    1.245E+00    1.268E+00    1.291E+00    1.314E+00
     1.336E+00    1.359E+00    1.382E+00    1.405E+00    1.427E+00    1.450E+00    1.473E+00    1.496E+00    1.519E+00    1.541E+00
     1.564E+00    1.587E+00    1.610E+00    1.632E+00    1.655E+00    1.678E+00    1.701E+00    1.723E+00    1.746E+00    1.769E+00
     1.791E+00    1.814E+00    1.837E+00    1.859E+00    1.882E+00    1.905E+00    1.927E+00    1.950E+00
 Asp      Conc. = 1.90E+01
