 LCModel (Version 6.3-1L) Copyright: S.W. Provencher.          Ref.: Magn. Reson. Med. 30:672-679 (1993).                
 Slice#1 Row#8 Col#11  PD_05_press_1_raw_act
 36 lines in following concentration table = NCONC+1
    Conc.  %SD /Cr+PCr  Metabolite                                         
   19.122 282% 4.4E-02 Ala                                                 
    0.000 999%   0.000 Asp                                                 
  171.693  55%   0.395 Cr                                                  
  263.257  37%   0.605 PCr                                                 
    8.846 856% 2.0E-02 GABA                                                
   90.165  89%   0.207 Glc                                                 
  285.290  39%   0.656 Gln                                                 
  733.642  19%   1.687 Glu                                                 
  175.533   8%   0.404 GPC                                                 
    0.000 999%   0.000 PCh                                                 
  146.370  28%   0.337 GSH                                                 
  438.490  29%   1.008 Ins                                                 
   36.399 157% 8.4E-02 Lac                                                 
 1.41E+03   7%   3.236 NAA                                                 
  536.601  14%   1.234 NAAG                                                
   15.711  96% 3.6E-02 Scyllo                                              
  311.069  33%   0.715 Tau                                                 
  243.523  24%   0.560 -CrCH2                                              
  175.533   8%   0.404 GPC+PCh                                             
 1.94E+03   3%   4.469 NAA+NAAG                                            
  434.949   8%   1.000 Cr+PCr                                              
 1.02E+03  18%   2.343 Glu+Gln                                             
  147.213 199%   0.338 Lip13a                                              
    0.000 999%   0.000 Lip13b                                              
   32.878 311% 7.6E-02 Lip09                                               
 1.12E+03  14%   2.571 MM09                                                
   30.881 203% 7.1E-02 Lip20                                               
 2.07E+03  12%   4.769 MM20                                                
  298.771  47%   0.687 MM12                                                
  843.342  28%   1.939 MM14                                                
  504.800  27%   1.161 MM17                                                
  147.213 199%   0.338 Lip13a+Lip13b                                       
 1.29E+03  15%   2.964 MM14+Lip13a+Lip13b+MM12                             
 1.15E+03  10%   2.647 MM09+Lip09                                          
 2.11E+03  11%   4.840 MM20+Lip20                                          
   6 lines in following misc. output table
  FWHM = 0.031 ppm    S/N =  15                                            
  Data shift = 0.000 ppm                                                   
  Ph: -36 deg      -9.0 deg/ppm                                            
  alphaB,S = 8.5E+01,   5.0E+00                                            
   14 spline knots.   Ns = 6(1)                                            
   2 inflections.     1 extrema                                            
  498 points on ppm-axis = NY
      4.000000     3.992357     3.984714     3.977070     3.969427     3.961784     3.954141     3.946497     3.938854     3.931211
      3.923568     3.915925     3.908281     3.900638     3.892995     3.885352     3.877708     3.870065     3.862422     3.854779
      3.847136     3.839492     3.831849     3.824206     3.816563     3.808919     3.801276     3.793633     3.785990     3.778347
      3.770703     3.763060     3.755417     3.747774     3.740130     3.732487     3.724844     3.717201     3.709558     3.701914
      3.694271     3.686628     3.678985     3.671341     3.663698     3.656055     3.648412     3.640769     3.633125     3.625482
      3.617839     3.610196     3.602552     3.594909     3.587266     3.579623     3.571980     3.564336     3.556693     3.549050
      3.541407     3.533763     3.526120     3.518477     3.510834     3.503191     3.495547     3.487904     3.480261     3.472618
      3.464974     3.457331     3.449688     3.442045     3.434402     3.426758     3.419115     3.411472     3.403829     3.396185
      3.388542     3.380899     3.373256     3.365613     3.357969     3.350326     3.342683     3.335040     3.327396     3.319753
      3.312110     3.304467     3.296824     3.289180     3.281537     3.273894     3.266251     3.258607     3.250964     3.243321
      3.235678     3.228034     3.220391     3.212748     3.205105     3.197462     3.189818     3.182175     3.174532     3.166889
      3.159245     3.151602     3.143959     3.136316     3.128673     3.121029     3.113386     3.105743     3.098100     3.090456
      3.082813     3.075170     3.067527     3.059884     3.052240     3.044597     3.036954     3.029311     3.021667     3.014024
      3.006381     2.998738     2.991095     2.983451     2.975808     2.968165     2.960522     2.952878     2.945235     2.937592
      2.929949     2.922306     2.914662     2.907019     2.899376     2.891733     2.884089     2.876446     2.868803     2.861160
      2.853517     2.845873     2.838230     2.830587     2.822944     2.815300     2.807657     2.800014     2.792371     2.784728
      2.777084     2.769441     2.761798     2.754155     2.746511     2.738868     2.731225     2.723582     2.715939     2.708295
      2.700652     2.693009     2.685366     2.677722     2.670079     2.662436     2.654793     2.647150     2.639506     2.631863
      2.624220     2.616577     2.608933     2.601290     2.593647     2.586004     2.578361     2.570717     2.563074     2.555431
      2.547788     2.540144     2.532501     2.524858     2.517215     2.509572     2.501928     2.494285     2.486642     2.478999
      2.471355     2.463712     2.456069     2.448426     2.440783     2.433139     2.425496     2.417853     2.410210     2.402566
      2.394923     2.387280     2.379637     2.371994     2.364350     2.356707     2.349064     2.341421     2.333777     2.326134
      2.318491     2.310848     2.303205     2.295561     2.287918     2.280275     2.272632     2.264988     2.257345     2.249702
      2.242059     2.234416     2.226772     2.219129     2.211486     2.203843     2.196199     2.188556     2.180913     2.173270
      2.165627     2.157983     2.150340     2.142697     2.135054     2.127410     2.119767     2.112124     2.104481     2.096838
      2.089194     2.081551     2.073908     2.066265     2.058621     2.050978     2.043335     2.035692     2.028049     2.020405
      2.012762     2.005119     1.997476     1.989833     1.982190     1.974546     1.966903     1.959260     1.951617     1.943974
      1.936331     1.928688     1.921045     1.913402     1.905759     1.898115     1.890472     1.882829     1.875186     1.867543
      1.859900     1.852257     1.844614     1.836971     1.829327     1.821684     1.814041     1.806398     1.798755     1.791112
      1.783469     1.775826     1.768183     1.760540     1.752896     1.745253     1.737610     1.729967     1.722324     1.714681
      1.707038     1.699395     1.691752     1.684108     1.676465     1.668822     1.661179     1.653536     1.645893     1.638250
      1.630607     1.622964     1.615321     1.607677     1.600034     1.592391     1.584748     1.577105     1.569462     1.561819
      1.554176     1.546533     1.538890     1.531246     1.523603     1.515960     1.508317     1.500674     1.493031     1.485388
      1.477745     1.470102     1.462458     1.454815     1.447172     1.439529     1.431886     1.424243     1.416600     1.408957
      1.401314     1.393671     1.386027     1.378384     1.370741     1.363098     1.355455     1.347812     1.340169     1.332526
      1.324883     1.317240     1.309596     1.301953     1.294310     1.286667     1.279024     1.271381     1.263738     1.256095
      1.248452     1.240808     1.233165     1.225522     1.217879     1.210236     1.202593     1.194950     1.187307     1.179664
      1.172021     1.164377     1.156734     1.149091     1.141448     1.133805     1.126162     1.118519     1.110876     1.103233
      1.095590     1.087946     1.080303     1.072660     1.065017     1.057374     1.049731     1.042088     1.034445     1.026802
      1.019158     1.011515     1.003872     0.996229     0.988586     0.980943     0.973300     0.965657     0.958014     0.950371
      0.942727     0.935084     0.927441     0.919798     0.912155     0.904512     0.896869     0.889226     0.881583     0.873940
      0.866296     0.858653     0.851010     0.843367     0.835724     0.828081     0.820438     0.812795     0.805152     0.797508
      0.789865     0.782222     0.774579     0.766936     0.759293     0.751650     0.744007     0.736364     0.728721     0.721077
      0.713434     0.705791     0.698148     0.690505     0.682862     0.675219     0.667576     0.659933     0.652290     0.644646
      0.637003     0.629360     0.621717     0.614074     0.606431     0.598788     0.591145     0.583502     0.575858     0.568215
      0.560572     0.552929     0.545286     0.537643     0.530000     0.522357     0.514714     0.507071     0.499427     0.491784
      0.484141     0.476498     0.468855     0.461212     0.453569     0.445925     0.438282     0.430639     0.422996     0.415353
      0.407710     0.400067     0.392424     0.384780     0.377137     0.369494     0.361851     0.354208     0.346565     0.338922
      0.331278     0.323635     0.315992     0.308349     0.300706     0.293063     0.285420     0.277777     0.270133     0.262490
      0.254847     0.247204     0.239561     0.231918     0.224275     0.216631     0.208988     0.201345
 NY phased data points follow
   3.51833E+00  2.56954E+00  5.14343E+00  4.22088E+00  3.73620E+00  3.73012E+00  2.96535E+00  3.52224E+00  4.53530E+00  6.94297E+00
   1.53262E+00  6.66316E+00  7.72629E+00  7.58708E+00  6.61753E+00  5.01782E+00  6.22602E+00  2.80158E-01  2.69794E+00  5.33758E+00
   2.63361E+00 -1.45832E-01  1.22038E+00  1.45333E+00 -1.85974E+00  1.62551E+00  2.59992E+00  9.55970E-01  4.93723E+00 -1.55374E-01
   5.69073E+00  4.91544E+00  7.12267E+00  3.72883E+00  6.90828E+00  3.24344E+00  5.25771E+00  3.82631E+00  4.13094E+00  7.69108E+00
   5.00147E+00  4.01231E+00  1.20389E+00  5.16104E+00  5.35845E+00  5.89098E+00  7.41144E+00  7.16950E+00  6.55012E+00  6.02369E+00
   6.21154E+00  4.88213E+00  4.14559E+00  4.12156E+00  3.55076E+00  4.12358E+00  4.60962E+00  3.31529E+00  5.94569E+00  3.27678E+00
   3.42223E+00  2.79943E+00  4.78674E+00  2.34832E+00 -1.01540E-01  5.79615E-01  3.50901E+00  4.13269E+00  1.56470E-01 -4.65297E-01
   1.56196E+00  4.18399E-01  4.74533E+00  3.34573E+00  2.76839E+00  6.51541E+00  4.01050E+00  5.32064E+00  3.47320E+00  4.94696E+00
   1.47840E+00  1.62277E+00  4.05753E+00  2.10058E+00 -2.09113E-01  2.30265E+00  3.19950E+00 -5.06838E-02  1.43613E+00  5.13894E-01
   4.51157E+00  5.02585E+00  5.63470E+00  3.09126E+00  4.42026E+00  6.33421E+00  5.07228E+00  2.29018E+00  2.32901E+00  4.50226E+00
   9.76595E+00  1.25309E+01  1.84786E+01  2.37487E+01  2.43649E+01  2.03430E+01  1.42975E+01  1.26258E+01  7.18809E+00  8.12823E+00
   8.04178E+00  2.99028E+00  6.63941E+00  4.23651E+00  6.82320E+00  4.57986E+00  4.10364E+00  3.46531E+00  5.81910E+00  7.12317E+00
   4.80417E+00  6.08241E+00  9.59024E-01  1.50892E+00  6.20477E+00  1.01756E+01  1.46239E+01  2.05952E+01  2.07299E+01  2.45370E+01
   1.91579E+01  1.36358E+01  5.95283E+00  1.03740E+01  4.10076E+00  4.30060E+00  5.64098E+00  7.30979E+00  1.85099E+00  4.28184E+00
   3.69448E+00  2.93405E+00  3.62310E+00  3.76638E+00  4.30336E+00  2.92016E+00  4.20228E+00  1.16742E-01  5.16097E+00  4.34167E+00
   3.94567E+00  3.48673E+00  4.75961E+00  1.90929E+00  5.67770E+00  4.51065E+00  2.54674E+00  8.72317E+00  5.19782E+00  6.45214E+00
   2.76434E+00  5.32223E+00  4.20989E+00  2.59072E+00  1.19469E+00  2.52665E+00  3.09776E+00 -6.31829E+00  2.40984E+00 -2.95287E+00
  -4.49691E+00 -1.85449E+00 -3.87210E+00 -5.05182E+00 -8.68500E+00 -7.36015E+00 -8.82247E+00 -6.53290E+00 -6.86454E+00 -6.72879E+00
  -6.22893E+00 -2.11145E+00 -4.91124E+00 -4.21234E+00 -5.68112E+00 -1.21630E+00 -2.59402E+00 -4.59081E+00 -4.10720E+00 -1.61940E+00
  -1.26400E+00 -1.83400E+00  1.06045E-01  2.53030E+00 -3.75222E-01 -2.49751E+00 -2.11154E+00 -7.21996E+00 -7.94797E+00 -4.54107E+00
  -5.85334E+00 -3.39517E+00 -2.85780E+00 -3.00277E+00  3.85454E+00  3.59044E+00  5.21827E+00  1.61525E+00  5.61854E-01 -2.20283E+00
  -2.33109E+00  4.98059E-01  6.01562E-01  4.88748E+00  6.01759E+00  1.01423E+01  1.12581E+01  1.51027E+01  9.35827E+00  7.34135E+00
   5.69480E+00 -2.23169E-01  3.38400E-01 -2.38119E+00 -2.99509E-01  4.40958E-01  3.71136E+00  7.27517E+00  6.38384E+00  4.82956E+00
   5.30964E+00  6.53212E+00  5.84382E+00  5.54753E+00  8.02901E+00  7.97714E+00  8.53192E+00  6.72004E+00  7.20678E+00  7.92883E+00
   7.69391E+00  4.05024E+00  3.96857E+00  6.98306E-01  1.98610E+00  1.49038E+00  6.00460E+00  1.10633E+01  1.17739E+01  1.14566E+01
   9.90344E+00  1.13522E+01  1.55032E+01  1.83676E+01  2.45662E+01  3.21035E+01  3.89476E+01  4.59505E+01  5.07556E+01  5.92605E+01
   7.03862E+01  8.05212E+01  7.33020E+01  5.03606E+01  2.85548E+01  2.03977E+01  1.14095E+01  1.03104E+01  8.40094E+00  5.01059E+00
   7.72905E+00  3.74984E+00  9.21128E+00  3.48841E+00  3.31145E+00  2.97513E+00  2.10407E+00  6.93938E-01  3.32439E+00  1.61991E+00
   2.66547E+00  1.18941E+00  1.55398E+00  6.39793E+00  3.31078E+00  3.15511E+00  1.46788E+00  3.52698E-01  3.79309E+00  4.32981E+00
   1.10981E+00  2.76781E+00  1.47093E+00  1.37714E+00  3.27420E+00  2.41413E+00  3.31616E+00  1.74383E+00  6.52982E-01  3.82981E+00
   4.03914E+00  4.60917E+00  3.77837E+00  4.94381E+00  5.67702E+00  4.97918E+00  7.00618E+00  3.79387E+00  4.94860E+00  3.13152E+00
   5.30025E+00  5.73474E+00  5.33088E+00  1.00459E+01  5.57124E+00  4.85713E+00  3.38404E+00  6.14938E+00  4.85498E+00  5.63580E+00
   2.02556E+00  1.67173E+00  9.26399E-01  4.28299E+00  4.07451E+00  3.52001E+00  2.20453E+00  1.08565E+00  6.76784E+00  3.36957E+00
   3.08801E+00  2.49482E+00  3.68932E+00  4.00340E+00  6.16099E+00  8.15170E+00  7.60358E+00  3.12478E+00  8.99865E+00  4.91099E+00
   4.49223E+00  6.73124E+00  3.19080E+00  7.36721E+00  6.19113E+00  6.21217E+00  5.90770E+00  4.51423E+00  7.98845E+00  6.60369E+00
   3.67770E+00  2.43443E+00  2.86870E+00  4.95412E+00  4.50217E+00  5.06098E+00  4.35028E+00  9.91429E-01  6.41028E+00  4.41310E+00
   1.74615E+00  1.99971E+00  2.40736E+00  8.34646E-01  5.31468E+00  4.81064E+00  3.63452E+00  1.50139E+00  2.02618E+00  5.31009E+00
   5.79030E-01  3.90962E+00  3.09706E+00  2.77661E-01  1.98781E+00  4.49751E+00  2.51921E+00  3.00866E+00  3.24432E+00 -5.58930E-01
  -1.04569E+00  4.78114E+00  3.16917E+00  1.69559E+00  2.59289E+00  1.99418E+00  4.75006E-01  3.04981E+00  2.21346E+00  3.97600E+00
   3.65107E+00  3.15208E+00  5.81230E+00  6.43962E+00  3.38050E+00  6.87593E+00  7.07060E+00  4.31634E+00  5.77790E+00  8.94277E+00
   1.03627E+01  1.09522E+01  5.97224E+00  7.95978E+00  6.26430E+00  1.17451E+01  8.78261E+00  6.41515E+00  1.10464E+01  1.04726E+01
   9.67184E+00  7.44492E+00  6.73097E+00  5.05766E+00  6.50404E+00  7.63580E+00  2.73471E+00  6.53516E+00  4.06193E+00  3.51032E+00
   4.33026E+00  1.86890E-01  1.76279E+00 -2.62317E-01  1.10466E+00  2.50934E-03  1.85473E+00  1.63968E+00  2.02361E+00  2.05652E+00
   3.91660E+00  1.66256E-01  4.46070E+00  4.08928E-01  2.90188E+00  1.20870E+00 -5.05526E-01  7.16785E-01  1.67628E+00  6.20108E+00
  -1.14972E+00  1.95601E+00  3.02705E+00  1.89052E+00  3.42768E+00  1.97097E+00 -8.23591E-01  1.16791E-01  1.70995E+00 -9.59575E-01
  -2.85836E+00 -8.67546E-01  4.11907E-01  1.36939E+00  1.45871E+00  2.58511E+00 -9.13707E-01  1.92007E+00  1.22177E+00 -1.48609E+00
  -5.60949E-01 -3.40628E+00 -3.04551E-01 -2.05280E+00 -1.54215E+00  3.09470E+00  5.60856E-01 -1.59202E+00  1.42783E+00  1.77956E-03
  -2.73794E+00 -3.16882E+00 -2.11827E+00 -3.94542E+00 -3.87168E-01  2.80092E+00  4.36759E+00  1.22595E+00  9.47885E-01 -3.48957E+00
  -1.33691E+00 -9.38048E-01 -2.04219E+00  2.80113E-01 -1.41395E+00  7.11730E-01  1.01904E+00 -1.92537E+00  1.11727E+00 -6.77113E-01
  -2.66351E+00 -5.55559E-01 -1.45356E+00  2.36502E+00 -1.82223E+00  1.80195E-01 -1.06566E+00 -2.69771E+00
 NY points of the fit to the data follow
   2.22517E+00  1.97789E+00  1.96928E+00  1.93880E+00  2.11292E+00  2.42109E+00  2.85295E+00  3.06503E+00  3.69935E+00  4.51381E+00
   5.38126E+00  6.56536E+00  7.77257E+00  8.16289E+00  7.21845E+00  5.59630E+00  4.49186E+00  3.86411E+00  3.54488E+00  3.25543E+00
   3.03439E+00  3.10863E+00  3.08476E+00  3.14355E+00  3.23529E+00  2.84724E+00  2.61284E+00  2.73246E+00  3.02720E+00  3.90242E+00
   5.38611E+00  7.37296E+00  8.44011E+00  8.19325E+00  7.48008E+00  6.38181E+00  4.99393E+00  3.50760E+00  2.27216E+00  1.79486E+00
   1.83063E+00  2.23967E+00  2.80221E+00  3.41671E+00  4.06956E+00  4.71164E+00  5.59477E+00  6.72579E+00  7.36725E+00  6.94293E+00
   5.59322E+00  4.13804E+00  3.14284E+00  2.65378E+00  2.39430E+00  2.33060E+00  2.45196E+00  2.65178E+00  2.94547E+00  3.33762E+00
   3.77524E+00  3.99377E+00  3.73175E+00  3.32906E+00  2.81867E+00  2.59816E+00  2.73273E+00  2.91733E+00  3.09213E+00  3.20539E+00
   3.19637E+00  3.08629E+00  3.25095E+00  3.69035E+00  4.09288E+00  4.56963E+00  4.99702E+00  4.86283E+00  3.94798E+00  2.77312E+00
   1.97454E+00  1.69783E+00  1.99613E+00  2.57920E+00  2.98602E+00  3.06006E+00  2.90014E+00  2.51278E+00  1.95442E+00  1.47574E+00
   1.33167E+00  1.47190E+00  1.71410E+00  1.73252E+00  1.23573E+00  8.67018E-01  1.17491E+00  2.11401E+00  2.50280E+00  4.99409E+00
   8.61744E+00  1.27237E+01  1.83363E+01  2.38100E+01  2.57097E+01  2.16880E+01  1.46976E+01  9.67772E+00  6.82897E+00  5.71370E+00
   4.66779E+00  3.80867E+00  3.39948E+00  3.11681E+00  2.94766E+00  2.81843E+00  2.70566E+00  2.61938E+00  2.55273E+00  2.50781E+00
   2.57040E+00  3.06527E+00  3.16799E+00  3.73206E+00  6.29045E+00  9.70414E+00  1.44222E+01  1.98985E+01  2.35114E+01  2.24067E+01
   1.70311E+01  1.16458E+01  8.42394E+00  6.88249E+00  5.99499E+00  4.72752E+00  3.64579E+00  2.80564E+00  2.49174E+00  2.61410E+00
   3.01042E+00  3.45813E+00  3.73633E+00  3.77071E+00  3.54641E+00  3.21271E+00  2.95120E+00  2.73149E+00  2.57329E+00  2.46627E+00
   2.33320E+00  2.12816E+00  1.89325E+00  1.61974E+00  1.32535E+00  1.19005E+00  1.41925E+00  1.69634E+00  1.79130E+00  1.58745E+00
   7.91508E-01 -5.11426E-02 -5.01632E-01 -2.44558E-01  5.50674E-01  1.13982E+00  9.34288E-01 -7.55218E-04 -1.00935E+00 -1.59362E+00
  -1.77720E+00 -1.57809E+00 -1.38031E+00 -1.59140E+00 -2.07671E+00 -2.80896E+00 -3.30024E+00 -3.17903E+00 -2.46691E+00 -1.74422E+00
  -1.68505E+00 -2.26496E+00 -2.60147E+00 -2.41748E+00 -1.74586E+00 -1.16739E+00 -9.95734E-01 -8.90609E-01 -9.62019E-02  1.41816E+00
   2.94386E+00  3.82018E+00  3.86863E+00  3.51508E+00  2.70860E+00  1.87577E+00  1.43155E+00  1.28430E+00  1.30408E+00  1.39089E+00
   2.05432E+00  3.14306E+00  4.00794E+00  4.79690E+00  5.18397E+00  5.12585E+00  3.99539E+00  2.07333E+00  1.85114E-01 -1.66154E+00
  -2.72193E+00 -2.69480E+00 -1.91190E+00 -1.71961E-01  1.75063E+00  4.21212E+00  6.60878E+00  7.75897E+00  7.08877E+00  4.53700E+00
   1.51168E+00 -7.78983E-01 -2.49024E+00 -3.23010E+00 -2.57550E+00 -2.09108E-01  2.77095E+00  4.90588E+00  5.80406E+00  5.93784E+00
   5.70673E+00  5.26976E+00  4.70138E+00  4.54070E+00  5.03955E+00  5.77898E+00  6.47343E+00  7.15548E+00  7.66522E+00  7.72165E+00
   7.18575E+00  6.25586E+00  5.36425E+00  4.95513E+00  5.38292E+00  6.58312E+00  8.01898E+00  9.09261E+00  9.60256E+00  1.01469E+01
   1.06444E+01  1.04547E+01  1.30662E+01  1.73978E+01  2.48106E+01  3.15079E+01  3.82101E+01  4.70169E+01  5.14095E+01  5.85633E+01
   7.11339E+01  7.93664E+01  7.25155E+01  5.05986E+01  3.06640E+01  1.94688E+01  1.40474E+01  1.13439E+01  8.33566E+00  7.06026E+00
   6.35503E+00  5.93855E+00  5.66011E+00  5.46412E+00  5.29451E+00  5.10081E+00  4.77932E+00  4.31391E+00  3.83909E+00  3.53776E+00
   3.36647E+00  3.23389E+00  3.14086E+00  3.11289E+00  3.10469E+00  3.04072E+00  2.90548E+00  2.75124E+00  2.63104E+00  2.55636E+00
   2.53452E+00  2.60192E+00  2.76421E+00  2.97014E+00  3.14622E+00  3.26256E+00  3.36405E+00  3.46747E+00  3.57599E+00  3.69678E+00
   3.85920E+00  4.07725E+00  4.31227E+00  4.52593E+00  4.71061E+00  4.85911E+00  4.97550E+00  5.05358E+00  5.09343E+00  5.10023E+00
   5.07385E+00  5.01867E+00  4.93591E+00  4.83164E+00  4.70978E+00  4.58010E+00  4.44916E+00  4.32581E+00  4.21389E+00  4.12137E+00
   4.05346E+00  4.01702E+00  3.99615E+00  4.03379E+00  4.11365E+00  4.20251E+00  4.30238E+00  4.37494E+00  4.37645E+00  4.32826E+00
   4.28746E+00  4.34046E+00  4.49222E+00  4.68252E+00  4.90296E+00  5.17113E+00  5.45621E+00  5.66134E+00  5.72627E+00  5.71389E+00
   5.68798E+00  5.67039E+00  5.62701E+00  5.60611E+00  5.62505E+00  5.59938E+00  5.54210E+00  5.39319E+00  5.07284E+00  4.60962E+00
   4.09490E+00  3.77896E+00  3.67206E+00  3.66196E+00  3.75251E+00  3.94388E+00  4.16984E+00  4.24190E+00  4.10106E+00  3.89641E+00
   3.70935E+00  3.57053E+00  3.45039E+00  3.33259E+00  3.22903E+00  3.13479E+00  3.04463E+00  2.95862E+00  2.87420E+00  2.79302E+00
   2.71411E+00  2.64031E+00  2.57097E+00  2.50871E+00  2.45293E+00  2.40688E+00  2.37083E+00  2.34839E+00  2.33956E+00  2.34752E+00
   2.37241E+00  2.41808E+00  2.48528E+00  2.57782E+00  2.69586E+00  2.84271E+00  3.01855E+00  3.22681E+00  3.46720E+00  3.74173E+00
   4.04818E+00  4.38672E+00  4.75353E+00  5.14689E+00  5.56031E+00  5.98877E+00  6.42261E+00  6.85441E+00  7.27286E+00  7.66918E+00
   8.03084E+00  8.34847E+00  8.61030E+00  8.80925E+00  8.93695E+00  8.99009E+00  8.96426E+00  8.86056E+00  8.67971E+00  8.42820E+00
   8.11162E+00  7.74014E+00  7.32187E+00  6.86883E+00  6.39053E+00  5.89951E+00  5.40455E+00  4.91617E+00  4.44047E+00  3.98529E+00
   3.55428E+00  3.15273E+00  2.78137E+00  2.44247E+00  2.13425E+00  1.85733E+00  1.60894E+00  1.38882E+00  1.19316E+00  1.02084E+00
   8.67870E-01  7.33544E-01  6.14474E-01  5.10201E-01  4.17279E-01  3.35315E-01  2.61407E-01  1.95977E-01  1.36718E-01  8.41280E-02
   3.57565E-02 -7.79069E-03 -4.84236E-02 -8.49507E-02 -1.19094E-01 -1.49917E-01 -1.79373E-01 -2.06358E-01 -2.32330E-01 -2.55852E-01
  -2.78496E-01 -2.99201E-01 -3.19675E-01 -3.38573E-01 -3.57165E-01 -3.74000E-01 -3.90648E-01 -4.06008E-01 -4.21616E-01 -4.36002E-01
  -4.50381E-01 -4.63378E-01 -4.76583E-01 -4.88846E-01 -5.01552E-01 -5.13159E-01 -5.24901E-01 -5.35510E-01 -5.46578E-01 -5.56882E-01
  -5.67683E-01 -5.77431E-01 -5.87419E-01 -5.96465E-01 -6.06122E-01 -6.15075E-01 -6.24492E-01 -6.32877E-01 -6.41607E-01 -6.49556E-01
  -6.58196E-01 -6.66124E-01 -6.74465E-01 -6.81808E-01 -6.89596E-01 -6.96714E-01 -7.04528E-01 -7.11570E-01 -7.18970E-01 -7.25421E-01
  -7.32408E-01 -7.38783E-01 -7.45794E-01 -7.51946E-01 -7.58408E-01 -7.63975E-01 -7.70124E-01 -7.75637E-01
 NY background values follow
     1.904E+00    1.900E+00    1.895E+00    1.890E+00    1.885E+00    1.880E+00    1.875E+00    1.870E+00    1.866E+00    1.861E+00
     1.856E+00    1.851E+00    1.846E+00    1.841E+00    1.836E+00    1.832E+00    1.827E+00    1.822E+00    1.817E+00    1.812E+00
     1.807E+00    1.802E+00    1.797E+00    1.792E+00    1.788E+00    1.783E+00    1.778E+00    1.773E+00    1.768E+00    1.763E+00
     1.758E+00    1.753E+00    1.748E+00    1.743E+00    1.738E+00    1.734E+00    1.729E+00    1.724E+00    1.719E+00    1.714E+00
     1.709E+00    1.704E+00    1.699E+00    1.694E+00    1.689E+00    1.684E+00    1.679E+00    1.674E+00    1.669E+00    1.665E+00
     1.660E+00    1.655E+00    1.650E+00    1.645E+00    1.640E+00    1.635E+00    1.630E+00    1.625E+00    1.620E+00    1.615E+00
     1.610E+00    1.605E+00    1.600E+00    1.595E+00    1.590E+00    1.585E+00    1.580E+00    1.575E+00    1.570E+00    1.565E+00
     1.560E+00    1.555E+00    1.550E+00    1.545E+00    1.540E+00    1.535E+00    1.530E+00    1.525E+00    1.520E+00    1.515E+00
     1.510E+00    1.505E+00    1.500E+00    1.495E+00    1.490E+00    1.485E+00    1.480E+00    1.475E+00    1.470E+00    1.465E+00
     1.460E+00    1.455E+00    1.450E+00    1.445E+00    1.440E+00    1.435E+00    1.430E+00    1.425E+00    1.420E+00    1.415E+00
     1.410E+00    1.405E+00    1.400E+00    1.395E+00    1.390E+00    1.385E+00    1.380E+00    1.375E+00    1.370E+00    1.365E+00
     1.360E+00    1.355E+00    1.350E+00    1.344E+00    1.339E+00    1.334E+00    1.329E+00    1.324E+00    1.319E+00    1.314E+00
     1.309E+00    1.304E+00    1.299E+00    1.294E+00    1.289E+00    1.284E+00    1.279E+00    1.274E+00    1.269E+00    1.263E+00
     1.258E+00    1.253E+00    1.248E+00    1.243E+00    1.238E+00    1.233E+00    1.228E+00    1.223E+00    1.218E+00    1.213E+00
     1.208E+00    1.202E+00    1.197E+00    1.192E+00    1.187E+00    1.182E+00    1.177E+00    1.172E+00    1.167E+00    1.162E+00
     1.157E+00    1.151E+00    1.146E+00    1.141E+00    1.136E+00    1.131E+00    1.126E+00    1.121E+00    1.116E+00    1.111E+00
     1.105E+00    1.100E+00    1.095E+00    1.090E+00    1.085E+00    1.080E+00    1.075E+00    1.070E+00    1.065E+00    1.059E+00
     1.054E+00    1.049E+00    1.044E+00    1.039E+00    1.034E+00    1.029E+00    1.023E+00    1.018E+00    1.013E+00    1.008E+00
     1.003E+00    9.978E-01    9.927E-01    9.875E-01    9.824E-01    9.772E-01    9.721E-01    9.670E-01    9.618E-01    9.567E-01
     9.515E-01    9.464E-01    9.412E-01    9.361E-01    9.309E-01    9.258E-01    9.206E-01    9.155E-01    9.103E-01    9.052E-01
     9.000E-01    8.949E-01    8.897E-01    8.846E-01    8.794E-01    8.742E-01    8.691E-01    8.639E-01    8.588E-01    8.536E-01
     8.484E-01    8.433E-01    8.381E-01    8.329E-01    8.278E-01    8.226E-01    8.174E-01    8.123E-01    8.071E-01    8.019E-01
     7.968E-01    7.916E-01    7.864E-01    7.812E-01    7.761E-01    7.709E-01    7.657E-01    7.606E-01    7.554E-01    7.502E-01
     7.450E-01    7.398E-01    7.347E-01    7.295E-01    7.243E-01    7.191E-01    7.139E-01    7.088E-01    7.036E-01    6.984E-01
     6.932E-01    6.880E-01    6.828E-01    6.777E-01    6.725E-01    6.673E-01    6.621E-01    6.569E-01    6.517E-01    6.465E-01
     6.413E-01    6.362E-01    6.310E-01    6.258E-01    6.206E-01    6.154E-01    6.102E-01    6.050E-01    5.998E-01    5.946E-01
     5.894E-01    5.842E-01    5.790E-01    5.738E-01    5.686E-01    5.634E-01    5.582E-01    5.530E-01    5.478E-01    5.427E-01
     5.375E-01    5.323E-01    5.271E-01    5.219E-01    5.167E-01    5.115E-01    5.063E-01    5.011E-01    4.958E-01    4.906E-01
     4.854E-01    4.802E-01    4.750E-01    4.698E-01    4.646E-01    4.594E-01    4.542E-01    4.490E-01    4.438E-01    4.386E-01
     4.334E-01    4.282E-01    4.230E-01    4.178E-01    4.126E-01    4.074E-01    4.022E-01    3.970E-01    3.918E-01    3.865E-01
     3.813E-01    3.761E-01    3.709E-01    3.657E-01    3.605E-01    3.553E-01    3.501E-01    3.449E-01    3.397E-01    3.345E-01
     3.292E-01    3.240E-01    3.188E-01    3.136E-01    3.084E-01    3.032E-01    2.980E-01    2.928E-01    2.876E-01    2.824E-01
     2.771E-01    2.719E-01    2.667E-01    2.615E-01    2.563E-01    2.511E-01    2.459E-01    2.407E-01    2.355E-01    2.303E-01
     2.250E-01    2.198E-01    2.146E-01    2.094E-01    2.042E-01    1.990E-01    1.938E-01    1.886E-01    1.834E-01    1.781E-01
     1.729E-01    1.677E-01    1.625E-01    1.573E-01    1.521E-01    1.469E-01    1.417E-01    1.365E-01    1.312E-01    1.260E-01
     1.208E-01    1.156E-01    1.104E-01    1.052E-01    9.999E-02    9.478E-02    8.957E-02    8.436E-02    7.915E-02    7.394E-02
     6.873E-02    6.352E-02    5.832E-02    5.311E-02    4.790E-02    4.269E-02    3.749E-02    3.228E-02    2.707E-02    2.187E-02
     1.666E-02    1.145E-02    6.246E-03    1.041E-03   -4.165E-03   -9.370E-03   -1.457E-02   -1.978E-02   -2.498E-02   -3.019E-02
    -3.539E-02   -4.060E-02   -4.580E-02   -5.100E-02   -5.620E-02   -6.141E-02   -6.661E-02   -7.181E-02   -7.701E-02   -8.221E-02
    -8.741E-02   -9.261E-02   -9.781E-02   -1.030E-01   -1.082E-01   -1.134E-01   -1.186E-01   -1.238E-01   -1.290E-01   -1.342E-01
    -1.394E-01   -1.446E-01   -1.498E-01   -1.550E-01   -1.602E-01   -1.654E-01   -1.706E-01   -1.758E-01   -1.810E-01   -1.861E-01
    -1.913E-01   -1.965E-01   -2.017E-01   -2.069E-01   -2.121E-01   -2.173E-01   -2.225E-01   -2.277E-01   -2.329E-01   -2.380E-01
    -2.432E-01   -2.484E-01   -2.536E-01   -2.588E-01   -2.640E-01   -2.691E-01   -2.743E-01   -2.795E-01   -2.847E-01   -2.899E-01
    -2.951E-01   -3.002E-01   -3.054E-01   -3.106E-01   -3.158E-01   -3.210E-01   -3.261E-01   -3.313E-01   -3.365E-01   -3.417E-01
    -3.468E-01   -3.520E-01   -3.572E-01   -3.624E-01   -3.675E-01   -3.727E-01   -3.779E-01   -3.830E-01   -3.882E-01   -3.934E-01
    -3.985E-01   -4.037E-01   -4.089E-01   -4.140E-01   -4.192E-01   -4.244E-01   -4.295E-01   -4.347E-01   -4.398E-01   -4.450E-01
    -4.502E-01   -4.553E-01   -4.605E-01   -4.656E-01   -4.708E-01   -4.760E-01   -4.811E-01   -4.863E-01   -4.914E-01   -4.966E-01
    -5.017E-01   -5.069E-01   -5.120E-01   -5.172E-01   -5.223E-01   -5.275E-01   -5.326E-01   -5.378E-01   -5.429E-01   -5.480E-01
    -5.532E-01   -5.583E-01   -5.635E-01   -5.686E-01   -5.737E-01   -5.789E-01   -5.840E-01   -5.891E-01   -5.943E-01   -5.994E-01
    -6.045E-01   -6.097E-01   -6.148E-01   -6.199E-01   -6.251E-01   -6.302E-01   -6.353E-01   -6.404E-01
 Ala      Conc. = 1.91E+01
