 LCModel (Version 6.3-1L) Copyright: S.W. Provencher.          Ref.: Magn. Reson. Med. 30:672-679 (1993).                
 Slice#3 Row#13 Col#1  PD_05_press_1_raw_act
 36 lines in following concentration table = NCONC+1
    Conc.  %SD /Cr+PCr  Metabolite                                         
    0.000 999%   0.000 Ala                                                 
    9.488  44%   0.000 Asp                                                 
    0.000 999%   0.000 Cr                                                  
    0.000 999%   0.000 PCr                                                 
    5.825  43%   0.000 GABA                                                
    5.766  43%   0.000 Glc                                                 
 2.05E+03  13%   0.000 Gln                                                 
    0.000 999%   0.000 Glu                                                 
    0.000 999%   0.000 GPC                                                 
   21.790  46%   0.000 PCh                                                 
    0.000 999%   0.000 GSH                                                 
  181.752  68%   0.000 Ins                                                 
    0.000 999%   0.000 Lac                                                 
  126.555  55%   0.000 NAA                                                 
    0.000 999%   0.000 NAAG                                                
    1.980  42%   0.000 Scyllo                                              
    9.816  42%   0.000 Tau                                                 
    0.000 999%   0.000 -CrCH2                                              
   21.790  46%   0.000 GPC+PCh                                             
  126.555  29%   0.000 NAA+NAAG                                            
    0.000 999%   0.000 Cr+PCr                                              
 2.05E+03  13%   0.000 Glu+Gln                                             
    0.000 999%   0.000 Lip13a                                              
    0.000 999%   0.000 Lip13b                                              
    0.000 999%   0.000 Lip09                                               
  414.255  17%   0.000 MM09                                                
 2.63E-02 999%   0.000 Lip20                                               
  696.868  15%   0.000 MM20                                                
  115.054  21%   0.000 MM12                                                
  337.725  20%   0.000 MM14                                                
  239.111  18%   0.000 MM17                                                
    0.000 999%   0.000 Lip13a+Lip13b                                       
  452.780  19%   0.000 MM14+Lip13a+Lip13b+MM12                             
  414.255  17%   0.000 MM09+Lip09                                          
  696.894  15%   0.000 MM20+Lip20                                          
   6 lines in following misc. output table
  FWHM = 0.153 ppm    S/N =   2                                            
  Data shift =-0.122 ppm                                                   
  Ph:-154 deg      24.6 deg/ppm                                            
  alphaB,S = 7.3E-01,   3.4E+02                                            
    9 spline knots.   Ns = 9(2)                                            
  (13) 2 infls.   (13) 1 extrs.                                            
  498 points on ppm-axis = NY
      4.000000     3.992357     3.984714     3.977070     3.969427     3.961784     3.954141     3.946497     3.938854     3.931211
      3.923568     3.915925     3.908281     3.900638     3.892995     3.885352     3.877708     3.870065     3.862422     3.854779
      3.847136     3.839492     3.831849     3.824206     3.816563     3.808919     3.801276     3.793633     3.785990     3.778347
      3.770703     3.763060     3.755417     3.747774     3.740130     3.732487     3.724844     3.717201     3.709558     3.701914
      3.694271     3.686628     3.678985     3.671341     3.663698     3.656055     3.648412     3.640769     3.633125     3.625482
      3.617839     3.610196     3.602552     3.594909     3.587266     3.579623     3.571980     3.564336     3.556693     3.549050
      3.541407     3.533763     3.526120     3.518477     3.510834     3.503191     3.495547     3.487904     3.480261     3.472618
      3.464974     3.457331     3.449688     3.442045     3.434402     3.426758     3.419115     3.411472     3.403829     3.396185
      3.388542     3.380899     3.373256     3.365613     3.357969     3.350326     3.342683     3.335040     3.327396     3.319753
      3.312110     3.304467     3.296824     3.289180     3.281537     3.273894     3.266251     3.258607     3.250964     3.243321
      3.235678     3.228034     3.220391     3.212748     3.205105     3.197462     3.189818     3.182175     3.174532     3.166889
      3.159245     3.151602     3.143959     3.136316     3.128673     3.121029     3.113386     3.105743     3.098100     3.090456
      3.082813     3.075170     3.067527     3.059884     3.052240     3.044597     3.036954     3.029311     3.021667     3.014024
      3.006381     2.998738     2.991095     2.983451     2.975808     2.968165     2.960522     2.952878     2.945235     2.937592
      2.929949     2.922306     2.914662     2.907019     2.899376     2.891733     2.884089     2.876446     2.868803     2.861160
      2.853517     2.845873     2.838230     2.830587     2.822944     2.815300     2.807657     2.800014     2.792371     2.784728
      2.777084     2.769441     2.761798     2.754155     2.746511     2.738868     2.731225     2.723582     2.715939     2.708295
      2.700652     2.693009     2.685366     2.677722     2.670079     2.662436     2.654793     2.647150     2.639506     2.631863
      2.624220     2.616577     2.608933     2.601290     2.593647     2.586004     2.578361     2.570717     2.563074     2.555431
      2.547788     2.540144     2.532501     2.524858     2.517215     2.509572     2.501928     2.494285     2.486642     2.478999
      2.471355     2.463712     2.456069     2.448426     2.440783     2.433139     2.425496     2.417853     2.410210     2.402566
      2.394923     2.387280     2.379637     2.371994     2.364350     2.356707     2.349064     2.341421     2.333777     2.326134
      2.318491     2.310848     2.303205     2.295561     2.287918     2.280275     2.272632     2.264988     2.257345     2.249702
      2.242059     2.234416     2.226772     2.219129     2.211486     2.203843     2.196199     2.188556     2.180913     2.173270
      2.165627     2.157983     2.150340     2.142697     2.135054     2.127410     2.119767     2.112124     2.104481     2.096838
      2.089194     2.081551     2.073908     2.066265     2.058621     2.050978     2.043335     2.035692     2.028049     2.020405
      2.012762     2.005119     1.997476     1.989833     1.982190     1.974546     1.966903     1.959260     1.951617     1.943974
      1.936331     1.928688     1.921045     1.913402     1.905759     1.898115     1.890472     1.882829     1.875186     1.867543
      1.859900     1.852257     1.844614     1.836971     1.829327     1.821684     1.814041     1.806398     1.798755     1.791112
      1.783469     1.775826     1.768183     1.760540     1.752896     1.745253     1.737610     1.729967     1.722324     1.714681
      1.707038     1.699395     1.691752     1.684108     1.676465     1.668822     1.661179     1.653536     1.645893     1.638250
      1.630607     1.622964     1.615321     1.607677     1.600034     1.592391     1.584748     1.577105     1.569462     1.561819
      1.554176     1.546533     1.538890     1.531246     1.523603     1.515960     1.508317     1.500674     1.493031     1.485388
      1.477745     1.470102     1.462458     1.454815     1.447172     1.439529     1.431886     1.424243     1.416600     1.408957
      1.401314     1.393671     1.386027     1.378384     1.370741     1.363098     1.355455     1.347812     1.340169     1.332526
      1.324883     1.317240     1.309596     1.301953     1.294310     1.286667     1.279024     1.271381     1.263738     1.256095
      1.248452     1.240808     1.233165     1.225522     1.217879     1.210236     1.202593     1.194950     1.187307     1.179664
      1.172021     1.164377     1.156734     1.149091     1.141448     1.133805     1.126162     1.118519     1.110876     1.103233
      1.095590     1.087946     1.080303     1.072660     1.065017     1.057374     1.049731     1.042088     1.034445     1.026802
      1.019158     1.011515     1.003872     0.996229     0.988586     0.980943     0.973300     0.965657     0.958014     0.950371
      0.942727     0.935084     0.927441     0.919798     0.912155     0.904512     0.896869     0.889226     0.881583     0.873940
      0.866296     0.858653     0.851010     0.843367     0.835724     0.828081     0.820438     0.812795     0.805152     0.797508
      0.789865     0.782222     0.774579     0.766936     0.759293     0.751650     0.744007     0.736364     0.728721     0.721077
      0.713434     0.705791     0.698148     0.690505     0.682862     0.675219     0.667576     0.659933     0.652290     0.644646
      0.637003     0.629360     0.621717     0.614074     0.606431     0.598788     0.591145     0.583502     0.575858     0.568215
      0.560572     0.552929     0.545286     0.537643     0.530000     0.522357     0.514714     0.507071     0.499427     0.491784
      0.484141     0.476498     0.468855     0.461212     0.453569     0.445925     0.438282     0.430639     0.422996     0.415353
      0.407710     0.400067     0.392424     0.384780     0.377137     0.369494     0.361851     0.354208     0.346565     0.338922
      0.331278     0.323635     0.315992     0.308349     0.300706     0.293063     0.285420     0.277777     0.270133     0.262490
      0.254847     0.247204     0.239561     0.231918     0.224275     0.216631     0.208988     0.201345
 NY phased data points follow
   1.43127E+01  1.49212E+01  1.52141E+01  1.55717E+01  1.42767E+01  1.46903E+01  1.37843E+01  1.37326E+01  1.52241E+01  1.34813E+01
   1.27086E+01  1.39504E+01  1.42382E+01  1.42000E+01  1.31856E+01  1.37343E+01  1.14865E+01  1.32257E+01  1.27836E+01  1.34415E+01
   1.34263E+01  1.34771E+01  1.33580E+01  1.18632E+01  1.22742E+01  1.18839E+01  1.10726E+01  1.14541E+01  1.24386E+01  1.12746E+01
   1.18334E+01  1.18685E+01  1.21586E+01  1.20309E+01  1.21594E+01  1.07081E+01  1.09957E+01  1.20640E+01  1.16417E+01  1.14114E+01
   1.20868E+01  1.15071E+01  1.09727E+01  1.08645E+01  1.07034E+01  1.05671E+01  1.06615E+01  1.03432E+01  9.70281E+00  1.00470E+01
   9.28479E+00  9.18682E+00  1.06082E+01  9.86406E+00  1.03089E+01  9.01536E+00  9.64277E+00  1.03110E+01  1.01994E+01  1.03228E+01
   9.85053E+00  8.33513E+00  8.73897E+00  9.75393E+00  8.49589E+00  8.42985E+00  9.75396E+00  9.73667E+00  8.53112E+00  9.34910E+00
   9.79239E+00  7.91425E+00  8.58956E+00  8.88164E+00  9.62952E+00  8.56847E+00  7.89942E+00  8.56282E+00  8.94191E+00  7.15652E+00
   7.02902E+00  9.10070E+00  6.62963E+00  8.55576E+00  7.51436E+00  9.39159E+00  6.59046E+00  6.67838E+00  8.14464E+00  8.14789E+00
   6.51329E+00  7.08296E+00  8.08064E+00  6.75700E+00  6.55282E+00  6.61524E+00  7.68774E+00  7.98652E+00  7.88561E+00  7.26548E+00
   6.17193E+00  7.49524E+00  5.77027E+00  7.36255E+00  6.52630E+00  7.17152E+00  7.16561E+00  8.69527E+00  6.95863E+00  5.25850E+00
   6.76551E+00  5.52766E+00  7.04342E+00  6.24597E+00  6.35525E+00  5.68630E+00  6.69339E+00  5.71281E+00  5.36074E+00  5.70741E+00
   5.24126E+00  5.39287E+00  5.08426E+00  7.32931E+00  5.98885E+00  6.58580E+00  5.47335E+00  4.83064E+00  5.60615E+00  5.17987E+00
   6.66086E+00  5.03302E+00  3.95927E+00  5.00843E+00  5.95844E+00  4.85599E+00  4.83031E+00  4.50634E+00  4.16926E+00  5.45547E+00
   6.23473E+00  5.23595E+00  5.37376E+00  4.03903E+00  5.06269E+00  3.67456E+00  5.11144E+00  5.03190E+00  4.36486E+00  5.91767E+00
   5.03906E+00  4.30260E+00  4.44883E+00  3.37247E+00  4.29485E+00  5.80082E+00  4.69861E+00  4.39386E+00  4.54895E+00  6.51083E+00
   4.39509E+00  4.57645E+00  4.07836E+00  5.48723E+00  3.40842E+00  4.42480E+00  6.08327E+00  5.34082E+00  5.24764E+00  4.57892E+00
   4.35061E+00  5.55132E+00  4.52935E+00  4.50970E+00  3.43402E+00  4.09320E+00  3.86303E+00  5.72713E+00  5.35841E+00  2.89602E+00
   4.72250E+00  4.27992E+00  3.41967E+00  3.84679E+00  4.77122E+00  4.53437E+00  4.07015E+00  4.45212E+00  3.67460E+00  3.39174E+00
   4.05362E+00  1.65484E+00  3.70803E+00  3.41402E+00  3.82867E+00  2.86446E+00  2.43697E+00  4.86276E+00  2.56973E+00  2.33478E+00
   3.48363E+00  2.69400E+00  5.22884E+00  2.81003E+00  2.18262E+00  4.36505E+00  3.04596E+00  3.79170E+00  3.25723E+00  4.28436E+00
   2.54666E+00  4.98801E+00  3.77494E+00  4.13093E+00  4.85191E+00  4.28350E+00  5.49156E+00  5.04430E+00  5.21173E+00  5.87175E+00
   6.06236E+00  6.91907E+00  6.74930E+00  7.22538E+00  6.56735E+00  7.92119E+00  7.23583E+00  8.67547E+00  7.43148E+00  7.78821E+00
   7.39401E+00  8.49109E+00  7.28758E+00  8.16542E+00  9.11641E+00  8.75992E+00  7.99308E+00  9.26128E+00  8.02031E+00  9.89422E+00
   7.75499E+00  8.51011E+00  7.65408E+00  8.22137E+00  8.13650E+00  9.84240E+00  7.80547E+00  8.82172E+00  8.51556E+00  7.69389E+00
   7.97741E+00  7.73254E+00  7.65451E+00  8.18929E+00  9.33029E+00  8.03347E+00  8.70867E+00  9.12748E+00  7.19960E+00  8.28391E+00
   7.76279E+00  7.57712E+00  7.66597E+00  7.18617E+00  7.83009E+00  7.40334E+00  7.98958E+00  9.22436E+00  9.41617E+00  8.69210E+00
   7.51483E+00  8.36527E+00  7.77184E+00  7.93875E+00  7.90738E+00  8.44342E+00  6.59429E+00  6.61006E+00  6.45641E+00  8.04431E+00
   9.43012E+00  8.62156E+00  5.95649E+00  6.40218E+00  7.21948E+00  5.32610E+00  6.44213E+00  7.49337E+00  7.30851E+00  6.98205E+00
   6.78477E+00  5.82849E+00  5.79212E+00  7.36101E+00  5.92648E+00  6.79105E+00  5.55510E+00  6.67266E+00  5.67489E+00  4.19144E+00
   6.82816E+00  4.87768E+00  5.44154E+00  4.92346E+00  5.40250E+00  5.00526E+00  5.45661E+00  4.33867E+00  6.87455E+00  5.01877E+00
   5.81066E+00  5.02940E+00  4.34653E+00  4.57526E+00  4.31447E+00  4.32380E+00  5.99434E+00  4.76891E+00  4.46758E+00  4.32915E+00
   4.95034E+00  3.53171E+00  4.97565E+00  7.17539E+00  6.12360E+00  4.96593E+00  4.72020E+00  4.47724E+00  5.05622E+00  5.04334E+00
   5.24968E+00  4.67313E+00  4.70979E+00  4.88780E+00  3.06099E+00  3.74826E+00  4.72104E+00  3.25998E+00  3.31570E+00  2.90732E+00
   5.39771E+00  3.32065E+00  3.04501E+00  2.63159E+00  3.01158E+00  2.71514E+00  2.76217E+00  3.54129E+00  2.47935E+00  2.07537E+00
   2.04625E+00  7.50577E-01  1.95546E+00  1.89184E+00  1.02116E+00  1.85403E+00 -1.80605E-01  2.82358E+00  4.30781E-01  1.52342E+00
   5.11453E-01  2.43426E+00  6.24691E-01  1.42194E+00  1.33599E+00  1.64182E+00  3.21396E+00  1.29979E+00  1.10545E+00  1.13591E+00
   2.21591E+00  8.74417E-01  2.09117E+00  1.18943E+00  2.67297E+00  1.57931E+00  2.14060E+00  1.11019E+00  3.32100E+00  2.63247E+00
   2.59540E+00  2.99971E+00  1.23334E+00  1.81757E+00  2.13139E+00  2.27436E+00  1.86498E+00  2.65530E+00  2.09450E+00  3.27109E+00
   2.59015E+00  2.42283E+00  3.25980E+00  2.88322E+00  9.87236E-01  1.63652E+00  1.91186E+00  2.12966E+00  2.09899E+00  3.35886E+00
   1.64722E+00  3.42103E+00  1.45740E+00  3.13864E+00  2.32417E+00  1.43904E+00  3.10294E+00  2.14520E+00  2.60243E+00  1.74475E+00
   2.15714E+00  8.08832E-01  1.53168E+00  2.10207E+00  2.57644E+00  1.01766E+00  1.32582E+00  1.66306E+00  1.23116E+00  1.15860E+00
   1.31652E+00  2.31182E+00  2.00502E+00  9.36860E-01  2.14360E+00  1.62588E+00  1.04584E+00  2.18845E-02 -1.87389E-01  8.90818E-01
   1.23727E+00  2.11828E+00  2.37694E+00  2.50766E+00  2.60306E+00  1.47212E+00  3.45303E+00  1.06526E+00  1.71388E+00  3.15356E+00
   2.24861E+00  4.85123E-01  1.38929E+00  1.13656E+00  6.80194E-01  2.81690E+00  1.03872E+00  1.34498E+00  2.89649E+00  1.18786E+00
   1.14576E+00  1.17926E+00  1.61991E+00  1.41828E+00  2.71349E+00  1.89261E+00  1.82941E+00  1.98125E+00  2.18768E+00  1.17902E+00
   1.25598E+00  2.16416E+00  9.88056E-01  6.89537E-01  5.14019E-01  1.18454E+00  1.18060E+00  1.32846E+00  2.07618E+00  7.13830E-01
  -5.49658E-01  1.65551E+00  2.43688E+00  6.59863E-01  8.95783E-01  2.18202E-01  1.27934E+00  8.28163E-01  1.31910E+00  5.31383E-01
   1.01794E+00  1.26062E+00  8.43906E-01  9.91775E-01  1.37933E+00  1.20084E+00  5.47908E-01  3.21412E-01  5.72594E-01  1.17920E+00
   1.21075E+00  1.80582E+00  6.25596E-01  6.84262E-02  1.34480E+00  2.67450E+00  1.68974E+00  1.59905E+00
 NY points of the fit to the data follow
   1.42364E+01  1.41446E+01  1.40545E+01  1.39588E+01  1.38690E+01  1.37776E+01  1.36997E+01  1.36212E+01  1.35138E+01  1.34266E+01
   1.32984E+01  1.32127E+01  1.30771E+01  1.30326E+01  1.29690E+01  1.29564E+01  1.29184E+01  1.28998E+01  1.28681E+01  1.28108E+01
   1.27748E+01  1.27077E+01  1.26835E+01  1.26076E+01  1.26085E+01  1.25211E+01  1.25485E+01  1.24385E+01  1.24771E+01  1.23447E+01
   1.23842E+01  1.22337E+01  1.22669E+01  1.21106E+01  1.21362E+01  1.19886E+01  1.20037E+01  1.18674E+01  1.18486E+01  1.17245E+01
   1.16564E+01  1.15564E+01  1.14556E+01  1.14034E+01  1.12878E+01  1.12830E+01  1.11286E+01  1.11355E+01  1.08442E+01  1.08046E+01
   1.04734E+01  1.04513E+01  1.01847E+01  1.02289E+01  1.01558E+01  1.01523E+01  1.00728E+01  9.96583E+00  9.86176E+00  9.66843E+00
   9.56230E+00  9.40362E+00  9.31849E+00  9.17183E+00  9.09745E+00  8.95894E+00  8.89514E+00  8.76914E+00  8.72174E+00  8.61635E+00
   8.58814E+00  8.48598E+00  8.45064E+00  8.34070E+00  8.29896E+00  8.18450E+00  8.13698E+00  8.02074E+00  7.96885E+00  7.85549E+00
   7.79878E+00  7.69201E+00  7.63685E+00  7.53511E+00  7.48308E+00  7.40016E+00  7.34875E+00  7.27625E+00  7.22442E+00  7.16509E+00
   7.11657E+00  7.07302E+00  7.03025E+00  7.00309E+00  6.97067E+00  6.96200E+00  6.93539E+00  6.94245E+00  6.91918E+00  6.93365E+00
   6.90960E+00  6.92462E+00  6.89759E+00  6.90894E+00  6.87861E+00  6.88098E+00  6.84686E+00  6.83559E+00  6.79671E+00  6.76110E+00
   6.71203E+00  6.65068E+00  6.59716E+00  6.51802E+00  6.46524E+00  6.37616E+00  6.32680E+00  6.23219E+00  6.18528E+00  6.08777E+00
   6.04027E+00  5.94703E+00  5.90351E+00  5.83238E+00  5.80325E+00  5.77993E+00  5.75885E+00  5.73545E+00  5.71143E+00  5.68405E+00
   5.65572E+00  5.62321E+00  5.59007E+00  5.55252E+00  5.51486E+00  5.47285E+00  5.43112E+00  5.38546E+00  5.34034E+00  5.29221E+00
   5.24474E+00  5.19532E+00  5.14632E+00  5.09595E+00  5.04697E+00  4.99761E+00  4.95052E+00  4.90455E+00  4.86004E+00  4.81766E+00
   4.77629E+00  4.73776E+00  4.69961E+00  4.66482E+00  4.62975E+00  4.59854E+00  4.56639E+00  4.53868E+00  4.50888E+00  4.48434E+00
   4.45784E+00  4.43648E+00  4.41330E+00  4.39372E+00  4.37381E+00  4.35668E+00  4.34152E+00  4.32728E+00  4.31670E+00  4.30494E+00
   4.29971E+00  4.29032E+00  4.29114E+00  4.28435E+00  4.29142E+00  4.28195E+00  4.27804E+00  4.26626E+00  4.22871E+00  4.21172E+00
   4.14368E+00  4.12713E+00  4.03736E+00  4.06252E+00  3.98273E+00  4.05958E+00  3.97253E+00  4.12330E+00  4.00276E+00  4.20215E+00
   4.01543E+00  4.20620E+00  3.87177E+00  4.13616E+00  3.74347E+00  4.10669E+00  3.66466E+00  4.12889E+00  3.62817E+00  4.17991E+00
   3.61521E+00  4.23461E+00  3.60800E+00  4.28505E+00  3.62011E+00  4.36682E+00  3.70678E+00  4.50787E+00  3.87565E+00  4.70413E+00
   4.12208E+00  4.95241E+00  4.45009E+00  5.25343E+00  4.83641E+00  5.59261E+00  5.24662E+00  5.90923E+00  5.57699E+00  6.15814E+00
   5.92596E+00  6.47344E+00  6.40384E+00  7.02566E+00  7.11301E+00  7.70292E+00  7.82392E+00  8.31831E+00  8.33311E+00  8.60413E+00
   8.39443E+00  8.42192E+00  7.95864E+00  8.03972E+00  7.64761E+00  7.77774E+00  7.43887E+00  7.59240E+00  7.30578E+00  7.44705E+00
   7.22311E+00  7.34012E+00  7.23608E+00  7.34605E+00  7.35655E+00  7.44019E+00  7.54683E+00  7.57128E+00  7.74912E+00  7.71200E+00
   7.95013E+00  7.87150E+00  8.16500E+00  8.05438E+00  8.35955E+00  8.20797E+00  8.45709E+00  8.24184E+00  8.34259E+00  8.22388E+00
   8.32832E+00  8.35943E+00  8.46867E+00  8.61483E+00  8.60664E+00  8.64779E+00  8.51283E+00  8.44560E+00  8.18071E+00  8.05177E+00
   7.73809E+00  7.59529E+00  7.30900E+00  7.22756E+00  6.98806E+00  6.94079E+00  6.73157E+00  6.69263E+00  6.50834E+00  6.46062E+00
   6.34313E+00  6.29908E+00  6.29628E+00  6.30359E+00  6.31627E+00  6.32844E+00  6.34099E+00  6.34843E+00  6.34987E+00  6.34161E+00
   6.32288E+00  6.29093E+00  6.24561E+00  6.18607E+00  6.11266E+00  6.02615E+00  5.92774E+00  5.81969E+00  5.70440E+00  5.58432E+00
   5.46194E+00  5.34012E+00  5.22160E+00  5.10838E+00  5.00302E+00  4.90702E+00  4.82225E+00  4.74957E+00  4.69006E+00  4.64376E+00
   4.61115E+00  4.59144E+00  4.58474E+00  4.58896E+00  4.60429E+00  4.62781E+00  4.65913E+00  4.69519E+00  4.73504E+00  4.77555E+00
   4.81532E+00  4.85137E+00  4.88206E+00  4.90481E+00  4.91802E+00  4.91982E+00  4.90894E+00  4.88442E+00  4.84568E+00  4.79252E+00
   4.72522E+00  4.64445E+00  4.55126E+00  4.44704E+00  4.33344E+00  4.21230E+00  4.08560E+00  3.95536E+00  3.82357E+00  3.69213E+00
   3.56279E+00  3.43710E+00  3.31641E+00  3.20178E+00  3.09406E+00  2.99383E+00  2.90144E+00  2.81703E+00  2.74054E+00  2.67175E+00
   2.61031E+00  2.55575E+00  2.50751E+00  2.46499E+00  2.42754E+00  2.39450E+00  2.36518E+00  2.33893E+00  2.31511E+00  2.29313E+00
   2.27243E+00  2.25254E+00  2.23303E+00  2.21356E+00  2.19388E+00  2.17381E+00  2.15329E+00  2.13232E+00  2.11103E+00  2.08962E+00
   2.06836E+00  2.04761E+00  2.02778E+00  2.00935E+00  1.99283E+00  1.97874E+00  1.96765E+00  1.96009E+00  1.95660E+00  1.95768E+00
   1.96379E+00  1.97534E+00  1.99266E+00  2.01600E+00  2.04550E+00  2.08120E+00  2.12299E+00  2.17063E+00  2.22371E+00  2.28166E+00
   2.34371E+00  2.40895E+00  2.47628E+00  2.54446E+00  2.61210E+00  2.67772E+00  2.73978E+00  2.79672E+00  2.84700E+00  2.88919E+00
   2.92199E+00  2.94427E+00  2.95516E+00  2.95407E+00  2.94066E+00  2.91495E+00  2.87723E+00  2.82810E+00  2.76843E+00  2.69930E+00
   2.62199E+00  2.53790E+00  2.44852E+00  2.35535E+00  2.25987E+00  2.16351E+00  2.06755E+00  1.97314E+00  1.88130E+00  1.79286E+00
   1.70848E+00  1.62869E+00  1.55383E+00  1.48413E+00  1.41968E+00  1.36048E+00  1.30644E+00  1.25740E+00  1.21314E+00  1.17343E+00
   1.13801E+00  1.10658E+00  1.07889E+00  1.05464E+00  1.03357E+00  1.01543E+00  9.99987E-01  9.87005E-01  9.76284E-01  9.67630E-01
   9.60868E-01  9.55843E-01  9.52403E-01  9.50423E-01  9.49772E-01  9.50350E-01  9.52045E-01  9.54777E-01  9.58451E-01  9.62999E-01
   9.68339E-01  9.74416E-01  9.81158E-01  9.88519E-01  9.96438E-01  1.00487E+00  1.01377E+00  1.02309E+00  1.03279E+00  1.04284E+00
   1.05319E+00  1.06382E+00  1.07468E+00  1.08575E+00  1.09700E+00  1.10839E+00  1.11990E+00  1.13151E+00  1.14318E+00  1.15489E+00
   1.16661E+00  1.17833E+00  1.19002E+00  1.20164E+00  1.21320E+00  1.22465E+00  1.23598E+00  1.24717E+00  1.25819E+00  1.26903E+00
   1.27967E+00  1.29008E+00  1.30025E+00  1.31016E+00  1.31978E+00  1.32911E+00  1.33811E+00  1.34679E+00  1.35511E+00  1.36306E+00
   1.37062E+00  1.37778E+00  1.38451E+00  1.39082E+00  1.39668E+00  1.40207E+00  1.40699E+00  1.41143E+00
 NY background values follow
     1.352E+01    1.343E+01    1.334E+01    1.325E+01    1.316E+01    1.307E+01    1.298E+01    1.289E+01    1.281E+01    1.272E+01
     1.263E+01    1.254E+01    1.246E+01    1.237E+01    1.228E+01    1.220E+01    1.211E+01    1.203E+01    1.194E+01    1.186E+01
     1.178E+01    1.169E+01    1.161E+01    1.153E+01    1.144E+01    1.136E+01    1.128E+01    1.120E+01    1.112E+01    1.104E+01
     1.095E+01    1.087E+01    1.080E+01    1.072E+01    1.064E+01    1.056E+01    1.048E+01    1.040E+01    1.032E+01    1.025E+01
     1.017E+01    1.010E+01    1.002E+01    9.944E+00    9.869E+00    9.794E+00    9.720E+00    9.646E+00    9.573E+00    9.500E+00
     9.427E+00    9.355E+00    9.283E+00    9.212E+00    9.141E+00    9.070E+00    9.000E+00    8.931E+00    8.862E+00    8.793E+00
     8.725E+00    8.657E+00    8.589E+00    8.522E+00    8.456E+00    8.390E+00    8.324E+00    8.259E+00    8.194E+00    8.130E+00
     8.066E+00    8.003E+00    7.940E+00    7.878E+00    7.816E+00    7.754E+00    7.693E+00    7.633E+00    7.573E+00    7.514E+00
     7.454E+00    7.396E+00    7.338E+00    7.280E+00    7.223E+00    7.167E+00    7.111E+00    7.055E+00    7.000E+00    6.946E+00
     6.892E+00    6.838E+00    6.785E+00    6.733E+00    6.681E+00    6.630E+00    6.579E+00    6.529E+00    6.479E+00    6.430E+00
     6.382E+00    6.334E+00    6.287E+00    6.240E+00    6.194E+00    6.148E+00    6.103E+00    6.059E+00    6.015E+00    5.972E+00
     5.930E+00    5.888E+00    5.846E+00    5.806E+00    5.766E+00    5.726E+00    5.688E+00    5.650E+00    5.612E+00    5.576E+00
     5.540E+00    5.504E+00    5.469E+00    5.435E+00    5.402E+00    5.369E+00    5.337E+00    5.306E+00    5.275E+00    5.245E+00
     5.216E+00    5.188E+00    5.160E+00    5.133E+00    5.107E+00    5.081E+00    5.056E+00    5.032E+00    5.009E+00    4.986E+00
     4.965E+00    4.943E+00    4.923E+00    4.904E+00    4.885E+00    4.867E+00    4.850E+00    4.833E+00    4.818E+00    4.803E+00
     4.789E+00    4.776E+00    4.763E+00    4.752E+00    4.741E+00    4.731E+00    4.722E+00    4.714E+00    4.706E+00    4.700E+00
     4.694E+00    4.689E+00    4.685E+00    4.682E+00    4.680E+00    4.679E+00    4.678E+00    4.678E+00    4.680E+00    4.682E+00
     4.685E+00    4.688E+00    4.693E+00    4.698E+00    4.703E+00    4.710E+00    4.717E+00    4.725E+00    4.733E+00    4.742E+00
     4.752E+00    4.762E+00    4.772E+00    4.784E+00    4.795E+00    4.807E+00    4.820E+00    4.832E+00    4.846E+00    4.859E+00
     4.873E+00    4.887E+00    4.902E+00    4.917E+00    4.932E+00    4.947E+00    4.962E+00    4.978E+00    4.993E+00    5.009E+00
     5.025E+00    5.041E+00    5.057E+00    5.073E+00    5.089E+00    5.105E+00    5.121E+00    5.137E+00    5.152E+00    5.168E+00
     5.184E+00    5.199E+00    5.214E+00    5.229E+00    5.244E+00    5.258E+00    5.272E+00    5.286E+00    5.299E+00    5.313E+00
     5.325E+00    5.338E+00    5.349E+00    5.361E+00    5.372E+00    5.382E+00    5.392E+00    5.402E+00    5.410E+00    5.419E+00
     5.426E+00    5.433E+00    5.439E+00    5.445E+00    5.450E+00    5.454E+00    5.457E+00    5.460E+00    5.462E+00    5.463E+00
     5.463E+00    5.462E+00    5.460E+00    5.458E+00    5.454E+00    5.450E+00    5.444E+00    5.437E+00    5.430E+00    5.421E+00
     5.411E+00    5.401E+00    5.389E+00    5.376E+00    5.362E+00    5.347E+00    5.331E+00    5.314E+00    5.297E+00    5.278E+00
     5.258E+00    5.238E+00    5.216E+00    5.194E+00    5.171E+00    5.147E+00    5.122E+00    5.097E+00    5.071E+00    5.043E+00
     5.016E+00    4.987E+00    4.958E+00    4.928E+00    4.897E+00    4.866E+00    4.834E+00    4.801E+00    4.768E+00    4.734E+00
     4.700E+00    4.665E+00    4.629E+00    4.593E+00    4.556E+00    4.519E+00    4.481E+00    4.443E+00    4.405E+00    4.366E+00
     4.326E+00    4.286E+00    4.246E+00    4.206E+00    4.165E+00    4.123E+00    4.082E+00    4.040E+00    3.997E+00    3.955E+00
     3.912E+00    3.869E+00    3.826E+00    3.782E+00    3.739E+00    3.695E+00    3.651E+00    3.606E+00    3.562E+00    3.518E+00
     3.473E+00    3.429E+00    3.384E+00    3.339E+00    3.294E+00    3.249E+00    3.205E+00    3.160E+00    3.115E+00    3.070E+00
     3.026E+00    2.981E+00    2.937E+00    2.892E+00    2.848E+00    2.804E+00    2.760E+00    2.716E+00    2.672E+00    2.629E+00
     2.586E+00    2.543E+00    2.500E+00    2.458E+00    2.416E+00    2.374E+00    2.332E+00    2.291E+00    2.250E+00    2.209E+00
     2.169E+00    2.128E+00    2.089E+00    2.049E+00    2.010E+00    1.971E+00    1.933E+00    1.895E+00    1.857E+00    1.819E+00
     1.782E+00    1.746E+00    1.709E+00    1.673E+00    1.638E+00    1.603E+00    1.568E+00    1.534E+00    1.500E+00    1.466E+00
     1.433E+00    1.400E+00    1.368E+00    1.336E+00    1.305E+00    1.274E+00    1.243E+00    1.213E+00    1.184E+00    1.155E+00
     1.126E+00    1.098E+00    1.070E+00    1.043E+00    1.016E+00    9.901E-01    9.645E-01    9.394E-01    9.148E-01    8.907E-01
     8.672E-01    8.442E-01    8.217E-01    7.998E-01    7.785E-01    7.577E-01    7.375E-01    7.178E-01    6.988E-01    6.803E-01
     6.624E-01    6.451E-01    6.285E-01    6.124E-01    5.969E-01    5.821E-01    5.679E-01    5.543E-01    5.414E-01    5.291E-01
     5.174E-01    5.064E-01    4.961E-01    4.864E-01    4.774E-01    4.691E-01    4.615E-01    4.546E-01    4.483E-01    4.428E-01
     4.379E-01    4.338E-01    4.304E-01    4.277E-01    4.258E-01    4.245E-01    4.240E-01    4.242E-01    4.251E-01    4.267E-01
     4.290E-01    4.318E-01    4.354E-01    4.395E-01    4.442E-01    4.495E-01    4.554E-01    4.618E-01    4.687E-01    4.762E-01
     4.842E-01    4.926E-01    5.015E-01    5.109E-01    5.207E-01    5.310E-01    5.416E-01    5.527E-01    5.641E-01    5.758E-01
     5.880E-01    6.004E-01    6.131E-01    6.262E-01    6.395E-01    6.531E-01    6.670E-01    6.810E-01    6.953E-01    7.098E-01
     7.245E-01    7.394E-01    7.544E-01    7.695E-01    7.848E-01    8.001E-01    8.156E-01    8.311E-01    8.467E-01    8.623E-01
     8.780E-01    8.937E-01    9.093E-01    9.250E-01    9.406E-01    9.561E-01    9.716E-01    9.870E-01    1.002E+00    1.018E+00
     1.033E+00    1.047E+00    1.062E+00    1.077E+00    1.091E+00    1.105E+00    1.119E+00    1.133E+00    1.146E+00    1.160E+00
     1.172E+00    1.185E+00    1.197E+00    1.209E+00    1.221E+00    1.232E+00    1.243E+00    1.253E+00    1.263E+00    1.273E+00
     1.282E+00    1.290E+00    1.299E+00    1.306E+00    1.313E+00    1.320E+00    1.326E+00    1.332E+00
 Asp      Conc. = 9.49E+00
