 LCModel (Version 6.3-1L) Copyright: S.W. Provencher.          Ref.: Magn. Reson. Med. 30:672-679 (1993).                
 Slice#3 Row#2 Col#9  PD_05_press_1_raw_act
 36 lines in following concentration table = NCONC+1
    Conc.  %SD /Cr+PCr  Metabolite                                         
  264.287  71%   0.527 Ala                                                 
    0.000 999%   0.000 Asp                                                 
    0.000 999%   0.000 Cr                                                  
  501.160   8%   1.000 PCr                                                 
   44.923 130% 9.0E-02 GABA                                                
   29.844 194% 6.0E-02 Glc                                                 
  198.997 196%   0.397 Gln                                                 
  706.031  66%   1.409 Glu                                                 
  136.755  11%   0.273 GPC                                                 
    0.000 999%   0.000 PCh                                                 
   46.497 161% 9.3E-02 GSH                                                 
  221.672  75%   0.442 Ins                                                 
  120.601 169%   0.241 Lac                                                 
  825.086   6%   1.646 NAA                                                 
    0.000 999%   0.000 NAAG                                                
   39.273  39% 7.8E-02 Scyllo                                              
    7.084 999% 1.4E-02 Tau                                                 
  127.749  55%   0.255 -CrCH2                                              
  136.755  11%   0.273 GPC+PCh                                             
  825.086   6%   1.646 NAA+NAAG                                            
  501.160   8%   1.000 Cr+PCr                                              
  905.028  83%   1.806 Glu+Gln                                             
    0.000 999%   0.000 Lip13a                                              
  279.872  18%   0.558 Lip13b                                              
   70.059  39%   0.140 Lip09                                               
   91.570  68%   0.183 MM09                                                
   44.656  41% 8.9E-02 Lip20                                               
  145.832  74%   0.291 MM20                                                
   15.425 168% 3.1E-02 MM12                                                
  233.938  35%   0.467 MM14                                                
   30.259 171% 6.0E-02 MM17                                                
  279.872  18%   0.558 Lip13a+Lip13b                                       
  529.235  19%   1.056 MM14+Lip13a+Lip13b+MM12                             
  161.629  36%   0.323 MM09+Lip09                                          
  190.488  57%   0.380 MM20+Lip20                                          
   6 lines in following misc. output table
  FWHM = 0.107 ppm    S/N =   4                                            
  Data shift = 0.054 ppm                                                   
  Ph: -30 deg     -27.4 deg/ppm                                            
  alphaB,S = 8.5E+01,   2.0E+02                                            
   14 spline knots.   Ns = 7(2)                                            
   2 inflections.     1 extrema                                            
  498 points on ppm-axis = NY
      4.000000     3.992357     3.984714     3.977070     3.969427     3.961784     3.954141     3.946497     3.938854     3.931211
      3.923568     3.915925     3.908281     3.900638     3.892995     3.885352     3.877708     3.870065     3.862422     3.854779
      3.847136     3.839492     3.831849     3.824206     3.816563     3.808919     3.801276     3.793633     3.785990     3.778347
      3.770703     3.763060     3.755417     3.747774     3.740130     3.732487     3.724844     3.717201     3.709558     3.701914
      3.694271     3.686628     3.678985     3.671341     3.663698     3.656055     3.648412     3.640769     3.633125     3.625482
      3.617839     3.610196     3.602552     3.594909     3.587266     3.579623     3.571980     3.564336     3.556693     3.549050
      3.541407     3.533763     3.526120     3.518477     3.510834     3.503191     3.495547     3.487904     3.480261     3.472618
      3.464974     3.457331     3.449688     3.442045     3.434402     3.426758     3.419115     3.411472     3.403829     3.396185
      3.388542     3.380899     3.373256     3.365613     3.357969     3.350326     3.342683     3.335040     3.327396     3.319753
      3.312110     3.304467     3.296824     3.289180     3.281537     3.273894     3.266251     3.258607     3.250964     3.243321
      3.235678     3.228034     3.220391     3.212748     3.205105     3.197462     3.189818     3.182175     3.174532     3.166889
      3.159245     3.151602     3.143959     3.136316     3.128673     3.121029     3.113386     3.105743     3.098100     3.090456
      3.082813     3.075170     3.067527     3.059884     3.052240     3.044597     3.036954     3.029311     3.021667     3.014024
      3.006381     2.998738     2.991095     2.983451     2.975808     2.968165     2.960522     2.952878     2.945235     2.937592
      2.929949     2.922306     2.914662     2.907019     2.899376     2.891733     2.884089     2.876446     2.868803     2.861160
      2.853517     2.845873     2.838230     2.830587     2.822944     2.815300     2.807657     2.800014     2.792371     2.784728
      2.777084     2.769441     2.761798     2.754155     2.746511     2.738868     2.731225     2.723582     2.715939     2.708295
      2.700652     2.693009     2.685366     2.677722     2.670079     2.662436     2.654793     2.647150     2.639506     2.631863
      2.624220     2.616577     2.608933     2.601290     2.593647     2.586004     2.578361     2.570717     2.563074     2.555431
      2.547788     2.540144     2.532501     2.524858     2.517215     2.509572     2.501928     2.494285     2.486642     2.478999
      2.471355     2.463712     2.456069     2.448426     2.440783     2.433139     2.425496     2.417853     2.410210     2.402566
      2.394923     2.387280     2.379637     2.371994     2.364350     2.356707     2.349064     2.341421     2.333777     2.326134
      2.318491     2.310848     2.303205     2.295561     2.287918     2.280275     2.272632     2.264988     2.257345     2.249702
      2.242059     2.234416     2.226772     2.219129     2.211486     2.203843     2.196199     2.188556     2.180913     2.173270
      2.165627     2.157983     2.150340     2.142697     2.135054     2.127410     2.119767     2.112124     2.104481     2.096838
      2.089194     2.081551     2.073908     2.066265     2.058621     2.050978     2.043335     2.035692     2.028049     2.020405
      2.012762     2.005119     1.997476     1.989833     1.982190     1.974546     1.966903     1.959260     1.951617     1.943974
      1.936331     1.928688     1.921045     1.913402     1.905759     1.898115     1.890472     1.882829     1.875186     1.867543
      1.859900     1.852257     1.844614     1.836971     1.829327     1.821684     1.814041     1.806398     1.798755     1.791112
      1.783469     1.775826     1.768183     1.760540     1.752896     1.745253     1.737610     1.729967     1.722324     1.714681
      1.707038     1.699395     1.691752     1.684108     1.676465     1.668822     1.661179     1.653536     1.645893     1.638250
      1.630607     1.622964     1.615321     1.607677     1.600034     1.592391     1.584748     1.577105     1.569462     1.561819
      1.554176     1.546533     1.538890     1.531246     1.523603     1.515960     1.508317     1.500674     1.493031     1.485388
      1.477745     1.470102     1.462458     1.454815     1.447172     1.439529     1.431886     1.424243     1.416600     1.408957
      1.401314     1.393671     1.386027     1.378384     1.370741     1.363098     1.355455     1.347812     1.340169     1.332526
      1.324883     1.317240     1.309596     1.301953     1.294310     1.286667     1.279024     1.271381     1.263738     1.256095
      1.248452     1.240808     1.233165     1.225522     1.217879     1.210236     1.202593     1.194950     1.187307     1.179664
      1.172021     1.164377     1.156734     1.149091     1.141448     1.133805     1.126162     1.118519     1.110876     1.103233
      1.095590     1.087946     1.080303     1.072660     1.065017     1.057374     1.049731     1.042088     1.034445     1.026802
      1.019158     1.011515     1.003872     0.996229     0.988586     0.980943     0.973300     0.965657     0.958014     0.950371
      0.942727     0.935084     0.927441     0.919798     0.912155     0.904512     0.896869     0.889226     0.881583     0.873940
      0.866296     0.858653     0.851010     0.843367     0.835724     0.828081     0.820438     0.812795     0.805152     0.797508
      0.789865     0.782222     0.774579     0.766936     0.759293     0.751650     0.744007     0.736364     0.728721     0.721077
      0.713434     0.705791     0.698148     0.690505     0.682862     0.675219     0.667576     0.659933     0.652290     0.644646
      0.637003     0.629360     0.621717     0.614074     0.606431     0.598788     0.591145     0.583502     0.575858     0.568215
      0.560572     0.552929     0.545286     0.537643     0.530000     0.522357     0.514714     0.507071     0.499427     0.491784
      0.484141     0.476498     0.468855     0.461212     0.453569     0.445925     0.438282     0.430639     0.422996     0.415353
      0.407710     0.400067     0.392424     0.384780     0.377137     0.369494     0.361851     0.354208     0.346565     0.338922
      0.331278     0.323635     0.315992     0.308349     0.300706     0.293063     0.285420     0.277777     0.270133     0.262490
      0.254847     0.247204     0.239561     0.231918     0.224275     0.216631     0.208988     0.201345
 NY phased data points follow
   3.87151E+00  4.83721E+00  6.25717E+00  6.13863E+00  5.49276E+00  4.58298E+00  3.44858E+00  9.48952E+00  4.65825E+00  7.31720E+00
   7.30989E+00  6.74068E+00  5.74013E+00  7.93550E+00  3.27522E+00  3.39569E+00  3.11068E+00  3.26401E+00  3.75794E+00  4.94270E+00
   3.02755E+00  1.25395E+00  2.43646E+00  4.86877E+00  1.46694E+00  3.59053E+00  2.96462E+00  2.54005E+00  3.62583E+00  3.27580E+00
  -2.46829E-01  1.34165E+00  7.23166E-01  2.60831E+00  5.91653E+00  5.07434E+00  2.40082E+00  1.29468E+00  4.25990E+00  3.32016E+00
   4.08044E+00  3.62995E+00  5.04499E+00  1.17142E+00  2.22497E+00  5.78777E+00  2.48136E+00  4.24189E+00  5.63490E+00  6.20221E+00
   6.91339E-01  5.59710E+00  2.12265E+00  3.10511E+00  2.20847E+00  3.29904E+00  3.13020E+00  1.59076E+00 -6.26195E-01  5.23728E+00
   1.29617E+00  5.75576E-01  3.45439E-01 -1.35551E-01  1.12943E+00  1.46471E-01  3.17089E-01  7.38600E-01 -8.32470E-01  9.45928E-01
   3.94937E-02  4.50595E+00  8.20557E-02  7.64027E-01  5.25530E-01  9.09299E-01  2.98617E+00  9.18947E-01  3.14720E+00  2.36162E+00
   3.16524E+00  1.49409E+00  5.09203E+00  8.74146E-01  1.62632E+00  9.33727E-01  4.06558E+00  1.39851E+00  3.71386E+00  5.90246E+00
   3.41998E+00  3.11124E+00  5.52525E+00  4.49541E+00  3.26211E+00  7.07984E+00  4.50622E+00  6.67004E+00  5.45531E+00  7.30293E+00
   3.97246E+00  7.29905E+00  9.08879E+00  1.00322E+01  8.46455E+00  8.77394E+00  4.75523E+00  5.15059E+00  5.44298E+00  2.46329E+00
   3.12343E+00  2.28838E+00  2.72934E+00  3.03816E+00  3.59391E+00  3.83358E+00  3.13811E+00  4.97546E+00  1.76033E+00  7.89456E+00
   3.35680E+00  9.70239E+00  4.35789E+00  7.37290E+00  9.22718E+00  5.91057E+00  8.79236E+00  1.31786E+01  1.14869E+01  8.35856E+00
   1.01869E+01  8.67501E+00  8.25487E+00  3.93291E+00  2.68404E+00  2.43162E+00  1.56382E+00  2.21298E+00  1.48596E+00  2.28875E+00
   2.47145E+00  1.15470E+00  4.31501E+00  1.33098E+00  1.73559E+00  1.83403E+00 -5.77500E-02  4.43669E-01  1.39078E+00  6.10584E+00
   1.15188E-01  2.84406E+00 -6.59739E-01  1.81404E+00  2.27102E+00  1.28481E+00  2.51331E-01  1.90044E+00  2.03373E+00  5.78502E-01
   4.70153E-01  1.64625E+00  7.85004E-01  4.70764E+00  1.92930E+00  1.16900E+00  8.37172E-02  6.48195E-01 -6.32131E-01 -1.53552E+00
   1.74941E+00 -3.42627E+00 -3.54795E+00 -1.09808E+00 -1.69872E-01 -5.90655E-01 -3.98220E+00 -6.34532E-01 -3.57774E+00 -9.95072E-01
  -3.33595E-01 -1.08799E+00 -9.76413E-01 -1.55185E+00  1.71544E-01  9.10722E-01  1.73276E+00 -1.32249E+00  1.25174E+00  5.72848E-01
  -2.53286E-01  4.72407E+00  1.13165E+00  4.20222E-01  1.08334E+00  4.59640E-02  1.54675E+00  2.30154E+00  1.89267E-01 -1.53886E+00
   4.06052E+00  1.57325E+00  2.36430E+00  2.36895E+00 -4.83061E-01  3.17952E+00  2.41273E-01  3.18504E+00  1.47549E+00  1.60466E-01
   4.68466E+00  1.61127E+00  8.45535E-01  1.44408E+00  2.82882E-01 -8.87268E-02  2.41160E+00 -3.02315E-01  2.27948E-01  2.28061E-01
   2.60767E+00  2.23766E+00 -5.43274E-01  9.86030E-01 -1.63530E-01  5.36946E-01  1.06400E+00  1.37022E+00  8.65767E-01  1.28252E+00
   4.26557E+00  2.63122E+00 -3.88721E-01 -8.58741E-01  1.54027E+00  2.91043E+00  1.84085E-01 -9.12909E-01  5.10123E-02  2.75428E+00
   4.40031E-01  9.76595E-01 -2.72911E-01  2.65076E+00  2.46121E+00  9.69382E-01  1.23205E+00  2.22238E+00  3.23799E+00  5.32209E+00
   8.36217E+00  7.83112E+00  6.46508E+00  5.12991E+00  8.44346E+00  9.74298E+00  1.15236E+01  9.74984E+00  7.64486E+00  1.44888E+01
   1.36347E+01  1.58309E+01  1.85587E+01  1.61414E+01  1.61664E+01  1.35459E+01  1.16780E+01  8.48682E+00  6.40133E+00  6.12282E+00
   4.36729E+00  3.02591E+00  3.56961E+00  3.72680E+00  2.37270E+00  2.34608E+00  2.18375E+00  2.23624E+00  2.48805E+00  6.85711E+00
   2.58372E+00  1.56144E+00 -3.66496E-01  1.84844E+00  4.08989E+00 -4.00101E-01  1.48562E+00  1.65758E+00  1.37340E+00  2.12838E+00
   1.34943E+00  5.00439E-01  1.95789E+00  1.25757E-01  4.28571E-01  7.17344E-02  1.42159E+00  3.03173E-01  1.80606E-01 -2.27192E-01
  -7.71703E-01 -1.88384E+00  1.54422E+00 -1.73571E+00  1.22321E+00 -2.80468E+00  2.58662E+00  4.52763E+00  2.38977E+00  3.54746E+00
   1.48490E+00 -1.27825E+00  7.23697E-01 -1.18696E+00  1.28170E+00  1.20078E+00 -1.00116E+00  1.94239E+00 -6.56103E-01  1.72043E-01
   2.77926E+00  2.36757E+00  2.67810E+00  1.19597E-01  1.57989E+00  8.12164E-01  1.22150E+00  1.28625E+00  2.51650E+00  3.32735E+00
   2.55585E+00  3.44550E+00  2.79191E+00  2.21393E+00  4.20648E-01  3.21342E+00  2.35389E+00  4.42622E+00  3.58066E+00  3.78255E+00
   3.62933E+00  7.78161E-01  5.94755E+00  2.87167E+00  3.78538E+00  4.57353E+00  2.57015E+00  3.21571E+00  5.93899E+00  3.42448E+00
   2.41637E+00  3.85672E+00  5.43539E+00  3.84028E+00  5.88179E+00  5.12146E+00  2.69100E+00  3.51742E+00  4.75918E+00  2.76502E+00
   4.28228E+00  4.26408E-01  1.79084E+00  1.82824E+00  7.18697E-01 -7.11767E-01  1.33732E+00 -2.83017E+00 -1.42677E+00 -2.05863E+00
  -3.65254E+00 -3.93525E+00 -6.43161E+00 -1.88234E+00 -3.72936E+00 -2.94002E+00  1.11977E+00  2.95622E-01  1.44310E+00 -1.84914E+00
  -9.61934E-01  2.22475E-01 -1.88126E+00  3.19156E-01 -1.30063E+00 -2.35918E-01 -3.27849E+00 -2.62863E+00  1.66059E+00 -1.75559E+00
  -3.07823E+00 -4.82246E-01 -1.90441E-01 -2.37775E+00 -1.12932E+00  3.42490E-01 -1.25803E+00  8.73688E-01 -1.06991E+00  1.67210E+00
   3.56787E-01 -1.23442E+00  1.39407E+00  1.95242E+00  2.19846E+00  1.55260E+00  3.19346E+00 -2.52405E-01 -5.71408E-01  2.30778E+00
   6.42343E-01  4.90669E-01  2.51578E+00  1.60269E+00 -1.49011E+00  2.04530E-01  1.69615E+00  1.12187E+00  2.08676E+00  4.45186E+00
   6.91849E-01  4.68202E-01  1.09276E+00  1.60436E+00  1.65405E+00 -1.64416E+00 -8.31964E-01  1.16727E+00 -1.45192E+00 -1.53816E+00
  -8.15695E-01 -1.51522E+00  8.94075E-01  2.16239E-02 -1.38708E+00  1.55663E-01  5.33088E-01 -2.78123E+00 -8.36035E-01  1.04772E+00
  -2.78996E+00 -7.06365E-01  2.43934E+00  1.16550E+00 -3.46140E+00  1.73794E+00 -4.01951E-01 -2.14928E-01 -8.01928E-01  1.75894E+00
   2.05795E+00 -6.38507E-02  3.80092E-01 -7.21365E-01 -1.73334E-01 -3.22481E+00  1.28943E+00 -5.17845E-01 -1.51986E-01  1.83186E-01
  -1.51316E+00  1.32650E+00 -9.26703E-01 -3.04438E-01 -4.91615E-01  2.37778E+00 -2.51303E+00 -7.33881E-01  8.00547E-01 -7.87735E-01
   3.08796E-01 -1.67615E-01  1.04770E+00 -1.69681E+00 -7.64676E-01  1.54973E-01  1.25131E+00 -1.33720E+00  1.16921E+00 -2.70295E+00
  -2.37788E+00  1.19067E+00 -2.33922E+00  1.65359E+00 -2.72979E+00 -1.34948E+00  1.47924E+00 -4.20883E-01 -2.32551E+00  1.38966E+00
   1.79431E+00  3.91681E-01  1.61719E+00 -2.67844E-02 -6.51613E-02 -1.12205E+00  8.47881E-01  5.33949E-01
 NY points of the fit to the data follow
   4.03439E+00  4.59989E+00  4.53610E+00  5.24798E+00  5.03522E+00  5.88992E+00  5.51480E+00  6.49063E+00  5.89452E+00  6.91891E+00
   6.01154E+00  6.95363E+00  5.75130E+00  6.46105E+00  5.11207E+00  5.56653E+00  4.31662E+00  4.59688E+00  3.61912E+00  3.85754E+00
   3.17885E+00  3.39903E+00  2.93140E+00  3.12199E+00  2.79285E+00  2.96041E+00  2.75837E+00  2.92505E+00  2.75054E+00  2.89333E+00
   2.78517E+00  2.92259E+00  2.90935E+00  3.04651E+00  3.09383E+00  3.17944E+00  3.20182E+00  3.20338E+00  3.17807E+00  3.11865E+00
   3.09059E+00  3.02426E+00  3.03528E+00  2.99219E+00  3.02160E+00  2.98811E+00  3.00618E+00  2.97349E+00  2.97575E+00  2.91792E+00
   2.88988E+00  2.79896E+00  2.73337E+00  2.60515E+00  2.50483E+00  2.37423E+00  2.26801E+00  2.17027E+00  2.08944E+00  2.02535E+00
   1.97231E+00  1.92887E+00  1.88807E+00  1.85012E+00  1.82134E+00  1.78926E+00  1.77112E+00  1.74591E+00  1.73424E+00  1.71816E+00
   1.71996E+00  1.72884E+00  1.79912E+00  1.80888E+00  1.91985E+00  1.90534E+00  2.03622E+00  1.99371E+00  2.13647E+00  2.06887E+00
   2.22840E+00  2.13404E+00  2.30950E+00  2.18941E+00  2.37818E+00  2.23253E+00  2.42283E+00  2.29246E+00  2.68062E+00  2.73749E+00
   3.14258E+00  3.39768E+00  3.70436E+00  4.15864E+00  4.32483E+00  4.96580E+00  5.01507E+00  5.83187E+00  5.72881E+00  6.68041E+00
   6.40860E+00  7.44766E+00  6.93126E+00  7.94159E+00  7.03264E+00  7.80511E+00  6.48715E+00  6.90636E+00  5.41317E+00  5.51730E+00
   4.17612E+00  4.16424E+00  3.46990E+00  3.67537E+00  3.43562E+00  3.89368E+00  3.87467E+00  4.56443E+00  4.60926E+00  5.52531E+00
   5.63139E+00  6.78721E+00  6.71232E+00  7.99461E+00  7.70339E+00  9.05813E+00  8.44764E+00  9.73276E+00  8.59985E+00  9.57339E+00
   7.93314E+00  8.44923E+00  6.58694E+00  6.68192E+00  4.98779E+00  4.83095E+00  3.54460E+00  3.30231E+00  2.43662E+00  2.19610E+00
   1.66732E+00  1.46026E+00  1.19753E+00  1.05776E+00  1.05335E+00  1.01314E+00  1.01500E+00  9.65658E-01  9.57898E-01  9.00058E-01
   8.96831E-01  8.47834E-01  8.40701E-01  7.91838E-01  7.74312E-01  7.20213E-01  6.91046E-01  6.32907E-01  5.94751E-01  5.31654E-01
   4.80663E-01  4.07818E-01  3.30722E-01  2.68430E-01  1.83938E-01  1.41953E-01  4.46529E-02 -6.16823E-03 -1.07381E-01 -1.77896E-01
  -2.66617E-01 -3.61021E-01 -4.23131E-01 -5.43536E-01 -5.50704E-01 -6.71130E-01 -6.07568E-01 -7.10925E-01 -5.72080E-01 -6.63173E-01
  -4.67578E-01 -5.36401E-01 -3.06542E-01 -3.33540E-01 -1.22730E-01 -1.07233E-01  7.08848E-02  1.44838E-01  2.97928E-01  4.46537E-01
   5.82824E-01  7.91871E-01  8.88195E-01  1.10179E+00  1.13217E+00  1.29975E+00  1.23126E+00  1.35392E+00  1.20994E+00  1.28818E+00
   1.14995E+00  1.23979E+00  1.21909E+00  1.25822E+00  1.32733E+00  1.24942E+00  1.35890E+00  1.11241E+00  1.16930E+00  7.86347E-01
   8.69132E-01  4.58663E-01  6.45730E-01  2.81890E-01  6.13602E-01  2.86126E-01  6.76902E-01  3.13108E-01  6.29761E-01  2.42903E-01
   4.07153E-01  8.22587E-02  1.30824E-01 -3.53149E-03  4.93557E-02  1.51274E-01  2.44308E-01  5.20312E-01  5.89837E-01  8.96724E-01
   9.17403E-01  1.16200E+00  1.14443E+00  1.31478E+00  1.31127E+00  1.38991E+00  1.38322E+00  1.37978E+00  1.38858E+00  1.31489E+00
   1.34593E+00  1.22284E+00  1.33048E+00  1.19650E+00  1.38138E+00  1.40669E+00  2.20609E+00  2.59148E+00  3.70510E+00  4.37997E+00
   5.55336E+00  6.43297E+00  7.49620E+00  8.52939E+00  9.47503E+00  1.06238E+01  1.13676E+01  1.25517E+01  1.30429E+01  1.41633E+01
   1.42189E+01  1.50636E+01  1.42893E+01  1.46341E+01  1.29354E+01  1.27291E+01  1.04607E+01  9.88230E+00  7.62951E+00  6.95361E+00
   5.14220E+00  4.56305E+00  3.27767E+00  2.84400E+00  1.99690E+00  1.69759E+00  1.21319E+00  1.06470E+00  9.89187E-01  9.54910E-01
   9.11594E-01  8.81287E-01  8.48149E-01  8.15695E-01  7.88305E-01  7.62851E-01  7.42004E-01  7.24284E-01  7.07918E-01  6.97759E-01
   6.84642E-01  6.82633E-01  6.74514E-01  6.78221E-01  6.73094E-01  6.80749E-01  6.77361E-01  6.87182E-01  6.85119E-01  6.95833E-01
   6.95975E-01  7.07868E-01  7.10403E-01  7.24157E-01  7.30005E-01  7.46689E-01  7.57124E-01  7.79348E-01  7.98253E-01  8.31589E-01
   8.67503E-01  9.27561E-01  1.01361E+00  1.14567E+00  1.20227E+00  1.35527E+00  1.34749E+00  1.49682E+00  1.40840E+00  1.53145E+00
   1.35574E+00  1.54269E+00  1.33774E+00  1.58392E+00  1.36139E+00  1.64230E+00  1.38620E+00  1.65226E+00  1.34901E+00  1.56504E+00
   1.28107E+00  1.45945E+00  1.29643E+00  1.51555E+00  1.52969E+00  1.78323E+00  1.95638E+00  2.16637E+00  2.39626E+00  2.46820E+00
   2.65725E+00  2.61735E+00  2.76549E+00  2.68779E+00  2.85043E+00  2.84076E+00  3.05509E+00  3.13505E+00  3.44890E+00  3.61092E+00
   3.98633E+00  4.15263E+00  4.47103E+00  4.55728E+00  4.70419E+00  4.58389E+00  4.46901E+00  4.11144E+00  3.77113E+00  3.25648E+00
   2.81887E+00  2.29036E+00  1.89036E+00  1.47000E+00  1.18301E+00  9.15881E-01  7.37238E-01  5.75743E-01  4.73102E-01  3.79377E-01
   3.17426E-01  2.60721E-01  2.18721E-01  1.96046E-01  1.74171E-01  1.63301E-01  1.49504E-01  1.44810E-01  1.36286E-01  1.36432E-01
   1.32683E-01  1.37679E-01  1.39045E-01  1.49471E-01  1.56716E-01  1.73477E-01  1.87603E-01  2.11749E-01  2.33800E-01  2.66307E-01
   2.97108E-01  3.38554E-01  3.78333E-01  4.28489E-01  4.76452E-01  5.33864E-01  5.87823E-01  6.49521E-01  7.05712E-01  7.67181E-01
   8.20435E-01  8.76000E-01  9.20331E-01  9.63934E-01  9.93482E-01  1.01975E+00  1.02989E+00  1.03519E+00  1.02350E+00  1.00676E+00
   9.73552E-01  9.36446E-01  8.84693E-01  8.31317E-01  7.65999E-01  7.01966E-01  6.29049E-01  5.60399E-01  4.85737E-01  4.17914E-01
   3.46365E-01  2.83513E-01  2.18436E-01  1.63113E-01  1.06290E-01  5.95546E-02  1.14060E-02 -2.68524E-02 -6.68623E-02 -9.74983E-02
  -1.30446E-01 -1.54669E-01 -1.81825E-01 -2.00909E-01 -2.23504E-01 -2.38604E-01 -2.57704E-01 -2.69785E-01 -2.86249E-01 -2.96066E-01
  -3.10554E-01 -3.18676E-01 -3.31676E-01 -3.38524E-01 -3.50396E-01 -3.56275E-01 -3.67278E-01 -3.72411E-01 -3.82737E-01 -3.87288E-01
  -3.97077E-01 -4.01166E-01 -4.10522E-01 -4.14240E-01 -4.23242E-01 -4.26659E-01 -4.35368E-01 -4.38535E-01 -4.46998E-01 -4.49958E-01
  -4.58212E-01 -4.60998E-01 -4.69073E-01 -4.71712E-01 -4.79630E-01 -4.82142E-01 -4.89923E-01 -4.92325E-01 -4.99986E-01 -5.02291E-01
  -5.09842E-01 -5.12063E-01 -5.19516E-01 -5.21660E-01 -5.29022E-01 -5.31096E-01 -5.38373E-01 -5.40383E-01 -5.47581E-01 -5.49530E-01
  -5.56652E-01 -5.58543E-01 -5.65590E-01 -5.67425E-01 -5.74398E-01 -5.76175E-01 -5.83072E-01 -5.84788E-01 -5.91605E-01 -5.93256E-01
  -5.99987E-01 -6.01562E-01 -6.08195E-01 -6.09681E-01 -6.16199E-01 -6.17575E-01 -6.23951E-01 -6.25181E-01
 NY background values follow
     1.308E+00    1.304E+00    1.301E+00    1.297E+00    1.293E+00    1.289E+00    1.285E+00    1.281E+00    1.277E+00    1.273E+00
     1.269E+00    1.265E+00    1.261E+00    1.258E+00    1.254E+00    1.250E+00    1.246E+00    1.242E+00    1.238E+00    1.234E+00
     1.230E+00    1.226E+00    1.222E+00    1.218E+00    1.215E+00    1.211E+00    1.207E+00    1.203E+00    1.199E+00    1.195E+00
     1.191E+00    1.187E+00    1.183E+00    1.179E+00    1.175E+00    1.172E+00    1.168E+00    1.164E+00    1.160E+00    1.156E+00
     1.152E+00    1.148E+00    1.144E+00    1.140E+00    1.136E+00    1.132E+00    1.129E+00    1.125E+00    1.121E+00    1.117E+00
     1.113E+00    1.109E+00    1.105E+00    1.101E+00    1.097E+00    1.093E+00    1.089E+00    1.086E+00    1.082E+00    1.078E+00
     1.074E+00    1.070E+00    1.066E+00    1.062E+00    1.058E+00    1.054E+00    1.050E+00    1.046E+00    1.042E+00    1.039E+00
     1.035E+00    1.031E+00    1.027E+00    1.023E+00    1.019E+00    1.015E+00    1.011E+00    1.007E+00    1.003E+00    9.995E-01
     9.955E-01    9.916E-01    9.877E-01    9.838E-01    9.799E-01    9.760E-01    9.721E-01    9.681E-01    9.642E-01    9.603E-01
     9.564E-01    9.525E-01    9.486E-01    9.447E-01    9.407E-01    9.368E-01    9.329E-01    9.290E-01    9.251E-01    9.212E-01
     9.173E-01    9.134E-01    9.094E-01    9.055E-01    9.016E-01    8.977E-01    8.938E-01    8.899E-01    8.860E-01    8.820E-01
     8.781E-01    8.742E-01    8.703E-01    8.664E-01    8.625E-01    8.586E-01    8.546E-01    8.507E-01    8.468E-01    8.429E-01
     8.390E-01    8.351E-01    8.311E-01    8.272E-01    8.233E-01    8.194E-01    8.155E-01    8.116E-01    8.077E-01    8.037E-01
     7.998E-01    7.959E-01    7.920E-01    7.881E-01    7.842E-01    7.803E-01    7.763E-01    7.724E-01    7.685E-01    7.646E-01
     7.607E-01    7.568E-01    7.528E-01    7.489E-01    7.450E-01    7.411E-01    7.372E-01    7.333E-01    7.293E-01    7.254E-01
     7.215E-01    7.176E-01    7.137E-01    7.098E-01    7.059E-01    7.019E-01    6.980E-01    6.941E-01    6.902E-01    6.863E-01
     6.824E-01    6.784E-01    6.745E-01    6.706E-01    6.667E-01    6.628E-01    6.589E-01    6.549E-01    6.510E-01    6.471E-01
     6.432E-01    6.393E-01    6.354E-01    6.314E-01    6.275E-01    6.236E-01    6.197E-01    6.158E-01    6.119E-01    6.079E-01
     6.040E-01    6.001E-01    5.962E-01    5.923E-01    5.884E-01    5.844E-01    5.805E-01    5.766E-01    5.727E-01    5.688E-01
     5.649E-01    5.609E-01    5.570E-01    5.531E-01    5.492E-01    5.453E-01    5.414E-01    5.374E-01    5.335E-01    5.296E-01
     5.257E-01    5.218E-01    5.178E-01    5.139E-01    5.100E-01    5.061E-01    5.022E-01    4.983E-01    4.943E-01    4.904E-01
     4.865E-01    4.826E-01    4.787E-01    4.748E-01    4.708E-01    4.669E-01    4.630E-01    4.591E-01    4.552E-01    4.513E-01
     4.473E-01    4.434E-01    4.395E-01    4.356E-01    4.317E-01    4.277E-01    4.238E-01    4.199E-01    4.160E-01    4.121E-01
     4.082E-01    4.042E-01    4.003E-01    3.964E-01    3.925E-01    3.886E-01    3.847E-01    3.807E-01    3.768E-01    3.729E-01
     3.690E-01    3.651E-01    3.611E-01    3.572E-01    3.533E-01    3.494E-01    3.455E-01    3.416E-01    3.376E-01    3.337E-01
     3.298E-01    3.259E-01    3.220E-01    3.181E-01    3.141E-01    3.102E-01    3.063E-01    3.024E-01    2.985E-01    2.945E-01
     2.906E-01    2.867E-01    2.828E-01    2.789E-01    2.750E-01    2.710E-01    2.671E-01    2.632E-01    2.593E-01    2.554E-01
     2.514E-01    2.475E-01    2.436E-01    2.397E-01    2.358E-01    2.319E-01    2.279E-01    2.240E-01    2.201E-01    2.162E-01
     2.123E-01    2.084E-01    2.044E-01    2.005E-01    1.966E-01    1.927E-01    1.888E-01    1.848E-01    1.809E-01    1.770E-01
     1.731E-01    1.692E-01    1.653E-01    1.613E-01    1.574E-01    1.535E-01    1.496E-01    1.457E-01    1.418E-01    1.378E-01
     1.339E-01    1.300E-01    1.261E-01    1.222E-01    1.183E-01    1.143E-01    1.104E-01    1.065E-01    1.026E-01    9.867E-02
     9.475E-02    9.083E-02    8.691E-02    8.300E-02    7.908E-02    7.516E-02    7.125E-02    6.733E-02    6.341E-02    5.949E-02
     5.558E-02    5.166E-02    4.774E-02    4.383E-02    3.991E-02    3.599E-02    3.208E-02    2.816E-02    2.424E-02    2.033E-02
     1.641E-02    1.249E-02    8.576E-03    4.659E-03    7.423E-04   -3.174E-03   -7.091E-03   -1.101E-02   -1.492E-02   -1.884E-02
    -2.276E-02   -2.667E-02   -3.059E-02   -3.451E-02   -3.842E-02   -4.234E-02   -4.625E-02   -5.017E-02   -5.409E-02   -5.800E-02
    -6.192E-02   -6.584E-02   -6.975E-02   -7.367E-02   -7.758E-02   -8.150E-02   -8.542E-02   -8.933E-02   -9.325E-02   -9.716E-02
    -1.011E-01   -1.050E-01   -1.089E-01   -1.128E-01   -1.167E-01   -1.207E-01   -1.246E-01   -1.285E-01   -1.324E-01   -1.363E-01
    -1.402E-01   -1.441E-01   -1.481E-01   -1.520E-01   -1.559E-01   -1.598E-01   -1.637E-01   -1.676E-01   -1.716E-01   -1.755E-01
    -1.794E-01   -1.833E-01   -1.872E-01   -1.911E-01   -1.950E-01   -1.990E-01   -2.029E-01   -2.068E-01   -2.107E-01   -2.146E-01
    -2.185E-01   -2.224E-01   -2.264E-01   -2.303E-01   -2.342E-01   -2.381E-01   -2.420E-01   -2.459E-01   -2.498E-01   -2.538E-01
    -2.577E-01   -2.616E-01   -2.655E-01   -2.694E-01   -2.733E-01   -2.772E-01   -2.812E-01   -2.851E-01   -2.890E-01   -2.929E-01
    -2.968E-01   -3.007E-01   -3.046E-01   -3.085E-01   -3.125E-01   -3.164E-01   -3.203E-01   -3.242E-01   -3.281E-01   -3.320E-01
    -3.359E-01   -3.398E-01   -3.438E-01   -3.477E-01   -3.516E-01   -3.555E-01   -3.594E-01   -3.633E-01   -3.672E-01   -3.711E-01
    -3.751E-01   -3.790E-01   -3.829E-01   -3.868E-01   -3.907E-01   -3.946E-01   -3.985E-01   -4.024E-01   -4.064E-01   -4.103E-01
    -4.142E-01   -4.181E-01   -4.220E-01   -4.259E-01   -4.298E-01   -4.337E-01   -4.376E-01   -4.416E-01   -4.455E-01   -4.494E-01
    -4.533E-01   -4.572E-01   -4.611E-01   -4.650E-01   -4.689E-01   -4.728E-01   -4.768E-01   -4.807E-01   -4.846E-01   -4.885E-01
    -4.924E-01   -4.963E-01   -5.002E-01   -5.041E-01   -5.080E-01   -5.119E-01   -5.159E-01   -5.198E-01   -5.237E-01   -5.276E-01
    -5.315E-01   -5.354E-01   -5.393E-01   -5.432E-01   -5.471E-01   -5.510E-01   -5.549E-01   -5.589E-01   -5.628E-01   -5.667E-01
    -5.706E-01   -5.745E-01   -5.784E-01   -5.823E-01   -5.862E-01   -5.901E-01   -5.940E-01   -5.979E-01   -6.019E-01   -6.058E-01
    -6.097E-01   -6.136E-01   -6.175E-01   -6.214E-01   -6.253E-01   -6.292E-01   -6.331E-01   -6.370E-01
 Ala      Conc. = 2.64E+02
