 LCModel (Version 6.3-1L) Copyright: S.W. Provencher.          Ref.: Magn. Reson. Med. 30:672-679 (1993).                
 Slice#3 Row#11 Col#10  PD_05_press_1_raw_act
 36 lines in following concentration table = NCONC+1
    Conc.  %SD /Cr+PCr  Metabolite                                         
  237.355  44%   0.214 Ala                                                 
    0.000 999%   0.000 Asp                                                 
  380.729  47%   0.343 Cr                                                  
  729.266  25%   0.657 PCr                                                 
   94.365 123% 8.5E-02 GABA                                                
    0.000 999%   0.000 Glc                                                 
 1.05E+03  21%   0.947 Gln                                                 
 1.50E+03  17%   1.349 Glu                                                 
  289.791   4%   0.261 GPC                                                 
    0.000 999%   0.000 PCh                                                 
  375.625  13%   0.338 GSH                                                 
  732.136  22%   0.660 Ins                                                 
    4.798 999% 4.3E-03 Lac                                                 
 1.53E+03   7%   1.375 NAA                                                 
  113.992 102%   0.103 NAAG                                                
   54.706  29% 4.9E-02 Scyllo                                              
    0.000 999%   0.000 Tau                                                 
    0.000 999%   0.000 -CrCH2                                              
  289.791   4%   0.261 GPC+PCh                                             
 1.64E+03   3%   1.478 NAA+NAAG                                            
 1.11E+03   3%   1.000 Cr+PCr                                              
 2.55E+03  17%   2.296 Glu+Gln                                             
  310.209 182%   0.279 Lip13a                                              
  284.135 135%   0.256 Lip13b                                              
   37.031 354% 3.3E-02 Lip09                                               
  733.427  21%   0.661 MM09                                                
  120.227  71%   0.108 Lip20                                               
 1.66E+03  14%   1.498 MM20                                                
  211.126  52%   0.190 MM12                                                
 1.36E+03  18%   1.225 MM14                                                
  613.227  23%   0.552 MM17                                                
  594.344  51%   0.535 Lip13a+Lip13b                                       
 2.17E+03  11%   1.951 MM14+Lip13a+Lip13b+MM12                             
  770.458  13%   0.694 MM09+Lip09                                          
 1.78E+03  13%   1.606 MM20+Lip20                                          
   6 lines in following misc. output table
  FWHM = 0.076 ppm    S/N =  14                                            
  Data shift = 0.054 ppm                                                   
  Ph:  -6 deg      -9.4 deg/ppm                                            
  alphaB,S = 1.0E+00,   1.0E+02                                            
   14 spline knots.   Ns =10(1)                                            
  (20) 6 infls.   (19) 1 extrs.                                            
  498 points on ppm-axis = NY
      4.000000     3.992357     3.984714     3.977070     3.969427     3.961784     3.954141     3.946497     3.938854     3.931211
      3.923568     3.915925     3.908281     3.900638     3.892995     3.885352     3.877708     3.870065     3.862422     3.854779
      3.847136     3.839492     3.831849     3.824206     3.816563     3.808919     3.801276     3.793633     3.785990     3.778347
      3.770703     3.763060     3.755417     3.747774     3.740130     3.732487     3.724844     3.717201     3.709558     3.701914
      3.694271     3.686628     3.678985     3.671341     3.663698     3.656055     3.648412     3.640769     3.633125     3.625482
      3.617839     3.610196     3.602552     3.594909     3.587266     3.579623     3.571980     3.564336     3.556693     3.549050
      3.541407     3.533763     3.526120     3.518477     3.510834     3.503191     3.495547     3.487904     3.480261     3.472618
      3.464974     3.457331     3.449688     3.442045     3.434402     3.426758     3.419115     3.411472     3.403829     3.396185
      3.388542     3.380899     3.373256     3.365613     3.357969     3.350326     3.342683     3.335040     3.327396     3.319753
      3.312110     3.304467     3.296824     3.289180     3.281537     3.273894     3.266251     3.258607     3.250964     3.243321
      3.235678     3.228034     3.220391     3.212748     3.205105     3.197462     3.189818     3.182175     3.174532     3.166889
      3.159245     3.151602     3.143959     3.136316     3.128673     3.121029     3.113386     3.105743     3.098100     3.090456
      3.082813     3.075170     3.067527     3.059884     3.052240     3.044597     3.036954     3.029311     3.021667     3.014024
      3.006381     2.998738     2.991095     2.983451     2.975808     2.968165     2.960522     2.952878     2.945235     2.937592
      2.929949     2.922306     2.914662     2.907019     2.899376     2.891733     2.884089     2.876446     2.868803     2.861160
      2.853517     2.845873     2.838230     2.830587     2.822944     2.815300     2.807657     2.800014     2.792371     2.784728
      2.777084     2.769441     2.761798     2.754155     2.746511     2.738868     2.731225     2.723582     2.715939     2.708295
      2.700652     2.693009     2.685366     2.677722     2.670079     2.662436     2.654793     2.647150     2.639506     2.631863
      2.624220     2.616577     2.608933     2.601290     2.593647     2.586004     2.578361     2.570717     2.563074     2.555431
      2.547788     2.540144     2.532501     2.524858     2.517215     2.509572     2.501928     2.494285     2.486642     2.478999
      2.471355     2.463712     2.456069     2.448426     2.440783     2.433139     2.425496     2.417853     2.410210     2.402566
      2.394923     2.387280     2.379637     2.371994     2.364350     2.356707     2.349064     2.341421     2.333777     2.326134
      2.318491     2.310848     2.303205     2.295561     2.287918     2.280275     2.272632     2.264988     2.257345     2.249702
      2.242059     2.234416     2.226772     2.219129     2.211486     2.203843     2.196199     2.188556     2.180913     2.173270
      2.165627     2.157983     2.150340     2.142697     2.135054     2.127410     2.119767     2.112124     2.104481     2.096838
      2.089194     2.081551     2.073908     2.066265     2.058621     2.050978     2.043335     2.035692     2.028049     2.020405
      2.012762     2.005119     1.997476     1.989833     1.982190     1.974546     1.966903     1.959260     1.951617     1.943974
      1.936331     1.928688     1.921045     1.913402     1.905759     1.898115     1.890472     1.882829     1.875186     1.867543
      1.859900     1.852257     1.844614     1.836971     1.829327     1.821684     1.814041     1.806398     1.798755     1.791112
      1.783469     1.775826     1.768183     1.760540     1.752896     1.745253     1.737610     1.729967     1.722324     1.714681
      1.707038     1.699395     1.691752     1.684108     1.676465     1.668822     1.661179     1.653536     1.645893     1.638250
      1.630607     1.622964     1.615321     1.607677     1.600034     1.592391     1.584748     1.577105     1.569462     1.561819
      1.554176     1.546533     1.538890     1.531246     1.523603     1.515960     1.508317     1.500674     1.493031     1.485388
      1.477745     1.470102     1.462458     1.454815     1.447172     1.439529     1.431886     1.424243     1.416600     1.408957
      1.401314     1.393671     1.386027     1.378384     1.370741     1.363098     1.355455     1.347812     1.340169     1.332526
      1.324883     1.317240     1.309596     1.301953     1.294310     1.286667     1.279024     1.271381     1.263738     1.256095
      1.248452     1.240808     1.233165     1.225522     1.217879     1.210236     1.202593     1.194950     1.187307     1.179664
      1.172021     1.164377     1.156734     1.149091     1.141448     1.133805     1.126162     1.118519     1.110876     1.103233
      1.095590     1.087946     1.080303     1.072660     1.065017     1.057374     1.049731     1.042088     1.034445     1.026802
      1.019158     1.011515     1.003872     0.996229     0.988586     0.980943     0.973300     0.965657     0.958014     0.950371
      0.942727     0.935084     0.927441     0.919798     0.912155     0.904512     0.896869     0.889226     0.881583     0.873940
      0.866296     0.858653     0.851010     0.843367     0.835724     0.828081     0.820438     0.812795     0.805152     0.797508
      0.789865     0.782222     0.774579     0.766936     0.759293     0.751650     0.744007     0.736364     0.728721     0.721077
      0.713434     0.705791     0.698148     0.690505     0.682862     0.675219     0.667576     0.659933     0.652290     0.644646
      0.637003     0.629360     0.621717     0.614074     0.606431     0.598788     0.591145     0.583502     0.575858     0.568215
      0.560572     0.552929     0.545286     0.537643     0.530000     0.522357     0.514714     0.507071     0.499427     0.491784
      0.484141     0.476498     0.468855     0.461212     0.453569     0.445925     0.438282     0.430639     0.422996     0.415353
      0.407710     0.400067     0.392424     0.384780     0.377137     0.369494     0.361851     0.354208     0.346565     0.338922
      0.331278     0.323635     0.315992     0.308349     0.300706     0.293063     0.285420     0.277777     0.270133     0.262490
      0.254847     0.247204     0.239561     0.231918     0.224275     0.216631     0.208988     0.201345
 NY phased data points follow
   1.72800E+01  1.73510E+01  1.88576E+01  2.03602E+01  2.21095E+01  2.14438E+01  2.39317E+01  2.59464E+01  3.02911E+01  2.89966E+01
   3.01187E+01  2.99918E+01  2.92826E+01  2.72201E+01  2.46645E+01  2.22814E+01  2.12299E+01  1.93398E+01  1.93232E+01  1.54509E+01
   1.71674E+01  1.44962E+01  1.52193E+01  1.57944E+01  1.79462E+01  1.61064E+01  1.87617E+01  1.53408E+01  1.56747E+01  1.46168E+01
   1.63824E+01  1.64704E+01  1.55830E+01  1.66990E+01  1.62012E+01  1.47433E+01  1.70123E+01  1.27683E+01  1.46708E+01  1.62594E+01
   1.53175E+01  1.30989E+01  1.64006E+01  1.27164E+01  1.37966E+01  1.50883E+01  1.46646E+01  1.61827E+01  1.56742E+01  1.45405E+01
   1.32256E+01  1.28469E+01  1.17810E+01  1.37159E+01  1.21235E+01  1.17453E+01  1.10255E+01  1.22113E+01  9.04300E+00  7.25162E+00
   7.78378E+00  8.18488E+00  7.09900E+00  6.91328E+00  4.58947E+00  5.20607E+00  4.34633E+00  4.19291E+00  6.18574E+00  5.32295E+00
   6.55367E+00  7.33974E+00  4.95086E+00  4.96443E+00  5.84183E+00  5.14567E+00  3.72489E+00  6.96274E+00  5.92916E+00  6.08618E+00
   4.85653E+00  8.68586E+00  5.97426E+00  6.31941E+00  8.93218E+00  7.48130E+00  7.43835E+00  7.10990E+00  5.47771E+00  6.70216E+00
   6.66870E+00  7.39806E+00  5.72061E+00  8.48158E+00  9.37354E+00  8.51828E+00  9.76612E+00  1.32945E+01  1.40062E+01  1.60076E+01
   1.75327E+01  2.26190E+01  2.30175E+01  2.23293E+01  2.17112E+01  2.02435E+01  1.73708E+01  1.59295E+01  1.31049E+01  1.35764E+01
   1.15932E+01  1.04977E+01  8.99525E+00  6.65452E+00  7.10470E+00  4.54621E+00  6.34698E+00  6.80073E+00  8.52518E+00  1.19164E+01
   1.18822E+01  1.23243E+01  1.53081E+01  1.96748E+01  2.37198E+01  2.57483E+01  2.95123E+01  2.93536E+01  2.99101E+01  2.74078E+01
   2.45139E+01  2.15627E+01  1.70539E+01  1.58180E+01  1.29282E+01  1.06664E+01  9.95093E+00  7.88559E+00  8.22432E+00  6.64166E+00
   5.77888E+00  3.68974E+00  6.50246E+00  5.83422E+00  5.72420E+00  4.23884E+00  4.94510E+00  4.90641E+00  5.17321E+00  3.96109E+00
   4.08532E+00  3.37085E+00  3.06449E+00  1.70011E+00  3.91988E+00  2.67861E+00  4.71898E+00  2.07035E+00  2.41169E+00  1.27202E+00
   1.25644E+00  8.02707E-01  1.33299E+00  9.78047E-01  1.24610E+00  2.40261E+00  1.36917E+00 -1.79286E-01 -2.51790E-02 -7.54222E-01
   1.91572E-01 -2.69247E+00 -3.88541E+00 -2.34627E+00 -4.08352E+00 -6.12854E+00 -1.45059E+00 -4.19498E+00 -3.81024E+00 -2.71591E+00
  -4.33865E+00 -3.47770E+00 -4.27880E+00 -4.02745E+00 -3.25471E+00 -1.73908E+00 -2.86984E+00 -3.60289E+00  1.79529E-01 -7.83438E-02
   1.45923E+00  1.14211E+00  3.59828E+00  3.14029E+00  2.59588E+00  1.55445E+00  2.47122E+00  1.64015E+00  2.16394E+00  1.04260E+00
   9.99393E-01  3.01616E+00  1.30546E+00  2.68940E+00  2.60069E+00  1.79854E+00  7.47281E-01  1.90667E-01  1.26149E+00 -1.43774E+00
   1.47624E+00  4.21531E+00  1.45754E+00  4.31454E+00  3.33627E+00  5.37181E+00  3.98634E+00  4.88376E+00  3.99698E+00  2.28454E+00
   2.21389E+00  1.40253E+00  3.25616E-01  1.78800E+00  2.62402E+00  3.42526E+00  3.43122E+00  5.69305E+00  5.23845E+00  4.48486E+00
   3.44425E+00  4.36654E+00  3.96751E+00  4.43983E+00  6.08543E+00  5.53877E+00  3.88800E+00  6.49951E+00  3.94527E+00  3.32377E+00
   3.33739E+00  3.12474E+00  6.04936E+00  1.70386E+00  6.00757E+00  6.53890E+00  7.45275E+00  6.64455E+00  9.42959E+00  1.09374E+01
   1.10671E+01  1.39126E+01  1.38912E+01  2.04313E+01  2.29169E+01  2.70032E+01  3.21304E+01  3.59641E+01  4.25549E+01  4.25885E+01
   4.42047E+01  4.36719E+01  3.86176E+01  3.45377E+01  2.86535E+01  2.34411E+01  2.06099E+01  1.78719E+01  1.40103E+01  1.05138E+01
   7.76792E+00  8.81777E+00  7.30304E+00  7.01782E+00  4.12507E+00  6.22934E+00  5.92972E+00  5.36544E+00  6.67722E+00  5.06153E+00
   6.14691E+00  1.36038E+00  1.99205E+00  6.12232E+00  4.35307E+00  5.24274E+00  4.18060E+00  3.36612E+00  4.79734E+00  3.38651E+00
   1.93978E+00  3.27280E+00  3.58371E+00  3.13349E+00  4.16775E+00  4.06956E+00  5.20621E+00  4.35740E+00  4.59517E+00  3.38978E+00
   3.88562E+00  3.42151E+00  4.58926E+00  4.90386E+00  5.86375E+00  3.99498E+00  6.63317E+00  7.96978E+00  6.32662E+00  3.63588E+00
   4.79540E+00  6.34358E+00  6.04022E+00  6.36982E+00  7.11564E+00  3.65705E+00  7.16110E+00  4.42775E+00  4.44290E+00  6.94172E+00
   7.01398E+00  7.67937E+00  4.46363E+00  7.23466E+00  5.57313E+00  7.62805E+00  5.98084E+00  5.65902E+00  5.59278E+00  8.31427E+00
   6.95593E+00  6.51158E+00  6.15222E+00  1.02479E+01  8.27806E+00  1.04266E+01  1.05390E+01  1.05251E+01  1.05114E+01  1.08010E+01
   1.03549E+01  9.39285E+00  1.17663E+01  1.00438E+01  8.85407E+00  9.70063E+00  1.10467E+01  9.50617E+00  1.00306E+01  9.45062E+00
   8.70776E+00  9.03055E+00  8.97943E+00  1.10772E+01  1.00263E+01  1.06284E+01  9.54843E+00  7.88442E+00  7.40330E+00  8.27875E+00
   6.50507E+00  5.19437E+00  4.38150E+00  8.15944E+00  8.59996E+00  5.49174E+00  7.00899E+00  7.47751E+00  4.80466E+00  6.24656E+00
   3.46079E+00  3.69394E+00  2.77412E+00  4.46031E+00  4.94322E+00  1.85089E+00  3.04174E+00  3.58294E+00  2.43048E+00  1.57695E+00
   3.19980E+00  3.51279E+00  3.05379E+00  2.34110E+00  4.51975E+00  3.02160E+00  3.60427E+00  2.75037E+00  3.50781E+00  4.16319E+00
   5.03689E+00  3.64142E+00  3.33834E+00  4.72493E+00  6.34991E+00  3.79959E+00  5.85231E+00  7.95584E+00  4.51082E+00  5.81984E+00
   6.30633E+00  4.86535E+00  6.99017E+00  4.80582E+00  6.15078E+00  7.49012E+00  6.56207E+00  8.31195E+00  6.45054E+00  9.61778E+00
   7.08549E+00  6.44518E+00  6.19614E+00  6.57230E+00  5.98480E+00  5.92060E+00  7.30649E+00  5.85539E+00  6.27452E+00  5.04514E+00
   4.22403E+00  4.21508E+00  2.74603E+00  1.79352E+00  1.29469E+00  4.71134E+00  4.62793E+00  5.41028E+00  3.01663E+00  3.16585E+00
   5.54937E+00  4.57011E+00  2.43516E+00  3.43540E+00  5.68895E+00  2.30002E+00  4.71349E+00  4.49771E+00  5.33961E+00  4.62499E+00
   3.01256E+00  2.37943E+00  3.04102E+00  3.62583E+00  3.89117E+00  1.77780E+00  2.91944E+00  2.91115E+00  3.73736E+00  3.28514E+00
   1.99306E+00  1.82427E+00  1.94721E+00  3.77860E+00  2.59740E+00  3.62437E+00  1.60432E+00  2.54142E+00  2.58530E+00  2.32786E+00
   1.23359E+00  1.51130E+00  1.76415E+00  9.22003E-01  1.72810E+00  2.18274E+00  3.59922E+00  1.88204E+00  2.86454E+00  2.50056E+00
   3.59550E+00  4.02694E+00  1.24848E+00  2.47383E+00  1.89348E+00  2.05938E+00  2.28893E+00  1.07981E+00  2.95338E+00  3.97935E+00
   1.83227E+00  1.46029E+00  2.78123E+00  8.30454E-01  1.45074E+00  3.53250E+00  3.90946E+00  2.58605E+00  2.71156E+00  1.58378E+00
   2.90462E+00  1.42645E+00  3.98352E+00  4.90641E+00  2.56061E+00  9.29958E-01  2.88122E+00  2.57409E+00
 NY points of the fit to the data follow
   1.57495E+01  1.67247E+01  1.78297E+01  1.89781E+01  2.02752E+01  2.19568E+01  2.40083E+01  2.61884E+01  2.81036E+01  2.93627E+01
   2.97534E+01  2.91759E+01  2.77743E+01  2.58563E+01  2.38210E+01  2.20513E+01  2.05466E+01  1.92012E+01  1.78638E+01  1.67118E+01
   1.59168E+01  1.52379E+01  1.49019E+01  1.48036E+01  1.49269E+01  1.51784E+01  1.55523E+01  1.61492E+01  1.69209E+01  1.76793E+01
   1.82959E+01  1.84889E+01  1.80936E+01  1.72035E+01  1.60115E+01  1.48110E+01  1.38781E+01  1.33587E+01  1.31645E+01  1.31485E+01
   1.31124E+01  1.30132E+01  1.30268E+01  1.31314E+01  1.33558E+01  1.36132E+01  1.38038E+01  1.38214E+01  1.35640E+01  1.30713E+01
   1.24321E+01  1.17186E+01  1.11081E+01  1.06506E+01  1.02966E+01  1.00156E+01  9.79986E+00  9.61784E+00  9.42941E+00  9.25091E+00
   9.09703E+00  8.91830E+00  8.71747E+00  8.48504E+00  8.25256E+00  8.08183E+00  7.98641E+00  7.94942E+00  7.94872E+00  7.95335E+00
   7.91934E+00  7.83971E+00  7.74038E+00  7.62574E+00  7.50957E+00  7.40013E+00  7.36761E+00  7.40227E+00  7.35411E+00  7.25252E+00
   7.17477E+00  7.13722E+00  7.14479E+00  7.18133E+00  7.21675E+00  7.17152E+00  7.02664E+00  6.80157E+00  6.49460E+00  6.16524E+00
   5.90357E+00  5.79451E+00  6.05927E+00  7.34443E+00  8.97843E+00  1.00881E+01  1.11259E+01  1.24238E+01  1.41040E+01  1.63522E+01
   1.89736E+01  2.13863E+01  2.29498E+01  2.34117E+01  2.27356E+01  2.09589E+01  1.84783E+01  1.58640E+01  1.36647E+01  1.21029E+01
   1.08028E+01  9.45800E+00  8.15753E+00  6.95092E+00  5.71670E+00  4.99494E+00  5.11428E+00  6.48177E+00  8.77804E+00  1.05821E+01
   1.22156E+01  1.42253E+01  1.67257E+01  1.98838E+01  2.35528E+01  2.70060E+01  2.94287E+01  3.04084E+01  2.99008E+01  2.79561E+01
   2.49410E+01  2.15295E+01  1.83808E+01  1.58920E+01  1.38109E+01  1.17130E+01  9.71291E+00  8.00324E+00  6.41768E+00  5.31775E+00
   5.05600E+00  4.97605E+00  4.85735E+00  4.67017E+00  4.42729E+00  4.20429E+00  4.05099E+00  3.91449E+00  3.76638E+00  3.59538E+00
   3.35490E+00  3.04347E+00  2.75012E+00  2.52901E+00  2.39254E+00  2.31447E+00  2.18286E+00  1.98637E+00  1.76777E+00  1.55548E+00
   1.37953E+00  1.26021E+00  1.18689E+00  1.11606E+00  9.98771E-01  7.99070E-01  4.71860E-01  1.08033E-01 -1.76530E-01 -4.05789E-01
  -6.19655E-01 -8.63230E-01 -1.10461E+00 -1.34123E+00 -1.53858E+00 -1.69755E+00 -1.82979E+00 -1.92280E+00 -1.92296E+00 -1.84126E+00
  -1.72009E+00 -1.57990E+00 -1.41763E+00 -1.23105E+00 -9.89814E-01 -6.59777E-01 -2.74806E-01  1.43395E-01  5.11106E-01  8.52353E-01
   1.12972E+00  1.29682E+00  1.33233E+00  1.25214E+00  1.22139E+00  1.33981E+00  1.63387E+00  2.08326E+00  2.60588E+00  3.00598E+00
   3.19751E+00  3.42357E+00  3.49916E+00  3.15976E+00  2.54341E+00  1.76756E+00  1.04781E+00  4.04952E-01 -1.38336E-01 -2.81616E-01
   2.95209E-02  7.56717E-01  1.67643E+00  2.57096E+00  3.36554E+00  3.84682E+00  3.81487E+00  3.35645E+00  2.52809E+00  1.48362E+00
   5.85838E-01  9.23754E-02  1.31007E-02  4.28459E-01  1.17148E+00  1.93422E+00  2.59039E+00  3.10922E+00  3.48368E+00  3.75329E+00
   4.04041E+00  4.38494E+00  4.63987E+00  4.86800E+00  5.19245E+00  5.50393E+00  5.70558E+00  5.79945E+00  5.75146E+00  5.51543E+00
   5.10671E+00  4.64365E+00  4.32648E+00  4.28660E+00  4.49197E+00  4.94048E+00  5.66280E+00  6.40313E+00  6.94564E+00  7.93168E+00
   1.09355E+01  1.46495E+01  1.75845E+01  2.05209E+01  2.38739E+01  2.75826E+01  3.18452E+01  3.65237E+01  4.06740E+01  4.31873E+01
   4.37497E+01  4.23268E+01  3.89345E+01  3.41982E+01  2.91046E+01  2.47032E+01  2.14034E+01  1.85364E+01  1.56565E+01  1.29714E+01
   1.04894E+01  7.90164E+00  6.23311E+00  5.62828E+00  5.30748E+00  5.05102E+00  4.82171E+00  4.60522E+00  4.36610E+00  4.14036E+00
   3.95036E+00  3.79286E+00  3.66222E+00  3.56223E+00  3.48051E+00  3.41223E+00  3.36689E+00  3.34703E+00  3.35312E+00  3.38479E+00
   3.43995E+00  3.51753E+00  3.61676E+00  3.72923E+00  3.85215E+00  3.98515E+00  4.12643E+00  4.27288E+00  4.42416E+00  4.57753E+00
   4.72755E+00  4.86998E+00  5.00171E+00  5.11801E+00  5.21567E+00  5.29367E+00  5.35111E+00  5.38854E+00  5.40775E+00  5.41185E+00
   5.40510E+00  5.39203E+00  5.37921E+00  5.37512E+00  5.39023E+00  5.44070E+00  5.56020E+00  5.78558E+00  5.97059E+00  6.07488E+00
   6.20685E+00  6.38183E+00  6.57395E+00  6.75200E+00  6.85174E+00  6.92571E+00  6.98066E+00  6.92171E+00  6.78562E+00  6.65899E+00
   6.63776E+00  6.82073E+00  7.26410E+00  7.90768E+00  8.58926E+00  9.21199E+00  9.74946E+00  1.01413E+01  1.03499E+01  1.04583E+01
   1.04958E+01  1.04849E+01  1.04483E+01  1.03617E+01  1.02321E+01  1.00830E+01  9.88378E+00  9.67989E+00  9.55071E+00  9.47454E+00
   9.43247E+00  9.41039E+00  9.39245E+00  9.35958E+00  9.29129E+00  9.17127E+00  8.98984E+00  8.74321E+00  8.43462E+00  8.07552E+00
   7.68131E+00  7.26806E+00  6.85192E+00  6.44661E+00  6.06328E+00  5.70934E+00  5.38767E+00  5.10019E+00  4.84645E+00  4.62312E+00
   4.42655E+00  4.25330E+00  4.10044E+00  3.96567E+00  3.84730E+00  3.74418E+00  3.65564E+00  3.58139E+00  3.52147E+00  3.47615E+00
   3.44582E+00  3.43099E+00  3.43223E+00  3.45021E+00  3.48566E+00  3.53930E+00  3.61178E+00  3.70365E+00  3.81534E+00  3.94706E+00
   4.09876E+00  4.27000E+00  4.45983E+00  4.66678E+00  4.88879E+00  5.12318E+00  5.36665E+00  5.61520E+00  5.86427E+00  6.10884E+00
   6.34361E+00  6.56314E+00  6.76204E+00  6.93521E+00  7.07803E+00  7.18663E+00  7.25808E+00  7.29048E+00  7.28308E+00  7.23623E+00
   7.15145E+00  7.03133E+00  6.87938E+00  6.69981E+00  6.49734E+00  6.27697E+00  6.04379E+00  5.80280E+00  5.55870E+00  5.31573E+00
   5.07757E+00  4.84727E+00  4.62730E+00  4.41953E+00  4.22519E+00  4.04502E+00  3.87924E+00  3.72773E+00  3.59007E+00  3.46564E+00
   3.35364E+00  3.25316E+00  3.16324E+00  3.08292E+00  3.01129E+00  2.94749E+00  2.89068E+00  2.84010E+00  2.79503E+00  2.75488E+00
   2.71910E+00  2.68723E+00  2.65882E+00  2.63347E+00  2.61085E+00  2.59068E+00  2.57272E+00  2.55674E+00  2.54254E+00  2.52991E+00
   2.51872E+00  2.50886E+00  2.50020E+00  2.49264E+00  2.48606E+00  2.48038E+00  2.47553E+00  2.47146E+00  2.46812E+00  2.46544E+00
   2.46334E+00  2.46180E+00  2.46078E+00  2.46028E+00  2.46023E+00  2.46060E+00  2.46135E+00  2.46246E+00  2.46393E+00  2.46573E+00
   2.46785E+00  2.47023E+00  2.47287E+00  2.47577E+00  2.47893E+00  2.48232E+00  2.48592E+00  2.48970E+00  2.49366E+00  2.49781E+00
   2.50215E+00  2.50664E+00  2.51128E+00  2.51603E+00  2.52093E+00  2.52596E+00  2.53111E+00  2.53637E+00  2.54172E+00  2.54715E+00
   2.55267E+00  2.55829E+00  2.56399E+00  2.56974E+00  2.57552E+00  2.58136E+00  2.58725E+00  2.59319E+00
 NY background values follow
     1.093E+01    1.085E+01    1.078E+01    1.070E+01    1.063E+01    1.055E+01    1.048E+01    1.040E+01    1.033E+01    1.026E+01
     1.018E+01    1.011E+01    1.003E+01    9.956E+00    9.882E+00    9.807E+00    9.732E+00    9.658E+00    9.583E+00    9.509E+00
     9.434E+00    9.360E+00    9.286E+00    9.211E+00    9.137E+00    9.063E+00    8.989E+00    8.915E+00    8.841E+00    8.768E+00
     8.694E+00    8.620E+00    8.547E+00    8.473E+00    8.400E+00    8.327E+00    8.254E+00    8.181E+00    8.108E+00    8.036E+00
     7.963E+00    7.891E+00    7.819E+00    7.747E+00    7.675E+00    7.603E+00    7.532E+00    7.461E+00    7.389E+00    7.319E+00
     7.248E+00    7.177E+00    7.107E+00    7.037E+00    6.967E+00    6.897E+00    6.828E+00    6.758E+00    6.689E+00    6.620E+00
     6.552E+00    6.484E+00    6.416E+00    6.348E+00    6.280E+00    6.213E+00    6.146E+00    6.080E+00    6.013E+00    5.947E+00
     5.881E+00    5.816E+00    5.751E+00    5.686E+00    5.622E+00    5.557E+00    5.494E+00    5.430E+00    5.367E+00    5.304E+00
     5.242E+00    5.180E+00    5.118E+00    5.057E+00    4.996E+00    4.936E+00    4.876E+00    4.816E+00    4.757E+00    4.698E+00
     4.639E+00    4.581E+00    4.523E+00    4.466E+00    4.409E+00    4.353E+00    4.297E+00    4.242E+00    4.187E+00    4.132E+00
     4.078E+00    4.024E+00    3.970E+00    3.917E+00    3.865E+00    3.812E+00    3.761E+00    3.709E+00    3.658E+00    3.608E+00
     3.557E+00    3.508E+00    3.458E+00    3.409E+00    3.361E+00    3.312E+00    3.265E+00    3.217E+00    3.170E+00    3.124E+00
     3.077E+00    3.032E+00    2.986E+00    2.941E+00    2.896E+00    2.852E+00    2.808E+00    2.765E+00    2.722E+00    2.679E+00
     2.637E+00    2.595E+00    2.553E+00    2.512E+00    2.471E+00    2.430E+00    2.390E+00    2.350E+00    2.311E+00    2.272E+00
     2.234E+00    2.195E+00    2.157E+00    2.120E+00    2.083E+00    2.046E+00    2.010E+00    1.974E+00    1.938E+00    1.903E+00
     1.868E+00    1.834E+00    1.800E+00    1.767E+00    1.733E+00    1.701E+00    1.668E+00    1.636E+00    1.605E+00    1.574E+00
     1.543E+00    1.513E+00    1.483E+00    1.453E+00    1.424E+00    1.395E+00    1.367E+00    1.339E+00    1.312E+00    1.285E+00
     1.258E+00    1.232E+00    1.206E+00    1.181E+00    1.156E+00    1.132E+00    1.108E+00    1.084E+00    1.061E+00    1.038E+00
     1.016E+00    9.939E-01    9.725E-01    9.515E-01    9.309E-01    9.108E-01    8.911E-01    8.718E-01    8.529E-01    8.344E-01
     8.163E-01    7.986E-01    7.813E-01    7.643E-01    7.478E-01    7.316E-01    7.157E-01    7.003E-01    6.851E-01    6.704E-01
     6.559E-01    6.418E-01    6.281E-01    6.146E-01    6.015E-01    5.887E-01    5.762E-01    5.640E-01    5.521E-01    5.405E-01
     5.292E-01    5.182E-01    5.075E-01    4.970E-01    4.868E-01    4.768E-01    4.672E-01    4.577E-01    4.485E-01    4.396E-01
     4.309E-01    4.224E-01    4.142E-01    4.061E-01    3.983E-01    3.907E-01    3.833E-01    3.761E-01    3.691E-01    3.623E-01
     3.556E-01    3.492E-01    3.430E-01    3.369E-01    3.311E-01    3.254E-01    3.199E-01    3.146E-01    3.095E-01    3.046E-01
     2.998E-01    2.952E-01    2.908E-01    2.866E-01    2.825E-01    2.786E-01    2.749E-01    2.713E-01    2.679E-01    2.647E-01
     2.617E-01    2.588E-01    2.560E-01    2.535E-01    2.510E-01    2.488E-01    2.467E-01    2.447E-01    2.429E-01    2.412E-01
     2.397E-01    2.384E-01    2.372E-01    2.361E-01    2.352E-01    2.344E-01    2.337E-01    2.332E-01    2.328E-01    2.326E-01
     2.325E-01    2.325E-01    2.326E-01    2.329E-01    2.333E-01    2.339E-01    2.345E-01    2.353E-01    2.362E-01    2.372E-01
     2.384E-01    2.396E-01    2.410E-01    2.425E-01    2.441E-01    2.458E-01    2.477E-01    2.496E-01    2.517E-01    2.538E-01
     2.561E-01    2.585E-01    2.609E-01    2.635E-01    2.662E-01    2.690E-01    2.719E-01    2.749E-01    2.780E-01    2.811E-01
     2.844E-01    2.878E-01    2.912E-01    2.948E-01    2.984E-01    3.021E-01    3.060E-01    3.099E-01    3.138E-01    3.179E-01
     3.221E-01    3.263E-01    3.306E-01    3.350E-01    3.394E-01    3.440E-01    3.486E-01    3.533E-01    3.580E-01    3.629E-01
     3.678E-01    3.728E-01    3.778E-01    3.830E-01    3.882E-01    3.934E-01    3.988E-01    4.042E-01    4.097E-01    4.153E-01
     4.209E-01    4.266E-01    4.324E-01    4.383E-01    4.442E-01    4.502E-01    4.563E-01    4.625E-01    4.687E-01    4.750E-01
     4.814E-01    4.879E-01    4.944E-01    5.010E-01    5.077E-01    5.145E-01    5.213E-01    5.282E-01    5.352E-01    5.423E-01
     5.494E-01    5.566E-01    5.639E-01    5.713E-01    5.788E-01    5.863E-01    5.939E-01    6.015E-01    6.093E-01    6.171E-01
     6.250E-01    6.330E-01    6.411E-01    6.492E-01    6.574E-01    6.657E-01    6.740E-01    6.825E-01    6.910E-01    6.996E-01
     7.082E-01    7.169E-01    7.257E-01    7.346E-01    7.435E-01    7.525E-01    7.616E-01    7.708E-01    7.800E-01    7.893E-01
     7.986E-01    8.080E-01    8.175E-01    8.271E-01    8.367E-01    8.464E-01    8.561E-01    8.659E-01    8.758E-01    8.857E-01
     8.957E-01    9.058E-01    9.159E-01    9.261E-01    9.364E-01    9.467E-01    9.570E-01    9.674E-01    9.779E-01    9.885E-01
     9.990E-01    1.010E+00    1.020E+00    1.031E+00    1.042E+00    1.053E+00    1.064E+00    1.075E+00    1.086E+00    1.097E+00
     1.108E+00    1.119E+00    1.130E+00    1.142E+00    1.153E+00    1.164E+00    1.176E+00    1.187E+00    1.199E+00    1.210E+00
     1.222E+00    1.233E+00    1.245E+00    1.256E+00    1.268E+00    1.280E+00    1.292E+00    1.303E+00    1.315E+00    1.327E+00
     1.339E+00    1.350E+00    1.362E+00    1.374E+00    1.386E+00    1.398E+00    1.409E+00    1.421E+00    1.433E+00    1.445E+00
     1.457E+00    1.469E+00    1.481E+00    1.492E+00    1.504E+00    1.516E+00    1.528E+00    1.540E+00    1.552E+00    1.563E+00
     1.575E+00    1.587E+00    1.599E+00    1.610E+00    1.622E+00    1.634E+00    1.645E+00    1.657E+00    1.669E+00    1.680E+00
     1.692E+00    1.704E+00    1.715E+00    1.727E+00    1.738E+00    1.750E+00    1.761E+00    1.773E+00    1.784E+00    1.796E+00
     1.807E+00    1.819E+00    1.830E+00    1.842E+00    1.853E+00    1.865E+00    1.876E+00    1.888E+00    1.899E+00    1.910E+00
     1.922E+00    1.933E+00    1.945E+00    1.956E+00    1.968E+00    1.979E+00    1.991E+00    2.002E+00    2.014E+00    2.025E+00
     2.037E+00    2.048E+00    2.060E+00    2.071E+00    2.083E+00    2.094E+00    2.106E+00    2.117E+00
 Ala      Conc. = 2.37E+02
