 LCModel (Version 6.3-1L) Copyright: S.W. Provencher.          Ref.: Magn. Reson. Med. 30:672-679 (1993).                
 Slice#1 Row#4 Col#13  PD_05_press_1_raw_act
 36 lines in following concentration table = NCONC+1
    Conc.  %SD /Cr+PCr  Metabolite                                         
   18.708 347%   0.546 Ala                                                 
    2.990  89% 8.7E-02 Asp                                                 
    0.000 999%   0.000 Cr                                                  
   34.273  75%   1.000 PCr                                                 
    1.787  89% 5.2E-02 GABA                                                
    1.792  89% 5.2E-02 Glc                                                 
   53.241 224%   1.553 Gln                                                 
    7.755 999%   0.226 Glu                                                 
    8.474 799%   0.247 GPC                                                 
    0.000 999%   0.000 PCh                                                 
   15.529 255%   0.453 GSH                                                 
    9.090 999%   0.265 Ins                                                 
  130.728  66%   3.814 Lac                                                 
    0.000 999%   0.000 NAA                                                 
    0.000 999%   0.000 NAAG                                                
    0.602  88% 1.8E-02 Scyllo                                              
    2.973  89% 8.7E-02 Tau                                                 
    0.000 999%   0.000 -CrCH2                                              
    8.474 120%   0.247 GPC+PCh                                             
    0.000 999%   0.000 NAA+NAAG                                            
   34.273  75%   1.000 Cr+PCr                                              
   60.996 306%   1.780 Glu+Gln                                             
    0.000 999%   0.000 Lip13a                                              
 1.40E+04  27% 407.995 Lip13b                                              
 1.01E+04  16% 294.337 Lip09                                               
 1.85E+04  14% 539.032 MM09                                                
    0.000 999%   0.000 Lip20                                               
  230.365 123%   6.722 MM20                                                
 1.46E+04  19% 427.029 MM12                                                
 1.11E+04  24% 323.005 MM14                                                
 4.14E+03  32% 120.720 MM17                                                
 1.40E+04  27% 407.995 Lip13a+Lip13b                                       
 3.97E+04  10% 1.2E+03 MM14+Lip13a+Lip13b+MM12                             
 2.86E+04   9% 833.369 MM09+Lip09                                          
  230.365 123%   6.722 MM20+Lip20                                          
   6 lines in following misc. output table
  FWHM = 0.061 ppm    S/N =  32                                            
  Data shift = 0.038 ppm                                                   
  Ph: 118 deg      36.0 deg/ppm                                            
  alphaB,S = 7.1E-01,   2.6E+01                                            
   14 spline knots.   Ns = 5(1)                                            
  ( 6) 2 infls.   ( 5) 1 extrs.                                            
  498 points on ppm-axis = NY
      4.000000     3.992357     3.984714     3.977070     3.969427     3.961784     3.954141     3.946497     3.938854     3.931211
      3.923568     3.915925     3.908281     3.900638     3.892995     3.885352     3.877708     3.870065     3.862422     3.854779
      3.847136     3.839492     3.831849     3.824206     3.816563     3.808919     3.801276     3.793633     3.785990     3.778347
      3.770703     3.763060     3.755417     3.747774     3.740130     3.732487     3.724844     3.717201     3.709558     3.701914
      3.694271     3.686628     3.678985     3.671341     3.663698     3.656055     3.648412     3.640769     3.633125     3.625482
      3.617839     3.610196     3.602552     3.594909     3.587266     3.579623     3.571980     3.564336     3.556693     3.549050
      3.541407     3.533763     3.526120     3.518477     3.510834     3.503191     3.495547     3.487904     3.480261     3.472618
      3.464974     3.457331     3.449688     3.442045     3.434402     3.426758     3.419115     3.411472     3.403829     3.396185
      3.388542     3.380899     3.373256     3.365613     3.357969     3.350326     3.342683     3.335040     3.327396     3.319753
      3.312110     3.304467     3.296824     3.289180     3.281537     3.273894     3.266251     3.258607     3.250964     3.243321
      3.235678     3.228034     3.220391     3.212748     3.205105     3.197462     3.189818     3.182175     3.174532     3.166889
      3.159245     3.151602     3.143959     3.136316     3.128673     3.121029     3.113386     3.105743     3.098100     3.090456
      3.082813     3.075170     3.067527     3.059884     3.052240     3.044597     3.036954     3.029311     3.021667     3.014024
      3.006381     2.998738     2.991095     2.983451     2.975808     2.968165     2.960522     2.952878     2.945235     2.937592
      2.929949     2.922306     2.914662     2.907019     2.899376     2.891733     2.884089     2.876446     2.868803     2.861160
      2.853517     2.845873     2.838230     2.830587     2.822944     2.815300     2.807657     2.800014     2.792371     2.784728
      2.777084     2.769441     2.761798     2.754155     2.746511     2.738868     2.731225     2.723582     2.715939     2.708295
      2.700652     2.693009     2.685366     2.677722     2.670079     2.662436     2.654793     2.647150     2.639506     2.631863
      2.624220     2.616577     2.608933     2.601290     2.593647     2.586004     2.578361     2.570717     2.563074     2.555431
      2.547788     2.540144     2.532501     2.524858     2.517215     2.509572     2.501928     2.494285     2.486642     2.478999
      2.471355     2.463712     2.456069     2.448426     2.440783     2.433139     2.425496     2.417853     2.410210     2.402566
      2.394923     2.387280     2.379637     2.371994     2.364350     2.356707     2.349064     2.341421     2.333777     2.326134
      2.318491     2.310848     2.303205     2.295561     2.287918     2.280275     2.272632     2.264988     2.257345     2.249702
      2.242059     2.234416     2.226772     2.219129     2.211486     2.203843     2.196199     2.188556     2.180913     2.173270
      2.165627     2.157983     2.150340     2.142697     2.135054     2.127410     2.119767     2.112124     2.104481     2.096838
      2.089194     2.081551     2.073908     2.066265     2.058621     2.050978     2.043335     2.035692     2.028049     2.020405
      2.012762     2.005119     1.997476     1.989833     1.982190     1.974546     1.966903     1.959260     1.951617     1.943974
      1.936331     1.928688     1.921045     1.913402     1.905759     1.898115     1.890472     1.882829     1.875186     1.867543
      1.859900     1.852257     1.844614     1.836971     1.829327     1.821684     1.814041     1.806398     1.798755     1.791112
      1.783469     1.775826     1.768183     1.760540     1.752896     1.745253     1.737610     1.729967     1.722324     1.714681
      1.707038     1.699395     1.691752     1.684108     1.676465     1.668822     1.661179     1.653536     1.645893     1.638250
      1.630607     1.622964     1.615321     1.607677     1.600034     1.592391     1.584748     1.577105     1.569462     1.561819
      1.554176     1.546533     1.538890     1.531246     1.523603     1.515960     1.508317     1.500674     1.493031     1.485388
      1.477745     1.470102     1.462458     1.454815     1.447172     1.439529     1.431886     1.424243     1.416600     1.408957
      1.401314     1.393671     1.386027     1.378384     1.370741     1.363098     1.355455     1.347812     1.340169     1.332526
      1.324883     1.317240     1.309596     1.301953     1.294310     1.286667     1.279024     1.271381     1.263738     1.256095
      1.248452     1.240808     1.233165     1.225522     1.217879     1.210236     1.202593     1.194950     1.187307     1.179664
      1.172021     1.164377     1.156734     1.149091     1.141448     1.133805     1.126162     1.118519     1.110876     1.103233
      1.095590     1.087946     1.080303     1.072660     1.065017     1.057374     1.049731     1.042088     1.034445     1.026802
      1.019158     1.011515     1.003872     0.996229     0.988586     0.980943     0.973300     0.965657     0.958014     0.950371
      0.942727     0.935084     0.927441     0.919798     0.912155     0.904512     0.896869     0.889226     0.881583     0.873940
      0.866296     0.858653     0.851010     0.843367     0.835724     0.828081     0.820438     0.812795     0.805152     0.797508
      0.789865     0.782222     0.774579     0.766936     0.759293     0.751650     0.744007     0.736364     0.728721     0.721077
      0.713434     0.705791     0.698148     0.690505     0.682862     0.675219     0.667576     0.659933     0.652290     0.644646
      0.637003     0.629360     0.621717     0.614074     0.606431     0.598788     0.591145     0.583502     0.575858     0.568215
      0.560572     0.552929     0.545286     0.537643     0.530000     0.522357     0.514714     0.507071     0.499427     0.491784
      0.484141     0.476498     0.468855     0.461212     0.453569     0.445925     0.438282     0.430639     0.422996     0.415353
      0.407710     0.400067     0.392424     0.384780     0.377137     0.369494     0.361851     0.354208     0.346565     0.338922
      0.331278     0.323635     0.315992     0.308349     0.300706     0.293063     0.285420     0.277777     0.270133     0.262490
      0.254847     0.247204     0.239561     0.231918     0.224275     0.216631     0.208988     0.201345
 NY phased data points follow
  -1.35973E+01 -1.16679E+01 -1.10906E+01 -1.32015E+01 -1.22448E+01 -7.93577E+00 -1.13140E+01 -1.10770E+01 -9.02258E+00 -1.06922E+01
  -8.82005E+00 -9.29217E+00 -1.02645E+01 -1.01022E+01 -1.02330E+01 -1.16660E+01 -1.25345E+01 -1.06710E+01 -1.20367E+01 -9.21399E+00
  -1.07471E+01 -1.03708E+01 -1.31963E+01 -1.02632E+01 -8.79836E+00 -8.67300E+00 -8.98572E+00 -1.19166E+01 -1.05857E+01 -9.06638E+00
  -9.72055E+00 -1.03702E+01 -1.05053E+01 -7.16872E+00 -8.20217E+00 -1.02821E+01 -9.72565E+00 -7.64059E+00 -8.68016E+00 -1.15450E+01
  -9.38930E+00 -9.31230E+00 -1.06845E+01 -8.53589E+00 -9.37705E+00 -8.62463E+00 -8.64869E+00 -9.13322E+00 -9.09970E+00 -7.00226E+00
  -7.71650E+00 -9.91998E+00 -8.89503E+00 -8.14667E+00 -7.73579E+00 -7.66800E+00 -8.40804E+00 -1.00327E+01 -9.01184E+00 -8.79791E+00
  -7.98149E+00 -7.22251E+00 -1.09106E+01 -9.64263E+00 -8.48036E+00 -8.49252E+00 -9.90209E+00 -7.98118E+00 -9.59192E+00 -6.25253E+00
  -1.05343E+01 -7.59946E+00 -8.16463E+00 -8.01488E+00 -6.93057E+00 -8.02463E+00 -8.70568E+00 -7.71178E+00 -8.17791E+00 -9.02430E+00
  -8.24295E+00 -5.87180E+00 -3.35584E+00 -6.95987E+00 -5.83549E+00 -8.90948E+00 -6.43087E+00 -8.21010E+00 -5.71645E+00 -7.14472E+00
  -6.18519E+00 -8.97515E+00 -4.58418E+00 -5.60136E+00 -6.99768E+00 -5.44751E+00 -5.47211E+00 -8.91157E+00 -8.05526E+00 -7.00587E+00
  -6.74250E+00 -5.58115E+00 -4.09266E+00 -6.55806E+00 -6.84042E+00 -5.10618E+00 -5.28774E+00 -6.01601E+00 -6.50000E+00 -5.84665E+00
  -6.06813E+00 -6.48934E+00 -6.26332E+00 -5.45097E+00 -3.31823E+00 -4.99157E+00 -4.80016E+00 -6.73813E+00 -5.84609E+00 -6.05126E+00
  -7.94446E+00 -5.67387E+00 -4.76539E+00 -3.76054E+00 -5.54006E+00 -5.48004E+00 -2.53925E+00 -6.11694E+00 -2.44608E+00 -5.68335E+00
  -6.04563E+00 -4.17354E+00 -5.83064E+00 -5.07823E+00 -5.53795E+00 -5.95416E+00 -4.49231E+00 -3.71464E+00 -3.50990E+00 -4.57309E+00
  -4.31852E+00 -6.97532E+00 -4.79597E+00 -4.80569E+00 -3.48275E+00 -5.89720E+00 -3.22234E+00 -3.05885E+00 -2.25200E+00 -3.13774E+00
  -2.46462E+00 -5.33161E+00 -7.05538E+00 -4.56347E+00 -2.07403E+00 -4.10975E+00 -1.60601E+00 -3.51286E+00 -2.59908E+00 -1.68885E+00
  -3.06575E+00 -4.01242E+00 -2.95457E+00 -3.16839E+00 -5.31835E+00 -5.01509E+00 -6.01100E+00 -4.60387E+00 -2.99465E+00 -3.80383E+00
  -3.13574E+00 -2.91814E-01 -3.40368E-01 -2.35312E+00 -4.29115E+00 -1.89312E+00 -2.40025E+00 -3.05645E+00 -1.26233E+00 -2.07744E+00
  -8.40453E-01 -2.54078E+00  2.35837E-01  2.75754E+00 -5.69536E-01 -2.62067E+00 -2.07804E+00  2.73497E-01 -1.45167E+00 -2.50258E-01
  -2.49466E+00  9.91075E-01  1.46599E+00  3.50840E-02  1.55370E+00  3.84853E-01 -1.39854E+00 -7.22544E-01 -2.13971E+00  8.21224E-01
   1.42575E+00  1.31902E+00 -4.09657E-01  1.69334E+00  1.69272E+00  4.49408E-01 -3.69315E-01  1.23227E+00  9.03901E-01  1.64792E+00
   1.89651E+00  1.27483E+00  7.69213E-01  2.39730E+00  1.82197E+00  2.15171E+00  1.13331E+00  2.21960E+00  1.81587E+00  2.03256E+00
   2.38094E+00  3.01469E+00  1.90717E+00  4.00167E+00  4.25320E+00  3.55376E+00  2.65698E+00  3.41115E+00  2.84467E+00  4.35018E+00
   4.26876E+00  3.42465E+00  4.27052E+00  1.17831E+00  3.73780E+00  6.32710E+00  1.62595E+00  4.53969E+00  4.74902E+00  2.53561E+00
   5.48572E+00  4.90226E+00  4.59573E+00  6.25361E+00  4.34575E+00  4.33503E+00  4.15232E+00  6.15182E+00  5.68344E+00  7.26332E+00
   6.69018E+00  7.97569E+00  7.07677E+00  7.99921E+00  6.54957E+00  3.06287E+00  8.72321E+00  7.82951E+00  7.12243E+00  9.16034E+00
   5.82741E+00  7.84882E+00  5.70201E+00  9.14623E+00  7.96809E+00  8.70322E+00  1.13683E+01  9.77353E+00  1.18807E+01  9.36096E+00
   8.28473E+00  1.07019E+01  1.27993E+01  1.28445E+01  9.17278E+00  1.16512E+01  1.08437E+01  1.42916E+01  1.18756E+01  1.32463E+01
   1.40254E+01  1.43939E+01  1.57547E+01  1.67831E+01  1.72602E+01  1.72912E+01  1.67926E+01  1.58832E+01  1.80990E+01  1.75834E+01
   1.95063E+01  1.82450E+01  1.88435E+01  2.24880E+01  1.92842E+01  2.06112E+01  2.15106E+01  2.15204E+01  2.38995E+01  2.36551E+01
   2.49453E+01  2.58752E+01  2.75386E+01  3.00992E+01  2.64174E+01  3.12053E+01  3.05135E+01  3.27411E+01  3.31426E+01  3.37022E+01
   3.18122E+01  3.63128E+01  3.56188E+01  3.75796E+01  4.00328E+01  4.05548E+01  4.31217E+01  4.31290E+01  4.40385E+01  4.21591E+01
   4.58991E+01  4.94846E+01  4.94843E+01  4.89738E+01  5.23823E+01  5.41358E+01  5.42572E+01  5.54090E+01  5.59213E+01  5.80815E+01
   6.42681E+01  6.18969E+01  6.01075E+01  6.29630E+01  6.43143E+01  6.34189E+01  6.36296E+01  6.79969E+01  6.89190E+01  6.94855E+01
   7.28255E+01  7.39915E+01  7.60199E+01  7.72882E+01  7.84666E+01  8.06533E+01  7.94741E+01  8.34209E+01  8.51610E+01  7.89662E+01
   8.55650E+01  8.62001E+01  8.70486E+01  8.60902E+01  8.66838E+01  8.64987E+01  8.81612E+01  8.78198E+01  8.74153E+01  8.98492E+01
   9.05382E+01  8.78161E+01  8.88248E+01  9.40819E+01  9.08976E+01  9.32877E+01  9.35613E+01  9.45333E+01  9.54966E+01  9.65346E+01
   9.90242E+01  9.86116E+01  1.00557E+02  1.02560E+02  1.01775E+02  1.03762E+02  1.05878E+02  1.06115E+02  1.08204E+02  1.07585E+02
   1.05450E+02  1.09670E+02  1.07091E+02  1.08200E+02  1.09302E+02  1.07752E+02  1.08067E+02  1.07385E+02  1.06832E+02  1.03410E+02
   1.05241E+02  1.02985E+02  1.01507E+02  1.02596E+02  9.86045E+01  9.82397E+01  9.98078E+01  9.65897E+01  9.49829E+01  9.41260E+01
   9.22363E+01  8.96256E+01  8.88146E+01  8.44651E+01  8.34970E+01  8.61238E+01  8.04028E+01  7.87691E+01  7.82401E+01  7.64095E+01
   7.32824E+01  7.26754E+01  6.62270E+01  6.45105E+01  6.39928E+01  6.18628E+01  5.68745E+01  5.56503E+01  5.38212E+01  5.25163E+01
   5.04332E+01  4.75333E+01  4.52927E+01  4.17641E+01  4.08911E+01  3.86408E+01  3.69452E+01  3.44643E+01  3.09847E+01  3.03743E+01
   2.87026E+01  2.58801E+01  2.29053E+01  2.29887E+01  1.92580E+01  1.70004E+01  1.40856E+01  1.23519E+01  1.12828E+01  9.41679E+00
   4.19003E+00  3.31820E+00  1.65304E+00 -3.25276E+00 -2.25205E+00 -5.61820E+00 -8.12912E+00 -8.13649E+00 -1.21418E+01 -1.39035E+01
  -1.93254E+01 -1.75902E+01 -2.05851E+01 -2.21104E+01 -2.34048E+01 -2.48744E+01 -2.54543E+01 -2.58210E+01 -3.08411E+01 -2.99056E+01
  -3.19630E+01 -3.19673E+01 -3.55828E+01 -3.64284E+01 -3.63022E+01 -3.70169E+01 -3.78987E+01 -3.88890E+01 -3.90952E+01 -4.37181E+01
  -4.21501E+01 -4.29901E+01 -4.58176E+01 -4.66771E+01 -4.56343E+01 -4.63082E+01 -4.57334E+01 -4.68525E+01 -4.66523E+01 -4.85249E+01
  -4.87844E+01 -4.90317E+01 -4.86972E+01 -4.91408E+01 -5.04360E+01 -5.33573E+01 -5.09386E+01 -5.05753E+01 -5.10150E+01 -5.07949E+01
  -5.08881E+01 -5.05520E+01 -5.26370E+01 -5.20246E+01 -5.23790E+01 -5.15633E+01 -5.08389E+01 -5.09481E+01
 NY points of the fit to the data follow
  -1.17356E+01 -1.16814E+01 -1.15950E+01 -1.14562E+01 -1.12395E+01 -1.10061E+01 -1.08043E+01 -1.06386E+01 -1.05029E+01 -1.03998E+01
  -1.03345E+01 -1.03061E+01 -1.03218E+01 -1.04023E+01 -1.05373E+01 -1.06528E+01 -1.06702E+01 -1.06308E+01 -1.05764E+01 -1.05149E+01
  -1.04473E+01 -1.03874E+01 -1.03463E+01 -1.03167E+01 -1.02826E+01 -1.02164E+01 -1.01218E+01 -1.00120E+01 -9.89427E+00 -9.77990E+00
  -9.67596E+00 -9.58256E+00 -9.49693E+00 -9.44227E+00 -9.43664E+00 -9.47657E+00 -9.53895E+00 -9.57706E+00 -9.58167E+00 -9.55200E+00
  -9.49291E+00 -9.41643E+00 -9.33179E+00 -9.25265E+00 -9.18884E+00 -9.13645E+00 -9.08195E+00 -9.02701E+00 -8.97995E+00 -8.93697E+00
  -8.89433E+00 -8.85613E+00 -8.82446E+00 -8.79346E+00 -8.75681E+00 -8.71339E+00 -8.66554E+00 -8.61443E+00 -8.56277E+00 -8.51232E+00
  -8.46401E+00 -8.41739E+00 -8.37090E+00 -8.32482E+00 -8.27988E+00 -8.23685E+00 -8.19388E+00 -8.14784E+00 -8.09846E+00 -8.04713E+00
  -7.99484E+00 -7.94184E+00 -7.88998E+00 -7.84043E+00 -7.79285E+00 -7.74718E+00 -7.70297E+00 -7.66033E+00 -7.61850E+00 -7.57621E+00
  -7.53376E+00 -7.48903E+00 -7.44099E+00 -7.39220E+00 -7.34524E+00 -7.30004E+00 -7.25633E+00 -7.21440E+00 -7.17413E+00 -7.13506E+00
  -7.09771E+00 -7.06145E+00 -7.02294E+00 -6.97783E+00 -6.92734E+00 -6.87558E+00 -6.82046E+00 -6.73906E+00 -6.57626E+00 -6.36434E+00
  -6.16816E+00 -6.00787E+00 -5.87958E+00 -5.78357E+00 -5.72616E+00 -5.70735E+00 -5.73422E+00 -5.82946E+00 -5.98624E+00 -6.12852E+00
  -6.16616E+00 -6.13832E+00 -6.09602E+00 -6.04885E+00 -5.99917E+00 -5.94822E+00 -5.89645E+00 -5.84316E+00 -5.78761E+00 -5.72770E+00
  -5.65541E+00 -5.53012E+00 -5.28851E+00 -5.00084E+00 -4.74396E+00 -4.53337E+00 -4.36282E+00 -4.23712E+00 -4.16150E+00 -4.13580E+00
  -4.18505E+00 -4.34329E+00 -4.58249E+00 -4.78121E+00 -4.83639E+00 -4.82245E+00 -4.79101E+00 -4.74974E+00 -4.70420E+00 -4.65270E+00
  -4.58655E+00 -4.50389E+00 -4.41774E+00 -4.33813E+00 -4.26892E+00 -4.21265E+00 -4.16580E+00 -4.12130E+00 -4.07405E+00 -4.01974E+00
  -3.96215E+00 -3.90221E+00 -3.83933E+00 -3.77369E+00 -3.70632E+00 -3.63753E+00 -3.56626E+00 -3.49273E+00 -3.41756E+00 -3.34112E+00
  -3.26394E+00 -3.18681E+00 -3.10952E+00 -3.03068E+00 -2.94959E+00 -2.86674E+00 -2.78287E+00 -2.69839E+00 -2.61276E+00 -2.52581E+00
  -2.43824E+00 -2.35115E+00 -2.26517E+00 -2.18015E+00 -2.09518E+00 -2.00991E+00 -1.92446E+00 -1.83897E+00 -1.75349E+00 -1.66680E+00
  -1.57933E+00 -1.49184E+00 -1.40366E+00 -1.31417E+00 -1.22257E+00 -1.12625E+00 -1.02295E+00 -9.13639E-01 -8.03573E-01 -7.00000E-01
  -6.03562E-01 -5.16591E-01 -4.45198E-01 -3.88236E-01 -3.34056E-01 -2.73977E-01 -1.99210E-01 -9.77052E-02  3.41945E-02  1.88455E-01
   3.59909E-01  5.38788E-01  7.11551E-01  8.58013E-01  9.56490E-01  9.88050E-01  9.79308E-01  9.75824E-01  9.99773E-01  1.05570E+00
   1.14105E+00  1.25767E+00  1.41015E+00  1.59234E+00  1.79822E+00  2.01405E+00  2.20123E+00  2.32365E+00  2.40847E+00  2.49432E+00
   2.58481E+00  2.67788E+00  2.77767E+00  2.88823E+00  3.00608E+00  3.12697E+00  3.24677E+00  3.36152E+00  3.47258E+00  3.58145E+00
   3.68579E+00  3.77865E+00  3.87391E+00  3.99004E+00  4.12576E+00  4.27675E+00  4.44822E+00  4.63182E+00  4.79634E+00  4.93656E+00
   5.07078E+00  5.20580E+00  5.32484E+00  5.41533E+00  5.49925E+00  5.59573E+00  5.70868E+00  5.84917E+00  6.02623E+00  6.22296E+00
   6.41100E+00  6.58652E+00  6.74747E+00  6.89442E+00  7.02708E+00  7.14760E+00  7.25751E+00  7.36328E+00  7.47465E+00  7.59499E+00
   7.72499E+00  7.86571E+00  8.01786E+00  8.17999E+00  8.34981E+00  8.52602E+00  8.70638E+00  8.89447E+00  9.09387E+00  9.30660E+00
   9.53435E+00  9.77893E+00  1.00413E+01  1.03221E+01  1.06229E+01  1.09448E+01  1.12885E+01  1.16546E+01  1.20442E+01  1.24585E+01
   1.28986E+01  1.33660E+01  1.38613E+01  1.43848E+01  1.49368E+01  1.55165E+01  1.61227E+01  1.67538E+01  1.74079E+01  1.80827E+01
   1.87755E+01  1.94835E+01  2.02040E+01  2.09341E+01  2.16709E+01  2.24117E+01  2.31540E+01  2.38961E+01  2.46367E+01  2.53752E+01
   2.61120E+01  2.68484E+01  2.75866E+01  2.83298E+01  2.90824E+01  2.98492E+01  3.06360E+01  3.14488E+01  3.22940E+01  3.31778E+01
   3.41061E+01  3.50842E+01  3.61163E+01  3.72054E+01  3.83531E+01  3.95591E+01  4.08217E+01  4.21372E+01  4.35003E+01  4.49042E+01
   4.63418E+01  4.78073E+01  4.92976E+01  5.07841E+01  5.22294E+01  5.36237E+01  5.49667E+01  5.62538E+01  5.74787E+01  5.86395E+01
   5.97558E+01  6.08555E+01  6.19471E+01  6.30516E+01  6.41939E+01  6.53621E+01  6.65421E+01  6.77503E+01  6.90056E+01  7.03177E+01
   7.16885E+01  7.31449E+01  7.47789E+01  7.65289E+01  7.81575E+01  7.96109E+01  8.09169E+01  8.20679E+01  8.30161E+01  8.37370E+01
   8.43700E+01  8.50030E+01  8.55875E+01  8.62016E+01  8.69858E+01  8.78216E+01  8.84793E+01  8.89775E+01  8.93690E+01  8.96330E+01
   8.97034E+01  8.96377E+01  8.97315E+01  9.01473E+01  9.08257E+01  9.17303E+01  9.28350E+01  9.41097E+01  9.55173E+01  9.70152E+01
   9.85564E+01  1.00092E+02  1.01576E+02  1.02963E+02  1.04214E+02  1.05300E+02  1.06198E+02  1.06895E+02  1.07387E+02  1.07680E+02
   1.07787E+02  1.07729E+02  1.07527E+02  1.07209E+02  1.06802E+02  1.06329E+02  1.05812E+02  1.05268E+02  1.04707E+02  1.04132E+02
   1.03542E+02  1.02928E+02  1.02277E+02  1.01572E+02  1.00793E+02  9.99201E+01  9.89331E+01  9.78146E+01  9.65505E+01  9.51310E+01
   9.35515E+01  9.18130E+01  8.99217E+01  8.78892E+01  8.57316E+01  8.34684E+01  8.11220E+01  7.87164E+01  7.62757E+01  7.38235E+01
   7.13814E+01  6.89684E+01  6.66000E+01  6.42878E+01  6.20392E+01  5.98573E+01  5.77410E+01  5.56853E+01  5.36820E+01  5.17199E+01
   4.97862E+01  4.78664E+01  4.59457E+01  4.40096E+01  4.20445E+01  4.00385E+01  3.79816E+01  3.58665E+01  3.36883E+01  3.14453E+01
   2.91382E+01  2.67707E+01  2.43488E+01  2.18804E+01  1.93753E+01  1.68446E+01  1.43000E+01  1.17537E+01  9.21784E+00  6.70417E+00
   4.22371E+00  1.78654E+00 -5.98381E-01 -2.92338E+00 -5.18215E+00 -7.36968E+00 -9.48226E+00 -1.15174E+01 -1.34738E+01 -1.53511E+01
  -1.71498E+01 -1.88711E+01 -2.05171E+01 -2.20899E+01 -2.35924E+01 -2.50276E+01 -2.63986E+01 -2.77087E+01 -2.89612E+01 -3.01594E+01
  -3.13064E+01 -3.24053E+01 -3.34591E+01 -3.44707E+01 -3.54426E+01 -3.63774E+01 -3.72775E+01 -3.81450E+01 -3.89820E+01 -3.97906E+01
  -4.05723E+01 -4.13289E+01 -4.20620E+01 -4.27729E+01 -4.34629E+01 -4.41334E+01 -4.47853E+01 -4.54198E+01 -4.60377E+01 -4.66401E+01
  -4.72278E+01 -4.78014E+01 -4.83618E+01 -4.89095E+01 -4.94453E+01 -4.99696E+01 -5.04831E+01 -5.09861E+01 -5.14793E+01 -5.19629E+01
  -5.24375E+01 -5.29033E+01 -5.33608E+01 -5.38102E+01 -5.42519E+01 -5.46862E+01 -5.51133E+01 -5.55334E+01
 NY background values follow
    -1.221E+01   -1.216E+01   -1.211E+01   -1.206E+01   -1.200E+01   -1.195E+01   -1.190E+01   -1.185E+01   -1.179E+01   -1.174E+01
    -1.169E+01   -1.164E+01   -1.158E+01   -1.153E+01   -1.148E+01   -1.143E+01   -1.138E+01   -1.133E+01   -1.128E+01   -1.123E+01
    -1.117E+01   -1.112E+01   -1.107E+01   -1.102E+01   -1.097E+01   -1.092E+01   -1.087E+01   -1.082E+01   -1.077E+01   -1.072E+01
    -1.067E+01   -1.062E+01   -1.057E+01   -1.053E+01   -1.048E+01   -1.043E+01   -1.038E+01   -1.033E+01   -1.028E+01   -1.023E+01
    -1.018E+01   -1.014E+01   -1.009E+01   -1.004E+01   -9.993E+00   -9.946E+00   -9.898E+00   -9.851E+00   -9.804E+00   -9.757E+00
    -9.710E+00   -9.664E+00   -9.617E+00   -9.571E+00   -9.525E+00   -9.479E+00   -9.433E+00   -9.388E+00   -9.343E+00   -9.297E+00
    -9.252E+00   -9.208E+00   -9.163E+00   -9.119E+00   -9.075E+00   -9.031E+00   -8.987E+00   -8.944E+00   -8.900E+00   -8.857E+00
    -8.815E+00   -8.772E+00   -8.730E+00   -8.688E+00   -8.646E+00   -8.605E+00   -8.564E+00   -8.523E+00   -8.482E+00   -8.442E+00
    -8.401E+00   -8.362E+00   -8.322E+00   -8.283E+00   -8.244E+00   -8.205E+00   -8.167E+00   -8.129E+00   -8.091E+00   -8.054E+00
    -8.017E+00   -7.980E+00   -7.944E+00   -7.908E+00   -7.872E+00   -7.836E+00   -7.801E+00   -7.766E+00   -7.730E+00   -7.695E+00
    -7.661E+00   -7.626E+00   -7.591E+00   -7.556E+00   -7.522E+00   -7.487E+00   -7.452E+00   -7.417E+00   -7.382E+00   -7.347E+00
    -7.311E+00   -7.276E+00   -7.240E+00   -7.204E+00   -7.167E+00   -7.131E+00   -7.094E+00   -7.056E+00   -7.018E+00   -6.980E+00
    -6.942E+00   -6.903E+00   -6.863E+00   -6.823E+00   -6.782E+00   -6.741E+00   -6.699E+00   -6.657E+00   -6.613E+00   -6.570E+00
    -6.525E+00   -6.480E+00   -6.434E+00   -6.387E+00   -6.339E+00   -6.290E+00   -6.241E+00   -6.191E+00   -6.140E+00   -6.088E+00
    -6.035E+00   -5.981E+00   -5.927E+00   -5.871E+00   -5.816E+00   -5.759E+00   -5.701E+00   -5.643E+00   -5.585E+00   -5.525E+00
    -5.465E+00   -5.405E+00   -5.343E+00   -5.282E+00   -5.219E+00   -5.156E+00   -5.093E+00   -5.029E+00   -4.964E+00   -4.900E+00
    -4.834E+00   -4.769E+00   -4.702E+00   -4.636E+00   -4.569E+00   -4.502E+00   -4.434E+00   -4.366E+00   -4.298E+00   -4.230E+00
    -4.161E+00   -4.092E+00   -4.023E+00   -3.954E+00   -3.884E+00   -3.815E+00   -3.745E+00   -3.675E+00   -3.605E+00   -3.535E+00
    -3.465E+00   -3.395E+00   -3.325E+00   -3.255E+00   -3.185E+00   -3.114E+00   -3.044E+00   -2.975E+00   -2.905E+00   -2.835E+00
    -2.766E+00   -2.696E+00   -2.627E+00   -2.559E+00   -2.490E+00   -2.422E+00   -2.354E+00   -2.286E+00   -2.219E+00   -2.152E+00
    -2.085E+00   -2.019E+00   -1.954E+00   -1.888E+00   -1.824E+00   -1.759E+00   -1.696E+00   -1.633E+00   -1.570E+00   -1.508E+00
    -1.447E+00   -1.386E+00   -1.326E+00   -1.267E+00   -1.208E+00   -1.151E+00   -1.093E+00   -1.037E+00   -9.817E-01   -9.270E-01
    -8.733E-01   -8.203E-01   -7.683E-01   -7.173E-01   -6.671E-01   -6.179E-01   -5.698E-01   -5.226E-01   -4.765E-01   -4.316E-01
    -3.879E-01   -3.454E-01   -3.043E-01   -2.645E-01   -2.262E-01   -1.895E-01   -1.543E-01   -1.207E-01   -8.880E-02   -5.868E-02
    -3.039E-02   -3.971E-03    2.050E-02    4.297E-02    6.337E-02    8.164E-02    9.773E-02    1.116E-01    1.231E-01    1.322E-01
     1.389E-01    1.431E-01    1.448E-01    1.438E-01    1.402E-01    1.338E-01    1.246E-01    1.125E-01    9.748E-02    7.949E-02
     5.845E-02    3.429E-02    6.952E-03   -2.362E-02   -5.749E-02   -9.472E-02   -1.354E-01   -1.795E-01   -2.272E-01   -2.785E-01
    -3.335E-01   -3.921E-01   -4.546E-01   -5.209E-01   -5.908E-01   -6.645E-01   -7.419E-01   -8.230E-01   -9.077E-01   -9.959E-01
    -1.088E+00   -1.183E+00   -1.282E+00   -1.385E+00   -1.490E+00   -1.600E+00   -1.712E+00   -1.828E+00   -1.948E+00   -2.071E+00
    -2.197E+00   -2.326E+00   -2.458E+00   -2.594E+00   -2.733E+00   -2.875E+00   -3.020E+00   -3.169E+00   -3.320E+00   -3.474E+00
    -3.632E+00   -3.792E+00   -3.955E+00   -4.122E+00   -4.291E+00   -4.463E+00   -4.638E+00   -4.815E+00   -4.996E+00   -5.179E+00
    -5.365E+00   -5.553E+00   -5.745E+00   -5.938E+00   -6.135E+00   -6.334E+00   -6.536E+00   -6.740E+00   -6.947E+00   -7.156E+00
    -7.367E+00   -7.581E+00   -7.798E+00   -8.017E+00   -8.238E+00   -8.461E+00   -8.687E+00   -8.915E+00   -9.146E+00   -9.378E+00
    -9.613E+00   -9.850E+00   -1.009E+01   -1.033E+01   -1.057E+01   -1.082E+01   -1.107E+01   -1.132E+01   -1.157E+01   -1.182E+01
    -1.208E+01   -1.234E+01   -1.260E+01   -1.286E+01   -1.312E+01   -1.339E+01   -1.365E+01   -1.392E+01   -1.419E+01   -1.447E+01
    -1.474E+01   -1.502E+01   -1.529E+01   -1.557E+01   -1.585E+01   -1.614E+01   -1.642E+01   -1.671E+01   -1.699E+01   -1.728E+01
    -1.757E+01   -1.786E+01   -1.816E+01   -1.845E+01   -1.875E+01   -1.905E+01   -1.935E+01   -1.965E+01   -1.995E+01   -2.025E+01
    -2.055E+01   -2.086E+01   -2.117E+01   -2.148E+01   -2.179E+01   -2.210E+01   -2.241E+01   -2.272E+01   -2.304E+01   -2.335E+01
    -2.367E+01   -2.399E+01   -2.431E+01   -2.463E+01   -2.495E+01   -2.528E+01   -2.560E+01   -2.593E+01   -2.625E+01   -2.658E+01
    -2.691E+01   -2.724E+01   -2.757E+01   -2.790E+01   -2.823E+01   -2.857E+01   -2.890E+01   -2.924E+01   -2.958E+01   -2.991E+01
    -3.025E+01   -3.059E+01   -3.093E+01   -3.128E+01   -3.162E+01   -3.196E+01   -3.231E+01   -3.265E+01   -3.300E+01   -3.335E+01
    -3.369E+01   -3.404E+01   -3.439E+01   -3.474E+01   -3.509E+01   -3.544E+01   -3.579E+01   -3.615E+01   -3.650E+01   -3.685E+01
    -3.720E+01   -3.756E+01   -3.791E+01   -3.826E+01   -3.862E+01   -3.897E+01   -3.932E+01   -3.968E+01   -4.003E+01   -4.038E+01
    -4.074E+01   -4.109E+01   -4.144E+01   -4.179E+01   -4.215E+01   -4.250E+01   -4.285E+01   -4.320E+01   -4.355E+01   -4.390E+01
    -4.425E+01   -4.460E+01   -4.494E+01   -4.529E+01   -4.564E+01   -4.598E+01   -4.632E+01   -4.667E+01   -4.701E+01   -4.735E+01
    -4.769E+01   -4.803E+01   -4.837E+01   -4.870E+01   -4.904E+01   -4.937E+01   -4.971E+01   -5.004E+01   -5.037E+01   -5.070E+01
    -5.102E+01   -5.135E+01   -5.168E+01   -5.200E+01   -5.232E+01   -5.264E+01   -5.296E+01   -5.328E+01   -5.360E+01   -5.391E+01
    -5.423E+01   -5.454E+01   -5.485E+01   -5.516E+01   -5.547E+01   -5.578E+01   -5.608E+01   -5.639E+01   -5.669E+01   -5.699E+01
    -5.729E+01   -5.759E+01   -5.788E+01   -5.818E+01   -5.847E+01   -5.877E+01   -5.906E+01   -5.934E+01   -5.963E+01   -5.992E+01
    -6.020E+01   -6.049E+01   -6.077E+01   -6.105E+01   -6.132E+01   -6.160E+01   -6.187E+01   -6.215E+01
 Ala      Conc. = 1.87E+01
