 LCModel (Version 6.3-1L) Copyright: S.W. Provencher.          Ref.: Magn. Reson. Med. 30:672-679 (1993).                
 Slice#2 Row#13 Col#5  PD_05_press_1_raw_act
 36 lines in following concentration table = NCONC+1
    Conc.  %SD /Cr+PCr  Metabolite                                         
   47.443  46%   0.705 Ala                                                 
   22.756  91%   0.338 Asp                                                 
    0.000 999%   0.000 Cr                                                  
   67.297  26%   1.000 PCr                                                 
    3.750 342% 5.6E-02 GABA                                                
    2.241 567% 3.3E-02 Glc                                                 
    0.000 999%   0.000 Gln                                                 
   26.884 164%   0.399 Glu                                                 
    7.001  55%   0.104 GPC                                                 
    0.000 999%   0.000 PCh                                                 
   35.979  43%   0.535 GSH                                                 
   96.074  59%   1.428 Ins                                                 
    0.000 999%   0.000 Lac                                                 
   24.900  69%   0.370 NAA                                                 
   73.586  27%   1.093 NAAG                                                
    1.683 208% 2.5E-02 Scyllo                                              
    0.000 999%   0.000 Tau                                                 
  106.060  25%   1.576 -CrCH2                                              
    7.001  55%   0.104 GPC+PCh                                             
   98.487  24%   1.463 NAA+NAAG                                            
   67.297  26%   1.000 Cr+PCr                                              
   26.884 164%   0.399 Glu+Gln                                             
    0.000 999%   0.000 Lip13a                                              
    0.000 999%   0.000 Lip13b                                              
    0.000 999%   0.000 Lip09                                               
  197.730  28%   2.938 MM09                                                
    0.000 999%   0.000 Lip20                                               
  258.477  35%   3.841 MM20                                                
   57.318  38%   0.852 MM12                                                
  309.270  20%   4.596 MM14                                                
  135.029  32%   2.006 MM17                                                
    0.000 999%   0.000 Lip13a+Lip13b                                       
  366.588  20%   5.447 MM14+Lip13a+Lip13b+MM12                             
  197.730  28%   2.938 MM09+Lip09                                          
  258.477  35%   3.841 MM20+Lip20                                          
   6 lines in following misc. output table
  FWHM = 0.054 ppm    S/N =   2                                            
  Data shift = 0.015 ppm                                                   
  Ph:  28 deg      -5.4 deg/ppm                                            
  alphaB,S = 2.4E+00,   1.0E+01                                            
   14 spline knots.   Ns = 9(1)                                            
  (12) 9 infls.   (12) 4 extrs.                                            
  498 points on ppm-axis = NY
      4.000000     3.992357     3.984714     3.977070     3.969427     3.961784     3.954141     3.946497     3.938854     3.931211
      3.923568     3.915925     3.908281     3.900638     3.892995     3.885352     3.877708     3.870065     3.862422     3.854779
      3.847136     3.839492     3.831849     3.824206     3.816563     3.808919     3.801276     3.793633     3.785990     3.778347
      3.770703     3.763060     3.755417     3.747774     3.740130     3.732487     3.724844     3.717201     3.709558     3.701914
      3.694271     3.686628     3.678985     3.671341     3.663698     3.656055     3.648412     3.640769     3.633125     3.625482
      3.617839     3.610196     3.602552     3.594909     3.587266     3.579623     3.571980     3.564336     3.556693     3.549050
      3.541407     3.533763     3.526120     3.518477     3.510834     3.503191     3.495547     3.487904     3.480261     3.472618
      3.464974     3.457331     3.449688     3.442045     3.434402     3.426758     3.419115     3.411472     3.403829     3.396185
      3.388542     3.380899     3.373256     3.365613     3.357969     3.350326     3.342683     3.335040     3.327396     3.319753
      3.312110     3.304467     3.296824     3.289180     3.281537     3.273894     3.266251     3.258607     3.250964     3.243321
      3.235678     3.228034     3.220391     3.212748     3.205105     3.197462     3.189818     3.182175     3.174532     3.166889
      3.159245     3.151602     3.143959     3.136316     3.128673     3.121029     3.113386     3.105743     3.098100     3.090456
      3.082813     3.075170     3.067527     3.059884     3.052240     3.044597     3.036954     3.029311     3.021667     3.014024
      3.006381     2.998738     2.991095     2.983451     2.975808     2.968165     2.960522     2.952878     2.945235     2.937592
      2.929949     2.922306     2.914662     2.907019     2.899376     2.891733     2.884089     2.876446     2.868803     2.861160
      2.853517     2.845873     2.838230     2.830587     2.822944     2.815300     2.807657     2.800014     2.792371     2.784728
      2.777084     2.769441     2.761798     2.754155     2.746511     2.738868     2.731225     2.723582     2.715939     2.708295
      2.700652     2.693009     2.685366     2.677722     2.670079     2.662436     2.654793     2.647150     2.639506     2.631863
      2.624220     2.616577     2.608933     2.601290     2.593647     2.586004     2.578361     2.570717     2.563074     2.555431
      2.547788     2.540144     2.532501     2.524858     2.517215     2.509572     2.501928     2.494285     2.486642     2.478999
      2.471355     2.463712     2.456069     2.448426     2.440783     2.433139     2.425496     2.417853     2.410210     2.402566
      2.394923     2.387280     2.379637     2.371994     2.364350     2.356707     2.349064     2.341421     2.333777     2.326134
      2.318491     2.310848     2.303205     2.295561     2.287918     2.280275     2.272632     2.264988     2.257345     2.249702
      2.242059     2.234416     2.226772     2.219129     2.211486     2.203843     2.196199     2.188556     2.180913     2.173270
      2.165627     2.157983     2.150340     2.142697     2.135054     2.127410     2.119767     2.112124     2.104481     2.096838
      2.089194     2.081551     2.073908     2.066265     2.058621     2.050978     2.043335     2.035692     2.028049     2.020405
      2.012762     2.005119     1.997476     1.989833     1.982190     1.974546     1.966903     1.959260     1.951617     1.943974
      1.936331     1.928688     1.921045     1.913402     1.905759     1.898115     1.890472     1.882829     1.875186     1.867543
      1.859900     1.852257     1.844614     1.836971     1.829327     1.821684     1.814041     1.806398     1.798755     1.791112
      1.783469     1.775826     1.768183     1.760540     1.752896     1.745253     1.737610     1.729967     1.722324     1.714681
      1.707038     1.699395     1.691752     1.684108     1.676465     1.668822     1.661179     1.653536     1.645893     1.638250
      1.630607     1.622964     1.615321     1.607677     1.600034     1.592391     1.584748     1.577105     1.569462     1.561819
      1.554176     1.546533     1.538890     1.531246     1.523603     1.515960     1.508317     1.500674     1.493031     1.485388
      1.477745     1.470102     1.462458     1.454815     1.447172     1.439529     1.431886     1.424243     1.416600     1.408957
      1.401314     1.393671     1.386027     1.378384     1.370741     1.363098     1.355455     1.347812     1.340169     1.332526
      1.324883     1.317240     1.309596     1.301953     1.294310     1.286667     1.279024     1.271381     1.263738     1.256095
      1.248452     1.240808     1.233165     1.225522     1.217879     1.210236     1.202593     1.194950     1.187307     1.179664
      1.172021     1.164377     1.156734     1.149091     1.141448     1.133805     1.126162     1.118519     1.110876     1.103233
      1.095590     1.087946     1.080303     1.072660     1.065017     1.057374     1.049731     1.042088     1.034445     1.026802
      1.019158     1.011515     1.003872     0.996229     0.988586     0.980943     0.973300     0.965657     0.958014     0.950371
      0.942727     0.935084     0.927441     0.919798     0.912155     0.904512     0.896869     0.889226     0.881583     0.873940
      0.866296     0.858653     0.851010     0.843367     0.835724     0.828081     0.820438     0.812795     0.805152     0.797508
      0.789865     0.782222     0.774579     0.766936     0.759293     0.751650     0.744007     0.736364     0.728721     0.721077
      0.713434     0.705791     0.698148     0.690505     0.682862     0.675219     0.667576     0.659933     0.652290     0.644646
      0.637003     0.629360     0.621717     0.614074     0.606431     0.598788     0.591145     0.583502     0.575858     0.568215
      0.560572     0.552929     0.545286     0.537643     0.530000     0.522357     0.514714     0.507071     0.499427     0.491784
      0.484141     0.476498     0.468855     0.461212     0.453569     0.445925     0.438282     0.430639     0.422996     0.415353
      0.407710     0.400067     0.392424     0.384780     0.377137     0.369494     0.361851     0.354208     0.346565     0.338922
      0.331278     0.323635     0.315992     0.308349     0.300706     0.293063     0.285420     0.277777     0.270133     0.262490
      0.254847     0.247204     0.239561     0.231918     0.224275     0.216631     0.208988     0.201345
 NY phased data points follow
   5.93712E+01  5.94511E+01  5.77707E+01  5.54961E+01  5.58827E+01  5.64819E+01  5.64517E+01  5.55309E+01  5.40031E+01  5.41413E+01
   5.39293E+01  5.18955E+01  5.18715E+01  5.16765E+01  4.87777E+01  4.99577E+01  4.93131E+01  4.85018E+01  4.88141E+01  4.78987E+01
   4.71747E+01  4.92282E+01  4.81036E+01  4.78861E+01  4.67460E+01  4.79886E+01  4.74417E+01  4.90164E+01  4.90235E+01  4.88237E+01
   4.94703E+01  4.81076E+01  4.91890E+01  4.76621E+01  4.87233E+01  4.67406E+01  4.66182E+01  4.69062E+01  4.84325E+01  4.76046E+01
   4.62850E+01  4.61458E+01  4.75775E+01  4.54962E+01  4.53215E+01  4.42222E+01  4.62970E+01  4.77137E+01  4.58072E+01  4.47732E+01
   4.48375E+01  4.63771E+01  4.43944E+01  4.32914E+01  4.42983E+01  4.41634E+01  4.24972E+01  4.11889E+01  4.29902E+01  4.40353E+01
   4.27283E+01  4.05564E+01  4.16697E+01  4.16561E+01  4.03096E+01  4.07770E+01  3.95208E+01  3.97567E+01  3.84972E+01  3.92434E+01
   4.00723E+01  4.05295E+01  3.91285E+01  3.98024E+01  4.02083E+01  3.81702E+01  3.81652E+01  3.83362E+01  3.78637E+01  3.62463E+01
   3.65361E+01  3.67251E+01  3.79970E+01  3.88038E+01  3.78675E+01  3.64902E+01  3.85393E+01  3.76187E+01  3.85272E+01  3.57797E+01
   3.68159E+01  3.54820E+01  3.67319E+01  3.68826E+01  3.48260E+01  3.34043E+01  3.72752E+01  3.50838E+01  3.74631E+01  3.71655E+01
   3.55728E+01  3.81312E+01  3.67535E+01  3.75966E+01  3.75284E+01  3.49513E+01  3.69286E+01  3.46895E+01  3.54469E+01  3.69129E+01
   3.45645E+01  3.61069E+01  3.55079E+01  3.34560E+01  3.41919E+01  3.43775E+01  3.31557E+01  3.29030E+01  3.12575E+01  3.54392E+01
   3.41591E+01  3.20260E+01  3.21130E+01  3.40091E+01  3.59931E+01  3.61092E+01  3.58558E+01  3.67298E+01  3.84229E+01  3.65822E+01
   3.77017E+01  3.49693E+01  3.56470E+01  3.52280E+01  3.38799E+01  3.60021E+01  3.37272E+01  3.37804E+01  3.43523E+01  3.24991E+01
   3.47124E+01  3.28123E+01  3.22594E+01  3.38455E+01  3.23480E+01  3.29537E+01  3.39313E+01  3.13780E+01  3.32053E+01  3.39630E+01
   3.07823E+01  3.25901E+01  3.50609E+01  3.24962E+01  3.18841E+01  3.07718E+01  3.07941E+01  2.95990E+01  3.11869E+01  3.22005E+01
   3.03227E+01  3.11046E+01  3.00777E+01  3.16198E+01  3.09321E+01  3.09206E+01  3.02114E+01  3.20967E+01  3.07881E+01  3.10513E+01
   3.27523E+01  3.16755E+01  3.09886E+01  3.23051E+01  3.22816E+01  3.03492E+01  3.11769E+01  3.06599E+01  3.07988E+01  2.92110E+01
   3.08422E+01  3.14997E+01  3.18206E+01  3.07976E+01  2.94477E+01  2.94203E+01  3.07721E+01  2.96384E+01  3.01863E+01  3.03647E+01
   3.09922E+01  2.90112E+01  2.90434E+01  2.96353E+01  3.14936E+01  3.14225E+01  3.01046E+01  2.77395E+01  2.88228E+01  2.95575E+01
   2.97061E+01  3.08949E+01  2.98118E+01  2.62001E+01  3.03739E+01  2.80725E+01  3.08517E+01  3.09335E+01  3.02181E+01  2.92845E+01
   2.75376E+01  2.78875E+01  2.93203E+01  2.93546E+01  2.87210E+01  2.90394E+01  2.94951E+01  2.85747E+01  2.74976E+01  2.86522E+01
   2.94946E+01  2.72219E+01  2.64693E+01  2.70571E+01  2.75089E+01  2.79292E+01  2.84901E+01  2.69838E+01  3.03077E+01  2.60636E+01
   2.72449E+01  2.68069E+01  2.79687E+01  2.53498E+01  2.94463E+01  2.73390E+01  2.75674E+01  2.73781E+01  2.74200E+01  2.76006E+01
   2.65272E+01  2.97725E+01  2.65394E+01  2.53461E+01  2.70066E+01  2.60328E+01  2.54055E+01  2.67497E+01  2.50666E+01  2.67549E+01
   2.57342E+01  2.74706E+01  2.81829E+01  2.64565E+01  2.69214E+01  2.78033E+01  2.71379E+01  2.80900E+01  3.10852E+01  3.27955E+01
   3.28076E+01  3.38017E+01  3.17147E+01  3.09165E+01  2.94663E+01  2.86172E+01  2.86937E+01  2.92697E+01  2.87856E+01  2.80944E+01
   2.85905E+01  2.88185E+01  2.72409E+01  2.67326E+01  2.69297E+01  2.46096E+01  2.56416E+01  2.68958E+01  2.81314E+01  2.83508E+01
   2.60040E+01  2.66912E+01  2.58536E+01  2.65955E+01  2.46773E+01  2.65518E+01  2.51743E+01  2.60293E+01  2.59643E+01  2.50263E+01
   2.65848E+01  2.57829E+01  2.60859E+01  2.72705E+01  2.56923E+01  2.54129E+01  2.38541E+01  2.58279E+01  2.43378E+01  2.45914E+01
   2.58306E+01  2.54509E+01  2.49095E+01  2.60296E+01  2.78257E+01  2.54480E+01  2.79988E+01  2.46060E+01  2.76169E+01  2.54582E+01
   2.56619E+01  2.63031E+01  2.75066E+01  2.47677E+01  2.45373E+01  2.63341E+01  2.61460E+01  2.63983E+01  2.56407E+01  2.43303E+01
   2.80868E+01  2.77124E+01  2.86606E+01  2.93321E+01  2.67641E+01  2.79916E+01  2.62313E+01  2.75700E+01  2.49045E+01  2.67678E+01
   2.78710E+01  2.48885E+01  2.50027E+01  2.68341E+01  2.37431E+01  2.33007E+01  2.30880E+01  2.55273E+01  2.22958E+01  2.31883E+01
   2.29517E+01  2.28369E+01  2.38622E+01  2.28934E+01  2.22777E+01  2.20711E+01  2.37988E+01  2.29340E+01  2.32235E+01  2.21532E+01
   2.29100E+01  2.22986E+01  2.47954E+01  2.17443E+01  2.16225E+01  2.14470E+01  2.21081E+01  2.13637E+01  2.05437E+01  1.91052E+01
   1.97293E+01  2.03283E+01  2.21143E+01  2.26571E+01  2.07136E+01  2.09601E+01  1.95364E+01  2.10621E+01  2.07650E+01  2.24170E+01
   2.03216E+01  2.07102E+01  1.97421E+01  1.91613E+01  1.95921E+01  2.08581E+01  1.82379E+01  1.94789E+01  2.07893E+01  2.01651E+01
   1.98233E+01  2.00378E+01  2.17431E+01  2.06568E+01  1.88338E+01  1.94315E+01  2.02143E+01  1.95601E+01  1.85024E+01  1.84461E+01
   1.90480E+01  1.86491E+01  1.77127E+01  1.83505E+01  1.97207E+01  1.90462E+01  2.09514E+01  2.21741E+01  2.02086E+01  2.02238E+01
   1.89155E+01  1.93408E+01  1.83485E+01  1.90511E+01  2.04502E+01  1.84708E+01  2.01596E+01  1.85514E+01  1.81569E+01  1.97025E+01
   1.88702E+01  1.75284E+01  1.76973E+01  1.80554E+01  1.64891E+01  1.72443E+01  1.77974E+01  1.70936E+01  1.74159E+01  1.51156E+01
   1.78719E+01  1.67247E+01  1.75287E+01  1.68441E+01  1.69486E+01  1.76384E+01  1.68530E+01  1.66807E+01  1.61937E+01  1.64658E+01
   1.40445E+01  1.58408E+01  1.53507E+01  1.51733E+01  1.57741E+01  1.47810E+01  1.59399E+01  1.53591E+01  1.60459E+01  1.55441E+01
   1.71665E+01  1.64965E+01  1.49257E+01  1.67962E+01  1.63523E+01  1.41702E+01  1.66602E+01  1.70227E+01  1.50141E+01  1.46682E+01
   1.40699E+01  1.77680E+01  1.45947E+01  1.51489E+01  1.54577E+01  1.53136E+01  1.37220E+01  1.53953E+01  1.47196E+01  1.32742E+01
   1.41674E+01  1.60962E+01  1.60167E+01  1.54106E+01  1.48109E+01  1.47823E+01  1.25517E+01  1.51357E+01  1.46810E+01  1.16496E+01
   1.38006E+01  1.32945E+01  1.61877E+01  1.29188E+01  1.31298E+01  1.31622E+01  1.50901E+01  1.41226E+01  1.46894E+01  1.30786E+01
   1.35826E+01  1.33802E+01  1.10717E+01  1.31151E+01  1.33412E+01  1.17256E+01  1.29833E+01  1.37644E+01  1.30675E+01  1.17361E+01
   1.38352E+01  1.35191E+01  1.33925E+01  1.31952E+01  1.34494E+01  1.53256E+01  1.23133E+01  1.46613E+01
 NY points of the fit to the data follow
   5.52974E+01  5.65193E+01  5.62441E+01  5.50542E+01  5.44531E+01  5.46982E+01  5.48101E+01  5.42444E+01  5.34601E+01  5.30403E+01
   5.26125E+01  5.17922E+01  5.07660E+01  4.98745E+01  4.93249E+01  4.92589E+01  4.92721E+01  4.91031E+01  4.90983E+01  4.96217E+01
   4.98531E+01  4.93022E+01  4.88454E+01  4.88926E+01  4.89920E+01  4.87539E+01  4.84433E+01  4.83820E+01  4.84752E+01  4.84515E+01
   4.83650E+01  4.84307E+01  4.86188E+01  4.86706E+01  4.85343E+01  4.82977E+01  4.80221E+01  4.76870E+01  4.71787E+01  4.64477E+01
   4.57654E+01  4.55245E+01  4.54853E+01  4.52878E+01  4.49972E+01  4.48566E+01  4.48934E+01  4.49392E+01  4.49186E+01  4.49212E+01
   4.49191E+01  4.47737E+01  4.44884E+01  4.41241E+01  4.37562E+01  4.34120E+01  4.30829E+01  4.27557E+01  4.24490E+01  4.22373E+01
   4.21339E+01  4.20764E+01  4.20139E+01  4.18805E+01  4.16991E+01  4.15132E+01  4.13125E+01  4.10824E+01  4.08424E+01  4.06175E+01
   4.04299E+01  4.02916E+01  4.01731E+01  4.00791E+01  3.99984E+01  3.99061E+01  3.97815E+01  3.95995E+01  3.94426E+01  3.93618E+01
   3.92865E+01  3.91365E+01  3.89187E+01  3.87249E+01  3.85723E+01  3.83985E+01  3.81853E+01  3.79618E+01  3.77456E+01  3.75635E+01
   3.73940E+01  3.72044E+01  3.69845E+01  3.66584E+01  3.62194E+01  3.60780E+01  3.62053E+01  3.62912E+01  3.62318E+01  3.61556E+01
   3.61840E+01  3.62840E+01  3.63334E+01  3.63386E+01  3.63935E+01  3.64740E+01  3.64796E+01  3.63880E+01  3.62114E+01  3.59736E+01
   3.57460E+01  3.55393E+01  3.52780E+01  3.49731E+01  3.47591E+01  3.43732E+01  3.32489E+01  3.23325E+01  3.25500E+01  3.31596E+01
   3.33297E+01  3.31929E+01  3.33492E+01  3.39930E+01  3.47061E+01  3.52274E+01  3.58729E+01  3.67090E+01  3.73369E+01  3.75503E+01
   3.73436E+01  3.67920E+01  3.61510E+01  3.55638E+01  3.49530E+01  3.41506E+01  3.35630E+01  3.32754E+01  3.30701E+01  3.29142E+01
   3.27828E+01  3.26907E+01  3.26465E+01  3.26316E+01  3.26406E+01  3.26933E+01  3.27399E+01  3.27121E+01  3.26225E+01  3.24980E+01
   3.23626E+01  3.22633E+01  3.21722E+01  3.20642E+01  3.19383E+01  3.18279E+01  3.17339E+01  3.16575E+01  3.15733E+01  3.14875E+01
   3.14395E+01  3.14222E+01  3.13525E+01  3.12083E+01  3.10745E+01  3.09954E+01  3.09576E+01  3.09339E+01  3.08611E+01  3.07561E+01
   3.06964E+01  3.06799E+01  3.06755E+01  3.06666E+01  3.06426E+01  3.05493E+01  3.04415E+01  3.03662E+01  3.03031E+01  3.02132E+01
   3.00779E+01  2.99095E+01  2.97491E+01  2.96210E+01  2.95672E+01  2.96018E+01  2.96589E+01  2.97015E+01  2.97871E+01  2.99303E+01
   2.99771E+01  2.99102E+01  2.98829E+01  2.99322E+01  2.99266E+01  2.98044E+01  2.96228E+01  2.94631E+01  2.93453E+01  2.92389E+01
   2.91587E+01  2.91215E+01  2.91139E+01  2.91517E+01  2.92174E+01  2.92441E+01  2.92064E+01  2.91073E+01  2.90320E+01  2.89754E+01
   2.88975E+01  2.88022E+01  2.87311E+01  2.87331E+01  2.87659E+01  2.87409E+01  2.86639E+01  2.86268E+01  2.86291E+01  2.86200E+01
   2.85522E+01  2.84468E+01  2.84058E+01  2.84046E+01  2.83227E+01  2.81803E+01  2.80470E+01  2.79900E+01  2.79810E+01  2.79849E+01
   2.80435E+01  2.81502E+01  2.82379E+01  2.82906E+01  2.83299E+01  2.83422E+01  2.83184E+01  2.82826E+01  2.82917E+01  2.83127E+01
   2.82883E+01  2.82127E+01  2.80972E+01  2.79520E+01  2.77905E+01  2.76148E+01  2.72019E+01  2.60491E+01  2.53379E+01  2.58519E+01
   2.66049E+01  2.65839E+01  2.61277E+01  2.63878E+01  2.74177E+01  2.83969E+01  2.89980E+01  2.96755E+01  3.06425E+01  3.15173E+01
   3.19602E+01  3.19486E+01  3.16225E+01  3.11861E+01  3.07052E+01  3.00176E+01  2.89959E+01  2.82421E+01  2.78695E+01  2.75845E+01
   2.72353E+01  2.69021E+01  2.67481E+01  2.66679E+01  2.65949E+01  2.65192E+01  2.64569E+01  2.64010E+01  2.63391E+01  2.62664E+01
   2.61914E+01  2.61224E+01  2.60611E+01  2.59943E+01  2.59263E+01  2.58741E+01  2.58409E+01  2.58170E+01  2.57858E+01  2.57492E+01
   2.57229E+01  2.57017E+01  2.56730E+01  2.56430E+01  2.56241E+01  2.56198E+01  2.56191E+01  2.56190E+01  2.56188E+01  2.56199E+01
   2.56227E+01  2.56254E+01  2.56243E+01  2.56258E+01  2.56324E+01  2.56436E+01  2.56563E+01  2.56685E+01  2.56803E+01  2.56926E+01
   2.57008E+01  2.57046E+01  2.57049E+01  2.57011E+01  2.56916E+01  2.56724E+01  2.56326E+01  2.55400E+01  2.53424E+01  2.53305E+01
   2.57169E+01  2.60981E+01  2.62302E+01  2.62831E+01  2.64838E+01  2.68209E+01  2.68899E+01  2.64484E+01  2.60506E+01  2.59335E+01
   2.57678E+01  2.53131E+01  2.46897E+01  2.41497E+01  2.38253E+01  2.36259E+01  2.34538E+01  2.33677E+01  2.34966E+01  2.37608E+01
   2.39495E+01  2.40014E+01  2.39259E+01  2.38031E+01  2.36666E+01  2.34306E+01  2.30965E+01  2.28407E+01  2.26455E+01  2.24817E+01
   2.23380E+01  2.22092E+01  2.20919E+01  2.19841E+01  2.18838E+01  2.17898E+01  2.17007E+01  2.16156E+01  2.15335E+01  2.14539E+01
   2.13758E+01  2.12988E+01  2.12223E+01  2.11462E+01  2.10699E+01  2.09934E+01  2.09164E+01  2.08391E+01  2.07613E+01  2.06833E+01
   2.06051E+01  2.05271E+01  2.04494E+01  2.03725E+01  2.02967E+01  2.02224E+01  2.01499E+01  2.00799E+01  2.00126E+01  1.99487E+01
   1.98886E+01  1.98329E+01  1.97820E+01  1.97364E+01  1.96964E+01  1.96625E+01  1.96348E+01  1.96136E+01  1.95986E+01  1.95898E+01
   1.95864E+01  1.95881E+01  1.95935E+01  1.96016E+01  1.96107E+01  1.96193E+01  1.96253E+01  1.96269E+01  1.96220E+01  1.96088E+01
   1.95854E+01  1.95506E+01  1.95029E+01  1.94420E+01  1.93673E+01  1.92791E+01  1.91780E+01  1.90652E+01  1.89419E+01  1.88100E+01
   1.86710E+01  1.85272E+01  1.83804E+01  1.82325E+01  1.80851E+01  1.79399E+01  1.77980E+01  1.76604E+01  1.75279E+01  1.74011E+01
   1.72800E+01  1.71649E+01  1.70554E+01  1.69516E+01  1.68530E+01  1.67593E+01  1.66699E+01  1.65846E+01  1.65029E+01  1.64244E+01
   1.63487E+01  1.62756E+01  1.62047E+01  1.61357E+01  1.60684E+01  1.60026E+01  1.59381E+01  1.58749E+01  1.58127E+01  1.57515E+01
   1.56910E+01  1.56314E+01  1.55725E+01  1.55143E+01  1.54566E+01  1.53994E+01  1.53428E+01  1.52866E+01  1.52309E+01  1.51756E+01
   1.51206E+01  1.50661E+01  1.50118E+01  1.49579E+01  1.49042E+01  1.48509E+01  1.47978E+01  1.47451E+01  1.46925E+01  1.46402E+01
   1.45881E+01  1.45363E+01  1.44846E+01  1.44332E+01  1.43819E+01  1.43309E+01  1.42800E+01  1.42294E+01  1.41788E+01  1.41285E+01
   1.40783E+01  1.40283E+01  1.39783E+01  1.39286E+01  1.38790E+01  1.38295E+01  1.37801E+01  1.37309E+01  1.36817E+01  1.36328E+01
   1.35838E+01  1.35351E+01  1.34863E+01  1.34377E+01  1.33892E+01  1.33408E+01  1.32924E+01  1.32441E+01  1.31959E+01  1.31478E+01
   1.30997E+01  1.30517E+01  1.30037E+01  1.29559E+01  1.29080E+01  1.28602E+01  1.28124E+01  1.27647E+01
 NY background values follow
     5.448E+01    5.426E+01    5.404E+01    5.382E+01    5.360E+01    5.338E+01    5.316E+01    5.293E+01    5.271E+01    5.249E+01
     5.227E+01    5.205E+01    5.183E+01    5.161E+01    5.139E+01    5.117E+01    5.095E+01    5.073E+01    5.052E+01    5.030E+01
     5.008E+01    4.986E+01    4.965E+01    4.943E+01    4.922E+01    4.900E+01    4.879E+01    4.857E+01    4.836E+01    4.815E+01
     4.794E+01    4.773E+01    4.752E+01    4.731E+01    4.710E+01    4.689E+01    4.668E+01    4.648E+01    4.627E+01    4.607E+01
     4.587E+01    4.566E+01    4.546E+01    4.526E+01    4.506E+01    4.487E+01    4.467E+01    4.447E+01    4.428E+01    4.409E+01
     4.389E+01    4.370E+01    4.351E+01    4.332E+01    4.314E+01    4.295E+01    4.277E+01    4.258E+01    4.240E+01    4.222E+01
     4.204E+01    4.186E+01    4.169E+01    4.151E+01    4.134E+01    4.117E+01    4.100E+01    4.083E+01    4.066E+01    4.049E+01
     4.033E+01    4.016E+01    4.000E+01    3.984E+01    3.968E+01    3.953E+01    3.937E+01    3.922E+01    3.906E+01    3.891E+01
     3.877E+01    3.862E+01    3.847E+01    3.833E+01    3.819E+01    3.805E+01    3.791E+01    3.777E+01    3.764E+01    3.751E+01
     3.737E+01    3.725E+01    3.712E+01    3.699E+01    3.687E+01    3.675E+01    3.663E+01    3.651E+01    3.639E+01    3.628E+01
     3.616E+01    3.605E+01    3.594E+01    3.583E+01    3.573E+01    3.562E+01    3.552E+01    3.541E+01    3.531E+01    3.521E+01
     3.511E+01    3.502E+01    3.492E+01    3.483E+01    3.473E+01    3.464E+01    3.455E+01    3.446E+01    3.437E+01    3.429E+01
     3.420E+01    3.412E+01    3.403E+01    3.395E+01    3.387E+01    3.379E+01    3.371E+01    3.363E+01    3.355E+01    3.348E+01
     3.340E+01    3.332E+01    3.325E+01    3.318E+01    3.310E+01    3.303E+01    3.296E+01    3.289E+01    3.282E+01    3.275E+01
     3.268E+01    3.261E+01    3.255E+01    3.248E+01    3.241E+01    3.235E+01    3.228E+01    3.222E+01    3.216E+01    3.209E+01
     3.203E+01    3.197E+01    3.191E+01    3.184E+01    3.178E+01    3.172E+01    3.166E+01    3.160E+01    3.154E+01    3.148E+01
     3.143E+01    3.137E+01    3.131E+01    3.125E+01    3.119E+01    3.114E+01    3.108E+01    3.102E+01    3.097E+01    3.091E+01
     3.085E+01    3.080E+01    3.074E+01    3.069E+01    3.063E+01    3.058E+01    3.052E+01    3.046E+01    3.041E+01    3.035E+01
     3.030E+01    3.024E+01    3.019E+01    3.013E+01    3.008E+01    3.002E+01    2.997E+01    2.991E+01    2.986E+01    2.980E+01
     2.975E+01    2.969E+01    2.964E+01    2.959E+01    2.953E+01    2.948E+01    2.942E+01    2.937E+01    2.932E+01    2.926E+01
     2.921E+01    2.916E+01    2.910E+01    2.905E+01    2.900E+01    2.895E+01    2.889E+01    2.884E+01    2.879E+01    2.874E+01
     2.869E+01    2.864E+01    2.859E+01    2.854E+01    2.849E+01    2.844E+01    2.839E+01    2.834E+01    2.829E+01    2.825E+01
     2.820E+01    2.815E+01    2.811E+01    2.806E+01    2.801E+01    2.797E+01    2.792E+01    2.788E+01    2.784E+01    2.779E+01
     2.775E+01    2.771E+01    2.766E+01    2.762E+01    2.758E+01    2.754E+01    2.750E+01    2.746E+01    2.742E+01    2.738E+01
     2.734E+01    2.730E+01    2.726E+01    2.722E+01    2.718E+01    2.714E+01    2.710E+01    2.707E+01    2.703E+01    2.699E+01
     2.695E+01    2.692E+01    2.688E+01    2.684E+01    2.680E+01    2.677E+01    2.673E+01    2.669E+01    2.665E+01    2.662E+01
     2.658E+01    2.654E+01    2.650E+01    2.647E+01    2.643E+01    2.639E+01    2.635E+01    2.632E+01    2.628E+01    2.624E+01
     2.620E+01    2.616E+01    2.613E+01    2.609E+01    2.605E+01    2.601E+01    2.597E+01    2.593E+01    2.589E+01    2.585E+01
     2.581E+01    2.577E+01    2.573E+01    2.568E+01    2.564E+01    2.560E+01    2.556E+01    2.552E+01    2.547E+01    2.543E+01
     2.538E+01    2.534E+01    2.529E+01    2.525E+01    2.520E+01    2.516E+01    2.511E+01    2.506E+01    2.502E+01    2.497E+01
     2.492E+01    2.487E+01    2.482E+01    2.477E+01    2.472E+01    2.467E+01    2.461E+01    2.456E+01    2.451E+01    2.445E+01
     2.440E+01    2.434E+01    2.429E+01    2.423E+01    2.417E+01    2.411E+01    2.405E+01    2.399E+01    2.393E+01    2.387E+01
     2.381E+01    2.375E+01    2.368E+01    2.362E+01    2.355E+01    2.349E+01    2.342E+01    2.336E+01    2.329E+01    2.322E+01
     2.315E+01    2.309E+01    2.302E+01    2.295E+01    2.288E+01    2.281E+01    2.274E+01    2.267E+01    2.259E+01    2.252E+01
     2.245E+01    2.238E+01    2.230E+01    2.223E+01    2.216E+01    2.208E+01    2.201E+01    2.193E+01    2.186E+01    2.178E+01
     2.171E+01    2.163E+01    2.156E+01    2.148E+01    2.141E+01    2.133E+01    2.125E+01    2.118E+01    2.110E+01    2.103E+01
     2.095E+01    2.087E+01    2.080E+01    2.072E+01    2.065E+01    2.057E+01    2.049E+01    2.042E+01    2.034E+01    2.027E+01
     2.019E+01    2.012E+01    2.004E+01    1.997E+01    1.989E+01    1.982E+01    1.974E+01    1.967E+01    1.959E+01    1.952E+01
     1.944E+01    1.937E+01    1.929E+01    1.922E+01    1.915E+01    1.907E+01    1.900E+01    1.893E+01    1.886E+01    1.878E+01
     1.871E+01    1.864E+01    1.857E+01    1.850E+01    1.843E+01    1.836E+01    1.829E+01    1.822E+01    1.815E+01    1.808E+01
     1.801E+01    1.794E+01    1.787E+01    1.781E+01    1.774E+01    1.767E+01    1.761E+01    1.754E+01    1.748E+01    1.741E+01
     1.735E+01    1.728E+01    1.722E+01    1.716E+01    1.709E+01    1.703E+01    1.697E+01    1.691E+01    1.685E+01    1.679E+01
     1.672E+01    1.666E+01    1.660E+01    1.655E+01    1.649E+01    1.643E+01    1.637E+01    1.631E+01    1.625E+01    1.620E+01
     1.614E+01    1.608E+01    1.602E+01    1.597E+01    1.591E+01    1.586E+01    1.580E+01    1.575E+01    1.569E+01    1.564E+01
     1.558E+01    1.553E+01    1.547E+01    1.542E+01    1.537E+01    1.531E+01    1.526E+01    1.521E+01    1.516E+01    1.510E+01
     1.505E+01    1.500E+01    1.495E+01    1.490E+01    1.484E+01    1.479E+01    1.474E+01    1.469E+01    1.464E+01    1.459E+01
     1.454E+01    1.449E+01    1.444E+01    1.439E+01    1.434E+01    1.429E+01    1.424E+01    1.419E+01    1.414E+01    1.409E+01
     1.404E+01    1.399E+01    1.394E+01    1.389E+01    1.384E+01    1.380E+01    1.375E+01    1.370E+01    1.365E+01    1.360E+01
     1.355E+01    1.350E+01    1.346E+01    1.341E+01    1.336E+01    1.331E+01    1.327E+01    1.322E+01    1.317E+01    1.312E+01
     1.307E+01    1.303E+01    1.298E+01    1.293E+01    1.288E+01    1.284E+01    1.279E+01    1.274E+01
 Ala      Conc. = 4.74E+01
