 LCModel (Version 6.3-1L) Copyright: S.W. Provencher.          Ref.: Magn. Reson. Med. 30:672-679 (1993).                
 Slice#2 Row#6 Col#8  PD_05_press_1_raw_act
 36 lines in following concentration table = NCONC+1
    Conc.  %SD /Cr+PCr  Metabolite                                         
  220.336  58%   0.159 Ala                                                 
    9.106 999% 6.6E-03 Asp                                                 
    0.000 999%   0.000 Cr                                                  
 1.38E+03   5%   1.000 PCr                                                 
    0.000 999%   0.000 GABA                                                
    7.870 999% 5.7E-03 Glc                                                 
  869.729  31%   0.629 Gln                                                 
 1.60E+03  19%   1.160 Glu                                                 
  633.880   4%   0.458 GPC                                                 
    0.000 999%   0.000 PCh                                                 
  450.883  18%   0.326 GSH                                                 
 1.29E+03  21%   0.936 Ins                                                 
    0.000 999%   0.000 Lac                                                 
 2.24E+03   4%   1.619 NAA                                                 
    0.000 999%   0.000 NAAG                                                
  140.759  21%   0.102 Scyllo                                              
  145.101 144%   0.105 Tau                                                 
  139.681  77%   0.101 -CrCH2                                              
  633.880   4%   0.458 GPC+PCh                                             
 2.24E+03   4%   1.619 NAA+NAAG                                            
 1.38E+03   5%   1.000 Cr+PCr                                              
 2.47E+03  18%   1.789 Glu+Gln                                             
  278.210 225%   0.201 Lip13a                                              
  427.280 101%   0.309 Lip13b                                              
    0.000 999%   0.000 Lip09                                               
 1.12E+03  15%   0.808 MM09                                                
  189.805  63%   0.137 Lip20                                               
 3.23E+03  11%   2.335 MM20                                                
  356.673  37%   0.258 MM12                                                
 1.31E+03  24%   0.949 MM14                                                
  839.102  27%   0.607 MM17                                                
  705.490  46%   0.510 Lip13a+Lip13b                                       
 2.37E+03  14%   1.717 MM14+Lip13a+Lip13b+MM12                             
 1.12E+03  15%   0.808 MM09+Lip09                                          
 3.42E+03  10%   2.472 MM20+Lip20                                          
   6 lines in following misc. output table
  FWHM = 0.061 ppm    S/N =  11                                            
  Data shift =-0.023 ppm                                                   
  Ph: -59 deg     -16.8 deg/ppm                                            
  alphaB,S = 3.2E+00,   5.2E+01                                            
   14 spline knots.   Ns = 8(1)                                            
  (10) 6 infls.   ( 9) 1 extrs.                                            
  498 points on ppm-axis = NY
      4.000000     3.992357     3.984714     3.977070     3.969427     3.961784     3.954141     3.946497     3.938854     3.931211
      3.923568     3.915925     3.908281     3.900638     3.892995     3.885352     3.877708     3.870065     3.862422     3.854779
      3.847136     3.839492     3.831849     3.824206     3.816563     3.808919     3.801276     3.793633     3.785990     3.778347
      3.770703     3.763060     3.755417     3.747774     3.740130     3.732487     3.724844     3.717201     3.709558     3.701914
      3.694271     3.686628     3.678985     3.671341     3.663698     3.656055     3.648412     3.640769     3.633125     3.625482
      3.617839     3.610196     3.602552     3.594909     3.587266     3.579623     3.571980     3.564336     3.556693     3.549050
      3.541407     3.533763     3.526120     3.518477     3.510834     3.503191     3.495547     3.487904     3.480261     3.472618
      3.464974     3.457331     3.449688     3.442045     3.434402     3.426758     3.419115     3.411472     3.403829     3.396185
      3.388542     3.380899     3.373256     3.365613     3.357969     3.350326     3.342683     3.335040     3.327396     3.319753
      3.312110     3.304467     3.296824     3.289180     3.281537     3.273894     3.266251     3.258607     3.250964     3.243321
      3.235678     3.228034     3.220391     3.212748     3.205105     3.197462     3.189818     3.182175     3.174532     3.166889
      3.159245     3.151602     3.143959     3.136316     3.128673     3.121029     3.113386     3.105743     3.098100     3.090456
      3.082813     3.075170     3.067527     3.059884     3.052240     3.044597     3.036954     3.029311     3.021667     3.014024
      3.006381     2.998738     2.991095     2.983451     2.975808     2.968165     2.960522     2.952878     2.945235     2.937592
      2.929949     2.922306     2.914662     2.907019     2.899376     2.891733     2.884089     2.876446     2.868803     2.861160
      2.853517     2.845873     2.838230     2.830587     2.822944     2.815300     2.807657     2.800014     2.792371     2.784728
      2.777084     2.769441     2.761798     2.754155     2.746511     2.738868     2.731225     2.723582     2.715939     2.708295
      2.700652     2.693009     2.685366     2.677722     2.670079     2.662436     2.654793     2.647150     2.639506     2.631863
      2.624220     2.616577     2.608933     2.601290     2.593647     2.586004     2.578361     2.570717     2.563074     2.555431
      2.547788     2.540144     2.532501     2.524858     2.517215     2.509572     2.501928     2.494285     2.486642     2.478999
      2.471355     2.463712     2.456069     2.448426     2.440783     2.433139     2.425496     2.417853     2.410210     2.402566
      2.394923     2.387280     2.379637     2.371994     2.364350     2.356707     2.349064     2.341421     2.333777     2.326134
      2.318491     2.310848     2.303205     2.295561     2.287918     2.280275     2.272632     2.264988     2.257345     2.249702
      2.242059     2.234416     2.226772     2.219129     2.211486     2.203843     2.196199     2.188556     2.180913     2.173270
      2.165627     2.157983     2.150340     2.142697     2.135054     2.127410     2.119767     2.112124     2.104481     2.096838
      2.089194     2.081551     2.073908     2.066265     2.058621     2.050978     2.043335     2.035692     2.028049     2.020405
      2.012762     2.005119     1.997476     1.989833     1.982190     1.974546     1.966903     1.959260     1.951617     1.943974
      1.936331     1.928688     1.921045     1.913402     1.905759     1.898115     1.890472     1.882829     1.875186     1.867543
      1.859900     1.852257     1.844614     1.836971     1.829327     1.821684     1.814041     1.806398     1.798755     1.791112
      1.783469     1.775826     1.768183     1.760540     1.752896     1.745253     1.737610     1.729967     1.722324     1.714681
      1.707038     1.699395     1.691752     1.684108     1.676465     1.668822     1.661179     1.653536     1.645893     1.638250
      1.630607     1.622964     1.615321     1.607677     1.600034     1.592391     1.584748     1.577105     1.569462     1.561819
      1.554176     1.546533     1.538890     1.531246     1.523603     1.515960     1.508317     1.500674     1.493031     1.485388
      1.477745     1.470102     1.462458     1.454815     1.447172     1.439529     1.431886     1.424243     1.416600     1.408957
      1.401314     1.393671     1.386027     1.378384     1.370741     1.363098     1.355455     1.347812     1.340169     1.332526
      1.324883     1.317240     1.309596     1.301953     1.294310     1.286667     1.279024     1.271381     1.263738     1.256095
      1.248452     1.240808     1.233165     1.225522     1.217879     1.210236     1.202593     1.194950     1.187307     1.179664
      1.172021     1.164377     1.156734     1.149091     1.141448     1.133805     1.126162     1.118519     1.110876     1.103233
      1.095590     1.087946     1.080303     1.072660     1.065017     1.057374     1.049731     1.042088     1.034445     1.026802
      1.019158     1.011515     1.003872     0.996229     0.988586     0.980943     0.973300     0.965657     0.958014     0.950371
      0.942727     0.935084     0.927441     0.919798     0.912155     0.904512     0.896869     0.889226     0.881583     0.873940
      0.866296     0.858653     0.851010     0.843367     0.835724     0.828081     0.820438     0.812795     0.805152     0.797508
      0.789865     0.782222     0.774579     0.766936     0.759293     0.751650     0.744007     0.736364     0.728721     0.721077
      0.713434     0.705791     0.698148     0.690505     0.682862     0.675219     0.667576     0.659933     0.652290     0.644646
      0.637003     0.629360     0.621717     0.614074     0.606431     0.598788     0.591145     0.583502     0.575858     0.568215
      0.560572     0.552929     0.545286     0.537643     0.530000     0.522357     0.514714     0.507071     0.499427     0.491784
      0.484141     0.476498     0.468855     0.461212     0.453569     0.445925     0.438282     0.430639     0.422996     0.415353
      0.407710     0.400067     0.392424     0.384780     0.377137     0.369494     0.361851     0.354208     0.346565     0.338922
      0.331278     0.323635     0.315992     0.308349     0.300706     0.293063     0.285420     0.277777     0.270133     0.262490
      0.254847     0.247204     0.239561     0.231918     0.224275     0.216631     0.208988     0.201345
 NY phased data points follow
  -3.67595E+01 -4.13721E+01 -3.57253E+01 -3.23236E+01 -2.55626E+01 -1.72120E+01 -1.50335E+01 -1.12497E+01  8.93477E-01 -3.67982E+00
  -5.25386E+00 -5.50808E+00 -8.72335E+00 -7.49794E+00 -1.75186E+01 -2.32474E+01 -2.05375E+01 -3.11828E+01 -3.05370E+01 -2.59349E+01
  -2.84729E+01 -2.61646E+01 -2.74051E+01 -3.17131E+01 -2.36021E+01 -2.88983E+01 -1.73398E+01 -1.93612E+01 -1.95589E+01 -1.78598E+01
  -1.86478E+01 -1.80605E+01 -1.55057E+01 -1.89176E+01 -2.09393E+01 -2.38323E+01 -2.58197E+01 -2.40546E+01 -2.18333E+01 -2.19494E+01
  -2.35044E+01 -2.11840E+01 -2.20530E+01 -1.35604E+01 -1.16079E+01 -1.44349E+01 -1.13801E+01 -1.09190E+01 -1.34950E+01 -1.65595E+01
  -1.73337E+01 -1.99721E+01 -2.02876E+01 -2.10386E+01 -1.76514E+01 -2.27865E+01 -1.94371E+01 -2.17281E+01 -2.15199E+01 -2.30513E+01
  -2.35116E+01 -2.42923E+01 -2.08015E+01 -2.54470E+01 -2.66113E+01 -2.59050E+01 -2.85101E+01 -2.34059E+01 -2.65459E+01 -2.31533E+01
  -2.58219E+01 -2.12483E+01 -2.77315E+01 -2.17374E+01 -2.35845E+01 -2.37940E+01 -2.31397E+01 -1.80860E+01 -1.87004E+01 -1.95011E+01
  -1.87859E+01 -1.98886E+01 -1.79693E+01 -1.33303E+01 -1.14936E+01 -1.86762E+01 -1.90330E+01 -1.98469E+01 -1.62552E+01 -2.05062E+01
  -2.02030E+01 -1.85605E+01 -1.99442E+01 -1.53281E+01 -1.14757E+01 -1.41142E+01 -7.72660E+00 -6.99383E+00  4.05419E+00  1.35970E+01
   1.90020E+01  2.84975E+01  2.71780E+01  2.99494E+01  3.28734E+01  1.57268E+01  1.04957E+01  4.59994E+00  2.19112E-01 -6.69881E+00
  -1.04204E+01 -9.50111E+00 -8.67070E+00 -1.27816E+01 -1.27389E+01 -1.61287E+01 -1.52530E+01 -1.35155E+01 -1.56077E+01 -1.92480E+01
  -1.23715E+01 -1.01234E+01 -2.02307E+00  6.38139E+00  1.44003E+01  1.78071E+01  2.10402E+01  2.85036E+01  2.53375E+01  1.84598E+01
   1.52191E+01  6.15061E+00  2.40628E+00 -6.13465E+00 -1.45947E+01 -7.57440E+00 -8.46306E+00 -1.66528E+01 -1.49360E+01 -1.39204E+01
  -1.33734E+01 -1.94154E+01 -1.58198E+01 -1.77100E+01 -1.52316E+01 -1.63806E+01 -1.55379E+01 -1.63530E+01 -1.85760E+01 -2.00534E+01
  -9.55974E+00 -1.16314E+01 -1.51337E+01 -1.57082E+01 -1.60835E+01 -1.50360E+01 -1.54176E+01 -1.13453E+01 -1.44677E+01 -1.45718E+01
  -1.57249E+01 -1.81821E+01 -1.34543E+01 -1.79121E+01 -1.48752E+01 -1.48265E+01 -1.53209E+01 -1.34229E+01 -1.21071E+01 -1.08670E+01
  -1.07909E+01 -1.93418E+01 -1.43926E+01 -1.85906E+01 -1.78407E+01 -2.32759E+01 -1.66586E+01 -1.82733E+01 -2.51567E+01 -2.23897E+01
  -2.10023E+01 -2.28866E+01 -1.97584E+01 -2.67028E+01 -2.08353E+01 -1.57413E+01 -1.93297E+01 -1.31331E+01 -1.36797E+01 -8.18747E+00
  -4.35201E+00 -6.54717E+00 -7.23548E+00 -5.35054E+00 -6.13971E+00 -2.27294E+00 -9.03552E+00 -1.44558E+01 -7.33599E+00 -1.05082E+01
  -4.65171E+00 -4.88020E+00 -7.28552E+00 -7.25175E+00 -3.89431E+00 -1.13224E+01 -8.95243E+00 -1.38526E+01 -1.16666E+01 -1.11739E+01
  -1.16607E+01 -1.39878E+00 -1.02807E+01 -8.64513E-01  1.70706E+00  1.62648E+00  2.75529E+00  1.31641E+00 -2.65120E-02 -3.23691E+00
  -5.12219E+00 -9.66524E+00 -7.68463E+00 -6.62866E+00 -3.76692E+00 -6.90133E+00  1.22740E+00  6.06475E-01  3.87907E+00  5.72260E-01
   6.30636E-01  4.76933E+00  3.94692E+00  3.77989E+00  1.02429E-01  5.23882E+00  1.85221E+00 -5.24182E+00 -5.43787E-01  4.63957E+00
   6.82822E-01 -1.05733E+00  7.82934E-01  7.11558E-01 -1.08586E+00  6.42374E+00  6.37524E+00  5.23940E+00  2.38879E+00  4.19774E+00
   8.57217E+00  6.96990E+00  1.03111E+01  1.25385E+01  1.34561E+01  2.69825E+01  3.35592E+01  4.39781E+01  5.34859E+01  6.03938E+01
   6.76291E+01  6.87758E+01  6.43710E+01  5.93773E+01  4.34876E+01  3.79745E+01  2.06472E+01  1.15190E+01  1.44293E+01  1.19266E+01
   5.64927E+00  1.03653E+01  5.48984E+00  6.64919E+00  3.64506E+00  3.15497E+00  2.39878E+00  4.40792E-01  4.63882E+00 -3.88582E-01
  -9.62974E-01  2.20477E-01  2.28258E+00  1.58416E+00 -3.40623E+00  1.68458E+00 -3.63639E+00 -5.24795E-01 -4.44361E+00 -1.67987E+00
  -1.12232E+00  3.66395E-01 -1.99641E+00  8.78254E-01  1.37057E-01 -1.16417E+00 -2.26005E+00  1.26514E+00  1.17112E+00 -2.41854E+00
   2.89759E+00 -3.54432E+00 -8.00254E-01 -1.74724E+00 -1.35338E+00  2.27763E+00  4.10768E+00  2.08544E+00  2.78583E+00  2.29823E+00
   6.76754E+00 -1.26007E+00  6.28230E+00  9.48128E+00  8.05821E+00  4.99873E+00  9.64176E+00  5.51692E+00  2.26454E+00  9.99293E+00
   7.19883E+00  4.15126E+00  6.43420E+00  7.32081E+00  7.92203E+00  8.82297E+00  8.45863E+00  4.82707E+00  5.52358E+00  8.58028E+00
   3.86787E+00 -5.40078E-01  4.13908E+00  4.39915E+00  1.22450E+00  6.28467E+00  5.76546E+00  7.78334E+00  1.13332E+00  4.88375E+00
   6.15820E+00  7.77596E+00  5.71548E+00  5.52548E+00  8.91361E+00  9.41356E+00  8.19124E+00  1.06830E+01  7.97863E+00  7.79955E+00
   7.70410E+00  1.01400E+01  1.11614E+01  1.00361E+01  9.40358E+00  1.00094E+01  8.84319E+00  8.43610E+00  3.60843E+00  7.09097E+00
   7.07786E+00  3.84328E+00 -7.42746E-01  4.26976E+00  5.26788E+00  3.66853E+00  2.90514E+00  5.51332E+00  2.96452E+00  5.67763E+00
   1.66901E+00  4.41902E+00  8.44261E+00  6.27170E+00  1.67647E+00  1.85933E+00  3.90525E+00  5.24595E+00  3.32696E-01  2.59268E+00
   9.85272E+00  5.36984E+00  1.11566E+00  1.40788E+00  3.05032E+00 -1.26218E+00  9.83273E-01  1.66248E+00 -2.36380E+00 -1.80490E+00
   2.55900E-01 -2.23200E+00  3.41507E+00  2.12662E+00  2.81681E+00  2.20922E+00  6.60612E+00  8.24126E+00  1.79305E+00  7.69295E+00
   5.38958E+00  1.06412E+01  3.94321E+00  1.14818E+01  6.09796E+00  6.57742E+00  5.42503E+00  8.03738E+00  6.69809E+00  1.14075E+01
   9.36246E+00  7.42601E+00  9.95068E+00  6.54711E+00  7.70202E+00  8.72650E+00  1.14566E+01  9.09806E+00  5.70501E+00  7.25576E+00
   7.03363E+00 -1.81899E-01  2.79180E+00 -1.51646E+00  3.61101E+00  3.20523E+00  3.51246E+00  8.00117E+00  3.76135E+00  5.07054E+00
   3.86291E+00  3.35545E+00  6.99475E+00  7.00239E+00  4.33656E+00  5.50784E+00  7.90201E+00  6.69458E+00  4.88890E+00  6.93483E+00
   3.15855E+00 -7.67973E-01  7.44894E+00  6.16340E+00  4.20933E+00  6.83245E+00  5.72271E+00  3.63974E+00  2.01562E+00  1.90810E+00
   1.27534E+00  2.51397E+00 -3.37759E-01 -7.02352E-01  2.03882E+00  1.65727E+00  3.42266E-01  2.59151E+00  3.65186E+00  1.17584E+00
   1.46130E+00  3.28341E+00  5.54972E+00  4.05652E+00  4.45018E+00  3.58802E+00  2.41511E+00  3.00741E+00  2.55948E+00  3.15439E+00
   3.67881E+00  4.76364E+00  1.16695E+00  4.55079E+00  5.39360E+00  3.61322E+00  5.08085E+00  3.60973E+00  2.21349E+00  2.05237E+00
   4.01962E+00  7.50736E+00  4.59324E+00 -2.07562E+00  6.01811E+00 -1.12826E+00  3.11252E+00 -1.00716E+00  4.09147E+00  9.62673E-01
   3.20172E+00  5.14906E-01  2.77857E+00  4.61001E+00  4.10898E+00  4.16495E+00 -2.81989E+00  9.23419E+00
 NY points of the fit to the data follow
  -3.11581E+01 -3.09486E+01 -2.97370E+01 -2.69926E+01 -2.30077E+01 -1.83171E+01 -1.35706E+01 -9.36867E+00 -6.07093E+00 -4.12085E+00
  -3.82282E+00 -5.48867E+00 -8.78924E+00 -1.26024E+01 -1.65091E+01 -2.00017E+01 -2.18050E+01 -2.22089E+01 -2.33601E+01 -2.50520E+01
  -2.56653E+01 -2.60469E+01 -2.63033E+01 -2.62563E+01 -2.57761E+01 -2.48533E+01 -2.35277E+01 -2.18672E+01 -1.99796E+01 -1.81448E+01
  -1.66625E+01 -1.59025E+01 -1.60535E+01 -1.69079E+01 -1.84401E+01 -2.04215E+01 -2.21364E+01 -2.30504E+01 -2.36668E+01 -2.41195E+01
  -2.35790E+01 -2.23021E+01 -2.06148E+01 -1.89272E+01 -1.74294E+01 -1.62302E+01 -1.55679E+01 -1.54998E+01 -1.61184E+01 -1.73567E+01
  -1.88731E+01 -2.05191E+01 -2.20265E+01 -2.27987E+01 -2.27628E+01 -2.24554E+01 -2.22472E+01 -2.20132E+01 -2.17198E+01 -2.15465E+01
  -2.15842E+01 -2.18477E+01 -2.22245E+01 -2.26285E+01 -2.30020E+01 -2.31761E+01 -2.30081E+01 -2.25980E+01 -2.21549E+01 -2.17248E+01
  -2.13740E+01 -2.11090E+01 -2.09441E+01 -2.09052E+01 -2.09708E+01 -2.11049E+01 -2.12837E+01 -2.14285E+01 -2.13956E+01 -2.09763E+01
  -2.02477E+01 -1.93377E+01 -1.83475E+01 -1.74699E+01 -1.68624E+01 -1.66013E+01 -1.66783E+01 -1.71423E+01 -1.79714E+01 -1.88720E+01
  -1.96146E+01 -2.02126E+01 -2.04310E+01 -2.00279E+01 -1.90520E+01 -1.70685E+01 -1.27232E+01 -5.63097E+00  3.14100E+00  1.22020E+01
   2.03364E+01  2.67789E+01  3.06535E+01  3.12560E+01  2.79375E+01  2.10251E+01  1.26660E+01  4.12410E+00 -3.74238E+00 -8.59250E+00
  -1.02368E+01 -1.21955E+01 -1.55310E+01 -1.70120E+01 -1.74153E+01 -1.75401E+01 -1.75344E+01 -1.74334E+01 -1.71113E+01 -1.60218E+01
  -1.34020E+01 -8.70801E+00 -2.14340E+00  5.30989E+00  1.24570E+01  1.85931E+01  2.31455E+01  2.54136E+01  2.48472E+01  2.09467E+01
   1.46602E+01  7.73052E+00  6.65947E-01 -5.22497E+00 -8.02190E+00 -9.07687E+00 -1.16780E+01 -1.39800E+01 -1.43120E+01 -1.40556E+01
  -1.35522E+01 -1.30880E+01 -1.29206E+01 -1.29770E+01 -1.31171E+01 -1.33435E+01 -1.35866E+01 -1.37901E+01 -1.39786E+01 -1.41222E+01
  -1.42894E+01 -1.44348E+01 -1.44952E+01 -1.45125E+01 -1.45336E+01 -1.45945E+01 -1.47188E+01 -1.48958E+01 -1.50680E+01 -1.51691E+01
  -1.52002E+01 -1.51912E+01 -1.51576E+01 -1.50763E+01 -1.49520E+01 -1.48877E+01 -1.49198E+01 -1.50686E+01 -1.54012E+01 -1.58859E+01
  -1.63665E+01 -1.67427E+01 -1.70253E+01 -1.71926E+01 -1.73623E+01 -1.75337E+01 -1.75544E+01 -1.74706E+01 -1.73004E+01 -1.70700E+01
  -1.68936E+01 -1.68095E+01 -1.67277E+01 -1.65492E+01 -1.61563E+01 -1.54168E+01 -1.43322E+01 -1.31731E+01 -1.21409E+01 -1.12715E+01
  -1.05487E+01 -1.00856E+01 -1.00630E+01 -1.03124E+01 -1.06568E+01 -1.08970E+01 -1.06941E+01 -9.95912E+00 -8.90745E+00 -7.61287E+00
  -6.29982E+00 -5.23965E+00 -4.66355E+00 -4.79251E+00 -5.67243E+00 -7.02381E+00 -8.66395E+00 -1.03143E+01 -1.15278E+01 -1.19126E+01
  -1.13227E+01 -9.68868E+00 -7.26440E+00 -4.86089E+00 -3.05083E+00 -2.00465E+00 -2.13593E+00 -3.54791E+00 -5.64959E+00 -7.64256E+00
  -9.50163E+00 -1.08074E+01 -1.09446E+01 -9.73558E+00 -7.77971E+00 -5.83172E+00 -3.96717E+00 -2.25412E+00 -1.06843E+00 -5.99666E-01
  -6.48590E-01 -5.19490E-01  1.80915E-02  6.10448E-01  1.14016E+00  1.73093E+00  2.21893E+00  2.47260E+00  2.40028E+00  2.04871E+00
   1.75286E+00  1.60270E+00  1.44943E+00  1.48007E+00  2.03033E+00  2.97435E+00  3.83410E+00  4.68431E+00  5.61030E+00  6.40552E+00
   6.96444E+00  7.61107E+00  8.87087E+00  1.14876E+01  1.64395E+01  2.43713E+01  3.46101E+01  4.54350E+01  5.51576E+01  6.28951E+01
   6.77251E+01  6.87060E+01  6.49835E+01  5.64591E+01  4.53732E+01  3.39008E+01  2.28449E+01  1.48904E+01  1.16444E+01  9.50411E+00
   5.01465E+00  2.12232E+00  1.29099E+00  8.79071E-01  6.26043E-01  4.78309E-01  2.76963E-01  4.63820E-02 -2.01770E-01 -4.69572E-01
  -7.20563E-01 -9.07150E-01 -1.05332E+00 -1.18485E+00 -1.28925E+00 -1.35636E+00 -1.39177E+00 -1.40949E+00 -1.41522E+00 -1.39580E+00
  -1.34145E+00 -1.26498E+00 -1.16497E+00 -1.03773E+00 -8.82194E-01 -6.99950E-01 -4.91628E-01 -2.54877E-01  9.49076E-03  2.97142E-01
   6.06980E-01  9.37081E-01  1.28283E+00  1.63977E+00  2.00307E+00  2.36695E+00  2.72569E+00  3.07413E+00  3.40728E+00  3.72074E+00
   4.01134E+00  4.27667E+00  4.51485E+00  4.72626E+00  4.91353E+00  5.08052E+00  5.23346E+00  5.38186E+00  5.54165E+00  5.74214E+00
   6.00837E+00  6.32243E+00  6.61885E+00  6.80030E+00  6.79618E+00  6.58565E+00  6.17436E+00  5.56899E+00  4.84806E+00  4.14012E+00
   3.63805E+00  3.50000E+00  3.70440E+00  4.19626E+00  4.96670E+00  5.79542E+00  6.40570E+00  6.81711E+00  7.11314E+00  7.18130E+00
   7.06016E+00  6.78960E+00  6.55758E+00  6.55084E+00  6.65103E+00  6.68720E+00  6.85660E+00  7.17809E+00  7.60202E+00  8.08602E+00
   8.58117E+00  9.03152E+00  9.37965E+00  9.57485E+00  9.58142E+00  9.38508E+00  8.99562E+00  8.44496E+00  7.78108E+00  7.05947E+00
   6.33420E+00  5.65053E+00  5.04030E+00  4.52058E+00  4.09496E+00  3.75689E+00  3.49360E+00  3.29001E+00  3.13147E+00  3.00557E+00
   2.90271E+00  2.81627E+00  2.74212E+00  2.67821E+00  2.62390E+00  2.57948E+00  2.54564E+00  2.52339E+00  2.51386E+00  2.51830E+00
   2.53795E+00  2.57399E+00  2.62751E+00  2.69959E+00  2.79132E+00  2.90384E+00  3.03820E+00  3.19537E+00  3.37617E+00  3.58127E+00
   3.81115E+00  4.06600E+00  4.34548E+00  4.64871E+00  4.97405E+00  5.31920E+00  5.68100E+00  6.05540E+00  6.43737E+00  6.82098E+00
   7.19953E+00  7.56575E+00  7.91199E+00  8.23048E+00  8.51352E+00  8.75397E+00  8.94551E+00  9.08304E+00  9.16286E+00  9.18286E+00
   9.14259E+00  9.04343E+00  8.88843E+00  8.68229E+00  8.43095E+00  8.14137E+00  7.82116E+00  7.47835E+00  7.12096E+00  6.75680E+00
   6.39300E+00  6.03593E+00  5.69100E+00  5.36267E+00  5.05436E+00  4.76854E+00  4.50662E+00  4.26924E+00  4.05628E+00  3.86715E+00
   3.70080E+00  3.55587E+00  3.43071E+00  3.32361E+00  3.23283E+00  3.15672E+00  3.09369E+00  3.04223E+00  3.00091E+00  2.96847E+00
   2.94379E+00  2.92596E+00  2.91410E+00  2.90744E+00  2.90527E+00  2.90704E+00  2.91227E+00  2.92059E+00  2.93160E+00  2.94499E+00
   2.96042E+00  2.97771E+00  2.99667E+00  3.01716E+00  3.03897E+00  3.06196E+00  3.08599E+00  3.11100E+00  3.13690E+00  3.16363E+00
   3.19107E+00  3.21916E+00  3.24782E+00  3.27706E+00  3.30683E+00  3.33710E+00  3.36778E+00  3.39883E+00  3.43024E+00  3.46204E+00
   3.49417E+00  3.52663E+00  3.55934E+00  3.59231E+00  3.62553E+00  3.65905E+00  3.69281E+00  3.72678E+00  3.76094E+00  3.79530E+00
   3.82988E+00  3.86469E+00  3.89970E+00  3.93489E+00  3.97024E+00  4.00580E+00  4.04158E+00  4.07759E+00  4.11378E+00  4.15018E+00
   4.18677E+00  4.22361E+00  4.26073E+00  4.29813E+00  4.33577E+00  4.37371E+00  4.41197E+00  4.45064E+00
 NY background values follow
    -3.417E+01   -3.405E+01   -3.393E+01   -3.380E+01   -3.368E+01   -3.356E+01   -3.343E+01   -3.331E+01   -3.319E+01   -3.306E+01
    -3.294E+01   -3.282E+01   -3.269E+01   -3.257E+01   -3.245E+01   -3.232E+01   -3.220E+01   -3.208E+01   -3.195E+01   -3.183E+01
    -3.171E+01   -3.158E+01   -3.146E+01   -3.134E+01   -3.121E+01   -3.109E+01   -3.097E+01   -3.084E+01   -3.072E+01   -3.060E+01
    -3.047E+01   -3.035E+01   -3.023E+01   -3.011E+01   -2.998E+01   -2.986E+01   -2.974E+01   -2.961E+01   -2.949E+01   -2.937E+01
    -2.925E+01   -2.912E+01   -2.900E+01   -2.888E+01   -2.875E+01   -2.863E+01   -2.851E+01   -2.839E+01   -2.826E+01   -2.814E+01
    -2.802E+01   -2.790E+01   -2.778E+01   -2.765E+01   -2.753E+01   -2.741E+01   -2.729E+01   -2.717E+01   -2.705E+01   -2.692E+01
    -2.680E+01   -2.668E+01   -2.656E+01   -2.644E+01   -2.632E+01   -2.620E+01   -2.608E+01   -2.595E+01   -2.583E+01   -2.571E+01
    -2.559E+01   -2.547E+01   -2.535E+01   -2.523E+01   -2.511E+01   -2.499E+01   -2.487E+01   -2.475E+01   -2.463E+01   -2.451E+01
    -2.440E+01   -2.428E+01   -2.416E+01   -2.404E+01   -2.392E+01   -2.380E+01   -2.368E+01   -2.356E+01   -2.345E+01   -2.333E+01
    -2.321E+01   -2.309E+01   -2.297E+01   -2.286E+01   -2.274E+01   -2.262E+01   -2.251E+01   -2.239E+01   -2.227E+01   -2.216E+01
    -2.204E+01   -2.192E+01   -2.181E+01   -2.169E+01   -2.158E+01   -2.146E+01   -2.135E+01   -2.123E+01   -2.112E+01   -2.100E+01
    -2.089E+01   -2.077E+01   -2.066E+01   -2.054E+01   -2.043E+01   -2.032E+01   -2.020E+01   -2.009E+01   -1.998E+01   -1.986E+01
    -1.975E+01   -1.964E+01   -1.952E+01   -1.941E+01   -1.930E+01   -1.919E+01   -1.908E+01   -1.896E+01   -1.885E+01   -1.874E+01
    -1.863E+01   -1.852E+01   -1.841E+01   -1.830E+01   -1.819E+01   -1.808E+01   -1.797E+01   -1.786E+01   -1.775E+01   -1.764E+01
    -1.753E+01   -1.742E+01   -1.731E+01   -1.721E+01   -1.710E+01   -1.699E+01   -1.688E+01   -1.677E+01   -1.667E+01   -1.656E+01
    -1.645E+01   -1.634E+01   -1.624E+01   -1.613E+01   -1.603E+01   -1.592E+01   -1.581E+01   -1.571E+01   -1.560E+01   -1.550E+01
    -1.539E+01   -1.529E+01   -1.518E+01   -1.508E+01   -1.498E+01   -1.487E+01   -1.477E+01   -1.467E+01   -1.456E+01   -1.446E+01
    -1.436E+01   -1.426E+01   -1.415E+01   -1.405E+01   -1.395E+01   -1.385E+01   -1.375E+01   -1.365E+01   -1.355E+01   -1.345E+01
    -1.335E+01   -1.325E+01   -1.315E+01   -1.305E+01   -1.295E+01   -1.285E+01   -1.275E+01   -1.266E+01   -1.256E+01   -1.246E+01
    -1.236E+01   -1.227E+01   -1.217E+01   -1.207E+01   -1.198E+01   -1.188E+01   -1.179E+01   -1.169E+01   -1.160E+01   -1.150E+01
    -1.141E+01   -1.131E+01   -1.122E+01   -1.113E+01   -1.103E+01   -1.094E+01   -1.085E+01   -1.075E+01   -1.066E+01   -1.057E+01
    -1.048E+01   -1.039E+01   -1.030E+01   -1.021E+01   -1.012E+01   -1.003E+01   -9.941E+00   -9.852E+00   -9.764E+00   -9.676E+00
    -9.588E+00   -9.501E+00   -9.414E+00   -9.327E+00   -9.241E+00   -9.155E+00   -9.070E+00   -8.985E+00   -8.900E+00   -8.816E+00
    -8.732E+00   -8.648E+00   -8.565E+00   -8.482E+00   -8.399E+00   -8.317E+00   -8.235E+00   -8.154E+00   -8.073E+00   -7.992E+00
    -7.912E+00   -7.832E+00   -7.752E+00   -7.673E+00   -7.594E+00   -7.515E+00   -7.437E+00   -7.359E+00   -7.282E+00   -7.204E+00
    -7.128E+00   -7.051E+00   -6.975E+00   -6.899E+00   -6.824E+00   -6.749E+00   -6.674E+00   -6.600E+00   -6.526E+00   -6.453E+00
    -6.379E+00   -6.306E+00   -6.234E+00   -6.162E+00   -6.090E+00   -6.018E+00   -5.947E+00   -5.876E+00   -5.806E+00   -5.736E+00
    -5.666E+00   -5.596E+00   -5.527E+00   -5.459E+00   -5.390E+00   -5.322E+00   -5.254E+00   -5.187E+00   -5.120E+00   -5.053E+00
    -4.987E+00   -4.921E+00   -4.855E+00   -4.789E+00   -4.724E+00   -4.659E+00   -4.595E+00   -4.531E+00   -4.467E+00   -4.403E+00
    -4.340E+00   -4.277E+00   -4.215E+00   -4.152E+00   -4.090E+00   -4.029E+00   -3.967E+00   -3.906E+00   -3.845E+00   -3.785E+00
    -3.725E+00   -3.665E+00   -3.605E+00   -3.546E+00   -3.487E+00   -3.428E+00   -3.369E+00   -3.311E+00   -3.253E+00   -3.196E+00
    -3.138E+00   -3.081E+00   -3.024E+00   -2.968E+00   -2.912E+00   -2.856E+00   -2.800E+00   -2.744E+00   -2.689E+00   -2.634E+00
    -2.580E+00   -2.525E+00   -2.471E+00   -2.417E+00   -2.363E+00   -2.310E+00   -2.257E+00   -2.204E+00   -2.151E+00   -2.099E+00
    -2.046E+00   -1.994E+00   -1.943E+00   -1.891E+00   -1.840E+00   -1.789E+00   -1.738E+00   -1.687E+00   -1.637E+00   -1.587E+00
    -1.537E+00   -1.487E+00   -1.437E+00   -1.388E+00   -1.339E+00   -1.290E+00   -1.241E+00   -1.193E+00   -1.144E+00   -1.096E+00
    -1.048E+00   -1.000E+00   -9.527E-01   -9.053E-01   -8.581E-01   -8.111E-01   -7.642E-01   -7.176E-01   -6.711E-01   -6.247E-01
    -5.786E-01   -5.326E-01   -4.868E-01   -4.411E-01   -3.957E-01   -3.503E-01   -3.052E-01   -2.602E-01   -2.153E-01   -1.706E-01
    -1.260E-01   -8.164E-02   -3.739E-02    6.720E-03    5.069E-02    9.451E-02    1.382E-01    1.817E-01    2.252E-01    2.684E-01
     3.116E-01    3.546E-01    3.975E-01    4.402E-01    4.829E-01    5.254E-01    5.678E-01    6.101E-01    6.522E-01    6.943E-01
     7.362E-01    7.780E-01    8.197E-01    8.613E-01    9.028E-01    9.442E-01    9.855E-01    1.027E+00    1.068E+00    1.109E+00
     1.150E+00    1.191E+00    1.231E+00    1.272E+00    1.313E+00    1.353E+00    1.393E+00    1.434E+00    1.474E+00    1.514E+00
     1.554E+00    1.594E+00    1.634E+00    1.674E+00    1.714E+00    1.753E+00    1.793E+00    1.833E+00    1.872E+00    1.911E+00
     1.951E+00    1.990E+00    2.029E+00    2.068E+00    2.107E+00    2.146E+00    2.185E+00    2.224E+00    2.263E+00    2.302E+00
     2.340E+00    2.379E+00    2.418E+00    2.456E+00    2.494E+00    2.533E+00    2.571E+00    2.609E+00    2.647E+00    2.686E+00
     2.724E+00    2.762E+00    2.800E+00    2.837E+00    2.875E+00    2.913E+00    2.951E+00    2.988E+00    3.026E+00    3.063E+00
     3.101E+00    3.138E+00    3.176E+00    3.213E+00    3.250E+00    3.288E+00    3.325E+00    3.362E+00    3.399E+00    3.436E+00
     3.473E+00    3.510E+00    3.547E+00    3.584E+00    3.621E+00    3.658E+00    3.694E+00    3.731E+00    3.768E+00    3.804E+00
     3.841E+00    3.878E+00    3.914E+00    3.951E+00    3.987E+00    4.024E+00    4.060E+00    4.097E+00    4.133E+00    4.170E+00
     4.206E+00    4.243E+00    4.279E+00    4.315E+00    4.352E+00    4.388E+00    4.424E+00    4.461E+00    4.497E+00    4.533E+00
     4.570E+00    4.606E+00    4.642E+00    4.678E+00    4.715E+00    4.751E+00    4.787E+00    4.823E+00
 Ala      Conc. = 2.20E+02
