 LCModel (Version 6.3-1L) Copyright: S.W. Provencher.          Ref.: Magn. Reson. Med. 30:672-679 (1993).                
 Slice#3 Row#12 Col#12  PD_05_press_1_raw_act
 36 lines in following concentration table = NCONC+1
    Conc.  %SD /Cr+PCr  Metabolite                                         
    6.990 466%   0.000 Ala                                                 
    0.838 143%   0.000 Asp                                                 
    0.000 999%   0.000 Cr                                                  
    0.000 999%   0.000 PCr                                                 
    0.487 147%   0.000 GABA                                                
    0.499 144%   0.000 Glc                                                 
   24.733 262%   0.000 Gln                                                 
   18.585 381%   0.000 Glu                                                 
    0.000 999%   0.000 GPC                                                 
    5.556  96%   0.000 PCh                                                 
   18.905 109%   0.000 GSH                                                 
   24.543 277%   0.000 Ins                                                 
    0.000 999%   0.000 Lac                                                 
    0.000 999%   0.000 NAA                                                 
    0.000 999%   0.000 NAAG                                                
    0.169 142%   0.000 Scyllo                                              
    0.826 144%   0.000 Tau                                                 
    0.258 736%   0.000 -CrCH2                                              
    5.556  96%   0.000 GPC+PCh                                             
    0.000 999%   0.000 NAA+NAAG                                            
    0.000 999%   0.000 Cr+PCr                                              
   43.318 236%   0.000 Glu+Gln                                             
 1.13E+04   9%   0.000 Lip13a                                              
    0.000 999%   0.000 Lip13b                                              
 2.18E+03  15%   0.000 Lip09                                               
    0.000 999%   0.000 MM09                                                
    0.000 999%   0.000 Lip20                                               
    0.000 999%   0.000 MM20                                                
 5.91E+03  13%   0.000 MM12                                                
 2.44E+03  19%   0.000 MM14                                                
    0.000 999%   0.000 MM17                                                
 1.13E+04   9%   0.000 Lip13a+Lip13b                                       
 1.97E+04   2%   0.000 MM14+Lip13a+Lip13b+MM12                             
 2.18E+03  15%   0.000 MM09+Lip09                                          
    0.000 999%   0.000 MM20+Lip20                                          
   6 lines in following misc. output table
  FWHM = 0.061 ppm    S/N =  21                                            
  Data shift =-0.038 ppm                                                   
  Ph:  20 deg      81.6 deg/ppm                                            
  alphaB,S = 5.9E-01,   2.2E+01                                            
   14 spline knots.   Ns = 6(1)                                            
  ( 3) 2 infls.   ( 1) 1 extrs.                                            
  498 points on ppm-axis = NY
      4.000000     3.992357     3.984714     3.977070     3.969427     3.961784     3.954141     3.946497     3.938854     3.931211
      3.923568     3.915925     3.908281     3.900638     3.892995     3.885352     3.877708     3.870065     3.862422     3.854779
      3.847136     3.839492     3.831849     3.824206     3.816563     3.808919     3.801276     3.793633     3.785990     3.778347
      3.770703     3.763060     3.755417     3.747774     3.740130     3.732487     3.724844     3.717201     3.709558     3.701914
      3.694271     3.686628     3.678985     3.671341     3.663698     3.656055     3.648412     3.640769     3.633125     3.625482
      3.617839     3.610196     3.602552     3.594909     3.587266     3.579623     3.571980     3.564336     3.556693     3.549050
      3.541407     3.533763     3.526120     3.518477     3.510834     3.503191     3.495547     3.487904     3.480261     3.472618
      3.464974     3.457331     3.449688     3.442045     3.434402     3.426758     3.419115     3.411472     3.403829     3.396185
      3.388542     3.380899     3.373256     3.365613     3.357969     3.350326     3.342683     3.335040     3.327396     3.319753
      3.312110     3.304467     3.296824     3.289180     3.281537     3.273894     3.266251     3.258607     3.250964     3.243321
      3.235678     3.228034     3.220391     3.212748     3.205105     3.197462     3.189818     3.182175     3.174532     3.166889
      3.159245     3.151602     3.143959     3.136316     3.128673     3.121029     3.113386     3.105743     3.098100     3.090456
      3.082813     3.075170     3.067527     3.059884     3.052240     3.044597     3.036954     3.029311     3.021667     3.014024
      3.006381     2.998738     2.991095     2.983451     2.975808     2.968165     2.960522     2.952878     2.945235     2.937592
      2.929949     2.922306     2.914662     2.907019     2.899376     2.891733     2.884089     2.876446     2.868803     2.861160
      2.853517     2.845873     2.838230     2.830587     2.822944     2.815300     2.807657     2.800014     2.792371     2.784728
      2.777084     2.769441     2.761798     2.754155     2.746511     2.738868     2.731225     2.723582     2.715939     2.708295
      2.700652     2.693009     2.685366     2.677722     2.670079     2.662436     2.654793     2.647150     2.639506     2.631863
      2.624220     2.616577     2.608933     2.601290     2.593647     2.586004     2.578361     2.570717     2.563074     2.555431
      2.547788     2.540144     2.532501     2.524858     2.517215     2.509572     2.501928     2.494285     2.486642     2.478999
      2.471355     2.463712     2.456069     2.448426     2.440783     2.433139     2.425496     2.417853     2.410210     2.402566
      2.394923     2.387280     2.379637     2.371994     2.364350     2.356707     2.349064     2.341421     2.333777     2.326134
      2.318491     2.310848     2.303205     2.295561     2.287918     2.280275     2.272632     2.264988     2.257345     2.249702
      2.242059     2.234416     2.226772     2.219129     2.211486     2.203843     2.196199     2.188556     2.180913     2.173270
      2.165627     2.157983     2.150340     2.142697     2.135054     2.127410     2.119767     2.112124     2.104481     2.096838
      2.089194     2.081551     2.073908     2.066265     2.058621     2.050978     2.043335     2.035692     2.028049     2.020405
      2.012762     2.005119     1.997476     1.989833     1.982190     1.974546     1.966903     1.959260     1.951617     1.943974
      1.936331     1.928688     1.921045     1.913402     1.905759     1.898115     1.890472     1.882829     1.875186     1.867543
      1.859900     1.852257     1.844614     1.836971     1.829327     1.821684     1.814041     1.806398     1.798755     1.791112
      1.783469     1.775826     1.768183     1.760540     1.752896     1.745253     1.737610     1.729967     1.722324     1.714681
      1.707038     1.699395     1.691752     1.684108     1.676465     1.668822     1.661179     1.653536     1.645893     1.638250
      1.630607     1.622964     1.615321     1.607677     1.600034     1.592391     1.584748     1.577105     1.569462     1.561819
      1.554176     1.546533     1.538890     1.531246     1.523603     1.515960     1.508317     1.500674     1.493031     1.485388
      1.477745     1.470102     1.462458     1.454815     1.447172     1.439529     1.431886     1.424243     1.416600     1.408957
      1.401314     1.393671     1.386027     1.378384     1.370741     1.363098     1.355455     1.347812     1.340169     1.332526
      1.324883     1.317240     1.309596     1.301953     1.294310     1.286667     1.279024     1.271381     1.263738     1.256095
      1.248452     1.240808     1.233165     1.225522     1.217879     1.210236     1.202593     1.194950     1.187307     1.179664
      1.172021     1.164377     1.156734     1.149091     1.141448     1.133805     1.126162     1.118519     1.110876     1.103233
      1.095590     1.087946     1.080303     1.072660     1.065017     1.057374     1.049731     1.042088     1.034445     1.026802
      1.019158     1.011515     1.003872     0.996229     0.988586     0.980943     0.973300     0.965657     0.958014     0.950371
      0.942727     0.935084     0.927441     0.919798     0.912155     0.904512     0.896869     0.889226     0.881583     0.873940
      0.866296     0.858653     0.851010     0.843367     0.835724     0.828081     0.820438     0.812795     0.805152     0.797508
      0.789865     0.782222     0.774579     0.766936     0.759293     0.751650     0.744007     0.736364     0.728721     0.721077
      0.713434     0.705791     0.698148     0.690505     0.682862     0.675219     0.667576     0.659933     0.652290     0.644646
      0.637003     0.629360     0.621717     0.614074     0.606431     0.598788     0.591145     0.583502     0.575858     0.568215
      0.560572     0.552929     0.545286     0.537643     0.530000     0.522357     0.514714     0.507071     0.499427     0.491784
      0.484141     0.476498     0.468855     0.461212     0.453569     0.445925     0.438282     0.430639     0.422996     0.415353
      0.407710     0.400067     0.392424     0.384780     0.377137     0.369494     0.361851     0.354208     0.346565     0.338922
      0.331278     0.323635     0.315992     0.308349     0.300706     0.293063     0.285420     0.277777     0.270133     0.262490
      0.254847     0.247204     0.239561     0.231918     0.224275     0.216631     0.208988     0.201345
 NY phased data points follow
   5.52929E-01  1.63344E+00  4.00985E-01 -2.43679E-01  4.86533E-01  1.03026E+00  1.00841E+00  5.20227E-01 -5.17820E-01  5.34025E-01
   7.11204E-01  8.41312E-01 -3.89645E-01  2.67500E+00  3.58946E-01  6.55931E-01 -2.38962E-01  1.66496E+00 -1.27261E-01  1.59312E+00
   1.56386E+00  1.65116E+00  1.36073E+00 -9.87163E-01  6.05362E-01  7.57276E-01  1.12615E+00  1.42240E+00  1.17581E+00  5.25297E-01
   8.14386E-01  9.52729E-01  4.82380E-01  4.41840E-01  4.14236E-01  1.21376E+00 -3.94568E-01 -6.78817E-01 -1.49454E-01  2.27039E-01
   3.23074E-01  6.91704E-01 -3.58223E-01 -4.48831E-01  1.18627E+00  1.32775E+00  6.30164E-01 -3.03968E-01  1.44556E-01 -1.29421E+00
   8.00998E-01  8.14298E-01  8.53624E-01  1.68106E-01  1.08438E-01  2.63248E-01  8.84172E-01  1.72598E+00  2.90278E-01 -1.63368E+00
  -5.57151E-01 -1.19245E+00  3.79292E-01 -1.24744E+00 -2.18297E-01 -6.63979E-01 -1.55067E+00 -2.19574E-01 -4.86471E-01 -5.96424E-01
  -1.43534E+00 -1.46463E-01  4.22447E-02 -1.11839E+00 -9.76159E-01 -1.62368E+00 -1.41695E+00 -3.42426E-01 -9.29082E-01  1.91240E-01
  -4.13608E-01 -1.98502E+00 -1.00796E+00 -1.24959E+00 -1.60401E+00 -7.15231E-01 -5.76836E-01 -6.29832E-01 -2.77003E-01 -1.03596E+00
  -1.87292E+00 -1.45958E+00  5.78220E-02 -9.38520E-01 -1.54024E+00 -1.85047E+00 -9.32530E-01 -1.78954E+00 -1.26702E+00 -4.54933E-01
  -1.37202E+00 -2.17257E+00 -1.28702E+00 -1.93854E+00 -2.07432E+00 -4.95796E-01 -1.71691E+00 -2.14410E+00 -1.99522E+00 -3.52476E+00
  -3.44368E+00 -2.65959E+00 -3.13531E+00 -3.11045E+00 -3.32363E+00 -1.56987E+00 -3.40668E+00 -2.09799E+00 -3.92608E+00 -1.84415E+00
  -2.51382E+00 -2.89544E+00 -8.88145E-01 -3.38738E+00 -3.18500E+00 -2.88455E+00 -4.69950E+00 -4.01082E+00 -2.17370E+00 -3.79834E+00
  -2.84708E+00 -3.38814E+00 -4.33050E+00 -3.04228E+00 -4.23394E+00 -4.09898E+00 -4.22380E+00 -4.14019E+00 -3.87320E+00 -2.99247E+00
  -3.06746E+00 -2.18497E+00 -2.90654E+00 -3.89448E+00 -3.00055E+00 -3.90556E+00 -3.86913E+00 -4.68616E+00 -3.94379E+00 -4.81593E+00
  -4.66076E+00 -5.30409E+00 -4.11769E+00 -5.36825E+00 -5.17660E+00 -4.36102E+00 -6.55682E+00 -4.61395E+00 -5.56699E+00 -4.86752E+00
  -5.78269E+00 -4.98911E+00 -4.82748E+00 -6.65311E+00 -5.71620E+00 -5.90286E+00 -5.95220E+00 -6.48479E+00 -7.20147E+00 -6.59049E+00
  -6.20942E+00 -7.22607E+00 -4.93522E+00 -5.65934E+00 -6.84275E+00 -6.66363E+00 -6.06085E+00 -5.46681E+00 -7.81765E+00 -8.23879E+00
  -6.49050E+00 -6.45327E+00 -6.86396E+00 -7.90974E+00 -8.79966E+00 -8.26094E+00 -7.28670E+00 -6.73723E+00 -8.43906E+00 -7.52497E+00
  -8.93040E+00 -6.84937E+00 -7.80087E+00 -7.43019E+00 -8.57811E+00 -7.52887E+00 -6.80412E+00 -1.02693E+01 -9.40221E+00 -1.02588E+01
  -8.42084E+00 -1.07356E+01 -1.04065E+01 -9.25374E+00 -1.00973E+01 -1.01972E+01 -1.05385E+01 -9.72505E+00 -1.12330E+01 -1.04205E+01
  -1.03937E+01 -1.18065E+01 -1.22430E+01 -1.32422E+01 -1.36135E+01 -1.21579E+01 -1.21346E+01 -1.26680E+01 -1.45335E+01 -1.24610E+01
  -1.27952E+01 -1.41884E+01 -1.46692E+01 -1.43748E+01 -1.63627E+01 -1.46663E+01 -1.56405E+01 -1.64049E+01 -1.48670E+01 -1.42589E+01
  -1.65929E+01 -1.71031E+01 -1.72941E+01 -1.82242E+01 -1.69960E+01 -1.85728E+01 -1.67658E+01 -1.81638E+01 -2.00743E+01 -1.90315E+01
  -2.02446E+01 -1.93728E+01 -1.94066E+01 -1.87718E+01 -1.91193E+01 -2.00067E+01 -2.19566E+01 -2.02888E+01 -2.20814E+01 -2.11891E+01
  -2.16503E+01 -2.26753E+01 -2.23083E+01 -2.28786E+01 -2.16573E+01 -2.19992E+01 -2.30766E+01 -2.27126E+01 -2.45611E+01 -2.39346E+01
  -2.40711E+01 -2.32322E+01 -2.33082E+01 -2.44825E+01 -2.53782E+01 -2.53020E+01 -2.46818E+01 -2.58541E+01 -2.54431E+01 -2.46910E+01
  -2.55667E+01 -2.55592E+01 -2.48604E+01 -2.44249E+01 -2.55500E+01 -2.64883E+01 -2.59718E+01 -2.55063E+01 -2.60220E+01 -2.69041E+01
  -2.62195E+01 -2.55208E+01 -2.71498E+01 -2.66631E+01 -2.81946E+01 -2.68308E+01 -2.75588E+01 -2.78021E+01 -2.85536E+01 -2.80602E+01
  -2.90126E+01 -2.76646E+01 -2.76553E+01 -2.85076E+01 -2.84616E+01 -2.96016E+01 -2.87544E+01 -2.87634E+01 -3.14374E+01 -3.06843E+01
  -3.04098E+01 -3.04984E+01 -3.12427E+01 -3.24590E+01 -3.17877E+01 -3.23919E+01 -3.31338E+01 -3.30293E+01 -3.20265E+01 -3.34498E+01
  -3.28744E+01 -3.33573E+01 -3.39947E+01 -3.25513E+01 -3.35648E+01 -3.41322E+01 -3.32244E+01 -3.29108E+01 -3.36859E+01 -3.38217E+01
  -3.28973E+01 -3.20967E+01 -3.22795E+01 -3.27350E+01 -3.30068E+01 -3.35143E+01 -3.31579E+01 -3.22671E+01 -3.28446E+01 -3.26041E+01
  -3.17378E+01 -3.03432E+01 -3.03720E+01 -3.04964E+01 -3.05461E+01 -2.95748E+01 -2.86921E+01 -2.78651E+01 -2.75873E+01 -2.69823E+01
  -2.49685E+01 -2.66228E+01 -2.36806E+01 -2.17931E+01 -2.07577E+01 -1.88700E+01 -1.67511E+01 -1.50428E+01 -1.33721E+01 -1.06445E+01
  -8.98758E+00 -7.09894E+00 -4.12603E+00 -2.45707E+00  7.77240E-01  5.17150E+00  7.81505E+00  1.06022E+01  1.29074E+01  1.45106E+01
   1.65705E+01  2.03554E+01  2.28977E+01  2.40286E+01  2.65376E+01  2.83996E+01  3.19205E+01  3.23996E+01  3.47843E+01  3.53830E+01
   3.73920E+01  3.71495E+01  3.69318E+01  3.77767E+01  3.74458E+01  3.72435E+01  3.70248E+01  3.74280E+01  3.49971E+01  3.37909E+01
   3.40232E+01  3.29891E+01  3.27282E+01  3.27602E+01  3.18852E+01  3.18959E+01  3.08249E+01  3.05055E+01  3.02786E+01  2.96142E+01
   2.90523E+01  2.89710E+01  2.80250E+01  2.94860E+01  3.12933E+01  2.74615E+01  2.79620E+01  2.72914E+01  2.63468E+01  2.68113E+01
   2.67059E+01  2.70196E+01  2.66465E+01  2.54541E+01  2.58474E+01  2.66830E+01  2.58611E+01  2.53198E+01  2.52146E+01  2.45650E+01
   2.54159E+01  2.52705E+01  2.33511E+01  2.34862E+01  2.15914E+01  2.26322E+01  2.32434E+01  2.28583E+01  2.16122E+01  2.28296E+01
   2.17522E+01  2.18447E+01  2.12181E+01  2.03519E+01  1.96029E+01  2.03960E+01  2.04125E+01  1.86214E+01  1.99836E+01  1.89460E+01
   2.02201E+01  1.80268E+01  1.68061E+01  1.77228E+01  1.70588E+01  1.86841E+01  1.66859E+01  1.86165E+01  1.72215E+01  1.72959E+01
   1.73977E+01  1.64996E+01  1.58520E+01  1.46466E+01  1.61048E+01  1.58821E+01  1.73200E+01  1.62542E+01  1.60765E+01  1.57026E+01
   1.54700E+01  1.62424E+01  1.44031E+01  1.53758E+01  1.50147E+01  1.45980E+01  1.41851E+01  1.48376E+01  1.35847E+01  1.33080E+01
   1.41766E+01  1.32337E+01  1.38417E+01  1.43888E+01  1.21852E+01  1.32379E+01  1.10371E+01  1.18110E+01  1.17275E+01  1.24766E+01
   1.19375E+01  1.11189E+01  1.23900E+01  1.18301E+01  1.09265E+01  1.10626E+01  1.17135E+01  9.56174E+00  1.03037E+01  1.04445E+01
   1.02339E+01  1.05636E+01  1.05683E+01  1.09238E+01  9.80285E+00  9.54418E+00  9.27753E+00  1.02112E+01  1.07036E+01  9.33827E+00
   9.57765E+00  1.02972E+01  9.90426E+00  8.82530E+00  7.47942E+00  7.30777E+00  9.15678E+00  1.04692E+01
 NY points of the fit to the data follow
   1.19567E+00  1.16453E+00  1.13692E+00  1.11339E+00  1.09246E+00  1.07182E+00  1.05108E+00  1.03034E+00  1.00976E+00  9.89545E-01
   9.69918E-01  9.50890E-01  9.32419E-01  9.14674E-01  8.97634E-01  8.81305E-01  8.65860E-01  8.51124E-01  8.36581E-01  8.22488E-01
   8.07300E-01  7.90359E-01  7.74351E-01  7.67616E-01  7.78262E-01  7.96368E-01  8.14194E-01  8.29329E-01  8.39843E-01  8.41036E-01
   8.25305E-01  7.82688E-01  7.03216E-01  5.85579E-01  4.40176E-01  2.93420E-01  1.77293E-01  1.13178E-01  9.63460E-02  1.00646E-01
   1.17035E-01  1.39263E-01  1.58809E-01  1.67919E-01  1.64533E-01  1.51715E-01  1.32127E-01  1.06757E-01  7.32451E-02  2.81811E-02
  -2.90724E-02 -9.44014E-02 -1.58314E-01 -2.08531E-01 -2.36212E-01 -2.42567E-01 -2.39783E-01 -2.40843E-01 -2.50602E-01 -2.68171E-01
  -2.91881E-01 -3.21070E-01 -3.55523E-01 -3.94104E-01 -4.34814E-01 -4.74217E-01 -5.07698E-01 -5.32917E-01 -5.51862E-01 -5.68453E-01
  -5.86547E-01 -6.09141E-01 -6.37003E-01 -6.69640E-01 -7.05892E-01 -7.44351E-01 -7.83981E-01 -8.23621E-01 -8.62327E-01 -8.99054E-01
  -9.34228E-01 -9.70430E-01 -1.00877E+00 -1.04889E+00 -1.08989E+00 -1.13107E+00 -1.17178E+00 -1.21118E+00 -1.24809E+00 -1.28116E+00
  -1.30891E+00 -1.33121E+00 -1.34961E+00 -1.36677E+00 -1.38579E+00 -1.40807E+00 -1.42920E+00 -1.43518E+00 -1.42251E+00 -1.40398E+00
  -1.38797E+00 -1.37677E+00 -1.37235E+00 -1.38059E+00 -1.41145E+00 -1.47807E+00 -1.58880E+00 -1.73876E+00 -1.90792E+00 -2.06576E+00
  -2.18347E+00 -2.25035E+00 -2.28936E+00 -2.32652E+00 -2.36612E+00 -2.40819E+00 -2.45222E+00 -2.49783E+00 -2.54448E+00 -2.59152E+00
  -2.63875E+00 -2.68606E+00 -2.73306E+00 -2.77932E+00 -2.82452E+00 -2.86861E+00 -2.91166E+00 -2.95307E+00 -2.99314E+00 -3.03560E+00
  -3.08374E+00 -3.13815E+00 -3.19844E+00 -3.26361E+00 -3.33308E+00 -3.40674E+00 -3.48322E+00 -3.56037E+00 -3.63305E+00 -3.69425E+00
  -3.73897E+00 -3.76894E+00 -3.79506E+00 -3.83145E+00 -3.88508E+00 -3.95605E+00 -4.03993E+00 -4.12870E+00 -4.21583E+00 -4.29868E+00
  -4.37721E+00 -4.45461E+00 -4.53239E+00 -4.61105E+00 -4.69050E+00 -4.77036E+00 -4.85014E+00 -4.92983E+00 -5.01028E+00 -5.09244E+00
  -5.17704E+00 -5.26459E+00 -5.35509E+00 -5.44808E+00 -5.54270E+00 -5.63870E+00 -5.73627E+00 -5.83544E+00 -5.93625E+00 -6.03897E+00
  -6.14400E+00 -6.25173E+00 -6.36246E+00 -6.47643E+00 -6.59375E+00 -6.71440E+00 -6.83838E+00 -6.96565E+00 -7.09575E+00 -7.22882E+00
  -7.36495E+00 -7.50373E+00 -7.64503E+00 -7.78860E+00 -7.93297E+00 -8.07614E+00 -8.21695E+00 -8.35574E+00 -8.49423E+00 -8.63383E+00
  -8.77654E+00 -8.92670E+00 -9.08952E+00 -9.26698E+00 -9.45766E+00 -9.65811E+00 -9.86213E+00 -1.00612E+01 -1.02471E+01 -1.04133E+01
  -1.05587E+01 -1.06894E+01 -1.08163E+01 -1.09519E+01 -1.11123E+01 -1.13059E+01 -1.15262E+01 -1.17608E+01 -1.20008E+01 -1.22388E+01
  -1.24657E+01 -1.26757E+01 -1.28656E+01 -1.30329E+01 -1.31816E+01 -1.33234E+01 -1.34747E+01 -1.36509E+01 -1.38589E+01 -1.40900E+01
  -1.43327E+01 -1.45801E+01 -1.48242E+01 -1.50565E+01 -1.52709E+01 -1.54704E+01 -1.56615E+01 -1.58489E+01 -1.60381E+01 -1.62359E+01
  -1.64489E+01 -1.66745E+01 -1.69020E+01 -1.71251E+01 -1.73424E+01 -1.75513E+01 -1.77504E+01 -1.79454E+01 -1.81441E+01 -1.83523E+01
  -1.85715E+01 -1.88001E+01 -1.90364E+01 -1.92792E+01 -1.95248E+01 -1.97628E+01 -1.99854E+01 -2.01937E+01 -2.03903E+01 -2.05780E+01
  -2.07633E+01 -2.09549E+01 -2.11527E+01 -2.13537E+01 -2.15551E+01 -2.17564E+01 -2.19580E+01 -2.21605E+01 -2.23643E+01 -2.25676E+01
  -2.27691E+01 -2.29668E+01 -2.31595E+01 -2.33471E+01 -2.35316E+01 -2.37160E+01 -2.39026E+01 -2.40922E+01 -2.42832E+01 -2.44739E+01
  -2.46634E+01 -2.48512E+01 -2.50369E+01 -2.52209E+01 -2.54035E+01 -2.55845E+01 -2.57644E+01 -2.59439E+01 -2.61239E+01 -2.63050E+01
  -2.64875E+01 -2.66711E+01 -2.68555E+01 -2.70403E+01 -2.72257E+01 -2.74116E+01 -2.75982E+01 -2.77858E+01 -2.79747E+01 -2.81654E+01
  -2.83579E+01 -2.85525E+01 -2.87492E+01 -2.89483E+01 -2.91497E+01 -2.93537E+01 -2.95602E+01 -2.97694E+01 -2.99811E+01 -3.01953E+01
  -3.04119E+01 -3.06305E+01 -3.08509E+01 -3.10726E+01 -3.12948E+01 -3.15170E+01 -3.17379E+01 -3.19566E+01 -3.21716E+01 -3.23812E+01
  -3.25836E+01 -3.27768E+01 -3.29584E+01 -3.31258E+01 -3.32766E+01 -3.34079E+01 -3.35169E+01 -3.36008E+01 -3.36568E+01 -3.36823E+01
  -3.36744E+01 -3.36289E+01 -3.35426E+01 -3.34168E+01 -3.32535E+01 -3.30538E+01 -3.28188E+01 -3.25505E+01 -3.22530E+01 -3.19305E+01
  -3.15823E+01 -3.12059E+01 -3.07966E+01 -3.03467E+01 -2.98453E+01 -2.92825E+01 -2.86532E+01 -2.79554E+01 -2.71838E+01 -2.63329E+01
  -2.53977E+01 -2.43717E+01 -2.32446E+01 -2.20004E+01 -2.06209E+01 -1.90958E+01 -1.74186E+01 -1.55853E+01 -1.35951E+01 -1.14507E+01
  -9.15848E+00 -6.72880E+00 -4.17576E+00 -1.51711E+00  1.22613E+00  4.03016E+00  6.86895E+00  9.71494E+00  1.25396E+01  1.53144E+01
   1.80112E+01  2.06028E+01  2.30642E+01  2.53723E+01  2.75070E+01  2.94510E+01  3.11907E+01  3.27161E+01  3.40209E+01  3.51026E+01
   3.59626E+01  3.66058E+01  3.70408E+01  3.72793E+01  3.73358E+01  3.72272E+01  3.69725E+01  3.65920E+01  3.61067E+01  3.55383E+01
   3.49080E+01  3.42364E+01  3.35427E+01  3.28447E+01  3.21581E+01  3.14965E+01  3.08711E+01  3.02905E+01  2.97608E+01  2.92858E+01
   2.88666E+01  2.85026E+01  2.81910E+01  2.79276E+01  2.77067E+01  2.75218E+01  2.73657E+01  2.72311E+01  2.71105E+01  2.69967E+01
   2.68833E+01  2.67644E+01  2.66350E+01  2.64912E+01  2.63299E+01  2.61492E+01  2.59480E+01  2.57261E+01  2.54841E+01  2.52232E+01
   2.49452E+01  2.46520E+01  2.43460E+01  2.40298E+01  2.37056E+01  2.33760E+01  2.30432E+01  2.27093E+01  2.23763E+01  2.20457E+01
   2.17189E+01  2.13972E+01  2.10816E+01  2.07726E+01  2.04710E+01  2.01771E+01  1.98912E+01  1.96133E+01  1.93436E+01  1.90818E+01
   1.88280E+01  1.85818E+01  1.83432E+01  1.81117E+01  1.78873E+01  1.76695E+01  1.74580E+01  1.72526E+01  1.70530E+01  1.68588E+01
   1.66698E+01  1.64857E+01  1.63063E+01  1.61311E+01  1.59601E+01  1.57929E+01  1.56294E+01  1.54692E+01  1.53122E+01  1.51581E+01
   1.50068E+01  1.48582E+01  1.47119E+01  1.45678E+01  1.44258E+01  1.42858E+01  1.41474E+01  1.40108E+01  1.38756E+01  1.37418E+01
   1.36092E+01  1.34777E+01  1.33473E+01  1.32178E+01  1.30891E+01  1.29611E+01  1.28338E+01  1.27069E+01  1.25806E+01  1.24546E+01
   1.23290E+01  1.22035E+01  1.20783E+01  1.19531E+01  1.18280E+01  1.17029E+01  1.15777E+01  1.14524E+01  1.13269E+01  1.12012E+01
   1.10752E+01  1.09490E+01  1.08224E+01  1.06954E+01  1.05680E+01  1.04402E+01  1.03118E+01  1.01830E+01  1.00536E+01  9.92370E+00
   9.79318E+00  9.66205E+00  9.53028E+00  9.39786E+00  9.26478E+00  9.13100E+00  8.99652E+00  8.86132E+00
 NY background values follow
    -3.235E+00   -3.261E+00   -3.286E+00   -3.310E+00   -3.334E+00   -3.358E+00   -3.381E+00   -3.404E+00   -3.426E+00   -3.448E+00
    -3.469E+00   -3.490E+00   -3.510E+00   -3.531E+00   -3.550E+00   -3.570E+00   -3.588E+00   -3.607E+00   -3.625E+00   -3.643E+00
    -3.660E+00   -3.678E+00   -3.694E+00   -3.711E+00   -3.727E+00   -3.743E+00   -3.758E+00   -3.774E+00   -3.789E+00   -3.803E+00
    -3.818E+00   -3.832E+00   -3.846E+00   -3.860E+00   -3.874E+00   -3.887E+00   -3.900E+00   -3.913E+00   -3.926E+00   -3.939E+00
    -3.952E+00   -3.964E+00   -3.977E+00   -3.989E+00   -4.002E+00   -4.014E+00   -4.026E+00   -4.038E+00   -4.051E+00   -4.063E+00
    -4.075E+00   -4.087E+00   -4.099E+00   -4.111E+00   -4.123E+00   -4.135E+00   -4.148E+00   -4.160E+00   -4.172E+00   -4.184E+00
    -4.196E+00   -4.209E+00   -4.221E+00   -4.233E+00   -4.246E+00   -4.258E+00   -4.271E+00   -4.283E+00   -4.296E+00   -4.309E+00
    -4.321E+00   -4.334E+00   -4.347E+00   -4.360E+00   -4.374E+00   -4.387E+00   -4.400E+00   -4.413E+00   -4.427E+00   -4.441E+00
    -4.454E+00   -4.468E+00   -4.482E+00   -4.496E+00   -4.510E+00   -4.525E+00   -4.539E+00   -4.554E+00   -4.568E+00   -4.583E+00
    -4.598E+00   -4.613E+00   -4.628E+00   -4.644E+00   -4.659E+00   -4.675E+00   -4.691E+00   -4.707E+00   -4.723E+00   -4.739E+00
    -4.755E+00   -4.772E+00   -4.789E+00   -4.806E+00   -4.823E+00   -4.840E+00   -4.857E+00   -4.875E+00   -4.893E+00   -4.911E+00
    -4.929E+00   -4.947E+00   -4.966E+00   -4.985E+00   -5.004E+00   -5.023E+00   -5.042E+00   -5.062E+00   -5.082E+00   -5.102E+00
    -5.122E+00   -5.143E+00   -5.163E+00   -5.184E+00   -5.205E+00   -5.227E+00   -5.248E+00   -5.270E+00   -5.292E+00   -5.314E+00
    -5.337E+00   -5.360E+00   -5.383E+00   -5.406E+00   -5.429E+00   -5.453E+00   -5.477E+00   -5.501E+00   -5.525E+00   -5.550E+00
    -5.575E+00   -5.601E+00   -5.627E+00   -5.653E+00   -5.681E+00   -5.709E+00   -5.737E+00   -5.767E+00   -5.797E+00   -5.828E+00
    -5.860E+00   -5.892E+00   -5.926E+00   -5.961E+00   -5.997E+00   -6.034E+00   -6.072E+00   -6.112E+00   -6.152E+00   -6.195E+00
    -6.238E+00   -6.283E+00   -6.329E+00   -6.377E+00   -6.426E+00   -6.478E+00   -6.530E+00   -6.585E+00   -6.641E+00   -6.699E+00
    -6.759E+00   -6.820E+00   -6.884E+00   -6.949E+00   -7.017E+00   -7.087E+00   -7.158E+00   -7.232E+00   -7.308E+00   -7.386E+00
    -7.467E+00   -7.550E+00   -7.635E+00   -7.722E+00   -7.812E+00   -7.904E+00   -7.997E+00   -8.093E+00   -8.191E+00   -8.291E+00
    -8.393E+00   -8.496E+00   -8.601E+00   -8.708E+00   -8.817E+00   -8.927E+00   -9.039E+00   -9.152E+00   -9.267E+00   -9.383E+00
    -9.501E+00   -9.619E+00   -9.739E+00   -9.860E+00   -9.982E+00   -1.011E+01   -1.023E+01   -1.035E+01   -1.048E+01   -1.061E+01
    -1.073E+01   -1.086E+01   -1.099E+01   -1.112E+01   -1.125E+01   -1.138E+01   -1.151E+01   -1.164E+01   -1.177E+01   -1.190E+01
    -1.203E+01   -1.216E+01   -1.229E+01   -1.243E+01   -1.256E+01   -1.269E+01   -1.282E+01   -1.295E+01   -1.308E+01   -1.321E+01
    -1.334E+01   -1.346E+01   -1.359E+01   -1.372E+01   -1.384E+01   -1.397E+01   -1.409E+01   -1.421E+01   -1.433E+01   -1.445E+01
    -1.457E+01   -1.468E+01   -1.480E+01   -1.491E+01   -1.502E+01   -1.513E+01   -1.523E+01   -1.534E+01   -1.544E+01   -1.554E+01
    -1.564E+01   -1.573E+01   -1.583E+01   -1.592E+01   -1.601E+01   -1.609E+01   -1.617E+01   -1.625E+01   -1.633E+01   -1.640E+01
    -1.647E+01   -1.654E+01   -1.660E+01   -1.666E+01   -1.672E+01   -1.678E+01   -1.683E+01   -1.687E+01   -1.692E+01   -1.696E+01
    -1.700E+01   -1.703E+01   -1.706E+01   -1.708E+01   -1.711E+01   -1.712E+01   -1.714E+01   -1.715E+01   -1.716E+01   -1.716E+01
    -1.716E+01   -1.716E+01   -1.715E+01   -1.715E+01   -1.713E+01   -1.712E+01   -1.710E+01   -1.707E+01   -1.705E+01   -1.702E+01
    -1.699E+01   -1.695E+01   -1.691E+01   -1.687E+01   -1.683E+01   -1.678E+01   -1.673E+01   -1.668E+01   -1.662E+01   -1.656E+01
    -1.650E+01   -1.644E+01   -1.637E+01   -1.630E+01   -1.623E+01   -1.615E+01   -1.608E+01   -1.600E+01   -1.592E+01   -1.583E+01
    -1.574E+01   -1.565E+01   -1.556E+01   -1.547E+01   -1.537E+01   -1.527E+01   -1.517E+01   -1.507E+01   -1.497E+01   -1.486E+01
    -1.475E+01   -1.464E+01   -1.453E+01   -1.441E+01   -1.429E+01   -1.418E+01   -1.406E+01   -1.394E+01   -1.381E+01   -1.369E+01
    -1.356E+01   -1.343E+01   -1.330E+01   -1.317E+01   -1.304E+01   -1.290E+01   -1.277E+01   -1.263E+01   -1.249E+01   -1.235E+01
    -1.221E+01   -1.207E+01   -1.193E+01   -1.179E+01   -1.164E+01   -1.150E+01   -1.135E+01   -1.120E+01   -1.105E+01   -1.090E+01
    -1.075E+01   -1.060E+01   -1.045E+01   -1.030E+01   -1.014E+01   -9.991E+00   -9.837E+00   -9.683E+00   -9.528E+00   -9.372E+00
    -9.216E+00   -9.060E+00   -8.903E+00   -8.747E+00   -8.590E+00   -8.433E+00   -8.275E+00   -8.118E+00   -7.960E+00   -7.803E+00
    -7.646E+00   -7.488E+00   -7.331E+00   -7.174E+00   -7.017E+00   -6.860E+00   -6.704E+00   -6.548E+00   -6.392E+00   -6.237E+00
    -6.082E+00   -5.927E+00   -5.773E+00   -5.620E+00   -5.467E+00   -5.315E+00   -5.163E+00   -5.012E+00   -4.862E+00   -4.713E+00
    -4.564E+00   -4.416E+00   -4.269E+00   -4.123E+00   -3.978E+00   -3.833E+00   -3.690E+00   -3.548E+00   -3.407E+00   -3.267E+00
    -3.128E+00   -2.990E+00   -2.853E+00   -2.718E+00   -2.584E+00   -2.451E+00   -2.319E+00   -2.189E+00   -2.060E+00   -1.932E+00
    -1.806E+00   -1.681E+00   -1.558E+00   -1.436E+00   -1.316E+00   -1.197E+00   -1.080E+00   -9.638E-01   -8.498E-01   -7.373E-01
    -6.265E-01   -5.174E-01   -4.100E-01   -3.043E-01   -2.003E-01   -9.806E-02    2.403E-03    1.011E-01    1.979E-01    2.930E-01
     3.861E-01    4.774E-01    5.669E-01    6.544E-01    7.400E-01    8.237E-01    9.055E-01    9.853E-01    1.063E+00    1.139E+00
     1.213E+00    1.285E+00    1.354E+00    1.422E+00    1.488E+00    1.552E+00    1.613E+00    1.673E+00    1.730E+00    1.786E+00
     1.839E+00    1.890E+00    1.939E+00    1.986E+00    2.031E+00    2.074E+00    2.114E+00    2.153E+00    2.189E+00    2.223E+00
     2.255E+00    2.285E+00    2.313E+00    2.339E+00    2.362E+00    2.383E+00    2.402E+00    2.419E+00    2.434E+00    2.447E+00
     2.457E+00    2.466E+00    2.472E+00    2.476E+00    2.478E+00    2.478E+00    2.475E+00    2.471E+00    2.464E+00    2.456E+00
     2.445E+00    2.432E+00    2.417E+00    2.400E+00    2.381E+00    2.360E+00    2.336E+00    2.311E+00    2.284E+00    2.254E+00
     2.223E+00    2.190E+00    2.154E+00    2.117E+00    2.078E+00    2.036E+00    1.993E+00    1.948E+00
 Ala      Conc. = 6.99E+00
