 LCModel (Version 6.3-1L) Copyright: S.W. Provencher.          Ref.: Magn. Reson. Med. 30:672-679 (1993).                
 Slice#1 Row#7 Col#6  PD_05_press_1_raw_act
 36 lines in following concentration table = NCONC+1
    Conc.  %SD /Cr+PCr  Metabolite                                         
    0.000 999%   0.000 Ala                                                 
    0.000 999%   0.000 Asp                                                 
  100.006 134%   0.202 Cr                                                  
  393.892  35%   0.798 PCr                                                 
   20.062 309% 4.1E-02 GABA                                                
   23.335 272% 4.7E-02 Glc                                                 
  335.500  38%   0.679 Gln                                                 
  427.340  34%   0.865 Glu                                                 
   23.022 590% 4.7E-02 GPC                                                 
  212.087  65%   0.429 PCh                                                 
  121.859  37%   0.247 GSH                                                 
  574.949  27%   1.164 Ins                                                 
    0.000 999%   0.000 Lac                                                 
  945.071   5%   1.913 NAA                                                 
    0.000 999%   0.000 NAAG                                                
   32.531  45% 6.6E-02 Scyllo                                              
  156.826  62%   0.318 Tau                                                 
  174.284  43%   0.353 -CrCH2                                              
  235.109   6%   0.476 GPC+PCh                                             
  945.071   5%   1.913 NAA+NAAG                                            
  493.898   7%   1.000 Cr+PCr                                              
  762.840  25%   1.545 Glu+Gln                                             
    0.000 999%   0.000 Lip13a                                              
    0.000 999%   0.000 Lip13b                                              
    2.822 999% 5.7E-03 Lip09                                               
  990.254  12%   2.005 MM09                                                
    0.000 999%   0.000 Lip20                                               
 1.56E+03  13%   3.153 MM20                                                
  302.317  33%   0.612 MM12                                                
    0.000 999%   0.000 MM14                                                
  122.563  98%   0.248 MM17                                                
    0.000 999%   0.000 Lip13a+Lip13b                                       
  302.317  33%   0.612 MM14+Lip13a+Lip13b+MM12                             
  993.076  12%   2.011 MM09+Lip09                                          
 1.56E+03  13%   3.153 MM20+Lip20                                          
   6 lines in following misc. output table
  FWHM = 0.046 ppm    S/N =   7                                            
  Data shift =-0.008 ppm                                                   
  Ph: -37 deg       0.8 deg/ppm                                            
  alphaB,S = 8.5E+01,   5.1E+01                                            
   14 spline knots.   Ns = 5(1)                                            
   2 inflections.     1 extrema                                            
  498 points on ppm-axis = NY
      4.000000     3.992357     3.984714     3.977070     3.969427     3.961784     3.954141     3.946497     3.938854     3.931211
      3.923568     3.915925     3.908281     3.900638     3.892995     3.885352     3.877708     3.870065     3.862422     3.854779
      3.847136     3.839492     3.831849     3.824206     3.816563     3.808919     3.801276     3.793633     3.785990     3.778347
      3.770703     3.763060     3.755417     3.747774     3.740130     3.732487     3.724844     3.717201     3.709558     3.701914
      3.694271     3.686628     3.678985     3.671341     3.663698     3.656055     3.648412     3.640769     3.633125     3.625482
      3.617839     3.610196     3.602552     3.594909     3.587266     3.579623     3.571980     3.564336     3.556693     3.549050
      3.541407     3.533763     3.526120     3.518477     3.510834     3.503191     3.495547     3.487904     3.480261     3.472618
      3.464974     3.457331     3.449688     3.442045     3.434402     3.426758     3.419115     3.411472     3.403829     3.396185
      3.388542     3.380899     3.373256     3.365613     3.357969     3.350326     3.342683     3.335040     3.327396     3.319753
      3.312110     3.304467     3.296824     3.289180     3.281537     3.273894     3.266251     3.258607     3.250964     3.243321
      3.235678     3.228034     3.220391     3.212748     3.205105     3.197462     3.189818     3.182175     3.174532     3.166889
      3.159245     3.151602     3.143959     3.136316     3.128673     3.121029     3.113386     3.105743     3.098100     3.090456
      3.082813     3.075170     3.067527     3.059884     3.052240     3.044597     3.036954     3.029311     3.021667     3.014024
      3.006381     2.998738     2.991095     2.983451     2.975808     2.968165     2.960522     2.952878     2.945235     2.937592
      2.929949     2.922306     2.914662     2.907019     2.899376     2.891733     2.884089     2.876446     2.868803     2.861160
      2.853517     2.845873     2.838230     2.830587     2.822944     2.815300     2.807657     2.800014     2.792371     2.784728
      2.777084     2.769441     2.761798     2.754155     2.746511     2.738868     2.731225     2.723582     2.715939     2.708295
      2.700652     2.693009     2.685366     2.677722     2.670079     2.662436     2.654793     2.647150     2.639506     2.631863
      2.624220     2.616577     2.608933     2.601290     2.593647     2.586004     2.578361     2.570717     2.563074     2.555431
      2.547788     2.540144     2.532501     2.524858     2.517215     2.509572     2.501928     2.494285     2.486642     2.478999
      2.471355     2.463712     2.456069     2.448426     2.440783     2.433139     2.425496     2.417853     2.410210     2.402566
      2.394923     2.387280     2.379637     2.371994     2.364350     2.356707     2.349064     2.341421     2.333777     2.326134
      2.318491     2.310848     2.303205     2.295561     2.287918     2.280275     2.272632     2.264988     2.257345     2.249702
      2.242059     2.234416     2.226772     2.219129     2.211486     2.203843     2.196199     2.188556     2.180913     2.173270
      2.165627     2.157983     2.150340     2.142697     2.135054     2.127410     2.119767     2.112124     2.104481     2.096838
      2.089194     2.081551     2.073908     2.066265     2.058621     2.050978     2.043335     2.035692     2.028049     2.020405
      2.012762     2.005119     1.997476     1.989833     1.982190     1.974546     1.966903     1.959260     1.951617     1.943974
      1.936331     1.928688     1.921045     1.913402     1.905759     1.898115     1.890472     1.882829     1.875186     1.867543
      1.859900     1.852257     1.844614     1.836971     1.829327     1.821684     1.814041     1.806398     1.798755     1.791112
      1.783469     1.775826     1.768183     1.760540     1.752896     1.745253     1.737610     1.729967     1.722324     1.714681
      1.707038     1.699395     1.691752     1.684108     1.676465     1.668822     1.661179     1.653536     1.645893     1.638250
      1.630607     1.622964     1.615321     1.607677     1.600034     1.592391     1.584748     1.577105     1.569462     1.561819
      1.554176     1.546533     1.538890     1.531246     1.523603     1.515960     1.508317     1.500674     1.493031     1.485388
      1.477745     1.470102     1.462458     1.454815     1.447172     1.439529     1.431886     1.424243     1.416600     1.408957
      1.401314     1.393671     1.386027     1.378384     1.370741     1.363098     1.355455     1.347812     1.340169     1.332526
      1.324883     1.317240     1.309596     1.301953     1.294310     1.286667     1.279024     1.271381     1.263738     1.256095
      1.248452     1.240808     1.233165     1.225522     1.217879     1.210236     1.202593     1.194950     1.187307     1.179664
      1.172021     1.164377     1.156734     1.149091     1.141448     1.133805     1.126162     1.118519     1.110876     1.103233
      1.095590     1.087946     1.080303     1.072660     1.065017     1.057374     1.049731     1.042088     1.034445     1.026802
      1.019158     1.011515     1.003872     0.996229     0.988586     0.980943     0.973300     0.965657     0.958014     0.950371
      0.942727     0.935084     0.927441     0.919798     0.912155     0.904512     0.896869     0.889226     0.881583     0.873940
      0.866296     0.858653     0.851010     0.843367     0.835724     0.828081     0.820438     0.812795     0.805152     0.797508
      0.789865     0.782222     0.774579     0.766936     0.759293     0.751650     0.744007     0.736364     0.728721     0.721077
      0.713434     0.705791     0.698148     0.690505     0.682862     0.675219     0.667576     0.659933     0.652290     0.644646
      0.637003     0.629360     0.621717     0.614074     0.606431     0.598788     0.591145     0.583502     0.575858     0.568215
      0.560572     0.552929     0.545286     0.537643     0.530000     0.522357     0.514714     0.507071     0.499427     0.491784
      0.484141     0.476498     0.468855     0.461212     0.453569     0.445925     0.438282     0.430639     0.422996     0.415353
      0.407710     0.400067     0.392424     0.384780     0.377137     0.369494     0.361851     0.354208     0.346565     0.338922
      0.331278     0.323635     0.315992     0.308349     0.300706     0.293063     0.285420     0.277777     0.270133     0.262490
      0.254847     0.247204     0.239561     0.231918     0.224275     0.216631     0.208988     0.201345
 NY phased data points follow
  -1.51676E+01 -1.11449E+01 -1.49757E+01 -1.01162E+01 -1.44746E+01 -8.25177E+00 -1.18375E+01 -5.40219E+00 -2.54773E+00 -2.11980E+00
   8.27602E-01 -1.33974E+00 -2.27526E+00 -9.20032E+00 -3.33045E+00 -9.30159E+00 -1.28686E+01 -6.29503E+00 -1.42699E+01 -7.57229E+00
  -6.88491E+00 -8.60117E+00 -8.12749E+00 -8.58301E+00 -7.67085E+00 -1.00148E+01 -9.83981E+00 -4.15163E+00 -6.53496E+00 -2.45205E+00
  -5.93430E+00 -8.74523E+00 -8.17671E+00 -6.01387E+00 -3.27864E+00 -8.66184E+00 -9.24364E+00 -5.93196E+00 -1.08039E+01 -7.82827E+00
  -8.63960E+00 -5.54052E+00 -6.35969E+00 -3.86738E+00 -2.43321E+00 -6.31701E-01 -6.42045E+00 -4.40752E+00 -2.50060E+00 -6.78759E+00
  -8.44929E+00 -7.81848E+00 -9.17102E+00 -1.02272E+01 -8.26955E+00 -8.18573E+00 -1.12944E+01 -1.38157E+01 -8.85314E+00 -4.60515E+00
  -5.72348E+00 -4.32306E+00 -6.18014E+00 -1.00265E+01 -1.00947E+01 -1.12002E+01 -1.13285E+01 -5.60827E+00 -1.00238E+01 -9.05307E+00
  -9.70751E+00 -8.33026E+00 -7.90595E+00 -6.11961E+00 -8.55208E+00 -7.32912E+00 -5.54662E+00 -8.30209E+00 -1.36564E+01 -3.01157E+00
  -8.59613E+00 -9.88521E+00 -3.08391E+00 -1.03537E+01 -7.21262E+00 -1.01441E+01 -7.08656E+00 -4.75065E+00 -4.63230E+00 -1.21751E+01
  -5.07921E+00 -5.61730E+00 -6.53658E+00 -2.24701E+00 -2.44907E+00 -5.91779E+00 -8.69509E+00 -5.23246E+00 -1.76857E+00  2.88333E+00
   7.70945E+00  1.03797E+01  1.49530E+01  1.95324E+01  1.78081E+01  1.09352E+01  2.72039E+00 -3.44565E+00 -2.48691E+00 -2.00835E+00
  -2.59796E+00 -4.13949E+00 -6.90215E+00 -4.95220E+00 -4.86893E+00 -6.23532E+00 -4.69251E+00 -6.30572E+00 -6.76226E+00 -4.30134E+00
  -9.15529E+00 -2.79386E+00 -8.39061E+00  2.80024E-01  3.74411E+00  7.13467E+00  7.55312E+00  1.34991E+01  1.03777E+01  1.11793E+01
   6.60126E+00 -6.06143E+00 -5.08720E+00 -7.06487E+00 -1.11355E+00 -5.69033E+00 -4.26077E+00 -8.65241E+00 -7.24983E+00 -7.01948E+00
  -9.23983E+00 -7.35997E+00 -7.90774E+00 -7.53292E+00 -7.94101E+00 -6.94581E+00 -6.13146E+00 -7.52444E+00 -5.83418E+00 -6.74445E+00
  -8.63546E+00 -8.00287E+00 -9.14362E+00 -9.95606E+00 -7.86220E+00 -2.98020E+00 -1.01778E+01 -6.46551E+00 -5.46439E+00 -7.44376E+00
  -1.97949E+00 -1.04274E+01 -1.14789E+01 -1.03410E+01 -6.34433E+00 -8.53326E+00 -8.07881E+00 -5.13089E+00 -9.35751E+00 -6.32298E+00
  -1.11152E+01 -9.95335E+00 -1.20338E+01 -8.47412E+00 -8.29150E+00 -1.79712E+01 -1.98606E+01 -1.05940E+01 -1.26627E+01 -1.11341E+01
  -1.19649E+01 -1.22499E+01 -1.36861E+01 -1.34963E+01 -1.49180E+01 -1.00496E+01 -1.02363E+01 -5.13683E+00 -9.80894E+00 -7.57786E+00
  -6.10215E+00 -5.36933E+00 -5.30469E+00 -3.41820E+00 -8.73255E+00 -8.94903E+00 -6.17787E+00 -7.60019E+00 -8.42902E+00 -6.72856E+00
  -6.31734E+00 -3.63721E+00 -4.77364E+00 -9.11289E+00 -1.64649E+00 -6.90687E+00 -9.09892E+00 -6.26523E+00 -8.58389E+00 -1.41018E+01
  -8.05752E+00 -1.22848E+01 -9.91302E+00 -8.23446E+00 -1.19762E+00 -4.50553E+00 -3.33818E+00 -1.32662E+00 -4.70284E+00 -3.05446E+00
  -7.86246E+00 -1.35592E+01 -3.93256E+00 -5.40367E+00 -1.00259E+01 -1.87993E+00 -1.94297E+00 -4.05394E+00 -3.12794E+00 -1.16035E+00
  -3.00153E+00 -4.88729E+00 -5.49473E+00 -4.33809E+00 -5.08162E+00 -4.38483E+00 -5.49617E+00 -4.92926E+00 -3.48619E+00 -3.15949E+00
  -3.38152E+00 -3.64379E+00 -4.36102E+00 -7.84818E+00 -9.81371E-01 -3.35487E+00 -2.20734E+00  2.74273E-01  2.71179E-01  1.12804E+00
   1.37180E+00  1.40603E-01 -2.02706E+00 -2.06930E+00  1.64814E-01  6.87449E+00  1.21719E+01  1.98135E+01  2.44881E+01  2.79884E+01
   3.56107E+01  3.69750E+01  2.84981E+01  1.45860E+01  4.07207E+00  3.74112E+00 -6.51319E-01  3.28751E+00 -1.03868E+00 -2.19855E-01
  -4.52841E+00 -5.47588E+00 -5.50918E+00 -1.84933E+00 -5.81828E+00 -5.17756E+00 -7.51772E+00 -3.19556E+00 -6.35078E+00 -7.66529E+00
  -7.24437E+00 -6.99986E+00 -7.00030E+00 -2.24609E+00 -8.52813E+00 -5.35587E+00 -6.81990E+00 -4.80984E+00 -6.46930E+00 -7.03264E+00
  -8.39957E+00 -2.17443E+00 -1.62102E+00  7.37698E-03 -2.95176E+00 -7.98642E+00 -3.75403E+00 -2.44199E+00 -4.52684E+00 -1.72308E+00
  -6.33230E+00 -3.75884E+00 -9.04286E+00 -9.46541E+00 -5.67778E+00 -4.80621E-01 -4.05865E+00 -4.50141E+00 -6.73379E+00 -6.70779E+00
  -7.32488E+00 -8.25938E+00 -6.07714E+00 -4.45476E+00 -1.02069E+01 -6.04623E+00 -7.60932E+00 -9.15503E+00 -2.62264E+00 -6.30101E+00
  -1.30125E+01 -8.08726E+00 -1.38750E+00 -5.04011E+00 -1.04790E+01 -9.46957E+00 -9.68439E+00 -1.13689E+01 -6.42438E+00 -1.10928E+01
  -6.18564E+00 -1.07255E+01 -4.83288E+00 -8.69086E+00 -6.54261E+00 -7.19643E+00 -5.71012E+00 -7.16108E+00 -4.27565E+00 -9.92248E+00
  -3.92510E+00 -1.07214E+01 -5.31002E+00 -6.38968E+00 -5.32946E+00 -2.43473E+00 -1.73587E+00 -2.96397E+00 -3.76013E+00 -6.87442E+00
  -2.74390E+00 -4.01992E+00 -6.70553E+00 -3.16964E+00 -3.61352E+00 -3.58701E+00 -1.65411E+00 -6.61390E+00 -3.12140E+00 -5.27076E+00
  -7.09039E+00 -6.03274E+00 -7.96100E+00 -6.22495E+00 -4.91106E+00 -6.06211E+00 -7.08084E+00 -4.01995E+00 -3.66136E+00 -1.78952E+00
  -2.60699E-01 -3.30809E+00  2.11176E+00 -1.67165E+00 -2.97680E+00 -5.42733E+00 -1.67446E+00 -6.29630E+00 -3.24955E+00 -3.73192E+00
  -2.04623E+00 -3.52338E+00 -2.07827E+00  2.01652E-01 -4.74735E+00  1.95373E+00 -4.21227E-01 -2.15563E+00 -6.53285E+00 -1.30761E+00
  -2.52155E+00  2.23781E+00 -1.72378E+00  2.61550E-01  2.01590E+00  3.05293E+00 -2.48668E-01 -2.62898E-01  2.92334E-01 -1.45755E+00
   1.35616E+00  2.78487E+00 -1.14248E+00 -2.35406E+00  1.99257E+00  1.37858E+00 -2.14699E+00  3.46341E+00  3.51334E+00  7.31209E+00
   3.10373E+00  1.92053E+00  3.45504E+00  1.20509E+00 -1.39706E+00  1.37270E+00 -1.41422E+00 -2.66934E+00  2.24042E+00 -3.09348E+00
  -3.82972E+00 -3.87588E+00 -5.79016E+00 -3.37695E+00 -3.03485E+00 -5.16579E+00 -3.79977E+00 -1.49458E+00 -2.62939E+00 -3.44160E+00
  -2.63395E+00 -1.43261E+00 -5.13139E+00 -2.10944E+00 -6.29142E-02 -3.87398E-01 -7.37395E+00 -1.81189E+00 -3.46505E+00 -3.10743E+00
  -5.32682E+00 -3.52592E+00 -2.96449E+00 -4.33236E+00 -3.64757E+00 -7.37127E+00 -8.32347E+00 -7.80252E+00 -3.16298E+00 -3.26739E+00
  -1.37934E+00 -2.96879E+00 -2.80836E+00 -1.59348E+00 -6.26599E+00 -6.07034E-01 -2.90410E+00 -5.80344E+00 -2.28661E+00 -1.72052E+00
  -6.00594E+00 -2.72942E+00 -8.25841E+00  2.84604E+00 -4.00571E+00 -1.92480E+00 -2.97374E+00 -3.42818E+00 -3.56732E+00 -2.68980E+00
  -7.04574E+00 -3.58992E+00 -3.22969E+00 -2.76313E+00 -4.52406E+00 -7.06342E+00 -4.63732E+00 -6.71009E+00  4.94393E-01  1.35296E+00
  -8.03353E+00 -5.89914E+00 -2.24481E+00 -2.72575E+00 -7.42672E+00  1.12747E-01 -7.36639E+00 -6.04286E+00 -5.64627E+00 -3.07704E+00
  -1.01436E+01 -4.08333E+00 -3.18155E+00 -8.95934E+00 -3.90809E+00 -5.56289E+00 -3.43124E+00 -5.64533E+00
 NY points of the fit to the data follow
  -9.45755E+00 -9.62117E+00 -9.70102E+00 -9.84631E+00 -9.77149E+00 -8.75255E+00 -7.18536E+00 -5.51108E+00 -3.86611E+00 -2.19862E+00
  -9.69760E-01 -1.00749E+00 -2.59715E+00 -4.96179E+00 -6.92300E+00 -8.12009E+00 -8.77021E+00 -8.98627E+00 -9.01525E+00 -8.96237E+00
  -8.86311E+00 -8.77121E+00 -8.75155E+00 -8.86490E+00 -8.97851E+00 -8.77880E+00 -8.37744E+00 -7.79971E+00 -6.95505E+00 -5.87475E+00
  -4.84241E+00 -4.32660E+00 -4.51176E+00 -5.27448E+00 -6.35621E+00 -7.51410E+00 -8.50735E+00 -9.14306E+00 -9.46481E+00 -9.50350E+00
  -9.31478E+00 -8.88520E+00 -8.08904E+00 -7.05629E+00 -6.04949E+00 -5.18214E+00 -4.50712E+00 -4.20583E+00 -4.63036E+00 -5.91023E+00
  -7.57719E+00 -8.85956E+00 -9.42704E+00 -9.45830E+00 -9.15184E+00 -8.66332E+00 -8.11062E+00 -7.58450E+00 -7.16142E+00 -6.88178E+00
  -6.82483E+00 -7.05523E+00 -7.50314E+00 -7.99862E+00 -8.32163E+00 -8.41276E+00 -8.27030E+00 -7.95660E+00 -7.62333E+00 -7.39105E+00
  -7.21564E+00 -6.99532E+00 -6.80892E+00 -6.74896E+00 -6.81925E+00 -6.98906E+00 -7.22402E+00 -7.53658E+00 -7.89862E+00 -8.17728E+00
  -8.23400E+00 -7.98546E+00 -7.53492E+00 -7.17761E+00 -7.04104E+00 -7.06522E+00 -7.20402E+00 -7.50737E+00 -7.97838E+00 -8.42986E+00
  -8.62048E+00 -8.49561E+00 -8.29989E+00 -8.17759E+00 -8.06241E+00 -7.92528E+00 -7.63931E+00 -6.59042E+00 -3.13198E+00  2.13523E+00
   7.32486E+00  1.19406E+01  1.60010E+01  1.83898E+01  1.70342E+01  1.14899E+01  4.18492E+00 -1.58173E+00 -4.74974E+00 -6.40476E+00
  -7.20300E+00 -7.50446E+00 -7.64717E+00 -7.71456E+00 -7.75095E+00 -7.77269E+00 -7.77955E+00 -7.76374E+00 -7.72177E+00 -7.63294E+00
  -7.43343E+00 -6.86141E+00 -4.80189E+00 -1.00115E+00  3.02864E+00  6.64580E+00  9.89272E+00  1.21984E+01  1.21015E+01  8.81222E+00
   3.55492E+00 -1.17784E+00 -4.02429E+00 -5.61197E+00 -6.63229E+00 -7.24236E+00 -7.63007E+00 -7.74912E+00 -7.61325E+00 -7.33352E+00
  -7.03566E+00 -6.82265E+00 -6.77550E+00 -6.88676E+00 -7.08107E+00 -7.28421E+00 -7.44517E+00 -7.56211E+00 -7.65210E+00 -7.72820E+00
  -7.80611E+00 -7.87807E+00 -7.93131E+00 -7.95898E+00 -7.96260E+00 -7.97083E+00 -8.07752E+00 -8.26469E+00 -8.46193E+00 -8.62356E+00
  -8.69684E+00 -8.71076E+00 -8.63873E+00 -8.43422E+00 -8.19423E+00 -8.13166E+00 -8.34922E+00 -8.73060E+00 -9.08831E+00 -9.30117E+00
  -9.42512E+00 -9.60471E+00 -9.82217E+00 -9.95479E+00 -1.00056E+01 -1.00207E+01 -1.00283E+01 -9.92133E+00 -9.65930E+00 -9.41627E+00
  -9.39165E+00 -9.55603E+00 -9.73035E+00 -9.73152E+00 -9.55078E+00 -9.29327E+00 -8.97388E+00 -8.47965E+00 -7.79262E+00 -7.07771E+00
  -6.55644E+00 -6.38961E+00 -6.55331E+00 -6.95633E+00 -7.43297E+00 -7.81072E+00 -7.97394E+00 -7.90465E+00 -7.59410E+00 -7.00475E+00
  -6.19506E+00 -5.34007E+00 -4.67894E+00 -4.39869E+00 -4.59853E+00 -5.45660E+00 -6.75058E+00 -8.08111E+00 -9.26857E+00 -1.00885E+01
  -1.02408E+01 -9.47341E+00 -7.97616E+00 -6.33497E+00 -4.96511E+00 -3.99364E+00 -3.53168E+00 -3.91911E+00 -5.15802E+00 -6.65691E+00
  -7.79218E+00 -8.37299E+00 -8.45584E+00 -7.99198E+00 -6.96636E+00 -5.67444E+00 -4.61015E+00 -4.08095E+00 -3.97262E+00 -4.05269E+00
  -4.24828E+00 -4.53907E+00 -4.67667E+00 -4.50180E+00 -4.13010E+00 -3.72501E+00 -3.30165E+00 -2.82123E+00 -2.47975E+00 -2.40126E+00
  -2.54616E+00 -2.79029E+00 -3.05379E+00 -3.24341E+00 -3.18371E+00 -2.80638E+00 -2.26482E+00 -1.78998E+00 -1.42983E+00 -1.10058E+00
  -7.92878E-01 -4.99993E-01 -1.74562E-01  2.63338E-01  1.26282E+00  5.06782E+00  1.19725E+01  1.91317E+01  2.55102E+01  3.12906E+01
   3.52916E+01  3.45199E+01  2.75466E+01  1.70439E+01  7.88618E+00  2.48942E+00 -4.18945E-01 -2.05676E+00 -2.79909E+00 -3.23787E+00
  -3.55730E+00 -3.79492E+00 -3.95271E+00 -4.05225E+00 -4.11892E+00 -4.19053E+00 -4.30547E+00 -4.46708E+00 -4.64950E+00 -4.83131E+00
  -5.00020E+00 -5.14324E+00 -5.25252E+00 -5.32909E+00 -5.38077E+00 -5.41722E+00 -5.44526E+00 -5.46789E+00 -5.48737E+00 -5.50263E+00
  -5.51164E+00 -5.51432E+00 -5.51187E+00 -5.50453E+00 -5.49246E+00 -5.47662E+00 -5.45901E+00 -5.44080E+00 -5.42337E+00 -5.40784E+00
  -5.39541E+00 -5.38709E+00 -5.38371E+00 -5.38548E+00 -5.39263E+00 -5.40516E+00 -5.42305E+00 -5.44570E+00 -5.47229E+00 -5.50174E+00
  -5.53309E+00 -5.56527E+00 -5.59767E+00 -5.62956E+00 -5.66030E+00 -5.68903E+00 -5.71519E+00 -5.73835E+00 -5.75849E+00 -5.77549E+00
  -5.78931E+00 -5.79972E+00 -5.80683E+00 -5.81076E+00 -5.81192E+00 -5.81040E+00 -5.80636E+00 -5.79977E+00 -5.79085E+00 -5.77976E+00
  -5.76680E+00 -5.75190E+00 -5.73506E+00 -5.71611E+00 -5.69518E+00 -5.67224E+00 -5.64735E+00 -5.62022E+00 -5.59068E+00 -5.55844E+00
  -5.52353E+00 -5.48575E+00 -5.44501E+00 -5.40090E+00 -5.35326E+00 -5.30187E+00 -5.24683E+00 -5.18804E+00 -5.12554E+00 -5.05920E+00
  -4.98928E+00 -4.91606E+00 -4.84015E+00 -4.76199E+00 -4.68224E+00 -4.60147E+00 -4.52065E+00 -4.44073E+00 -4.36283E+00 -4.28781E+00
  -4.21662E+00 -4.15000E+00 -4.08888E+00 -4.03389E+00 -3.98557E+00 -3.94397E+00 -3.90903E+00 -3.88040E+00 -3.85769E+00 -3.84007E+00
  -3.82654E+00 -3.81564E+00 -3.80593E+00 -3.79572E+00 -3.78337E+00 -3.76695E+00 -3.74446E+00 -3.71370E+00 -3.67263E+00 -3.61915E+00
  -3.55129E+00 -3.46692E+00 -3.36400E+00 -3.24053E+00 -3.09487E+00 -2.92555E+00 -2.73152E+00 -2.51194E+00 -2.26660E+00 -1.99591E+00
  -1.70124E+00 -1.38478E+00 -1.04972E+00 -7.00059E-01 -3.40988E-01  2.14114E-02  3.80026E-01  7.27255E-01  1.05505E+00  1.35544E+00
   1.62053E+00  1.84305E+00  2.01654E+00  2.13603E+00  2.19798E+00  2.20073E+00  2.14421E+00  2.03022E+00  1.86219E+00  1.64522E+00
   1.38560E+00  1.09062E+00  7.67941E-01  4.25520E-01  7.11212E-02 -2.87739E-01 -6.44326E-01 -9.92711E-01 -1.32812E+00 -1.64670E+00
  -1.94565E+00 -2.22296E+00 -2.47766E+00 -2.70945E+00 -2.91882E+00 -3.10659E+00 -3.27397E+00 -3.42229E+00 -3.55315E+00 -3.66817E+00
  -3.76909E+00 -3.85737E+00 -3.93446E+00 -4.00161E+00 -4.06007E+00 -4.11095E+00 -4.15528E+00 -4.19382E+00 -4.22728E+00 -4.25621E+00
  -4.28128E+00 -4.30294E+00 -4.32166E+00 -4.33769E+00 -4.35133E+00 -4.36281E+00 -4.37245E+00 -4.38044E+00 -4.38699E+00 -4.39214E+00
  -4.39602E+00 -4.39876E+00 -4.40055E+00 -4.40145E+00 -4.40155E+00 -4.40080E+00 -4.39933E+00 -4.39720E+00 -4.39455E+00 -4.39137E+00
  -4.38769E+00 -4.38346E+00 -4.37880E+00 -4.37374E+00 -4.36837E+00 -4.36265E+00 -4.35658E+00 -4.35014E+00 -4.34344E+00 -4.33649E+00
  -4.32936E+00 -4.32196E+00 -4.31431E+00 -4.30640E+00 -4.29833E+00 -4.29011E+00 -4.28175E+00 -4.27317E+00 -4.26440E+00 -4.25546E+00
  -4.24644E+00 -4.23731E+00 -4.22807E+00 -4.21863E+00 -4.20906E+00 -4.19938E+00 -4.18966E+00 -4.17983E+00 -4.16990E+00 -4.15981E+00
  -4.14963E+00 -4.13937E+00 -4.12908E+00 -4.11869E+00 -4.10819E+00 -4.09754E+00 -4.08683E+00 -4.07606E+00
 NY background values follow
    -1.044E+01   -1.043E+01   -1.042E+01   -1.040E+01   -1.039E+01   -1.038E+01   -1.036E+01   -1.035E+01   -1.034E+01   -1.033E+01
    -1.031E+01   -1.030E+01   -1.029E+01   -1.028E+01   -1.026E+01   -1.025E+01   -1.024E+01   -1.023E+01   -1.021E+01   -1.020E+01
    -1.019E+01   -1.018E+01   -1.016E+01   -1.015E+01   -1.014E+01   -1.013E+01   -1.011E+01   -1.010E+01   -1.009E+01   -1.008E+01
    -1.006E+01   -1.005E+01   -1.004E+01   -1.003E+01   -1.001E+01   -1.000E+01   -9.988E+00   -9.975E+00   -9.962E+00   -9.950E+00
    -9.937E+00   -9.925E+00   -9.912E+00   -9.900E+00   -9.887E+00   -9.874E+00   -9.862E+00   -9.849E+00   -9.837E+00   -9.824E+00
    -9.811E+00   -9.799E+00   -9.786E+00   -9.774E+00   -9.761E+00   -9.749E+00   -9.736E+00   -9.723E+00   -9.711E+00   -9.698E+00
    -9.686E+00   -9.673E+00   -9.661E+00   -9.648E+00   -9.635E+00   -9.623E+00   -9.610E+00   -9.598E+00   -9.585E+00   -9.573E+00
    -9.560E+00   -9.547E+00   -9.535E+00   -9.522E+00   -9.510E+00   -9.497E+00   -9.484E+00   -9.472E+00   -9.459E+00   -9.447E+00
    -9.434E+00   -9.422E+00   -9.409E+00   -9.396E+00   -9.384E+00   -9.371E+00   -9.359E+00   -9.346E+00   -9.334E+00   -9.321E+00
    -9.308E+00   -9.296E+00   -9.283E+00   -9.271E+00   -9.258E+00   -9.245E+00   -9.233E+00   -9.220E+00   -9.208E+00   -9.195E+00
    -9.183E+00   -9.170E+00   -9.157E+00   -9.145E+00   -9.132E+00   -9.120E+00   -9.107E+00   -9.095E+00   -9.082E+00   -9.069E+00
    -9.057E+00   -9.044E+00   -9.032E+00   -9.019E+00   -9.007E+00   -8.994E+00   -8.981E+00   -8.969E+00   -8.956E+00   -8.944E+00
    -8.931E+00   -8.918E+00   -8.906E+00   -8.893E+00   -8.881E+00   -8.868E+00   -8.856E+00   -8.843E+00   -8.830E+00   -8.818E+00
    -8.805E+00   -8.793E+00   -8.780E+00   -8.768E+00   -8.755E+00   -8.742E+00   -8.730E+00   -8.717E+00   -8.705E+00   -8.692E+00
    -8.680E+00   -8.667E+00   -8.654E+00   -8.642E+00   -8.629E+00   -8.617E+00   -8.604E+00   -8.591E+00   -8.579E+00   -8.566E+00
    -8.554E+00   -8.541E+00   -8.529E+00   -8.516E+00   -8.503E+00   -8.491E+00   -8.478E+00   -8.466E+00   -8.453E+00   -8.441E+00
    -8.428E+00   -8.415E+00   -8.403E+00   -8.390E+00   -8.378E+00   -8.365E+00   -8.353E+00   -8.340E+00   -8.327E+00   -8.315E+00
    -8.302E+00   -8.290E+00   -8.277E+00   -8.264E+00   -8.252E+00   -8.239E+00   -8.227E+00   -8.214E+00   -8.202E+00   -8.189E+00
    -8.176E+00   -8.164E+00   -8.151E+00   -8.139E+00   -8.126E+00   -8.114E+00   -8.101E+00   -8.088E+00   -8.076E+00   -8.063E+00
    -8.051E+00   -8.038E+00   -8.025E+00   -8.013E+00   -8.000E+00   -7.988E+00   -7.975E+00   -7.963E+00   -7.950E+00   -7.937E+00
    -7.925E+00   -7.912E+00   -7.900E+00   -7.887E+00   -7.875E+00   -7.862E+00   -7.849E+00   -7.837E+00   -7.824E+00   -7.812E+00
    -7.799E+00   -7.786E+00   -7.774E+00   -7.761E+00   -7.749E+00   -7.736E+00   -7.724E+00   -7.711E+00   -7.698E+00   -7.686E+00
    -7.673E+00   -7.661E+00   -7.648E+00   -7.636E+00   -7.623E+00   -7.610E+00   -7.598E+00   -7.585E+00   -7.573E+00   -7.560E+00
    -7.547E+00   -7.535E+00   -7.522E+00   -7.510E+00   -7.497E+00   -7.485E+00   -7.472E+00   -7.459E+00   -7.447E+00   -7.434E+00
    -7.422E+00   -7.409E+00   -7.396E+00   -7.384E+00   -7.371E+00   -7.359E+00   -7.346E+00   -7.334E+00   -7.321E+00   -7.308E+00
    -7.296E+00   -7.283E+00   -7.271E+00   -7.258E+00   -7.245E+00   -7.233E+00   -7.220E+00   -7.208E+00   -7.195E+00   -7.183E+00
    -7.170E+00   -7.157E+00   -7.145E+00   -7.132E+00   -7.120E+00   -7.107E+00   -7.094E+00   -7.082E+00   -7.069E+00   -7.057E+00
    -7.044E+00   -7.032E+00   -7.019E+00   -7.006E+00   -6.994E+00   -6.981E+00   -6.969E+00   -6.956E+00   -6.943E+00   -6.931E+00
    -6.918E+00   -6.906E+00   -6.893E+00   -6.881E+00   -6.868E+00   -6.855E+00   -6.843E+00   -6.830E+00   -6.818E+00   -6.805E+00
    -6.792E+00   -6.780E+00   -6.767E+00   -6.755E+00   -6.742E+00   -6.730E+00   -6.717E+00   -6.704E+00   -6.692E+00   -6.679E+00
    -6.667E+00   -6.654E+00   -6.641E+00   -6.629E+00   -6.616E+00   -6.604E+00   -6.591E+00   -6.578E+00   -6.566E+00   -6.553E+00
    -6.541E+00   -6.528E+00   -6.516E+00   -6.503E+00   -6.490E+00   -6.478E+00   -6.465E+00   -6.453E+00   -6.440E+00   -6.427E+00
    -6.415E+00   -6.402E+00   -6.390E+00   -6.377E+00   -6.364E+00   -6.352E+00   -6.339E+00   -6.327E+00   -6.314E+00   -6.301E+00
    -6.289E+00   -6.276E+00   -6.264E+00   -6.251E+00   -6.239E+00   -6.226E+00   -6.213E+00   -6.201E+00   -6.188E+00   -6.176E+00
    -6.163E+00   -6.150E+00   -6.138E+00   -6.125E+00   -6.113E+00   -6.100E+00   -6.087E+00   -6.075E+00   -6.062E+00   -6.050E+00
    -6.037E+00   -6.024E+00   -6.012E+00   -5.999E+00   -5.987E+00   -5.974E+00   -5.962E+00   -5.949E+00   -5.936E+00   -5.924E+00
    -5.911E+00   -5.899E+00   -5.886E+00   -5.873E+00   -5.861E+00   -5.848E+00   -5.836E+00   -5.823E+00   -5.810E+00   -5.798E+00
    -5.785E+00   -5.773E+00   -5.760E+00   -5.747E+00   -5.735E+00   -5.722E+00   -5.710E+00   -5.697E+00   -5.684E+00   -5.672E+00
    -5.659E+00   -5.647E+00   -5.634E+00   -5.622E+00   -5.609E+00   -5.596E+00   -5.584E+00   -5.571E+00   -5.559E+00   -5.546E+00
    -5.533E+00   -5.521E+00   -5.508E+00   -5.496E+00   -5.483E+00   -5.470E+00   -5.458E+00   -5.445E+00   -5.433E+00   -5.420E+00
    -5.407E+00   -5.395E+00   -5.382E+00   -5.370E+00   -5.357E+00   -5.344E+00   -5.332E+00   -5.319E+00   -5.307E+00   -5.294E+00
    -5.281E+00   -5.269E+00   -5.256E+00   -5.244E+00   -5.231E+00   -5.219E+00   -5.206E+00   -5.193E+00   -5.181E+00   -5.168E+00
    -5.156E+00   -5.143E+00   -5.130E+00   -5.118E+00   -5.105E+00   -5.093E+00   -5.080E+00   -5.067E+00   -5.055E+00   -5.042E+00
    -5.030E+00   -5.017E+00   -5.004E+00   -4.992E+00   -4.979E+00   -4.967E+00   -4.954E+00   -4.941E+00   -4.929E+00   -4.916E+00
    -4.904E+00   -4.891E+00   -4.878E+00   -4.866E+00   -4.853E+00   -4.841E+00   -4.828E+00   -4.815E+00   -4.803E+00   -4.790E+00
    -4.778E+00   -4.765E+00   -4.753E+00   -4.740E+00   -4.727E+00   -4.715E+00   -4.702E+00   -4.690E+00   -4.677E+00   -4.664E+00
    -4.652E+00   -4.639E+00   -4.627E+00   -4.614E+00   -4.601E+00   -4.589E+00   -4.576E+00   -4.564E+00   -4.551E+00   -4.538E+00
    -4.526E+00   -4.513E+00   -4.501E+00   -4.488E+00   -4.475E+00   -4.463E+00   -4.450E+00   -4.438E+00   -4.425E+00   -4.412E+00
    -4.400E+00   -4.387E+00   -4.375E+00   -4.362E+00   -4.349E+00   -4.337E+00   -4.324E+00   -4.312E+00   -4.299E+00   -4.287E+00
    -4.274E+00   -4.261E+00   -4.249E+00   -4.236E+00   -4.224E+00   -4.211E+00   -4.198E+00   -4.186E+00
 Cr       Conc. = 1.00E+02
