 LCModel (Version 6.3-1L) Copyright: S.W. Provencher.          Ref.: Magn. Reson. Med. 30:672-679 (1993).                
 Slice#1 Row#5 Col#1  PD_05_press_1_raw_act
 36 lines in following concentration table = NCONC+1
    Conc.  %SD /Cr+PCr  Metabolite                                         
   53.680  77%   1.176 Ala                                                 
    9.062 138%   0.198 Asp                                                 
   45.662  36%   1.000 Cr                                                  
    0.000 999%   0.000 PCr                                                 
    6.154 122%   0.135 GABA                                                
    5.748 132%   0.126 Glc                                                 
   21.633 387%   0.474 Gln                                                 
  175.002  55%   3.833 Glu                                                 
   14.026  46%   0.307 GPC                                                 
    0.000 999%   0.000 PCh                                                 
    4.200 627% 9.2E-02 GSH                                                 
    0.000 999%   0.000 Ins                                                 
    0.000 999%   0.000 Lac                                                 
  116.514  18%   2.552 NAA                                                 
    0.000 999%   0.000 NAAG                                                
    1.510 162% 3.3E-02 Scyllo                                              
    6.900 181%   0.151 Tau                                                 
    0.000 999%   0.000 -CrCH2                                              
   14.026  46%   0.307 GPC+PCh                                             
  116.514  18%   2.552 NAA+NAAG                                            
   45.662  36%   1.000 Cr+PCr                                              
  196.635  68%   4.306 Glu+Gln                                             
    0.000 999%   0.000 Lip13a                                              
    0.000 999%   0.000 Lip13b                                              
    0.000 999%   0.000 Lip09                                               
  144.429  34%   3.163 MM09                                                
    0.000 999%   0.000 Lip20                                               
  212.331  36%   4.650 MM20                                                
   40.130  41%   0.879 MM12                                                
  176.082  25%   3.856 MM14                                                
   77.617  36%   1.700 MM17                                                
    0.000 999%   0.000 Lip13a+Lip13b                                       
  216.213  26%   4.735 MM14+Lip13a+Lip13b+MM12                             
  144.429  34%   3.163 MM09+Lip09                                          
  212.331  36%   4.650 MM20+Lip20                                          
   6 lines in following misc. output table
  FWHM = 0.061 ppm    S/N =   2                                            
  Data shift =-0.015 ppm                                                   
  Ph: 126 deg      10.2 deg/ppm                                            
  alphaB,S = 7.4E-01,   4.6E+01                                            
   14 spline knots.   Ns = 6(1)                                            
  (10) 2 infls.   (10) 1 extrs.                                            
  498 points on ppm-axis = NY
      4.000000     3.992357     3.984714     3.977070     3.969427     3.961784     3.954141     3.946497     3.938854     3.931211
      3.923568     3.915925     3.908281     3.900638     3.892995     3.885352     3.877708     3.870065     3.862422     3.854779
      3.847136     3.839492     3.831849     3.824206     3.816563     3.808919     3.801276     3.793633     3.785990     3.778347
      3.770703     3.763060     3.755417     3.747774     3.740130     3.732487     3.724844     3.717201     3.709558     3.701914
      3.694271     3.686628     3.678985     3.671341     3.663698     3.656055     3.648412     3.640769     3.633125     3.625482
      3.617839     3.610196     3.602552     3.594909     3.587266     3.579623     3.571980     3.564336     3.556693     3.549050
      3.541407     3.533763     3.526120     3.518477     3.510834     3.503191     3.495547     3.487904     3.480261     3.472618
      3.464974     3.457331     3.449688     3.442045     3.434402     3.426758     3.419115     3.411472     3.403829     3.396185
      3.388542     3.380899     3.373256     3.365613     3.357969     3.350326     3.342683     3.335040     3.327396     3.319753
      3.312110     3.304467     3.296824     3.289180     3.281537     3.273894     3.266251     3.258607     3.250964     3.243321
      3.235678     3.228034     3.220391     3.212748     3.205105     3.197462     3.189818     3.182175     3.174532     3.166889
      3.159245     3.151602     3.143959     3.136316     3.128673     3.121029     3.113386     3.105743     3.098100     3.090456
      3.082813     3.075170     3.067527     3.059884     3.052240     3.044597     3.036954     3.029311     3.021667     3.014024
      3.006381     2.998738     2.991095     2.983451     2.975808     2.968165     2.960522     2.952878     2.945235     2.937592
      2.929949     2.922306     2.914662     2.907019     2.899376     2.891733     2.884089     2.876446     2.868803     2.861160
      2.853517     2.845873     2.838230     2.830587     2.822944     2.815300     2.807657     2.800014     2.792371     2.784728
      2.777084     2.769441     2.761798     2.754155     2.746511     2.738868     2.731225     2.723582     2.715939     2.708295
      2.700652     2.693009     2.685366     2.677722     2.670079     2.662436     2.654793     2.647150     2.639506     2.631863
      2.624220     2.616577     2.608933     2.601290     2.593647     2.586004     2.578361     2.570717     2.563074     2.555431
      2.547788     2.540144     2.532501     2.524858     2.517215     2.509572     2.501928     2.494285     2.486642     2.478999
      2.471355     2.463712     2.456069     2.448426     2.440783     2.433139     2.425496     2.417853     2.410210     2.402566
      2.394923     2.387280     2.379637     2.371994     2.364350     2.356707     2.349064     2.341421     2.333777     2.326134
      2.318491     2.310848     2.303205     2.295561     2.287918     2.280275     2.272632     2.264988     2.257345     2.249702
      2.242059     2.234416     2.226772     2.219129     2.211486     2.203843     2.196199     2.188556     2.180913     2.173270
      2.165627     2.157983     2.150340     2.142697     2.135054     2.127410     2.119767     2.112124     2.104481     2.096838
      2.089194     2.081551     2.073908     2.066265     2.058621     2.050978     2.043335     2.035692     2.028049     2.020405
      2.012762     2.005119     1.997476     1.989833     1.982190     1.974546     1.966903     1.959260     1.951617     1.943974
      1.936331     1.928688     1.921045     1.913402     1.905759     1.898115     1.890472     1.882829     1.875186     1.867543
      1.859900     1.852257     1.844614     1.836971     1.829327     1.821684     1.814041     1.806398     1.798755     1.791112
      1.783469     1.775826     1.768183     1.760540     1.752896     1.745253     1.737610     1.729967     1.722324     1.714681
      1.707038     1.699395     1.691752     1.684108     1.676465     1.668822     1.661179     1.653536     1.645893     1.638250
      1.630607     1.622964     1.615321     1.607677     1.600034     1.592391     1.584748     1.577105     1.569462     1.561819
      1.554176     1.546533     1.538890     1.531246     1.523603     1.515960     1.508317     1.500674     1.493031     1.485388
      1.477745     1.470102     1.462458     1.454815     1.447172     1.439529     1.431886     1.424243     1.416600     1.408957
      1.401314     1.393671     1.386027     1.378384     1.370741     1.363098     1.355455     1.347812     1.340169     1.332526
      1.324883     1.317240     1.309596     1.301953     1.294310     1.286667     1.279024     1.271381     1.263738     1.256095
      1.248452     1.240808     1.233165     1.225522     1.217879     1.210236     1.202593     1.194950     1.187307     1.179664
      1.172021     1.164377     1.156734     1.149091     1.141448     1.133805     1.126162     1.118519     1.110876     1.103233
      1.095590     1.087946     1.080303     1.072660     1.065017     1.057374     1.049731     1.042088     1.034445     1.026802
      1.019158     1.011515     1.003872     0.996229     0.988586     0.980943     0.973300     0.965657     0.958014     0.950371
      0.942727     0.935084     0.927441     0.919798     0.912155     0.904512     0.896869     0.889226     0.881583     0.873940
      0.866296     0.858653     0.851010     0.843367     0.835724     0.828081     0.820438     0.812795     0.805152     0.797508
      0.789865     0.782222     0.774579     0.766936     0.759293     0.751650     0.744007     0.736364     0.728721     0.721077
      0.713434     0.705791     0.698148     0.690505     0.682862     0.675219     0.667576     0.659933     0.652290     0.644646
      0.637003     0.629360     0.621717     0.614074     0.606431     0.598788     0.591145     0.583502     0.575858     0.568215
      0.560572     0.552929     0.545286     0.537643     0.530000     0.522357     0.514714     0.507071     0.499427     0.491784
      0.484141     0.476498     0.468855     0.461212     0.453569     0.445925     0.438282     0.430639     0.422996     0.415353
      0.407710     0.400067     0.392424     0.384780     0.377137     0.369494     0.361851     0.354208     0.346565     0.338922
      0.331278     0.323635     0.315992     0.308349     0.300706     0.293063     0.285420     0.277777     0.270133     0.262490
      0.254847     0.247204     0.239561     0.231918     0.224275     0.216631     0.208988     0.201345
 NY phased data points follow
   1.35233E+01  1.43036E+01  1.40117E+01  1.27696E+01  1.23020E+01  1.21860E+01  1.44410E+01  1.22728E+01  1.26548E+01  1.36323E+01
   9.66520E+00  1.37893E+01  1.34506E+01  1.53211E+01  1.41867E+01  1.17634E+01  1.02278E+01  1.28396E+01  1.11406E+01  1.05349E+01
   9.89911E+00  1.30535E+01  1.17542E+01  1.25839E+01  8.63141E+00  1.16625E+01  1.07923E+01  1.05906E+01  9.79936E+00  1.24187E+01
   9.47994E+00  1.00458E+01  8.90953E+00  8.55334E+00  1.02062E+01  1.11629E+01  1.15999E+01  1.17189E+01  9.24951E+00  9.66899E+00
   9.16374E+00  1.09038E+01  9.31447E+00  1.00853E+01  9.32751E+00  9.40615E+00  9.85114E+00  9.41096E+00  5.98332E+00  9.45062E+00
   8.52650E+00  1.02362E+01  8.87166E+00  9.13816E+00  8.43538E+00  1.09645E+01  7.67940E+00  7.55919E+00  8.49975E+00  8.93748E+00
   6.62175E+00  9.64591E+00  8.80533E+00  1.02206E+01  8.21413E+00  7.01464E+00  8.66311E+00  9.96425E+00  6.30293E+00  7.43823E+00
   8.49782E+00  8.20980E+00  7.43570E+00  8.22202E+00  8.97883E+00  7.54925E+00  6.76096E+00  7.55389E+00  7.98964E+00  6.68659E+00
   8.05039E+00  4.23323E+00  7.39977E+00  7.30438E+00  8.63295E+00  7.78974E+00  6.69212E+00  6.42292E+00  7.63666E+00  8.25786E+00
   5.63473E+00  7.28180E+00  7.17924E+00  5.33871E+00  7.59535E+00  7.05251E+00  5.02871E+00  8.50788E+00  8.06475E+00  6.35289E+00
   6.75238E+00  8.24761E+00  5.69595E+00  9.86039E+00  8.55931E+00  7.60700E+00  7.91216E+00  8.60750E+00  5.26456E+00  6.70026E+00
   5.83262E+00  5.43395E+00  5.90553E+00  6.49422E+00  6.38355E+00  4.82196E+00  6.31598E+00  7.73056E+00  5.73104E+00  6.67211E+00
   2.47284E+00  6.32069E+00  4.29147E+00  7.43036E+00  4.83924E+00  6.74982E+00  6.90166E+00  7.08329E+00  8.28743E+00  6.38718E+00
   5.87536E+00  5.41662E+00  5.21276E+00  4.92489E+00  3.83710E+00  4.89569E+00  5.66793E+00  7.61540E+00  4.42200E+00  6.79186E+00
   3.62816E+00  6.95258E+00  6.77052E+00  4.77698E+00  8.56172E+00  4.80021E+00  5.18645E+00  4.61978E+00  3.62229E+00  4.13191E+00
   5.28448E+00  5.51958E+00  6.34705E+00  5.23360E+00  4.72723E+00  5.32873E+00  5.15656E+00  4.66094E+00  4.48737E+00  4.95170E+00
   5.52967E+00  5.12246E+00  5.43299E+00  5.79392E+00  4.97372E+00  7.11862E+00  2.73408E+00  4.64318E+00  1.94404E+00  5.46584E+00
   5.54193E+00  5.50404E+00  4.73628E+00  4.14710E+00  5.01160E+00  1.40902E+00  2.74192E+00  2.34025E+00  3.63501E+00  4.56420E+00
   2.73836E+00  3.61483E+00  1.71368E+00  3.45228E+00  2.64050E+00  2.64215E+00  2.51268E+00  3.75625E+00  4.63952E+00  4.65698E+00
   3.46464E+00  3.74717E+00  2.25461E+00  4.31555E+00  4.10508E+00  3.41722E+00  2.69405E+00  2.02563E+00  3.51299E+00  4.55912E+00
   3.77331E+00  2.88796E+00  3.71864E+00  4.81461E+00  2.49969E+00  4.85439E+00  4.07305E+00  2.37005E+00  4.60904E+00  3.49560E+00
   2.73805E+00  6.24207E+00  5.67027E+00  4.00445E+00  5.06500E+00  5.09282E+00  5.00812E+00  5.27561E+00  2.49987E+00  3.67463E+00
   3.17871E+00  4.55687E+00  4.00763E+00  3.17585E+00  2.08228E+00  3.44329E+00  2.59651E+00  6.31923E+00  4.39986E-01  3.56720E+00
   3.19716E+00  4.02865E+00  5.45631E+00  5.17100E+00  3.35276E+00  2.94703E+00  2.14678E+00  4.42073E+00  5.14064E+00  2.64888E+00
   3.82819E+00  5.43280E+00  2.99429E+00  3.28284E+00  3.27243E+00  4.20001E+00  4.12625E+00  4.86580E+00  4.09984E+00  1.56089E+00
   3.63587E+00  2.31213E+00  2.27608E+00  3.93516E+00  3.81613E+00  6.13344E+00  7.10965E+00  6.66720E+00  5.42460E+00  7.41162E+00
   7.71102E+00  7.28568E+00  6.95477E+00  6.53039E+00  2.31138E+00  3.36285E+00  3.77192E+00  2.50532E+00  2.31721E+00  3.62190E+00
   3.56819E+00  2.46813E+00  5.11761E+00  1.85301E+00  2.60458E+00  3.44827E+00  3.02704E+00  1.45205E+00  5.57204E+00  2.72930E+00
   3.34928E+00  3.67415E+00  2.69647E+00  3.92470E+00  1.97079E+00  2.93266E+00  4.16124E+00  4.15113E+00  2.61986E+00  3.39802E+00
   4.27841E+00  3.94408E+00  3.92107E+00  4.07763E+00  4.01158E+00  5.29870E+00  2.67002E+00  2.75240E+00  3.02094E+00  2.44818E+00
   3.99353E+00  4.68651E+00  2.60981E+00  2.13060E+00  2.89223E+00  3.06208E+00  2.92254E+00  3.26463E+00  2.12894E+00  3.84131E+00
   4.32807E+00  3.04380E+00  3.60930E+00  3.20531E+00  4.21341E+00  4.72609E+00  1.98976E+00  4.06345E+00  3.66873E+00  4.09969E+00
   2.53235E+00  3.01714E+00  8.99273E-01  3.03902E+00  1.86067E+00  2.32941E+00  2.08744E+00  3.40800E+00  3.35926E+00  1.71235E+00
   2.46677E+00  4.28819E+00  3.05124E+00  4.08066E+00  4.86887E+00  3.48737E+00  3.49556E+00  3.64799E+00  4.85656E+00  3.26835E+00
   3.88174E+00  4.86697E+00  5.94983E+00  5.92678E+00  5.64447E+00  4.01868E+00  1.87842E+00  4.60107E+00  3.11750E+00  3.80651E+00
   2.47794E+00  4.09283E+00  1.10314E+00  1.48435E+00  1.58351E+00  6.88206E-01 -4.86115E-02  1.59579E+00  6.53305E-01 -1.11466E+00
  -2.73829E-01  1.29704E+00 -7.81814E-02 -1.16389E+00  2.37213E-01 -6.53411E-01 -7.01536E-01  3.07525E-01 -1.24480E+00 -1.63792E+00
  -6.64828E-01 -1.58799E+00  1.34565E+00 -4.66238E-01  9.76057E-01  2.68871E+00 -5.16032E-01  1.58054E+00  1.67798E+00  2.20687E+00
   3.13194E+00 -4.71182E-01 -3.46605E-01  1.61491E+00  8.15968E-01 -1.71178E+00  4.40252E-02 -1.16259E-01  1.42177E-03  3.57423E-01
  -1.89996E+00  4.34376E-01  3.17307E+00  5.30624E-01  2.33251E+00  3.42216E+00  3.72036E+00  2.79118E+00  1.07853E-01  2.06339E+00
   1.66496E+00  2.45824E+00  1.70557E+00  1.98831E+00  2.63736E+00  1.07509E+00  1.35701E-01  3.70654E+00  2.32604E+00  1.10267E+00
   5.06442E-01  3.07233E-01  1.12295E+00  1.07133E+00  1.52917E+00  2.95981E+00  7.98273E-01  1.40802E+00  1.29919E+00  2.94853E+00
   1.67979E+00 -6.02786E-01  2.66244E+00  3.39303E+00  5.20371E-01  2.98216E+00  1.33617E+00  2.33007E+00  1.24833E+00  3.04393E+00
   2.13503E+00  2.99620E+00  1.74202E+00  2.13814E+00  6.25640E-01  2.14516E+00  1.58333E+00  8.19268E-06  3.93156E-01  2.68500E-01
  -2.53463E-01  9.45686E-01  1.97928E+00  1.62554E+00  1.27432E+00  1.17817E+00 -1.78843E-01  1.71506E+00  1.29675E+00  1.32577E+00
   4.19537E-01  1.38815E-01  7.18761E-01  2.27910E+00  1.93150E+00  2.72488E+00  3.81326E-01  7.15953E-01  2.31135E+00  2.79973E+00
   1.58005E+00 -6.01495E-01  2.98560E+00  7.18885E-01  2.16932E+00  1.54362E+00  2.36433E+00  2.15516E+00 -2.58325E-01  1.98697E+00
   1.44272E-01  3.48327E+00 -9.36221E-01 -8.79450E-01  4.25477E-01  1.22845E+00  1.12560E+00  1.24813E+00  2.34856E+00  1.44398E+00
   1.89636E+00  2.44303E+00 -8.68342E-01  2.53195E+00  1.16751E+00  2.89664E+00  3.31911E+00  3.97569E-01  2.02222E+00  1.22458E-01
   1.86120E-02  3.16670E-01  1.08664E+00  7.87310E-01  3.35565E+00  1.24976E+00  1.02908E+00  2.19380E+00
 NY points of the fit to the data follow
   1.17696E+01  1.17338E+01  1.17011E+01  1.16716E+01  1.16549E+01  1.17043E+01  1.18450E+01  1.19998E+01  1.21096E+01  1.21733E+01
   1.22131E+01  1.22240E+01  1.21653E+01  1.20090E+01  1.17704E+01  1.15047E+01  1.12743E+01  1.11094E+01  1.10100E+01  1.09738E+01
   1.09753E+01  1.09707E+01  1.09154E+01  1.08075E+01  1.06756E+01  1.05351E+01  1.03989E+01  1.02987E+01  1.02621E+01  1.02850E+01
   1.03400E+01  1.04053E+01  1.04546E+01  1.04621E+01  1.04207E+01  1.03161E+01  1.01497E+01  9.96196E+00  9.80463E+00  9.70886E+00
   9.67823E+00  9.68912E+00  9.70306E+00  9.69143E+00  9.65194E+00  9.59486E+00  9.52784E+00  9.45735E+00  9.38958E+00  9.32653E+00
   9.26840E+00  9.21276E+00  9.15513E+00  9.09344E+00  9.02974E+00  8.96661E+00  8.90474E+00  8.84447E+00  8.78642E+00  8.73095E+00
   8.67865E+00  8.62926E+00  8.58066E+00  8.53240E+00  8.48372E+00  8.43402E+00  8.38384E+00  8.33363E+00  8.28343E+00  8.23596E+00
   8.19381E+00  8.15445E+00  8.11453E+00  8.07294E+00  8.02980E+00  7.98481E+00  7.93770E+00  7.88783E+00  7.83483E+00  7.78193E+00
   7.73860E+00  7.70745E+00  7.68069E+00  7.65234E+00  7.62084E+00  7.58640E+00  7.54822E+00  7.50247E+00  7.44569E+00  7.38000E+00
   7.31256E+00  7.25037E+00  7.19757E+00  7.15568E+00  7.12269E+00  7.10070E+00  7.11928E+00  7.26397E+00  7.50540E+00  7.73181E+00
   7.89125E+00  7.99777E+00  8.07054E+00  8.08604E+00  7.99500E+00  7.77540E+00  7.46296E+00  7.13802E+00  6.87187E+00  6.68512E+00
   6.56617E+00  6.49756E+00  6.45285E+00  6.41503E+00  6.37940E+00  6.34530E+00  6.31349E+00  6.28360E+00  6.25647E+00  6.23702E+00
   6.24780E+00  6.37560E+00  6.63299E+00  6.90075E+00  7.10499E+00  7.25090E+00  7.36192E+00  7.41991E+00  7.36948E+00  7.17206E+00
   6.85143E+00  6.48885E+00  6.17205E+00  5.93989E+00  5.78630E+00  5.69414E+00  5.63639E+00  5.58963E+00  5.54951E+00  5.51526E+00
   5.48529E+00  5.45589E+00  5.42297E+00  5.38561E+00  5.34557E+00  5.30454E+00  5.26309E+00  5.22113E+00  5.17872E+00  5.13657E+00
   5.09597E+00  5.05784E+00  5.02223E+00  4.98816E+00  4.95156E+00  4.90389E+00  4.84839E+00  4.79498E+00  4.75059E+00  4.71840E+00
   4.68858E+00  4.65594E+00  4.62599E+00  4.60459E+00  4.58953E+00  4.57056E+00  4.53842E+00  4.49244E+00  4.43831E+00  4.38229E+00
   4.32445E+00  4.26824E+00  4.22571E+00  4.19761E+00  4.17389E+00  4.14299E+00  4.11023E+00  4.08882E+00  4.08190E+00  4.08011E+00
   4.06868E+00  4.03932E+00  4.00861E+00  3.99601E+00  4.00163E+00  4.01500E+00  4.02829E+00  4.04081E+00  4.05583E+00  4.07413E+00
   4.09211E+00  4.10346E+00  4.09698E+00  4.07287E+00  4.04025E+00  4.00982E+00  3.98904E+00  3.98188E+00  3.99068E+00  4.01202E+00
   4.04216E+00  4.06731E+00  4.07597E+00  4.06270E+00  4.00135E+00  3.89176E+00  3.75421E+00  3.60725E+00  3.48770E+00  3.43895E+00
   3.51854E+00  3.69670E+00  3.89302E+00  4.06386E+00  4.19149E+00  4.24005E+00  4.13970E+00  3.85905E+00  3.47391E+00  3.10650E+00
   2.82570E+00  2.66462E+00  2.63981E+00  2.75904E+00  3.00700E+00  3.31603E+00  3.60033E+00  3.80134E+00  3.90168E+00  3.91789E+00
   3.87553E+00  3.81087E+00  3.75921E+00  3.73611E+00  3.73187E+00  3.73218E+00  3.73052E+00  3.71039E+00  3.68177E+00  3.66198E+00
   3.65421E+00  3.65030E+00  3.65680E+00  3.68251E+00  3.71907E+00  3.75066E+00  3.76996E+00  3.78146E+00  3.78677E+00  3.78600E+00
   3.78139E+00  3.78216E+00  3.80074E+00  3.89823E+00  4.30258E+00  5.03645E+00  5.78088E+00  6.34120E+00  6.74316E+00  7.05961E+00
   7.24632E+00  7.16825E+00  6.72668E+00  5.97109E+00  5.10059E+00  4.33866E+00  3.78313E+00  3.42576E+00  3.23494E+00  3.14488E+00
   3.09063E+00  3.05337E+00  3.02934E+00  3.01526E+00  3.00530E+00  2.99217E+00  2.97033E+00  2.93834E+00  2.89869E+00  2.85590E+00
   2.81443E+00  2.77816E+00  2.74913E+00  2.72740E+00  2.71218E+00  2.70176E+00  2.69422E+00  2.68854E+00  2.68419E+00  2.68119E+00
   2.68003E+00  2.68101E+00  2.68405E+00  2.68892E+00  2.69532E+00  2.70279E+00  2.71073E+00  2.71855E+00  2.72567E+00  2.73132E+00
   2.73481E+00  2.73559E+00  2.73323E+00  2.72744E+00  2.71805E+00  2.70506E+00  2.68865E+00  2.66923E+00  2.64744E+00  2.62408E+00
   2.60011E+00  2.57662E+00  2.55477E+00  2.53586E+00  2.52133E+00  2.51278E+00  2.51206E+00  2.52149E+00  2.54437E+00  2.58650E+00
   2.66162E+00  2.78970E+00  2.91834E+00  2.97824E+00  2.96934E+00  2.92151E+00  2.84479E+00  2.71864E+00  2.52570E+00  2.33509E+00
   2.25224E+00  2.29944E+00  2.44509E+00  2.64845E+00  2.88720E+00  3.14103E+00  3.36410E+00  3.50531E+00  3.53700E+00  3.46869E+00
   3.34219E+00  3.19770E+00  3.05604E+00  2.92837E+00  2.81503E+00  2.70852E+00  2.60590E+00  2.50679E+00  2.41168E+00  2.32132E+00
   2.23648E+00  2.15780E+00  2.08572E+00  2.02046E+00  1.96206E+00  1.91033E+00  1.86495E+00  1.82542E+00  1.79116E+00  1.76154E+00
   1.73590E+00  1.71362E+00  1.69406E+00  1.67666E+00  1.66093E+00  1.64642E+00  1.63283E+00  1.61989E+00  1.60741E+00  1.59529E+00
   1.58346E+00  1.57197E+00  1.56087E+00  1.55027E+00  1.54032E+00  1.53116E+00  1.52300E+00  1.51605E+00  1.51053E+00  1.50669E+00
   1.50476E+00  1.50499E+00  1.50765E+00  1.51303E+00  1.52138E+00  1.53296E+00  1.54802E+00  1.56677E+00  1.58939E+00  1.61601E+00
   1.64665E+00  1.68125E+00  1.71961E+00  1.76141E+00  1.80616E+00  1.85323E+00  1.90179E+00  1.95087E+00  1.99935E+00  2.04604E+00
   2.08968E+00  2.12896E+00  2.16264E+00  2.18958E+00  2.20879E+00  2.21952E+00  2.22123E+00  2.21369E+00  2.19696E+00  2.17138E+00
   2.13756E+00  2.09639E+00  2.04890E+00  1.99629E+00  1.93981E+00  1.88075E+00  1.82037E+00  1.75983E+00  1.70019E+00  1.64232E+00
   1.58695E+00  1.53465E+00  1.48581E+00  1.44067E+00  1.39933E+00  1.36177E+00  1.32787E+00  1.29747E+00  1.27035E+00  1.24624E+00
   1.22486E+00  1.20594E+00  1.18922E+00  1.17445E+00  1.16139E+00  1.14985E+00  1.13961E+00  1.13051E+00  1.12242E+00  1.11520E+00
   1.10876E+00  1.10298E+00  1.09779E+00  1.09312E+00  1.08891E+00  1.08511E+00  1.08168E+00  1.07857E+00  1.07575E+00  1.07318E+00
   1.07086E+00  1.06875E+00  1.06684E+00  1.06509E+00  1.06351E+00  1.06207E+00  1.06078E+00  1.05961E+00  1.05856E+00  1.05761E+00
   1.05676E+00  1.05601E+00  1.05536E+00  1.05478E+00  1.05428E+00  1.05385E+00  1.05348E+00  1.05319E+00  1.05296E+00  1.05278E+00
   1.05265E+00  1.05257E+00  1.05254E+00  1.05256E+00  1.05262E+00  1.05272E+00  1.05286E+00  1.05303E+00  1.05324E+00  1.05348E+00
   1.05375E+00  1.05405E+00  1.05436E+00  1.05471E+00  1.05508E+00  1.05548E+00  1.05590E+00  1.05632E+00  1.05677E+00  1.05724E+00
   1.05773E+00  1.05823E+00  1.05874E+00  1.05926E+00  1.05980E+00  1.06035E+00  1.06092E+00  1.06149E+00
 NY background values follow
     1.171E+01    1.166E+01    1.160E+01    1.155E+01    1.150E+01    1.145E+01    1.139E+01    1.134E+01    1.129E+01    1.124E+01
     1.118E+01    1.113E+01    1.108E+01    1.103E+01    1.097E+01    1.092E+01    1.087E+01    1.082E+01    1.076E+01    1.071E+01
     1.066E+01    1.061E+01    1.056E+01    1.050E+01    1.045E+01    1.040E+01    1.035E+01    1.030E+01    1.024E+01    1.019E+01
     1.014E+01    1.009E+01    1.004E+01    9.985E+00    9.933E+00    9.882E+00    9.830E+00    9.779E+00    9.728E+00    9.677E+00
     9.626E+00    9.575E+00    9.524E+00    9.473E+00    9.422E+00    9.372E+00    9.321E+00    9.271E+00    9.221E+00    9.170E+00
     9.120E+00    9.070E+00    9.021E+00    8.971E+00    8.921E+00    8.872E+00    8.822E+00    8.773E+00    8.724E+00    8.675E+00
     8.626E+00    8.578E+00    8.529E+00    8.481E+00    8.433E+00    8.385E+00    8.337E+00    8.289E+00    8.241E+00    8.194E+00
     8.147E+00    8.099E+00    8.052E+00    8.006E+00    7.959E+00    7.913E+00    7.866E+00    7.820E+00    7.774E+00    7.729E+00
     7.683E+00    7.638E+00    7.593E+00    7.548E+00    7.503E+00    7.458E+00    7.414E+00    7.370E+00    7.326E+00    7.282E+00
     7.238E+00    7.195E+00    7.152E+00    7.109E+00    7.066E+00    7.024E+00    6.982E+00    6.940E+00    6.898E+00    6.856E+00
     6.815E+00    6.774E+00    6.733E+00    6.692E+00    6.652E+00    6.611E+00    6.571E+00    6.531E+00    6.492E+00    6.452E+00
     6.413E+00    6.374E+00    6.335E+00    6.297E+00    6.258E+00    6.220E+00    6.182E+00    6.145E+00    6.107E+00    6.070E+00
     6.033E+00    5.996E+00    5.960E+00    5.923E+00    5.887E+00    5.851E+00    5.816E+00    5.780E+00    5.745E+00    5.710E+00
     5.675E+00    5.641E+00    5.606E+00    5.572E+00    5.538E+00    5.505E+00    5.471E+00    5.438E+00    5.405E+00    5.372E+00
     5.340E+00    5.308E+00    5.275E+00    5.244E+00    5.212E+00    5.181E+00    5.149E+00    5.118E+00    5.088E+00    5.057E+00
     5.027E+00    4.996E+00    4.967E+00    4.937E+00    4.907E+00    4.878E+00    4.849E+00    4.820E+00    4.791E+00    4.763E+00
     4.735E+00    4.707E+00    4.679E+00    4.651E+00    4.624E+00    4.597E+00    4.570E+00    4.543E+00    4.516E+00    4.490E+00
     4.464E+00    4.438E+00    4.412E+00    4.386E+00    4.361E+00    4.336E+00    4.310E+00    4.286E+00    4.261E+00    4.237E+00
     4.212E+00    4.188E+00    4.164E+00    4.141E+00    4.117E+00    4.094E+00    4.071E+00    4.048E+00    4.025E+00    4.002E+00
     3.980E+00    3.958E+00    3.936E+00    3.914E+00    3.892E+00    3.870E+00    3.849E+00    3.828E+00    3.807E+00    3.786E+00
     3.765E+00    3.744E+00    3.724E+00    3.704E+00    3.684E+00    3.664E+00    3.644E+00    3.624E+00    3.604E+00    3.585E+00
     3.566E+00    3.547E+00    3.528E+00    3.509E+00    3.490E+00    3.471E+00    3.453E+00    3.434E+00    3.416E+00    3.398E+00
     3.380E+00    3.362E+00    3.344E+00    3.327E+00    3.309E+00    3.292E+00    3.274E+00    3.257E+00    3.240E+00    3.223E+00
     3.206E+00    3.189E+00    3.173E+00    3.156E+00    3.140E+00    3.123E+00    3.107E+00    3.091E+00    3.075E+00    3.059E+00
     3.043E+00    3.027E+00    3.011E+00    2.995E+00    2.980E+00    2.964E+00    2.949E+00    2.933E+00    2.918E+00    2.903E+00
     2.887E+00    2.872E+00    2.857E+00    2.842E+00    2.827E+00    2.812E+00    2.798E+00    2.783E+00    2.768E+00    2.754E+00
     2.739E+00    2.724E+00    2.710E+00    2.696E+00    2.681E+00    2.667E+00    2.652E+00    2.638E+00    2.624E+00    2.610E+00
     2.596E+00    2.582E+00    2.568E+00    2.554E+00    2.540E+00    2.526E+00    2.512E+00    2.498E+00    2.484E+00    2.470E+00
     2.456E+00    2.442E+00    2.428E+00    2.415E+00    2.401E+00    2.387E+00    2.374E+00    2.360E+00    2.346E+00    2.333E+00
     2.319E+00    2.305E+00    2.292E+00    2.278E+00    2.265E+00    2.251E+00    2.238E+00    2.224E+00    2.210E+00    2.197E+00
     2.183E+00    2.170E+00    2.156E+00    2.143E+00    2.130E+00    2.116E+00    2.103E+00    2.089E+00    2.076E+00    2.062E+00
     2.049E+00    2.035E+00    2.022E+00    2.008E+00    1.995E+00    1.981E+00    1.968E+00    1.954E+00    1.941E+00    1.927E+00
     1.914E+00    1.900E+00    1.887E+00    1.873E+00    1.860E+00    1.846E+00    1.833E+00    1.819E+00    1.806E+00    1.793E+00
     1.779E+00    1.766E+00    1.753E+00    1.740E+00    1.727E+00    1.713E+00    1.700E+00    1.688E+00    1.675E+00    1.662E+00
     1.649E+00    1.636E+00    1.624E+00    1.611E+00    1.599E+00    1.587E+00    1.574E+00    1.562E+00    1.550E+00    1.538E+00
     1.526E+00    1.515E+00    1.503E+00    1.492E+00    1.480E+00    1.469E+00    1.458E+00    1.447E+00    1.436E+00    1.425E+00
     1.415E+00    1.404E+00    1.394E+00    1.384E+00    1.374E+00    1.364E+00    1.354E+00    1.345E+00    1.335E+00    1.326E+00
     1.317E+00    1.308E+00    1.299E+00    1.291E+00    1.282E+00    1.274E+00    1.266E+00    1.258E+00    1.250E+00    1.242E+00
     1.235E+00    1.227E+00    1.220E+00    1.213E+00    1.206E+00    1.199E+00    1.192E+00    1.185E+00    1.179E+00    1.173E+00
     1.167E+00    1.161E+00    1.155E+00    1.149E+00    1.144E+00    1.138E+00    1.133E+00    1.128E+00    1.123E+00    1.118E+00
     1.113E+00    1.109E+00    1.104E+00    1.100E+00    1.096E+00    1.092E+00    1.088E+00    1.084E+00    1.081E+00    1.077E+00
     1.074E+00    1.071E+00    1.068E+00    1.065E+00    1.062E+00    1.059E+00    1.057E+00    1.055E+00    1.052E+00    1.050E+00
     1.048E+00    1.046E+00    1.044E+00    1.042E+00    1.041E+00    1.039E+00    1.038E+00    1.036E+00    1.035E+00    1.034E+00
     1.033E+00    1.032E+00    1.031E+00    1.030E+00    1.029E+00    1.028E+00    1.028E+00    1.027E+00    1.027E+00    1.026E+00
     1.026E+00    1.026E+00    1.025E+00    1.025E+00    1.025E+00    1.025E+00    1.025E+00    1.025E+00    1.025E+00    1.025E+00
     1.025E+00    1.025E+00    1.025E+00    1.026E+00    1.026E+00    1.026E+00    1.026E+00    1.027E+00    1.027E+00    1.027E+00
     1.028E+00    1.028E+00    1.029E+00    1.029E+00    1.029E+00    1.030E+00    1.030E+00    1.031E+00    1.032E+00    1.032E+00
     1.033E+00    1.033E+00    1.034E+00    1.035E+00    1.035E+00    1.036E+00    1.037E+00    1.037E+00    1.038E+00    1.039E+00
     1.039E+00    1.040E+00    1.041E+00    1.042E+00    1.042E+00    1.043E+00    1.044E+00    1.045E+00    1.045E+00    1.046E+00
     1.047E+00    1.048E+00    1.049E+00    1.049E+00    1.050E+00    1.051E+00    1.052E+00    1.052E+00
 Ala      Conc. = 5.37E+01
