 LCModel (Version 6.3-1L) Copyright: S.W. Provencher.          Ref.: Magn. Reson. Med. 30:672-679 (1993).                
 Slice#2 Row#11 Col#7  PD_05_press_1_raw_act
 36 lines in following concentration table = NCONC+1
    Conc.  %SD /Cr+PCr  Metabolite                                         
    0.000 999%   0.000 Ala                                                 
    0.000 999%   0.000 Asp                                                 
  705.167  21%   0.602 Cr                                                  
  467.140  32%   0.398 PCr                                                 
    0.000 999%   0.000 GABA                                                
    0.000 999%   0.000 Glc                                                 
  890.839  19%   0.760 Gln                                                 
 1.27E+03  14%   1.081 Glu                                                 
  386.430   4%   0.330 GPC                                                 
    0.000 999%   0.000 PCh                                                 
  451.693  11%   0.385 GSH                                                 
 1.17E+03  15%   1.001 Ins                                                 
  141.957  60%   0.121 Lac                                                 
 1.99E+03   4%   1.701 NAA                                                 
  273.389  32%   0.233 NAAG                                                
   51.325  35% 4.4E-02 Scyllo                                              
    0.000 999%   0.000 Tau                                                 
    0.000 999%   0.000 -CrCH2                                              
  386.430   4%   0.330 GPC+PCh                                             
 2.27E+03   3%   1.934 NAA+NAAG                                            
 1.17E+03   3%   1.000 Cr+PCr                                              
 2.16E+03  12%   1.841 Glu+Gln                                             
 2.20E+03  25%   1.880 Lip13a                                              
    0.000 999%   0.000 Lip13b                                              
  164.308 172%   0.140 Lip09                                               
 1.33E+03  23%   1.132 MM09                                                
  186.784 106%   0.159 Lip20                                               
 2.83E+03  11%   2.412 MM20                                                
  494.962  40%   0.422 MM12                                                
 2.12E+03  19%   1.807 MM14                                                
  838.822  25%   0.716 MM17                                                
 2.20E+03  25%   1.880 Lip13a+Lip13b                                       
 4.82E+03   8%   4.109 MM14+Lip13a+Lip13b+MM12                             
 1.49E+03  11%   1.272 MM09+Lip09                                          
 3.01E+03  10%   2.572 MM20+Lip20                                          
   6 lines in following misc. output table
  FWHM = 0.054 ppm    S/N =  16                                            
  Data shift = 0.031 ppm                                                   
  Ph:  -8 deg       2.2 deg/ppm                                            
  alphaB,S = 1.4E+00,   1.7E+02                                            
   14 spline knots.   Ns = 7(1)                                            
  (11) 4 infls.   ( 5) 1 extrs.                                            
  498 points on ppm-axis = NY
      4.000000     3.992357     3.984714     3.977070     3.969427     3.961784     3.954141     3.946497     3.938854     3.931211
      3.923568     3.915925     3.908281     3.900638     3.892995     3.885352     3.877708     3.870065     3.862422     3.854779
      3.847136     3.839492     3.831849     3.824206     3.816563     3.808919     3.801276     3.793633     3.785990     3.778347
      3.770703     3.763060     3.755417     3.747774     3.740130     3.732487     3.724844     3.717201     3.709558     3.701914
      3.694271     3.686628     3.678985     3.671341     3.663698     3.656055     3.648412     3.640769     3.633125     3.625482
      3.617839     3.610196     3.602552     3.594909     3.587266     3.579623     3.571980     3.564336     3.556693     3.549050
      3.541407     3.533763     3.526120     3.518477     3.510834     3.503191     3.495547     3.487904     3.480261     3.472618
      3.464974     3.457331     3.449688     3.442045     3.434402     3.426758     3.419115     3.411472     3.403829     3.396185
      3.388542     3.380899     3.373256     3.365613     3.357969     3.350326     3.342683     3.335040     3.327396     3.319753
      3.312110     3.304467     3.296824     3.289180     3.281537     3.273894     3.266251     3.258607     3.250964     3.243321
      3.235678     3.228034     3.220391     3.212748     3.205105     3.197462     3.189818     3.182175     3.174532     3.166889
      3.159245     3.151602     3.143959     3.136316     3.128673     3.121029     3.113386     3.105743     3.098100     3.090456
      3.082813     3.075170     3.067527     3.059884     3.052240     3.044597     3.036954     3.029311     3.021667     3.014024
      3.006381     2.998738     2.991095     2.983451     2.975808     2.968165     2.960522     2.952878     2.945235     2.937592
      2.929949     2.922306     2.914662     2.907019     2.899376     2.891733     2.884089     2.876446     2.868803     2.861160
      2.853517     2.845873     2.838230     2.830587     2.822944     2.815300     2.807657     2.800014     2.792371     2.784728
      2.777084     2.769441     2.761798     2.754155     2.746511     2.738868     2.731225     2.723582     2.715939     2.708295
      2.700652     2.693009     2.685366     2.677722     2.670079     2.662436     2.654793     2.647150     2.639506     2.631863
      2.624220     2.616577     2.608933     2.601290     2.593647     2.586004     2.578361     2.570717     2.563074     2.555431
      2.547788     2.540144     2.532501     2.524858     2.517215     2.509572     2.501928     2.494285     2.486642     2.478999
      2.471355     2.463712     2.456069     2.448426     2.440783     2.433139     2.425496     2.417853     2.410210     2.402566
      2.394923     2.387280     2.379637     2.371994     2.364350     2.356707     2.349064     2.341421     2.333777     2.326134
      2.318491     2.310848     2.303205     2.295561     2.287918     2.280275     2.272632     2.264988     2.257345     2.249702
      2.242059     2.234416     2.226772     2.219129     2.211486     2.203843     2.196199     2.188556     2.180913     2.173270
      2.165627     2.157983     2.150340     2.142697     2.135054     2.127410     2.119767     2.112124     2.104481     2.096838
      2.089194     2.081551     2.073908     2.066265     2.058621     2.050978     2.043335     2.035692     2.028049     2.020405
      2.012762     2.005119     1.997476     1.989833     1.982190     1.974546     1.966903     1.959260     1.951617     1.943974
      1.936331     1.928688     1.921045     1.913402     1.905759     1.898115     1.890472     1.882829     1.875186     1.867543
      1.859900     1.852257     1.844614     1.836971     1.829327     1.821684     1.814041     1.806398     1.798755     1.791112
      1.783469     1.775826     1.768183     1.760540     1.752896     1.745253     1.737610     1.729967     1.722324     1.714681
      1.707038     1.699395     1.691752     1.684108     1.676465     1.668822     1.661179     1.653536     1.645893     1.638250
      1.630607     1.622964     1.615321     1.607677     1.600034     1.592391     1.584748     1.577105     1.569462     1.561819
      1.554176     1.546533     1.538890     1.531246     1.523603     1.515960     1.508317     1.500674     1.493031     1.485388
      1.477745     1.470102     1.462458     1.454815     1.447172     1.439529     1.431886     1.424243     1.416600     1.408957
      1.401314     1.393671     1.386027     1.378384     1.370741     1.363098     1.355455     1.347812     1.340169     1.332526
      1.324883     1.317240     1.309596     1.301953     1.294310     1.286667     1.279024     1.271381     1.263738     1.256095
      1.248452     1.240808     1.233165     1.225522     1.217879     1.210236     1.202593     1.194950     1.187307     1.179664
      1.172021     1.164377     1.156734     1.149091     1.141448     1.133805     1.126162     1.118519     1.110876     1.103233
      1.095590     1.087946     1.080303     1.072660     1.065017     1.057374     1.049731     1.042088     1.034445     1.026802
      1.019158     1.011515     1.003872     0.996229     0.988586     0.980943     0.973300     0.965657     0.958014     0.950371
      0.942727     0.935084     0.927441     0.919798     0.912155     0.904512     0.896869     0.889226     0.881583     0.873940
      0.866296     0.858653     0.851010     0.843367     0.835724     0.828081     0.820438     0.812795     0.805152     0.797508
      0.789865     0.782222     0.774579     0.766936     0.759293     0.751650     0.744007     0.736364     0.728721     0.721077
      0.713434     0.705791     0.698148     0.690505     0.682862     0.675219     0.667576     0.659933     0.652290     0.644646
      0.637003     0.629360     0.621717     0.614074     0.606431     0.598788     0.591145     0.583502     0.575858     0.568215
      0.560572     0.552929     0.545286     0.537643     0.530000     0.522357     0.514714     0.507071     0.499427     0.491784
      0.484141     0.476498     0.468855     0.461212     0.453569     0.445925     0.438282     0.430639     0.422996     0.415353
      0.407710     0.400067     0.392424     0.384780     0.377137     0.369494     0.361851     0.354208     0.346565     0.338922
      0.331278     0.323635     0.315992     0.308349     0.300706     0.293063     0.285420     0.277777     0.270133     0.262490
      0.254847     0.247204     0.239561     0.231918     0.224275     0.216631     0.208988     0.201345
 NY phased data points follow
   7.75786E+00  1.14830E+01  8.19940E+00  9.73326E+00  8.74750E+00  1.20390E+01  1.96610E+01  2.42915E+01  2.80303E+01  3.01980E+01
   3.32023E+01  3.52598E+01  3.16821E+01  2.92244E+01  2.39915E+01  2.23024E+01  1.72032E+01  1.99107E+01  1.33799E+01  1.42679E+01
   1.15649E+01  1.24507E+01  9.55824E+00  1.37168E+01  1.12309E+01  1.13997E+01  1.26046E+01  1.53484E+01  1.63298E+01  1.83946E+01
   1.75490E+01  2.08376E+01  1.33583E+01  1.64863E+01  1.15755E+01  1.15894E+01  1.12372E+01  1.24184E+01  1.33151E+01  1.17607E+01
   1.34291E+01  1.27861E+01  1.41538E+01  1.11438E+01  1.16204E+01  1.39420E+01  1.54053E+01  1.86868E+01  1.82760E+01  1.40466E+01
   1.28704E+01  1.21295E+01  7.07941E+00  1.07853E+01  9.37304E+00  8.74611E+00  7.59751E+00  1.13757E+01  1.01024E+01  1.10003E+01
   8.35071E+00  5.80714E+00  5.20315E+00  7.16895E+00  4.07947E+00  2.24323E-01  3.31394E+00  2.38898E+00  2.90296E+00  2.57072E+00
   3.14081E+00  2.77074E+00  4.74740E+00  3.49459E+00  3.10128E+00  1.68539E+00  2.49358E+00  2.99558E+00  3.58972E+00  3.97725E+00
   2.29235E+00  2.17731E+00  1.66199E+00  5.21355E+00  4.09537E+00  2.29863E+00  3.58142E+00  1.38105E+00  5.99568E+00  2.44984E+00
   3.14197E+00  3.26409E+00  2.72131E+00  3.63047E+00  2.15910E+00  1.05457E+00  2.62701E+00  6.81226E+00  1.12539E+01  1.54431E+01
   2.07649E+01  2.81455E+01  3.32481E+01  3.55374E+01  2.80545E+01  2.93347E+01  2.42296E+01  1.94734E+01  1.83715E+01  1.06889E+01
   1.14972E+01  8.96463E+00  6.64915E+00  6.42482E+00  8.10847E+00  6.01992E+00  6.17507E+00  4.86014E+00  2.94143E+00  3.01432E+00
   3.90653E+00  6.28637E+00  3.33491E+00  1.22836E+01  2.42983E+01  3.18034E+01  3.84542E+01  3.95351E+01  3.93826E+01  3.42495E+01
   3.03064E+01  2.11353E+01  2.00117E+01  1.08974E+01  9.07095E+00  6.89484E+00  4.63688E+00  3.73938E+00  3.41975E+00  1.26712E+00
   2.57952E+00  2.84107E+00  2.28175E+00 -8.48361E-01 -2.91648E+00 -2.68033E-03  2.18743E+00  3.36921E-01  2.23358E+00  4.40231E-01
  -1.58503E+00 -7.90830E-01  4.26204E-01  1.51506E-01 -3.41247E+00  2.10762E+00 -1.11003E+00 -1.22942E+00 -1.05127E+00 -4.01060E+00
  -2.88828E+00 -2.79170E+00 -3.22808E+00 -4.95871E+00 -1.94687E+00 -8.05671E-01 -2.32417E+00 -3.43899E+00 -4.07803E+00 -1.21623E-01
  -5.38007E+00 -7.28390E+00 -5.85548E+00 -1.19705E+01 -1.01531E+01 -1.12402E+01 -1.14034E+01 -1.10022E+01 -1.12259E+01 -1.07641E+01
  -1.22246E+01 -1.14134E+01 -1.05991E+01 -9.25659E+00 -7.41552E+00 -7.88320E+00 -7.06368E+00 -4.60924E+00 -1.73338E+00 -4.23083E+00
  -2.71064E+00 -1.09825E+00 -7.17401E-01  7.97686E-01 -2.02590E+00 -2.77052E+00 -1.82134E+00 -6.04002E+00 -6.21042E+00 -2.34645E+00
   7.78714E-03 -2.61706E+00  2.09066E+00 -1.21864E+00  9.19961E-01  6.83656E-01 -3.91736E+00 -3.27676E+00 -5.27460E+00 -6.75701E+00
  -5.99115E+00 -1.24411E+00  6.05678E-02  3.50361E+00  3.40265E+00  1.05055E+01  4.42271E+00  6.13088E+00  3.92606E+00  1.87684E+00
  -4.06101E+00 -1.54705E+00 -4.58256E+00 -7.06527E-01  1.10687E-01  3.29548E+00  2.79330E+00  7.52517E+00  7.22809E+00  4.49728E+00
   2.16599E+00  5.79218E+00  4.28769E+00  4.97164E+00  4.08922E+00  2.34282E+00  4.86132E+00  4.27475E+00  3.50134E+00  1.89970E+00
   4.52055E+00 -4.29026E-01 -1.55633E+00  2.28123E+00  3.04191E+00  4.25618E+00  8.42457E+00  9.26138E+00  1.01274E+01  1.00446E+01
   1.14397E+01  1.05762E+01  2.02866E+01  1.98014E+01  2.48831E+01  2.69249E+01  3.83014E+01  5.33893E+01  6.71228E+01  7.64668E+01
   7.62402E+01  7.09865E+01  5.90671E+01  4.82157E+01  3.68402E+01  2.62429E+01  2.04493E+01  1.46744E+01  1.09670E+01  6.77043E+00
   7.18895E+00  5.46036E+00  3.85061E+00  3.26693E+00  5.07638E+00  3.39979E+00  1.42708E+00  2.33958E+00  8.52265E-01 -1.34219E+00
   8.60369E-01 -6.09724E-01  2.37716E+00  2.16635E-01 -1.41930E+00 -2.70775E+00  7.13848E-01 -2.39119E+00 -1.39793E+00 -2.38383E+00
   2.39363E+00  1.56387E+00  1.33769E-01  4.76657E-01  2.18673E+00  1.84056E+00 -2.61227E+00  7.86594E-01 -1.24189E+00 -6.09492E-01
   1.22517E+00  2.62644E+00  3.56395E+00  5.20332E+00  2.79843E+00  5.24809E+00  4.81667E+00  2.63212E+00  3.89350E+00  4.38704E+00
   6.28442E+00  6.89665E+00  5.77768E+00  3.64390E+00  6.95472E+00  6.69429E+00  5.26802E+00  2.89558E+00  7.32622E+00  5.46818E+00
   2.31276E+00  5.32140E+00  5.98595E+00  5.46388E+00  6.20371E+00  7.00497E+00  1.06950E+01  7.42185E+00  8.41146E+00  1.04069E+01
   1.05447E+01  1.06726E+01  9.31163E+00  1.12646E+01  8.43859E+00  1.36675E+01  1.02292E+01  1.19769E+01  1.29353E+01  1.29690E+01
   1.50338E+01  1.25289E+01  1.46209E+01  1.30126E+01  1.21386E+01  1.41392E+01  1.16761E+01  1.50298E+01  1.38287E+01  1.13271E+01
   9.36716E+00  1.05097E+01  1.24270E+01  1.19278E+01  1.27689E+01  1.26523E+01  1.32043E+01  1.29343E+01  1.13349E+01  1.35806E+01
   1.06564E+01  1.13961E+01  1.16833E+01  9.21434E+00  1.10599E+01  1.13441E+01  1.36826E+01  8.73908E+00  8.15362E+00  8.82817E+00
   3.14922E+00  7.73309E+00  9.17330E+00  7.32366E+00  4.88379E+00  4.85993E+00  4.83598E+00  5.70784E+00  3.33471E+00  2.10695E-01
   6.12709E+00  3.81178E+00  2.79292E+00  6.58617E+00  2.47833E+00  2.48938E+00  2.18669E+00  2.46602E+00  4.35419E+00  4.74685E+00
   6.11917E+00  7.77468E+00  6.01136E+00  6.54461E+00  8.17872E+00  1.00473E+01  7.40110E+00  8.44490E+00  7.71163E+00  4.67681E+00
   6.89006E+00  2.75670E+00  7.88680E+00  4.91275E+00  7.68845E+00  9.04033E+00  9.29772E+00  7.38962E+00  8.28600E+00  8.18555E+00
   6.92164E+00  7.63751E+00  6.42933E+00  7.23910E+00  4.44929E+00  5.02938E+00  4.25400E+00  7.13460E+00  4.88704E+00  4.40714E+00
   3.88095E+00  2.34423E+00  2.31006E+00  3.96312E-01  2.95049E+00  7.42913E-02  2.25183E+00  1.99666E+00 -7.64295E-01 -4.37520E-01
   1.14330E+00  1.86655E+00  5.31851E-01  1.11396E+00 -1.23792E+00 -5.08465E-01  2.13021E+00  2.93255E+00  2.14143E+00  1.49722E+00
  -2.22756E+00 -1.73958E-01 -8.77168E-03  1.75600E+00 -9.44545E-01 -2.50661E+00 -1.06653E+00 -1.17340E-01 -2.95749E-01 -1.67381E+00
   1.34793E+00 -1.40209E-01  6.68654E-01  5.10855E-01  2.58779E+00  3.50552E+00 -1.15388E+00  9.04308E-01  6.27614E-01  2.58997E+00
   2.63510E+00  5.78875E-01 -1.57882E+00  1.02680E+00 -1.05337E+00  1.40023E+00 -8.64865E-01  1.64428E+00 -2.56070E+00  1.06992E+00
   7.57424E-01 -1.49007E+00 -1.35368E-01 -6.98578E-01  3.74730E-01 -2.23159E+00 -6.12872E-01  9.39739E-01  4.10350E-01 -3.17062E+00
   2.11740E+00  1.58218E-01  1.56594E+00 -1.76006E+00 -9.46168E-01 -3.80923E+00 -2.44584E+00  7.88200E-01 -2.42032E+00 -1.12127E+00
   2.80851E+00 -2.21285E+00  8.09081E-01  2.81130E+00  4.76703E-01  6.13993E-01 -1.50490E+00 -3.19120E+00
 NY points of the fit to the data follow
   1.00000E+01  9.55992E+00  9.55317E+00  1.01447E+01  1.14551E+01  1.39526E+01  1.76551E+01  2.22017E+01  2.69422E+01  3.08795E+01
   3.31019E+01  3.32050E+01  3.14164E+01  2.84294E+01  2.50214E+01  2.17663E+01  1.89206E+01  1.64764E+01  1.44291E+01  1.27867E+01
   1.13710E+01  1.04020E+01  9.77676E+00  9.45254E+00  9.56059E+00  1.04517E+01  1.22579E+01  1.47016E+01  1.71784E+01  1.90097E+01
   1.97732E+01  1.93698E+01  1.79477E+01  1.59101E+01  1.37468E+01  1.18196E+01  1.03255E+01  9.14954E+00  8.35563E+00  8.10290E+00
   8.22919E+00  8.76960E+00  9.74832E+00  1.12049E+01  1.29843E+01  1.45991E+01  1.55470E+01  1.55368E+01  1.45848E+01  1.30331E+01
   1.12739E+01  9.59931E+00  8.27203E+00  7.40663E+00  6.88722E+00  6.63561E+00  6.73721E+00  7.19819E+00  7.73166E+00  8.00510E+00
   7.89085E+00  7.41686E+00  6.72231E+00  5.99539E+00  5.40947E+00  5.09465E+00  5.04138E+00  5.15163E+00  5.37022E+00  5.64744E+00
   5.88630E+00  6.02296E+00  6.00628E+00  5.84903E+00  5.59751E+00  5.29765E+00  4.99917E+00  4.73532E+00  4.51795E+00  4.36683E+00
   4.29921E+00  4.33921E+00  4.45989E+00  4.55255E+00  4.45839E+00  4.08207E+00  3.46859E+00  2.78302E+00  2.21415E+00  1.89197E+00
   1.84942E+00  2.01558E+00  2.26998E+00  2.47270E+00  2.54646E+00  2.63765E+00  3.28491E+00  5.20108E+00  8.75532E+00  1.43550E+01
   2.15405E+01  2.86532E+01  3.37031E+01  3.54035E+01  3.37192E+01  2.96470E+01  2.45015E+01  1.93689E+01  1.49219E+01  1.13371E+01
   8.32603E+00  5.51948E+00  3.35723E+00  2.48043E+00  2.18292E+00  2.03717E+00  1.94784E+00  1.90929E+00  1.95361E+00  2.17388E+00
   2.99706E+00  5.27017E+00  9.30163E+00  1.54916E+01  2.34863E+01  3.15896E+01  3.76487E+01  4.01594E+01  3.89471E+01  3.49861E+01
   2.95739E+01  2.37889E+01  1.83604E+01  1.36149E+01  9.49803E+00  5.77046E+00  2.95974E+00  2.05456E+00  2.16438E+00  2.50428E+00
   2.75953E+00  2.81719E+00  2.73577E+00  2.56628E+00  2.30797E+00  2.00154E+00  1.66230E+00  1.27566E+00  8.68367E-01  4.52489E-01
   7.70097E-02 -2.24095E-01 -4.40437E-01 -5.66317E-01 -6.50200E-01 -7.60135E-01 -9.70458E-01 -1.32933E+00 -1.76796E+00 -2.16670E+00
  -2.39630E+00 -2.39392E+00 -2.25993E+00 -2.18809E+00 -2.31254E+00 -2.64606E+00 -3.11358E+00 -3.59526E+00 -3.99218E+00 -4.30919E+00
  -4.67748E+00 -5.14802E+00 -5.70523E+00 -6.23815E+00 -6.56121E+00 -6.63715E+00 -6.55830E+00 -6.45283E+00 -6.42291E+00 -6.47011E+00
  -6.55462E+00 -6.62405E+00 -6.62007E+00 -6.49128E+00 -6.13078E+00 -5.45652E+00 -4.46644E+00 -3.18961E+00 -1.86520E+00 -8.31613E-01
  -3.67852E-01 -5.55211E-01 -1.18961E+00 -1.98631E+00 -2.66027E+00 -2.97869E+00 -2.86585E+00 -2.25817E+00 -1.17827E+00  1.82745E-01
   1.59788E+00  2.78736E+00  3.37923E+00  3.06619E+00  1.83109E+00 -1.95170E-01 -2.61793E+00 -4.85781E+00 -6.34669E+00 -6.70672E+00
  -5.87483E+00 -4.05697E+00 -1.60301E+00  1.00647E+00  3.11771E+00  4.16135E+00  3.91963E+00  2.55593E+00  3.82590E-01 -2.12210E+00
  -4.07998E+00 -4.93253E+00 -4.65600E+00 -3.51944E+00 -1.92527E+00 -1.74557E-01  1.34527E+00  2.30766E+00  2.72092E+00  2.82526E+00
   2.90903E+00  3.02634E+00  3.20718E+00  3.64301E+00  4.40216E+00  5.22996E+00  5.83692E+00  6.02187E+00  5.72410E+00  5.04887E+00
   4.20658E+00  3.54654E+00  3.38676E+00  3.77410E+00  4.47484E+00  5.26462E+00  6.10468E+00  6.91035E+00  7.71811E+00  8.80940E+00
   1.03606E+01  1.23854E+01  1.48375E+01  1.82954E+01  2.37129E+01  3.12888E+01  4.18065E+01  5.45377E+01  6.64550E+01  7.39981E+01
   7.50314E+01  6.98151E+01  6.03979E+01  4.92209E+01  3.84368E+01  2.94753E+01  2.24102E+01  1.63572E+01  1.05055E+01  6.07522E+00
   4.40280E+00  3.70371E+00  3.25213E+00  2.91000E+00  2.59602E+00  2.25252E+00  1.89922E+00  1.54869E+00  1.21792E+00  9.26461E-01
   6.82307E-01  4.71024E-01  2.84566E-01  1.27658E-01  2.15851E-04 -1.05271E-01 -1.92474E-01 -2.51309E-01 -2.68022E-01 -2.39134E-01
  -1.71384E-01 -6.75298E-02  7.00270E-02  2.36510E-01  4.26346E-01  6.39031E-01  8.76985E-01  1.14267E+00  1.43624E+00  1.75317E+00
   2.08708E+00  2.43265E+00  2.78087E+00  3.12180E+00  3.44668E+00  3.74883E+00  4.02360E+00  4.26655E+00  4.47348E+00  4.64481E+00
   4.78239E+00  4.88952E+00  4.97178E+00  5.03627E+00  5.09103E+00  5.14479E+00  5.20662E+00  5.28549E+00  5.38971E+00  5.52640E+00
   5.70108E+00  5.91749E+00  6.17738E+00  6.48051E+00  6.82461E+00  7.20551E+00  7.61732E+00  8.05283E+00  8.50397E+00  8.96220E+00
   9.41890E+00  9.86571E+00  1.02951E+01  1.07007E+01  1.10779E+01  1.14240E+01  1.17388E+01  1.20249E+01  1.22895E+01  1.25489E+01
   1.28361E+01  1.31542E+01  1.34776E+01  1.37653E+01  1.39154E+01  1.38230E+01  1.34530E+01  1.28643E+01  1.22139E+01  1.16576E+01
   1.13155E+01  1.12763E+01  1.15342E+01  1.19740E+01  1.24256E+01  1.27648E+01  1.29717E+01  1.30162E+01  1.28699E+01  1.25891E+01
   1.22299E+01  1.18223E+01  1.13543E+01  1.08085E+01  1.02526E+01  9.72501E+00  9.20575E+00  8.68882E+00  8.17566E+00  7.67021E+00
   7.17730E+00  6.70200E+00  6.24928E+00  5.82378E+00  5.42967E+00  5.07057E+00  4.74952E+00  4.46904E+00  4.23120E+00  4.03763E+00
   3.88951E+00  3.78764E+00  3.73240E+00  3.72387E+00  3.76180E+00  3.84551E+00  3.97384E+00  4.14504E+00  4.35677E+00  4.60600E+00
   4.88891E+00  5.20085E+00  5.53622E+00  5.88856E+00  6.25058E+00  6.61431E+00  6.97126E+00  7.31256E+00  7.62926E+00  7.91265E+00
   8.15460E+00  8.34788E+00  8.48642E+00  8.56557E+00  8.58225E+00  8.53519E+00  8.42493E+00  8.25376E+00  8.02559E+00  7.74571E+00
   7.42057E+00  7.05749E+00  6.66435E+00  6.24924E+00  5.82010E+00  5.38449E+00  4.94936E+00  4.52091E+00  4.10445E+00  3.70435E+00
   3.32394E+00  2.96564E+00  2.63102E+00  2.32092E+00  2.03549E+00  1.77435E+00  1.53664E+00  1.32123E+00  1.12675E+00  9.51766E-01
   7.94740E-01  6.54112E-01  5.28346E-01  4.15994E-01  3.15727E-01  2.26323E-01  1.46648E-01  7.56494E-02  1.23848E-02 -4.39662E-02
  -9.41108E-02 -1.38683E-01 -1.78268E-01 -2.13400E-01 -2.44537E-01 -2.72062E-01 -2.96304E-01 -3.17567E-01 -3.36145E-01 -3.52304E-01
  -3.66259E-01 -3.78180E-01 -3.88218E-01 -3.96536E-01 -4.03293E-01 -4.08625E-01 -4.12634E-01 -4.15399E-01 -4.17002E-01 -4.17542E-01
  -4.17114E-01 -4.15785E-01 -4.13599E-01 -4.10592E-01 -4.06823E-01 -4.02361E-01 -3.97266E-01 -3.91569E-01 -3.85285E-01 -3.78436E-01
  -3.71067E-01 -3.63227E-01 -3.54945E-01 -3.46230E-01 -3.37085E-01 -3.27532E-01 -3.17612E-01 -3.07359E-01 -2.96786E-01 -2.85887E-01
  -2.74663E-01 -2.63140E-01 -2.51350E-01 -2.39313E-01 -2.27025E-01 -2.14474E-01 -2.01667E-01 -1.88631E-01 -1.75390E-01 -1.61949E-01
  -1.48294E-01 -1.34414E-01 -1.20321E-01 -1.06038E-01 -9.15785E-02 -7.69296E-02 -6.20694E-02 -4.69900E-02
 NY background values follow
     6.883E+00    6.821E+00    6.758E+00    6.695E+00    6.632E+00    6.569E+00    6.506E+00    6.444E+00    6.381E+00    6.318E+00
     6.255E+00    6.192E+00    6.129E+00    6.066E+00    6.003E+00    5.941E+00    5.878E+00    5.815E+00    5.752E+00    5.689E+00
     5.626E+00    5.563E+00    5.500E+00    5.438E+00    5.375E+00    5.312E+00    5.249E+00    5.186E+00    5.123E+00    5.061E+00
     4.998E+00    4.935E+00    4.872E+00    4.810E+00    4.747E+00    4.684E+00    4.621E+00    4.559E+00    4.496E+00    4.434E+00
     4.371E+00    4.308E+00    4.246E+00    4.183E+00    4.121E+00    4.059E+00    3.996E+00    3.934E+00    3.872E+00    3.809E+00
     3.747E+00    3.685E+00    3.623E+00    3.561E+00    3.499E+00    3.437E+00    3.375E+00    3.313E+00    3.251E+00    3.190E+00
     3.128E+00    3.067E+00    3.005E+00    2.944E+00    2.883E+00    2.821E+00    2.760E+00    2.699E+00    2.639E+00    2.578E+00
     2.517E+00    2.457E+00    2.396E+00    2.336E+00    2.276E+00    2.216E+00    2.156E+00    2.097E+00    2.037E+00    1.978E+00
     1.918E+00    1.859E+00    1.800E+00    1.741E+00    1.683E+00    1.624E+00    1.566E+00    1.508E+00    1.450E+00    1.392E+00
     1.335E+00    1.277E+00    1.220E+00    1.163E+00    1.106E+00    1.049E+00    9.929E-01    9.366E-01    8.806E-01    8.248E-01
     7.691E-01    7.137E-01    6.585E-01    6.035E-01    5.488E-01    4.942E-01    4.399E-01    3.858E-01    3.320E-01    2.784E-01
     2.250E-01    1.718E-01    1.189E-01    6.627E-02    1.386E-02   -3.829E-02   -9.020E-02   -1.418E-01   -1.932E-01   -2.444E-01
    -2.952E-01   -3.458E-01   -3.962E-01   -4.462E-01   -4.960E-01   -5.455E-01   -5.947E-01   -6.437E-01   -6.923E-01   -7.407E-01
    -7.888E-01   -8.366E-01   -8.841E-01   -9.312E-01   -9.781E-01   -1.025E+00   -1.071E+00   -1.117E+00   -1.163E+00   -1.208E+00
    -1.253E+00   -1.298E+00   -1.342E+00   -1.386E+00   -1.430E+00   -1.473E+00   -1.516E+00   -1.559E+00   -1.601E+00   -1.643E+00
    -1.685E+00   -1.726E+00   -1.767E+00   -1.807E+00   -1.848E+00   -1.887E+00   -1.927E+00   -1.966E+00   -2.004E+00   -2.043E+00
    -2.081E+00   -2.118E+00   -2.155E+00   -2.192E+00   -2.228E+00   -2.264E+00   -2.299E+00   -2.334E+00   -2.369E+00   -2.403E+00
    -2.437E+00   -2.470E+00   -2.503E+00   -2.536E+00   -2.568E+00   -2.599E+00   -2.631E+00   -2.661E+00   -2.692E+00   -2.721E+00
    -2.751E+00   -2.780E+00   -2.808E+00   -2.836E+00   -2.863E+00   -2.891E+00   -2.917E+00   -2.943E+00   -2.969E+00   -2.994E+00
    -3.019E+00   -3.043E+00   -3.067E+00   -3.091E+00   -3.114E+00   -3.137E+00   -3.159E+00   -3.181E+00   -3.203E+00   -3.224E+00
    -3.245E+00   -3.265E+00   -3.285E+00   -3.304E+00   -3.324E+00   -3.342E+00   -3.361E+00   -3.379E+00   -3.397E+00   -3.414E+00
    -3.431E+00   -3.448E+00   -3.464E+00   -3.480E+00   -3.496E+00   -3.511E+00   -3.526E+00   -3.541E+00   -3.555E+00   -3.569E+00
    -3.583E+00   -3.596E+00   -3.609E+00   -3.622E+00   -3.634E+00   -3.646E+00   -3.658E+00   -3.670E+00   -3.681E+00   -3.692E+00
    -3.703E+00   -3.714E+00   -3.724E+00   -3.734E+00   -3.743E+00   -3.753E+00   -3.762E+00   -3.770E+00   -3.779E+00   -3.787E+00
    -3.795E+00   -3.803E+00   -3.810E+00   -3.817E+00   -3.824E+00   -3.831E+00   -3.837E+00   -3.843E+00   -3.849E+00   -3.854E+00
    -3.860E+00   -3.865E+00   -3.869E+00   -3.874E+00   -3.878E+00   -3.882E+00   -3.885E+00   -3.889E+00   -3.892E+00   -3.895E+00
    -3.898E+00   -3.900E+00   -3.902E+00   -3.904E+00   -3.905E+00   -3.907E+00   -3.908E+00   -3.909E+00   -3.909E+00   -3.910E+00
    -3.910E+00   -3.909E+00   -3.909E+00   -3.908E+00   -3.907E+00   -3.906E+00   -3.905E+00   -3.903E+00   -3.901E+00   -3.899E+00
    -3.897E+00   -3.894E+00   -3.891E+00   -3.888E+00   -3.885E+00   -3.882E+00   -3.878E+00   -3.874E+00   -3.870E+00   -3.865E+00
    -3.861E+00   -3.856E+00   -3.851E+00   -3.845E+00   -3.840E+00   -3.834E+00   -3.828E+00   -3.822E+00   -3.816E+00   -3.809E+00
    -3.803E+00   -3.796E+00   -3.789E+00   -3.781E+00   -3.774E+00   -3.766E+00   -3.758E+00   -3.750E+00   -3.742E+00   -3.733E+00
    -3.725E+00   -3.716E+00   -3.707E+00   -3.698E+00   -3.688E+00   -3.679E+00   -3.669E+00   -3.659E+00   -3.649E+00   -3.639E+00
    -3.628E+00   -3.618E+00   -3.607E+00   -3.596E+00   -3.585E+00   -3.574E+00   -3.562E+00   -3.551E+00   -3.539E+00   -3.527E+00
    -3.515E+00   -3.503E+00   -3.490E+00   -3.478E+00   -3.465E+00   -3.452E+00   -3.440E+00   -3.426E+00   -3.413E+00   -3.400E+00
    -3.386E+00   -3.373E+00   -3.359E+00   -3.345E+00   -3.331E+00   -3.317E+00   -3.303E+00   -3.288E+00   -3.274E+00   -3.259E+00
    -3.244E+00   -3.229E+00   -3.214E+00   -3.199E+00   -3.184E+00   -3.168E+00   -3.153E+00   -3.137E+00   -3.121E+00   -3.105E+00
    -3.089E+00   -3.073E+00   -3.057E+00   -3.041E+00   -3.025E+00   -3.008E+00   -2.991E+00   -2.975E+00   -2.958E+00   -2.941E+00
    -2.924E+00   -2.907E+00   -2.890E+00   -2.873E+00   -2.855E+00   -2.838E+00   -2.820E+00   -2.803E+00   -2.785E+00   -2.767E+00
    -2.749E+00   -2.731E+00   -2.713E+00   -2.695E+00   -2.677E+00   -2.659E+00   -2.640E+00   -2.622E+00   -2.603E+00   -2.585E+00
    -2.566E+00   -2.547E+00   -2.528E+00   -2.509E+00   -2.490E+00   -2.471E+00   -2.452E+00   -2.433E+00   -2.414E+00   -2.395E+00
    -2.375E+00   -2.356E+00   -2.336E+00   -2.317E+00   -2.297E+00   -2.277E+00   -2.258E+00   -2.238E+00   -2.218E+00   -2.198E+00
    -2.178E+00   -2.158E+00   -2.138E+00   -2.118E+00   -2.098E+00   -2.078E+00   -2.057E+00   -2.037E+00   -2.017E+00   -1.996E+00
    -1.976E+00   -1.955E+00   -1.935E+00   -1.914E+00   -1.894E+00   -1.873E+00   -1.853E+00   -1.832E+00   -1.811E+00   -1.791E+00
    -1.770E+00   -1.749E+00   -1.729E+00   -1.708E+00   -1.687E+00   -1.667E+00   -1.646E+00   -1.625E+00   -1.604E+00   -1.583E+00
    -1.563E+00   -1.542E+00   -1.521E+00   -1.500E+00   -1.479E+00   -1.459E+00   -1.438E+00   -1.417E+00   -1.396E+00   -1.376E+00
    -1.355E+00   -1.334E+00   -1.313E+00   -1.293E+00   -1.272E+00   -1.251E+00   -1.231E+00   -1.210E+00   -1.189E+00   -1.169E+00
    -1.148E+00   -1.128E+00   -1.107E+00   -1.087E+00   -1.066E+00   -1.046E+00   -1.025E+00   -1.005E+00   -9.841E-01   -9.636E-01
    -9.432E-01   -9.227E-01   -9.023E-01   -8.818E-01   -8.614E-01   -8.410E-01   -8.206E-01   -8.002E-01   -7.798E-01   -7.594E-01
    -7.390E-01   -7.187E-01   -6.983E-01   -6.779E-01   -6.576E-01   -6.372E-01   -6.169E-01   -5.965E-01   -5.762E-01   -5.559E-01
    -5.355E-01   -5.152E-01   -4.949E-01   -4.746E-01   -4.542E-01   -4.339E-01   -4.136E-01   -3.933E-01
 Cr       Conc. = 7.05E+02
