 LCModel (Version 6.3-1L) Copyright: S.W. Provencher.          Ref.: Magn. Reson. Med. 30:672-679 (1993).                
 Slice#3 Row#11 Col#6  PD_05_press_1_raw_act
 36 lines in following concentration table = NCONC+1
    Conc.  %SD /Cr+PCr  Metabolite                                         
  154.980  53%   0.139 Ala                                                 
    0.000 999%   0.000 Asp                                                 
  432.619  36%   0.388 Cr                                                  
  683.677  23%   0.612 PCr                                                 
    0.000 999%   0.000 GABA                                                
    0.000 999%   0.000 Glc                                                 
  979.148  21%   0.877 Gln                                                 
 1.52E+03  15%   1.359 Glu                                                 
  318.153   4%   0.285 GPC                                                 
    0.000 999%   0.000 PCh                                                 
  374.126  12%   0.335 GSH                                                 
  299.471  57%   0.268 Ins                                                 
  114.099  83%   0.102 Lac                                                 
 1.64E+03   3%   1.468 NAA                                                 
    0.000 999%   0.000 NAAG                                                
   22.908  73% 2.1E-02 Scyllo                                              
    0.000 999%   0.000 Tau                                                 
    0.000 999%   0.000 -CrCH2                                              
  318.153   4%   0.285 GPC+PCh                                             
 1.64E+03   3%   1.468 NAA+NAAG                                            
 1.12E+03   3%   1.000 Cr+PCr                                              
 2.50E+03  15%   2.236 Glu+Gln                                             
  844.318  28%   0.756 Lip13a                                              
    0.000 999%   0.000 Lip13b                                              
    0.000 999%   0.000 Lip09                                               
  699.504  17%   0.627 MM09                                                
  161.074  64%   0.144 Lip20                                               
 1.84E+03  12%   1.647 MM20                                                
  243.930  34%   0.219 MM12                                                
  259.583  67%   0.233 MM14                                                
  297.467  43%   0.266 MM17                                                
  844.318  28%   0.756 Lip13a+Lip13b                                       
 1.35E+03  20%   1.207 MM14+Lip13a+Lip13b+MM12                             
  699.504  17%   0.627 MM09+Lip09                                          
 2.00E+03  11%   1.791 MM20+Lip20                                          
   6 lines in following misc. output table
  FWHM = 0.069 ppm    S/N =  14                                            
  Data shift = 0.015 ppm                                                   
  Ph:   3 deg      -2.1 deg/ppm                                            
  alphaB,S = 4.9E-01,   9.5E+01                                            
   14 spline knots.   Ns = 9(1)                                            
  (17) 5 infls.   (17) 1 extrs.                                            
  498 points on ppm-axis = NY
      4.000000     3.992357     3.984714     3.977070     3.969427     3.961784     3.954141     3.946497     3.938854     3.931211
      3.923568     3.915925     3.908281     3.900638     3.892995     3.885352     3.877708     3.870065     3.862422     3.854779
      3.847136     3.839492     3.831849     3.824206     3.816563     3.808919     3.801276     3.793633     3.785990     3.778347
      3.770703     3.763060     3.755417     3.747774     3.740130     3.732487     3.724844     3.717201     3.709558     3.701914
      3.694271     3.686628     3.678985     3.671341     3.663698     3.656055     3.648412     3.640769     3.633125     3.625482
      3.617839     3.610196     3.602552     3.594909     3.587266     3.579623     3.571980     3.564336     3.556693     3.549050
      3.541407     3.533763     3.526120     3.518477     3.510834     3.503191     3.495547     3.487904     3.480261     3.472618
      3.464974     3.457331     3.449688     3.442045     3.434402     3.426758     3.419115     3.411472     3.403829     3.396185
      3.388542     3.380899     3.373256     3.365613     3.357969     3.350326     3.342683     3.335040     3.327396     3.319753
      3.312110     3.304467     3.296824     3.289180     3.281537     3.273894     3.266251     3.258607     3.250964     3.243321
      3.235678     3.228034     3.220391     3.212748     3.205105     3.197462     3.189818     3.182175     3.174532     3.166889
      3.159245     3.151602     3.143959     3.136316     3.128673     3.121029     3.113386     3.105743     3.098100     3.090456
      3.082813     3.075170     3.067527     3.059884     3.052240     3.044597     3.036954     3.029311     3.021667     3.014024
      3.006381     2.998738     2.991095     2.983451     2.975808     2.968165     2.960522     2.952878     2.945235     2.937592
      2.929949     2.922306     2.914662     2.907019     2.899376     2.891733     2.884089     2.876446     2.868803     2.861160
      2.853517     2.845873     2.838230     2.830587     2.822944     2.815300     2.807657     2.800014     2.792371     2.784728
      2.777084     2.769441     2.761798     2.754155     2.746511     2.738868     2.731225     2.723582     2.715939     2.708295
      2.700652     2.693009     2.685366     2.677722     2.670079     2.662436     2.654793     2.647150     2.639506     2.631863
      2.624220     2.616577     2.608933     2.601290     2.593647     2.586004     2.578361     2.570717     2.563074     2.555431
      2.547788     2.540144     2.532501     2.524858     2.517215     2.509572     2.501928     2.494285     2.486642     2.478999
      2.471355     2.463712     2.456069     2.448426     2.440783     2.433139     2.425496     2.417853     2.410210     2.402566
      2.394923     2.387280     2.379637     2.371994     2.364350     2.356707     2.349064     2.341421     2.333777     2.326134
      2.318491     2.310848     2.303205     2.295561     2.287918     2.280275     2.272632     2.264988     2.257345     2.249702
      2.242059     2.234416     2.226772     2.219129     2.211486     2.203843     2.196199     2.188556     2.180913     2.173270
      2.165627     2.157983     2.150340     2.142697     2.135054     2.127410     2.119767     2.112124     2.104481     2.096838
      2.089194     2.081551     2.073908     2.066265     2.058621     2.050978     2.043335     2.035692     2.028049     2.020405
      2.012762     2.005119     1.997476     1.989833     1.982190     1.974546     1.966903     1.959260     1.951617     1.943974
      1.936331     1.928688     1.921045     1.913402     1.905759     1.898115     1.890472     1.882829     1.875186     1.867543
      1.859900     1.852257     1.844614     1.836971     1.829327     1.821684     1.814041     1.806398     1.798755     1.791112
      1.783469     1.775826     1.768183     1.760540     1.752896     1.745253     1.737610     1.729967     1.722324     1.714681
      1.707038     1.699395     1.691752     1.684108     1.676465     1.668822     1.661179     1.653536     1.645893     1.638250
      1.630607     1.622964     1.615321     1.607677     1.600034     1.592391     1.584748     1.577105     1.569462     1.561819
      1.554176     1.546533     1.538890     1.531246     1.523603     1.515960     1.508317     1.500674     1.493031     1.485388
      1.477745     1.470102     1.462458     1.454815     1.447172     1.439529     1.431886     1.424243     1.416600     1.408957
      1.401314     1.393671     1.386027     1.378384     1.370741     1.363098     1.355455     1.347812     1.340169     1.332526
      1.324883     1.317240     1.309596     1.301953     1.294310     1.286667     1.279024     1.271381     1.263738     1.256095
      1.248452     1.240808     1.233165     1.225522     1.217879     1.210236     1.202593     1.194950     1.187307     1.179664
      1.172021     1.164377     1.156734     1.149091     1.141448     1.133805     1.126162     1.118519     1.110876     1.103233
      1.095590     1.087946     1.080303     1.072660     1.065017     1.057374     1.049731     1.042088     1.034445     1.026802
      1.019158     1.011515     1.003872     0.996229     0.988586     0.980943     0.973300     0.965657     0.958014     0.950371
      0.942727     0.935084     0.927441     0.919798     0.912155     0.904512     0.896869     0.889226     0.881583     0.873940
      0.866296     0.858653     0.851010     0.843367     0.835724     0.828081     0.820438     0.812795     0.805152     0.797508
      0.789865     0.782222     0.774579     0.766936     0.759293     0.751650     0.744007     0.736364     0.728721     0.721077
      0.713434     0.705791     0.698148     0.690505     0.682862     0.675219     0.667576     0.659933     0.652290     0.644646
      0.637003     0.629360     0.621717     0.614074     0.606431     0.598788     0.591145     0.583502     0.575858     0.568215
      0.560572     0.552929     0.545286     0.537643     0.530000     0.522357     0.514714     0.507071     0.499427     0.491784
      0.484141     0.476498     0.468855     0.461212     0.453569     0.445925     0.438282     0.430639     0.422996     0.415353
      0.407710     0.400067     0.392424     0.384780     0.377137     0.369494     0.361851     0.354208     0.346565     0.338922
      0.331278     0.323635     0.315992     0.308349     0.300706     0.293063     0.285420     0.277777     0.270133     0.262490
      0.254847     0.247204     0.239561     0.231918     0.224275     0.216631     0.208988     0.201345
 NY phased data points follow
   3.13150E+01  3.12750E+01  3.09320E+01  3.31157E+01  3.55404E+01  3.71838E+01  4.01581E+01  4.04724E+01  4.34435E+01  4.29836E+01
   4.52166E+01  4.62065E+01  4.38915E+01  4.23568E+01  4.06596E+01  4.00509E+01  3.52278E+01  3.28026E+01  3.12066E+01  3.12919E+01
   3.09017E+01  3.05454E+01  2.92101E+01  2.94863E+01  2.92274E+01  2.84406E+01  2.84233E+01  2.88457E+01  2.83763E+01  2.96063E+01
   3.05206E+01  2.91091E+01  2.99862E+01  2.72949E+01  2.75605E+01  2.54957E+01  2.63781E+01  2.55968E+01  2.52643E+01  2.32532E+01
   2.33446E+01  2.36182E+01  2.37799E+01  2.33092E+01  2.59480E+01  2.42208E+01  2.42800E+01  2.37840E+01  2.42749E+01  2.35921E+01
   2.45163E+01  2.33751E+01  1.76546E+01  2.17624E+01  2.05432E+01  1.69081E+01  1.88561E+01  1.94385E+01  1.66164E+01  1.70197E+01
   1.76931E+01  1.69366E+01  1.68729E+01  1.57362E+01  1.41520E+01  1.58471E+01  1.62081E+01  1.22511E+01  1.32431E+01  1.49574E+01
   1.48035E+01  1.31030E+01  1.36690E+01  1.24961E+01  1.39777E+01  1.13591E+01  1.26815E+01  1.44073E+01  1.17160E+01  1.15495E+01
   1.08872E+01  1.22268E+01  1.47402E+01  1.41562E+01  1.07055E+01  1.10313E+01  1.37517E+01  1.29586E+01  1.34437E+01  1.35712E+01
   1.30252E+01  1.19020E+01  1.22829E+01  1.19919E+01  1.23137E+01  1.30200E+01  1.49550E+01  1.44287E+01  1.83412E+01  2.22587E+01
   2.48412E+01  2.71615E+01  3.11582E+01  3.02583E+01  3.07975E+01  3.04228E+01  2.98512E+01  2.50739E+01  2.57363E+01  1.96965E+01
   2.02547E+01  1.78645E+01  1.50244E+01  1.55467E+01  1.23456E+01  1.30566E+01  1.21502E+01  1.26373E+01  1.35443E+01  1.59082E+01
   1.51108E+01  1.67458E+01  1.98451E+01  2.18959E+01  2.59038E+01  2.82285E+01  3.35718E+01  3.54744E+01  3.51598E+01  3.61671E+01
   3.19531E+01  2.90184E+01  2.44149E+01  2.08713E+01  1.91178E+01  1.27399E+01  1.19906E+01  1.11080E+01  1.09436E+01  9.88619E+00
   9.17323E+00  6.07425E+00  9.29276E+00  8.24203E+00  9.23689E+00  7.52795E+00  6.21197E+00  6.42628E+00  6.26242E+00  6.15942E+00
   6.19611E+00  4.99424E+00  2.85387E+00  5.01062E+00  4.55006E+00  6.23971E+00  5.58602E+00  5.37195E+00  5.27418E+00  6.42774E+00
   3.82118E+00  2.82791E+00  1.68856E+00  2.95774E+00  5.00745E+00  9.55285E-01  4.72286E+00  7.98645E-01  2.95631E+00  1.10929E+00
   9.38964E-02  3.73194E-01  3.34301E-01 -3.16215E+00 -5.70476E-01 -1.39256E+00 -2.87752E+00 -2.19896E+00 -1.49392E+00 -4.45252E+00
  -9.84895E-01 -2.66058E+00 -2.56734E+00 -2.90089E+00 -2.06689E+00 -2.01641E+00  5.47418E-02  6.43206E-01 -6.19105E-01  1.85465E+00
   2.63764E+00  4.82318E+00  7.06631E+00  7.74573E+00  5.87925E+00  6.99671E+00  3.70781E+00  6.03069E+00  5.63195E+00  4.32491E+00
   2.90539E+00  5.90525E+00  5.55806E+00  4.39860E+00  8.01637E+00  4.06434E+00  4.68329E+00  4.30739E+00  2.08341E+00  3.49889E+00
   4.96263E+00  3.58207E+00  6.52613E+00  6.99422E+00  8.64568E+00  9.37723E+00  1.09283E+01  8.16964E+00  7.90842E+00  5.71610E+00
   4.98467E+00  4.96594E+00  4.59344E+00  2.59418E+00  5.38393E+00  6.13427E+00  8.93651E+00  1.05804E+01  1.17213E+01  9.38832E+00
   1.08226E+01  9.50837E+00  7.80863E+00  1.06383E+01  1.03983E+01  9.41011E+00  8.62826E+00  9.19461E+00  8.87082E+00  7.21142E+00
   1.07353E+01  9.71125E+00  9.08994E+00  7.84441E+00  1.09693E+01  9.38431E+00  9.83467E+00  1.17152E+01  1.04359E+01  1.34603E+01
   1.25660E+01  1.49860E+01  1.83253E+01  1.91140E+01  2.32644E+01  2.98467E+01  3.35810E+01  4.01021E+01  4.55056E+01  5.08306E+01
   5.07003E+01  5.01689E+01  4.75527E+01  4.46880E+01  3.64239E+01  3.11645E+01  2.50812E+01  2.22967E+01  1.68023E+01  1.57861E+01
   1.19289E+01  1.29177E+01  9.90688E+00  1.21033E+01  1.03498E+01  9.15981E+00  7.17884E+00  7.70379E+00  6.52508E+00  5.94506E+00
   6.71275E+00  7.88284E+00  7.95532E+00  7.23772E+00  7.90140E+00  8.14460E+00  8.13514E+00  5.75539E+00  7.82011E+00  7.50447E+00
   6.60937E+00  7.13700E+00  7.28535E+00  6.13882E+00  8.14979E+00  6.13278E+00  5.31659E+00  6.74737E+00  6.21241E+00  6.01847E+00
   5.93110E+00  4.87881E+00  5.22115E+00  7.92517E+00  7.26971E+00  6.32577E+00  5.72926E+00  5.64379E+00  6.66969E+00  7.68017E+00
   7.55709E+00  7.48494E+00  8.18712E+00  7.81829E+00  9.12959E+00  8.09412E+00  9.25082E+00  6.45028E+00  5.71414E+00  6.89253E+00
   5.86732E+00  7.96683E+00  7.16997E+00  7.19988E+00  7.43738E+00  6.11646E+00  6.62301E+00  6.40439E+00  4.42682E+00  7.00316E+00
   5.64347E+00  6.18854E+00  6.44168E+00  6.38747E+00  7.14637E+00  6.70142E+00  6.36153E+00  6.53698E+00  6.39370E+00  6.88743E+00
   1.01099E+01  8.49648E+00  8.87074E+00  1.08365E+01  1.02797E+01  9.55358E+00  9.40193E+00  9.58287E+00  1.05485E+01  1.00097E+01
   7.52877E+00  9.74778E+00  7.93125E+00  9.35773E+00  6.63930E+00  8.82092E+00  7.91038E+00  1.08491E+01  1.02808E+01  8.00887E+00
   1.02602E+01  8.94499E+00  8.56995E+00  8.56842E+00  8.86963E+00  7.06847E+00  8.03535E+00  9.01013E+00  6.93068E+00  1.02750E+01
   9.17786E+00  9.40375E+00  7.94842E+00  8.25132E+00  6.06878E+00  9.89239E+00  6.77452E+00  6.92288E+00  8.83477E+00  5.01914E+00
   4.59722E+00  4.70048E+00  6.03363E+00  5.72987E+00  5.78694E+00  4.91615E+00  4.20882E+00  6.06566E+00  5.38663E+00  5.09207E+00
   3.69796E+00  6.35941E+00  7.30324E+00  7.20945E+00  8.14422E+00  4.92108E+00  7.47371E+00  6.58567E+00  7.37034E+00  6.67432E+00
   7.46136E+00  8.75799E+00  5.96832E+00  6.39874E+00  8.11968E+00  6.68627E+00  8.17940E+00  8.11047E+00  9.55385E+00  1.00025E+01
   6.62706E+00  9.58687E+00  5.35211E+00  6.64261E+00  6.34723E+00  7.75568E+00  7.04643E+00  5.39591E+00  5.50866E+00  5.50099E+00
   5.96845E+00  5.12923E+00  5.76911E+00  6.26490E+00  5.72058E+00  6.63943E+00  7.14667E+00  3.50554E+00  5.53811E+00  3.78652E+00
   4.33174E+00  5.04576E+00  2.00879E+00  3.61950E+00  3.81944E+00  4.88839E+00  3.91446E+00  3.78299E+00  3.73585E+00  6.01667E+00
   3.74766E+00  2.05482E+00  3.27116E+00  1.44077E+00  3.16251E+00  2.28114E+00  5.25672E+00  3.55928E+00  2.26495E+00  4.32371E+00
   3.69618E+00  2.56562E+00  2.08153E+00  1.09064E+00  2.29857E+00  2.23776E+00  3.37592E+00  2.86573E+00  3.84450E+00  2.76764E+00
   4.87909E+00  1.44733E+00  2.56933E+00  2.35913E+00  2.17030E+00  2.39512E+00  2.40217E+00  4.34031E+00  2.26085E+00  3.32009E+00
   4.00958E+00  3.07831E+00  2.96925E+00  2.02625E+00  3.79044E+00  2.72580E+00  1.92674E+00  2.73716E+00  5.49144E+00  3.27667E+00
   2.85780E+00  2.65393E+00  3.63961E+00  2.33750E+00  3.62128E+00  3.00197E+00  2.61889E+00  2.99315E+00  1.81364E+00  4.07677E+00
   2.70696E+00  1.35853E+00  2.27685E+00  2.21802E+00  7.38892E-01  2.51100E+00  2.94613E+00  4.36847E+00
 NY points of the fit to the data follow
   3.01495E+01  3.08703E+01  3.14867E+01  3.26910E+01  3.44664E+01  3.63540E+01  3.84447E+01  4.07461E+01  4.28080E+01  4.42745E+01
   4.50984E+01  4.51413E+01  4.42291E+01  4.25521E+01  4.05032E+01  3.83534E+01  3.62495E+01  3.42872E+01  3.24771E+01  3.06388E+01
   2.94033E+01  2.88998E+01  2.81822E+01  2.77292E+01  2.77122E+01  2.79088E+01  2.82502E+01  2.88247E+01  2.95509E+01  3.01939E+01
   3.07357E+01  3.10530E+01  3.07565E+01  2.97589E+01  2.83634E+01  2.68795E+01  2.55075E+01  2.44476E+01  2.38741E+01  2.34506E+01
   2.30566E+01  2.29833E+01  2.30009E+01  2.30392E+01  2.30034E+01  2.30281E+01  2.30308E+01  2.29003E+01  2.26299E+01  2.21749E+01
   2.15850E+01  2.09885E+01  2.04413E+01  1.99480E+01  1.94895E+01  1.91049E+01  1.87710E+01  1.84111E+01  1.80732E+01  1.78096E+01
   1.75604E+01  1.72605E+01  1.69480E+01  1.66475E+01  1.63527E+01  1.60715E+01  1.58209E+01  1.56201E+01  1.54599E+01  1.53077E+01
   1.51549E+01  1.49995E+01  1.48330E+01  1.46654E+01  1.44894E+01  1.43031E+01  1.41180E+01  1.39696E+01  1.38335E+01  1.36619E+01
   1.35088E+01  1.34029E+01  1.33072E+01  1.32132E+01  1.31144E+01  1.29900E+01  1.28206E+01  1.26276E+01  1.24240E+01  1.21989E+01
   1.19760E+01  1.18043E+01  1.17192E+01  1.17725E+01  1.23296E+01  1.39154E+01  1.52906E+01  1.63741E+01  1.82304E+01  2.09202E+01
   2.39294E+01  2.69863E+01  2.97444E+01  3.15569E+01  3.21511E+01  3.16964E+01  3.01487E+01  2.74389E+01  2.40582E+01  2.08257E+01
   1.81786E+01  1.60360E+01  1.43494E+01  1.27458E+01  1.08936E+01  9.93553E+00  9.77317E+00  1.00954E+01  1.14314E+01  1.33637E+01
   1.49772E+01  1.68479E+01  1.96988E+01  2.32850E+01  2.71491E+01  3.08594E+01  3.37486E+01  3.53258E+01  3.55677E+01  3.45188E+01
   3.20976E+01  2.84676E+01  2.43981E+01  2.06671E+01  1.75152E+01  1.49398E+01  1.27594E+01  1.04989E+01  8.69252E+00  7.99058E+00
   7.87621E+00  7.86562E+00  7.81616E+00  7.66445E+00  7.46196E+00  7.26242E+00  7.03374E+00  6.80413E+00  6.57124E+00  6.30095E+00
   6.03920E+00  5.75084E+00  5.43340E+00  5.19516E+00  5.02689E+00  4.87561E+00  4.72814E+00  4.50916E+00  4.25903E+00  4.05241E+00
   3.90138E+00  3.77925E+00  3.66859E+00  3.56113E+00  3.44414E+00  3.29371E+00  3.06590E+00  2.72532E+00  2.36407E+00  2.05356E+00
   1.76293E+00  1.49074E+00  1.16511E+00  8.89359E-01  6.78757E-01  4.95600E-01  3.92760E-01  3.22249E-01  2.49945E-01  2.84029E-01
   4.06997E-01  5.17188E-01  6.11883E-01  7.69937E-01  1.02547E+00  1.40339E+00  1.93915E+00  2.46854E+00  2.92339E+00  3.32398E+00
   3.70544E+00  3.98194E+00  4.05087E+00  3.95580E+00  3.82941E+00  3.82063E+00  4.02458E+00  4.44750E+00  4.94989E+00  5.58578E+00
   6.14467E+00  6.46018E+00  6.77791E+00  6.85468E+00  6.34085E+00  5.46769E+00  4.59109E+00  3.82342E+00  3.02135E+00  2.57519E+00
   2.82120E+00  3.57178E+00  4.61844E+00  5.73610E+00  6.75210E+00  7.42652E+00  7.49189E+00  6.94916E+00  5.92550E+00  4.77722E+00
   3.81070E+00  3.10196E+00  2.92227E+00  3.31503E+00  4.13851E+00  5.17381E+00  6.14498E+00  7.12708E+00  7.98458E+00  8.56682E+00
   8.85208E+00  9.08446E+00  9.46473E+00  9.62638E+00  9.55250E+00  9.68946E+00  9.95912E+00  1.00364E+01  1.00042E+01  9.96191E+00
   9.79244E+00  9.54244E+00  9.34629E+00  9.24904E+00  9.27421E+00  9.50100E+00  9.92468E+00  1.03318E+01  1.07576E+01  1.13130E+01
   1.24875E+01  1.55850E+01  1.89881E+01  2.13585E+01  2.45166E+01  2.92210E+01  3.45901E+01  4.00874E+01  4.53000E+01  4.91232E+01
   5.07767E+01  5.05153E+01  4.83518E+01  4.39354E+01  3.78940E+01  3.17504E+01  2.65788E+01  2.23591E+01  1.90260E+01  1.60780E+01
   1.24560E+01  9.94379E+00  9.14107E+00  8.76377E+00  8.49748E+00  8.32389E+00  8.15327E+00  7.95390E+00  7.74902E+00  7.54938E+00
   7.36358E+00  7.20150E+00  7.05597E+00  6.91352E+00  6.78519E+00  6.68408E+00  6.60376E+00  6.53951E+00  6.48970E+00  6.45451E+00
   6.43840E+00  6.43492E+00  6.43966E+00  6.45454E+00  6.47976E+00  6.51424E+00  6.55633E+00  6.60483E+00  6.65883E+00  6.71481E+00
   6.77066E+00  6.82573E+00  6.87757E+00  6.92380E+00  6.96303E+00  6.99399E+00  7.01574E+00  7.02799E+00  7.03105E+00  7.02556E+00
   7.01254E+00  6.99372E+00  6.97123E+00  6.94765E+00  6.92701E+00  6.91403E+00  6.91626E+00  6.95032E+00  7.04149E+00  7.10867E+00
   7.11294E+00  7.15717E+00  7.23787E+00  7.27992E+00  7.24704E+00  7.12101E+00  6.94197E+00  6.75562E+00  6.49658E+00  6.20305E+00
   5.96733E+00  5.85538E+00  5.91897E+00  6.17519E+00  6.56324E+00  6.99628E+00  7.42478E+00  7.82341E+00  8.24563E+00  8.61872E+00
   8.80683E+00  8.94065E+00  9.08734E+00  9.20831E+00  9.28310E+00  9.24578E+00  9.12402E+00  9.01834E+00  8.86698E+00  8.69850E+00
   8.56531E+00  8.49716E+00  8.53289E+00  8.69286E+00  8.92927E+00  9.17032E+00  9.38209E+00  9.53090E+00  9.62124E+00  9.66658E+00
   9.61278E+00  9.49333E+00  9.33844E+00  9.16334E+00  8.97876E+00  8.74181E+00  8.46767E+00  8.22306E+00  7.99524E+00  7.77528E+00
   7.56136E+00  7.35377E+00  7.15367E+00  6.96250E+00  6.78182E+00  6.61301E+00  6.45727E+00  6.31565E+00  6.18911E+00  6.07856E+00
   5.98476E+00  5.90827E+00  5.84956E+00  5.80905E+00  5.78716E+00  5.78429E+00  5.80070E+00  5.83651E+00  5.89166E+00  5.96597E+00
   6.05911E+00  6.17039E+00  6.29874E+00  6.44260E+00  6.59995E+00  6.76835E+00  6.94485E+00  7.12598E+00  7.30777E+00  7.48584E+00
   7.65562E+00  7.81248E+00  7.95188E+00  8.06944E+00  8.16118E+00  8.22375E+00  8.25459E+00  8.25207E+00  8.21552E+00  8.14516E+00
   8.04219E+00  7.90874E+00  7.74778E+00  7.56295E+00  7.35831E+00  7.13814E+00  6.90685E+00  6.66878E+00  6.42811E+00  6.18862E+00
   5.95359E+00  5.72576E+00  5.50732E+00  5.29999E+00  5.10499E+00  4.92302E+00  4.75432E+00  4.59877E+00  4.45602E+00  4.32556E+00
   4.20671E+00  4.09865E+00  4.00047E+00  3.91129E+00  3.83027E+00  3.75663E+00  3.68963E+00  3.62854E+00  3.57267E+00  3.52144E+00
   3.47436E+00  3.43101E+00  3.39100E+00  3.35391E+00  3.31940E+00  3.28722E+00  3.25717E+00  3.22906E+00  3.20267E+00  3.17781E+00
   3.15432E+00  3.13210E+00  3.11108E+00  3.09117E+00  3.07224E+00  3.05417E+00  3.03691E+00  3.02043E+00  3.00469E+00  2.98964E+00
   2.97518E+00  2.96124E+00  2.94783E+00  2.93494E+00  2.92254E+00  2.91058E+00  2.89899E+00  2.88775E+00  2.87687E+00  2.86635E+00
   2.85618E+00  2.84628E+00  2.83663E+00  2.82722E+00  2.81808E+00  2.80921E+00  2.80057E+00  2.79210E+00  2.78379E+00  2.77566E+00
   2.76774E+00  2.76001E+00  2.75243E+00  2.74495E+00  2.73758E+00  2.73036E+00  2.72329E+00  2.71635E+00  2.70950E+00  2.70271E+00
   2.69600E+00  2.68942E+00  2.68296E+00  2.67658E+00  2.67025E+00  2.66397E+00  2.65777E+00  2.65170E+00
 NY background values follow
     2.721E+01    2.702E+01    2.682E+01    2.662E+01    2.643E+01    2.623E+01    2.603E+01    2.584E+01    2.564E+01    2.545E+01
     2.525E+01    2.505E+01    2.486E+01    2.466E+01    2.446E+01    2.427E+01    2.407E+01    2.388E+01    2.368E+01    2.349E+01
     2.329E+01    2.309E+01    2.290E+01    2.271E+01    2.251E+01    2.232E+01    2.212E+01    2.193E+01    2.174E+01    2.154E+01
     2.135E+01    2.116E+01    2.097E+01    2.078E+01    2.059E+01    2.040E+01    2.021E+01    2.002E+01    1.983E+01    1.964E+01
     1.945E+01    1.926E+01    1.908E+01    1.889E+01    1.871E+01    1.852E+01    1.834E+01    1.815E+01    1.797E+01    1.779E+01
     1.761E+01    1.742E+01    1.724E+01    1.706E+01    1.689E+01    1.671E+01    1.653E+01    1.635E+01    1.618E+01    1.600E+01
     1.583E+01    1.566E+01    1.548E+01    1.531E+01    1.514E+01    1.497E+01    1.480E+01    1.464E+01    1.447E+01    1.430E+01
     1.414E+01    1.397E+01    1.381E+01    1.365E+01    1.349E+01    1.333E+01    1.317E+01    1.301E+01    1.285E+01    1.270E+01
     1.254E+01    1.239E+01    1.224E+01    1.209E+01    1.194E+01    1.179E+01    1.164E+01    1.149E+01    1.135E+01    1.120E+01
     1.106E+01    1.092E+01    1.077E+01    1.064E+01    1.050E+01    1.036E+01    1.022E+01    1.009E+01    9.956E+00    9.823E+00
     9.692E+00    9.562E+00    9.433E+00    9.306E+00    9.180E+00    9.054E+00    8.930E+00    8.807E+00    8.686E+00    8.565E+00
     8.446E+00    8.328E+00    8.211E+00    8.095E+00    7.980E+00    7.867E+00    7.754E+00    7.643E+00    7.533E+00    7.424E+00
     7.316E+00    7.209E+00    7.104E+00    6.999E+00    6.896E+00    6.794E+00    6.693E+00    6.593E+00    6.494E+00    6.396E+00
     6.299E+00    6.203E+00    6.109E+00    6.015E+00    5.923E+00    5.832E+00    5.742E+00    5.652E+00    5.564E+00    5.478E+00
     5.392E+00    5.307E+00    5.224E+00    5.142E+00    5.061E+00    4.981E+00    4.903E+00    4.826E+00    4.750E+00    4.675E+00
     4.602E+00    4.531E+00    4.460E+00    4.392E+00    4.324E+00    4.258E+00    4.194E+00    4.131E+00    4.070E+00    4.010E+00
     3.952E+00    3.895E+00    3.840E+00    3.787E+00    3.735E+00    3.685E+00    3.637E+00    3.590E+00    3.546E+00    3.503E+00
     3.461E+00    3.422E+00    3.384E+00    3.349E+00    3.315E+00    3.283E+00    3.253E+00    3.225E+00    3.199E+00    3.175E+00
     3.153E+00    3.133E+00    3.115E+00    3.099E+00    3.085E+00    3.073E+00    3.062E+00    3.054E+00    3.047E+00    3.042E+00
     3.038E+00    3.036E+00    3.036E+00    3.037E+00    3.039E+00    3.043E+00    3.048E+00    3.054E+00    3.062E+00    3.071E+00
     3.080E+00    3.091E+00    3.103E+00    3.116E+00    3.129E+00    3.144E+00    3.159E+00    3.175E+00    3.191E+00    3.209E+00
     3.226E+00    3.245E+00    3.263E+00    3.283E+00    3.302E+00    3.322E+00    3.342E+00    3.362E+00    3.383E+00    3.403E+00
     3.424E+00    3.445E+00    3.465E+00    3.486E+00    3.506E+00    3.526E+00    3.546E+00    3.565E+00    3.584E+00    3.603E+00
     3.622E+00    3.640E+00    3.658E+00    3.675E+00    3.692E+00    3.709E+00    3.726E+00    3.742E+00    3.758E+00    3.774E+00
     3.789E+00    3.804E+00    3.819E+00    3.833E+00    3.848E+00    3.861E+00    3.875E+00    3.888E+00    3.901E+00    3.913E+00
     3.926E+00    3.938E+00    3.949E+00    3.961E+00    3.972E+00    3.982E+00    3.993E+00    4.003E+00    4.013E+00    4.022E+00
     4.031E+00    4.040E+00    4.049E+00    4.057E+00    4.065E+00    4.073E+00    4.080E+00    4.087E+00    4.094E+00    4.100E+00
     4.106E+00    4.112E+00    4.118E+00    4.123E+00    4.128E+00    4.132E+00    4.137E+00    4.141E+00    4.144E+00    4.148E+00
     4.151E+00    4.154E+00    4.156E+00    4.159E+00    4.161E+00    4.162E+00    4.164E+00    4.165E+00    4.166E+00    4.166E+00
     4.167E+00    4.167E+00    4.167E+00    4.166E+00    4.165E+00    4.164E+00    4.163E+00    4.161E+00    4.159E+00    4.157E+00
     4.155E+00    4.152E+00    4.149E+00    4.146E+00    4.142E+00    4.139E+00    4.135E+00    4.130E+00    4.126E+00    4.121E+00
     4.116E+00    4.111E+00    4.105E+00    4.099E+00    4.093E+00    4.087E+00    4.080E+00    4.074E+00    4.067E+00    4.059E+00
     4.052E+00    4.044E+00    4.036E+00    4.028E+00    4.020E+00    4.011E+00    4.002E+00    3.993E+00    3.984E+00    3.974E+00
     3.965E+00    3.955E+00    3.945E+00    3.934E+00    3.924E+00    3.913E+00    3.902E+00    3.891E+00    3.880E+00    3.869E+00
     3.857E+00    3.846E+00    3.834E+00    3.822E+00    3.810E+00    3.798E+00    3.785E+00    3.773E+00    3.760E+00    3.747E+00
     3.734E+00    3.721E+00    3.708E+00    3.694E+00    3.681E+00    3.667E+00    3.654E+00    3.640E+00    3.626E+00    3.612E+00
     3.598E+00    3.584E+00    3.570E+00    3.555E+00    3.541E+00    3.526E+00    3.512E+00    3.497E+00    3.482E+00    3.468E+00
     3.453E+00    3.438E+00    3.423E+00    3.409E+00    3.394E+00    3.379E+00    3.364E+00    3.349E+00    3.334E+00    3.320E+00
     3.305E+00    3.290E+00    3.275E+00    3.261E+00    3.246E+00    3.232E+00    3.217E+00    3.203E+00    3.188E+00    3.174E+00
     3.160E+00    3.146E+00    3.132E+00    3.118E+00    3.105E+00    3.091E+00    3.078E+00    3.064E+00    3.051E+00    3.038E+00
     3.025E+00    3.013E+00    3.000E+00    2.988E+00    2.976E+00    2.964E+00    2.952E+00    2.940E+00    2.929E+00    2.918E+00
     2.907E+00    2.896E+00    2.885E+00    2.875E+00    2.865E+00    2.855E+00    2.845E+00    2.836E+00    2.826E+00    2.817E+00
     2.808E+00    2.799E+00    2.790E+00    2.782E+00    2.773E+00    2.765E+00    2.757E+00    2.749E+00    2.741E+00    2.734E+00
     2.726E+00    2.719E+00    2.712E+00    2.705E+00    2.698E+00    2.691E+00    2.684E+00    2.678E+00    2.671E+00    2.665E+00
     2.659E+00    2.653E+00    2.647E+00    2.642E+00    2.636E+00    2.630E+00    2.625E+00    2.620E+00    2.614E+00    2.609E+00
     2.604E+00    2.599E+00    2.595E+00    2.590E+00    2.585E+00    2.581E+00    2.576E+00    2.572E+00    2.567E+00    2.563E+00
     2.559E+00    2.555E+00    2.551E+00    2.547E+00    2.543E+00    2.539E+00    2.535E+00    2.531E+00    2.528E+00    2.524E+00
     2.520E+00    2.517E+00    2.513E+00    2.510E+00    2.506E+00    2.503E+00    2.499E+00    2.496E+00    2.493E+00    2.489E+00
     2.486E+00    2.483E+00    2.479E+00    2.476E+00    2.473E+00    2.470E+00    2.466E+00    2.463E+00    2.460E+00    2.456E+00
     2.453E+00    2.450E+00    2.446E+00    2.443E+00    2.440E+00    2.436E+00    2.433E+00    2.429E+00
 Ala      Conc. = 1.55E+02
