 LCModel (Version 6.3-1L) Copyright: S.W. Provencher.          Ref.: Magn. Reson. Med. 30:672-679 (1993).                
 Slice#1 Row#13 Col#1  PD_05_press_1_raw_act
 36 lines in following concentration table = NCONC+1
    Conc.  %SD /Cr+PCr  Metabolite                                         
  120.559  49%   1.846 Ala                                                 
    7.198 106%   0.110 Asp                                                 
   65.315  26%   1.000 Cr                                                  
    0.000 999%   0.000 PCr                                                 
    4.464 102% 6.8E-02 GABA                                                
    4.315 106% 6.6E-02 Glc                                                 
  171.616  58%   2.628 Gln                                                 
   99.335 127%   1.521 Glu                                                 
    0.000 999%   0.000 GPC                                                 
    0.000 999%   0.000 PCh                                                 
  110.687  25%   1.695 GSH                                                 
  222.510  35%   3.407 Ins                                                 
  216.426  28%   3.314 Lac                                                 
   43.731  63%   0.670 NAA                                                 
   45.666  57%   0.699 NAAG                                                
    1.412 107% 2.2E-02 Scyllo                                              
    5.461 140% 8.4E-02 Tau                                                 
    0.000 999%   0.000 -CrCH2                                              
    0.000 999%   0.000 GPC+PCh                                             
   89.397  23%   1.369 NAA+NAAG                                            
   65.315  26%   1.000 Cr+PCr                                              
  270.951  60%   4.148 Glu+Gln                                             
    0.000 999%   0.000 Lip13a                                              
   73.376  39%   1.123 Lip13b                                              
   13.861 105%   0.212 Lip09                                               
    0.000 999%   0.000 MM09                                                
   10.961  92%   0.168 Lip20                                               
    0.000 999%   0.000 MM20                                                
    0.000 999%   0.000 MM12                                                
 1.19E-02 999% 1.8E-04 MM14                                                
 1.34E-02 999% 2.0E-04 MM17                                                
   73.376  39%   1.123 Lip13a+Lip13b                                       
   73.388  39%   1.124 MM14+Lip13a+Lip13b+MM12                             
   13.861 105%   0.212 MM09+Lip09                                          
   10.961  92%   0.168 MM20+Lip20                                          
   6 lines in following misc. output table
  FWHM = 0.130 ppm    S/N =   1                                            
  Data shift = 0.000 ppm                                                   
  Ph: 137 deg     -25.3 deg/ppm                                            
  alphaB,S = 7.4E-01,   2.9E+00                                            
   14 spline knots.   Ns = 8(1)                                            
  (14)11 infls.   (15)13 extrs.                                            
  498 points on ppm-axis = NY
      4.000000     3.992357     3.984714     3.977070     3.969427     3.961784     3.954141     3.946497     3.938854     3.931211
      3.923568     3.915925     3.908281     3.900638     3.892995     3.885352     3.877708     3.870065     3.862422     3.854779
      3.847136     3.839492     3.831849     3.824206     3.816563     3.808919     3.801276     3.793633     3.785990     3.778347
      3.770703     3.763060     3.755417     3.747774     3.740130     3.732487     3.724844     3.717201     3.709558     3.701914
      3.694271     3.686628     3.678985     3.671341     3.663698     3.656055     3.648412     3.640769     3.633125     3.625482
      3.617839     3.610196     3.602552     3.594909     3.587266     3.579623     3.571980     3.564336     3.556693     3.549050
      3.541407     3.533763     3.526120     3.518477     3.510834     3.503191     3.495547     3.487904     3.480261     3.472618
      3.464974     3.457331     3.449688     3.442045     3.434402     3.426758     3.419115     3.411472     3.403829     3.396185
      3.388542     3.380899     3.373256     3.365613     3.357969     3.350326     3.342683     3.335040     3.327396     3.319753
      3.312110     3.304467     3.296824     3.289180     3.281537     3.273894     3.266251     3.258607     3.250964     3.243321
      3.235678     3.228034     3.220391     3.212748     3.205105     3.197462     3.189818     3.182175     3.174532     3.166889
      3.159245     3.151602     3.143959     3.136316     3.128673     3.121029     3.113386     3.105743     3.098100     3.090456
      3.082813     3.075170     3.067527     3.059884     3.052240     3.044597     3.036954     3.029311     3.021667     3.014024
      3.006381     2.998738     2.991095     2.983451     2.975808     2.968165     2.960522     2.952878     2.945235     2.937592
      2.929949     2.922306     2.914662     2.907019     2.899376     2.891733     2.884089     2.876446     2.868803     2.861160
      2.853517     2.845873     2.838230     2.830587     2.822944     2.815300     2.807657     2.800014     2.792371     2.784728
      2.777084     2.769441     2.761798     2.754155     2.746511     2.738868     2.731225     2.723582     2.715939     2.708295
      2.700652     2.693009     2.685366     2.677722     2.670079     2.662436     2.654793     2.647150     2.639506     2.631863
      2.624220     2.616577     2.608933     2.601290     2.593647     2.586004     2.578361     2.570717     2.563074     2.555431
      2.547788     2.540144     2.532501     2.524858     2.517215     2.509572     2.501928     2.494285     2.486642     2.478999
      2.471355     2.463712     2.456069     2.448426     2.440783     2.433139     2.425496     2.417853     2.410210     2.402566
      2.394923     2.387280     2.379637     2.371994     2.364350     2.356707     2.349064     2.341421     2.333777     2.326134
      2.318491     2.310848     2.303205     2.295561     2.287918     2.280275     2.272632     2.264988     2.257345     2.249702
      2.242059     2.234416     2.226772     2.219129     2.211486     2.203843     2.196199     2.188556     2.180913     2.173270
      2.165627     2.157983     2.150340     2.142697     2.135054     2.127410     2.119767     2.112124     2.104481     2.096838
      2.089194     2.081551     2.073908     2.066265     2.058621     2.050978     2.043335     2.035692     2.028049     2.020405
      2.012762     2.005119     1.997476     1.989833     1.982190     1.974546     1.966903     1.959260     1.951617     1.943974
      1.936331     1.928688     1.921045     1.913402     1.905759     1.898115     1.890472     1.882829     1.875186     1.867543
      1.859900     1.852257     1.844614     1.836971     1.829327     1.821684     1.814041     1.806398     1.798755     1.791112
      1.783469     1.775826     1.768183     1.760540     1.752896     1.745253     1.737610     1.729967     1.722324     1.714681
      1.707038     1.699395     1.691752     1.684108     1.676465     1.668822     1.661179     1.653536     1.645893     1.638250
      1.630607     1.622964     1.615321     1.607677     1.600034     1.592391     1.584748     1.577105     1.569462     1.561819
      1.554176     1.546533     1.538890     1.531246     1.523603     1.515960     1.508317     1.500674     1.493031     1.485388
      1.477745     1.470102     1.462458     1.454815     1.447172     1.439529     1.431886     1.424243     1.416600     1.408957
      1.401314     1.393671     1.386027     1.378384     1.370741     1.363098     1.355455     1.347812     1.340169     1.332526
      1.324883     1.317240     1.309596     1.301953     1.294310     1.286667     1.279024     1.271381     1.263738     1.256095
      1.248452     1.240808     1.233165     1.225522     1.217879     1.210236     1.202593     1.194950     1.187307     1.179664
      1.172021     1.164377     1.156734     1.149091     1.141448     1.133805     1.126162     1.118519     1.110876     1.103233
      1.095590     1.087946     1.080303     1.072660     1.065017     1.057374     1.049731     1.042088     1.034445     1.026802
      1.019158     1.011515     1.003872     0.996229     0.988586     0.980943     0.973300     0.965657     0.958014     0.950371
      0.942727     0.935084     0.927441     0.919798     0.912155     0.904512     0.896869     0.889226     0.881583     0.873940
      0.866296     0.858653     0.851010     0.843367     0.835724     0.828081     0.820438     0.812795     0.805152     0.797508
      0.789865     0.782222     0.774579     0.766936     0.759293     0.751650     0.744007     0.736364     0.728721     0.721077
      0.713434     0.705791     0.698148     0.690505     0.682862     0.675219     0.667576     0.659933     0.652290     0.644646
      0.637003     0.629360     0.621717     0.614074     0.606431     0.598788     0.591145     0.583502     0.575858     0.568215
      0.560572     0.552929     0.545286     0.537643     0.530000     0.522357     0.514714     0.507071     0.499427     0.491784
      0.484141     0.476498     0.468855     0.461212     0.453569     0.445925     0.438282     0.430639     0.422996     0.415353
      0.407710     0.400067     0.392424     0.384780     0.377137     0.369494     0.361851     0.354208     0.346565     0.338922
      0.331278     0.323635     0.315992     0.308349     0.300706     0.293063     0.285420     0.277777     0.270133     0.262490
      0.254847     0.247204     0.239561     0.231918     0.224275     0.216631     0.208988     0.201345
 NY phased data points follow
   8.70940E+00  8.30938E+00  8.04713E+00  9.20221E+00  5.38500E+00  8.40032E+00  7.66780E+00  7.94157E+00  7.41941E+00  7.29669E+00
   8.21987E+00  4.93535E+00  8.15928E+00  5.79907E+00  8.15349E+00  7.26737E+00  8.97359E+00  6.37923E+00  7.62608E+00  7.78514E+00
   6.28132E+00  8.22321E+00  7.80393E+00  8.38021E+00  5.68996E+00  6.86390E+00  6.19177E+00  5.83399E+00  7.03364E+00  4.67258E+00
   8.66196E+00  4.62447E+00  5.84951E+00  6.35461E+00  4.68356E+00  9.07242E+00  5.38143E+00  6.68237E+00  5.75582E+00  6.61227E+00
   4.58758E+00  5.07307E+00  5.21913E+00  6.23061E+00  7.48605E+00  3.06896E+00  6.16774E+00  3.61327E+00  5.15243E+00  4.93167E+00
   4.95035E+00  6.36613E+00  5.28976E+00  5.58289E+00  5.38848E+00  4.28483E+00  5.28896E+00  4.69199E+00  5.18482E+00  2.82215E+00
   5.04324E+00  4.87755E+00  3.73404E+00  3.77251E+00  4.01787E+00  3.90175E+00  4.57141E+00  5.62825E+00  3.39353E+00  3.80299E+00
   4.68317E+00  4.70981E+00  4.66022E+00  3.74750E+00  5.50800E+00  4.38094E+00  4.16479E+00  3.85125E+00  3.69899E+00  4.86872E+00
   2.66263E+00  4.56075E+00  2.91664E+00  4.24716E+00  3.07148E+00  4.23287E+00  3.24519E+00  3.43702E+00  3.72910E+00  5.62034E+00
   2.68266E+00  2.94372E+00  3.59677E+00  2.34508E+00  4.24275E+00  3.35375E+00  2.99753E+00  3.44625E+00  3.42325E+00  2.34275E+00
   4.18374E+00  1.53755E+00  4.63298E+00  5.08904E+00  4.22217E+00  3.40552E+00  2.23578E+00  2.52084E+00  2.43168E+00  2.24687E+00
   2.95023E+00  2.34071E+00  2.27602E+00  9.79101E-01  3.41093E+00  3.94246E+00  1.76279E+00  1.78635E+00  2.09029E+00  2.85392E+00
   3.30940E+00  1.39060E+00  2.95874E+00  4.89742E-01  3.39867E+00  3.93995E+00  3.52186E+00  4.56478E+00  4.24578E+00  6.06301E+00
   3.60035E+00  5.33883E+00  4.54187E+00  4.01341E+00  2.96635E+00  2.51247E+00  3.99640E+00  2.03455E+00  4.80634E+00  4.36060E+00
   3.06619E+00  4.63334E+00  1.84920E+00  4.43456E+00  2.75755E+00  5.34974E+00  2.61389E+00  3.03007E+00  2.63175E+00  3.23713E+00
   4.39218E+00  2.90158E+00  2.56101E+00  2.80176E+00  2.37213E+00  3.64630E+00  2.61659E+00  1.49244E+00  2.87680E+00  2.67731E+00
   2.26184E+00  4.30989E+00  2.70461E+00  3.76880E+00  3.81569E+00  3.50336E+00  3.27628E+00  2.45695E+00  3.13946E+00  1.09746E+00
   2.90541E+00  1.73345E+00  1.26902E+00  3.49225E+00  2.47730E+00  1.92886E+00  2.19077E+00  2.10162E+00  1.27924E+00  4.15712E+00
   1.64257E+00  1.34261E+00  2.90314E+00 -1.01906E-01  2.54118E+00 -1.93204E-02  2.75932E+00  8.71950E-01  1.47412E+00  1.99255E+00
   3.68422E+00  3.68669E+00  2.09687E+00  2.62188E+00  1.46291E+00  2.62378E+00  1.79517E+00  1.30414E+00  1.75813E+00  2.70008E+00
   3.45431E+00  3.29270E+00  3.68574E+00  2.53971E+00  4.15881E+00  2.78740E+00  4.07551E+00  2.42210E+00  3.78872E+00  3.19072E+00
   2.84516E+00  3.20888E+00  1.27669E+00  3.73297E+00  2.95569E+00  1.90251E+00  1.69970E+00  9.85585E-01  2.42913E+00  4.66257E+00
   1.37361E+00  4.17151E+00  3.16996E+00  1.90514E+00  2.91534E+00  3.84632E+00  1.43499E+00  3.03506E+00  1.68004E+00  2.75416E+00
   2.05921E+00  3.99909E+00  2.84643E+00  3.30552E+00  4.34973E-01  2.80517E-01  2.06144E+00  1.65195E+00  2.23173E+00  2.53391E+00
   2.03348E+00  2.27621E+00  2.50596E+00  2.50578E+00  1.52934E+00  3.33926E+00  2.85947E+00  2.18760E+00  2.16398E+00  6.85478E-01
   3.29687E+00  3.79278E+00  2.35783E+00  3.83271E+00  1.03808E+00  3.84245E+00  1.17550E+00  4.28174E+00  5.17971E+00  2.34927E+00
   3.18430E+00  3.57003E+00  2.99888E+00  5.38371E+00  4.63165E+00  2.33093E+00  4.31658E+00  1.48687E+00  2.33890E+00  2.25690E+00
   2.17166E+00  1.74495E+00  1.34970E+00  1.76524E+00  3.74735E+00  2.61969E+00  3.24171E+00  1.43238E+00  2.41229E+00  2.55037E+00
   3.40739E+00  2.28298E+00  1.81915E+00  1.69512E+00  1.03341E+00  3.03860E+00  1.59404E+00  2.55228E+00  2.26589E+00  2.80433E+00
   2.91590E+00  1.75547E+00  2.29808E+00  1.78253E+00  1.81573E+00  2.20416E+00  1.86187E+00  1.42278E+00  6.91207E-02  2.47999E+00
   1.66593E+00  2.83456E+00  2.26031E+00  2.54177E+00  1.28896E+00  2.72956E+00  3.06634E+00  2.33074E+00  4.19419E+00  1.39654E+00
   1.91829E+00  2.92218E+00  2.92357E+00  2.48205E+00  1.95708E+00  2.47390E+00  1.59240E+00  1.53437E+00  2.28717E+00  2.63367E+00
   3.36690E+00  2.78029E+00  1.41028E+00  1.48174E+00  1.28356E+00  3.92324E+00  1.36772E+00  2.92930E+00  3.38906E+00  2.01023E+00
   2.04599E+00  2.39571E+00  2.45646E+00  1.73785E+00  4.46198E-01  1.79645E+00  1.55028E+00  1.44487E+00  3.14811E+00  3.05821E+00
   2.58182E+00  1.51650E+00  2.03114E+00  1.43805E+00  2.32067E+00  3.01764E+00  2.24713E+00  1.97561E+00  1.85827E+00  4.72947E+00
   1.17240E+00  2.21691E+00  3.55011E+00  1.86333E+00  3.09402E+00  1.57184E+00  1.90028E+00  2.74496E+00  7.87189E-01  1.85166E+00
   1.61432E+00  3.79188E+00  1.96422E+00  2.29960E+00  2.68223E+00  2.23258E+00  2.72794E+00  2.39152E-01  1.95707E+00  9.31667E-01
   2.07363E+00  1.07721E-01 -3.95739E-01  2.27990E+00  4.50780E-01  3.03543E+00 -1.00067E-01  8.99116E-01 -3.14947E-01  1.37855E+00
   1.92863E+00  1.75327E-01  4.02922E+00  2.04164E-02  1.18911E+00 -1.21786E+00  2.18597E+00  1.49279E+00  6.86587E-01  2.76862E+00
  -2.02386E-01  2.84317E+00  1.66534E+00  9.33616E-01  1.97495E+00  1.38860E+00  1.04164E+00 -1.44901E+00  1.85034E+00  4.13549E-01
   6.45122E-01  9.06889E-02 -1.28571E+00 -6.81384E-01 -6.01012E-01  5.41553E-01  1.77550E+00 -3.83324E-01  9.70843E-01  5.68925E-02
   1.00325E+00  1.36419E+00  7.72560E-01 -1.67563E-01  8.79793E-01  1.38635E+00  1.89994E-01  1.14323E+00  1.49763E+00  9.18558E-01
   4.33257E-01  6.76758E-01  1.33196E+00  7.29348E-01 -2.40663E-01  7.66062E-01  1.73138E+00 -3.01310E-01  1.88261E+00 -4.94258E-01
   6.75592E-01  6.58905E-01  1.45387E-01  5.34160E-01  1.28074E+00  8.28007E-01 -3.54670E-01 -1.06593E+00 -8.99934E-01 -1.09707E-01
   1.08271E+00  8.25823E-01  5.48756E-01  1.59872E+00  1.10926E+00  4.76146E-02 -1.14119E-01 -9.35118E-02  1.18378E+00  1.99868E-01
   6.50794E-01 -5.62223E-01  2.01116E+00  3.27409E-01  3.84387E-01 -4.35603E-01  3.32561E-01  1.29594E+00  2.10851E-01 -9.14890E-01
   2.32038E-01  8.21942E-01  7.36331E-01  8.00694E-01  5.90458E-01 -9.75976E-02  7.35901E-01  8.67558E-01 -5.67014E-01 -1.59939E+00
   1.56023E+00  2.64008E-01  2.02100E-01  7.54613E-01  1.09282E+00  2.04213E-01  1.24890E+00 -2.01076E-02 -1.00866E+00  1.63247E+00
  -6.56633E-02  9.97367E-01  1.31009E+00 -2.46778E-01  2.16590E-01 -1.47209E-01  8.93639E-01  2.34302E-01  1.17837E+00  4.33764E-02
  -8.18361E-02 -3.31952E-01  3.46426E-01  1.11181E+00 -8.23217E-01  7.13049E-01 -4.21540E-01 -7.28017E-01
 NY points of the fit to the data follow
   6.86740E+00  6.96015E+00  6.64344E+00  6.72850E+00  6.48845E+00  6.32645E+00  6.26066E+00  6.12575E+00  6.47089E+00  6.59600E+00
   6.56151E+00  6.25800E+00  6.52002E+00  6.86098E+00  6.44527E+00  6.69704E+00  6.86539E+00  6.53468E+00  6.24917E+00  6.20189E+00
   6.00149E+00  5.85860E+00  6.51204E+00  6.77045E+00  6.15988E+00  6.49995E+00  6.12009E+00  6.29755E+00  6.78259E+00  6.74563E+00
   6.70597E+00  6.19140E+00  7.02758E+00  6.68395E+00  6.21633E+00  7.15993E+00  6.99100E+00  6.50206E+00  6.62611E+00  6.87242E+00
   6.10509E+00  5.53048E+00  5.24228E+00  5.09370E+00  5.07061E+00  5.26472E+00  5.51769E+00  5.44031E+00  5.25933E+00  5.45180E+00
   5.57103E+00  5.50394E+00  5.67137E+00  5.68989E+00  5.42105E+00  5.08693E+00  5.01010E+00  4.78645E+00  4.56014E+00  4.55607E+00
   4.55668E+00  4.76080E+00  4.75177E+00  4.72843E+00  4.95675E+00  4.86457E+00  4.81618E+00  4.79635E+00  4.67390E+00  4.61926E+00
   4.55908E+00  4.51307E+00  4.42450E+00  4.46726E+00  4.57736E+00  4.48610E+00  4.51397E+00  4.54501E+00  4.44889E+00  4.23809E+00
   4.21348E+00  4.11638E+00  4.02769E+00  4.02651E+00  3.97350E+00  3.90491E+00  3.79630E+00  3.80572E+00  3.79003E+00  3.69031E+00
   3.60298E+00  3.56971E+00  3.48682E+00  3.43829E+00  3.47952E+00  3.44681E+00  3.46041E+00  3.45296E+00  3.59950E+00  3.59650E+00
   3.54622E+00  3.54265E+00  3.47359E+00  3.41682E+00  3.37245E+00  3.35456E+00  3.28924E+00  3.31022E+00  3.31889E+00  3.33889E+00
   3.39241E+00  3.40559E+00  3.39976E+00  3.42110E+00  3.45807E+00  3.45178E+00  3.49969E+00  3.57755E+00  3.84978E+00  4.33520E+00
   3.81551E+00  3.85824E+00  3.91709E+00  3.71689E+00  4.28696E+00  4.48513E+00  4.58359E+00  3.94339E+00  4.29794E+00  4.71208E+00
   3.94378E+00  4.58685E+00  4.99043E+00  4.27261E+00  4.03141E+00  4.19614E+00  3.70559E+00  3.17529E+00  3.09512E+00  3.33722E+00
   3.01533E+00  2.99099E+00  3.04679E+00  2.85459E+00  2.94192E+00  2.94176E+00  3.04028E+00  3.16200E+00  3.21855E+00  3.12790E+00
   3.11951E+00  3.03233E+00  2.86125E+00  2.77731E+00  2.79232E+00  2.76383E+00  2.73030E+00  2.70982E+00  2.67809E+00  2.63244E+00
   2.62092E+00  2.62849E+00  2.61112E+00  2.62538E+00  2.62429E+00  2.60085E+00  2.59251E+00  2.54631E+00  2.48550E+00  2.50585E+00
   2.52665E+00  2.49387E+00  2.47561E+00  2.45785E+00  2.40050E+00  2.40738E+00  2.47167E+00  2.40154E+00  2.32613E+00  2.38863E+00
   2.33528E+00  2.35269E+00  2.46069E+00  2.47931E+00  2.44937E+00  2.43028E+00  2.40019E+00  2.34383E+00  2.30319E+00  2.35059E+00
   2.29888E+00  2.34495E+00  2.55501E+00  2.57145E+00  2.72066E+00  2.61533E+00  2.51190E+00  2.72271E+00  2.64559E+00  2.46272E+00
   2.31443E+00  2.23627E+00  1.86380E+00  2.10162E+00  2.60230E+00  2.51252E+00  2.70768E+00  2.82606E+00  2.79702E+00  2.63909E+00
   2.82729E+00  2.59322E+00  1.93465E+00  2.32674E+00  2.19472E+00  1.85087E+00  2.21730E+00  2.56308E+00  2.58258E+00  2.64593E+00
   2.92563E+00  2.94762E+00  2.83838E+00  2.62685E+00  2.44373E+00  2.39554E+00  2.41212E+00  2.26694E+00  2.22005E+00  2.50444E+00
   2.57675E+00  2.49426E+00  2.71021E+00  2.65954E+00  2.31109E+00  2.25372E+00  2.51766E+00  2.19832E+00  2.09649E+00  2.48990E+00
   2.36486E+00  2.06826E+00  2.20703E+00  2.69892E+00  2.24556E+00  2.11277E+00  2.50126E+00  2.38822E+00  2.50697E+00  2.17735E+00
   2.42985E+00  2.41955E+00  2.82160E+00  3.39265E+00  3.23092E+00  3.44361E+00  2.96175E+00  3.45477E+00  3.92219E+00  3.51234E+00
   3.70201E+00  3.61544E+00  3.71674E+00  3.30904E+00  3.25986E+00  3.32917E+00  2.89644E+00  2.48463E+00  2.58917E+00  2.54559E+00
   2.09031E+00  1.97454E+00  1.97676E+00  1.95980E+00  1.92866E+00  1.94815E+00  1.95244E+00  1.95090E+00  1.95041E+00  1.95445E+00
   1.95583E+00  1.95176E+00  1.94083E+00  1.93201E+00  1.92986E+00  1.91681E+00  1.90676E+00  1.91073E+00  1.91162E+00  1.90315E+00
   1.90244E+00  1.90424E+00  1.89615E+00  1.88961E+00  1.89165E+00  1.88365E+00  1.87955E+00  1.88117E+00  1.87725E+00  1.87686E+00
   1.87563E+00  1.87140E+00  1.87122E+00  1.86515E+00  1.86308E+00  1.86589E+00  1.86677E+00  1.86761E+00  1.87433E+00  1.88058E+00
   1.88751E+00  1.89673E+00  1.90821E+00  1.92355E+00  1.94493E+00  1.97439E+00  2.01778E+00  2.08805E+00  2.22221E+00  2.45465E+00
   2.14545E+00  1.72864E+00  2.00409E+00  1.78367E+00  1.93536E+00  2.12887E+00  1.75308E+00  1.75703E+00  2.22940E+00  2.33941E+00
   1.91356E+00  1.66973E+00  1.86412E+00  1.66890E+00  1.57543E+00  1.86186E+00  1.30556E+00  1.64183E+00  2.39352E+00  2.55667E+00
   2.46812E+00  2.41557E+00  2.61787E+00  2.24111E+00  3.12748E+00  2.93401E+00  2.26578E+00  2.64669E+00  2.80199E+00  3.29874E+00
   2.31415E+00  1.96014E+00  2.87656E+00  2.17455E+00  2.18993E+00  1.81437E+00  1.30424E+00  1.90172E+00  1.42370E+00  1.89792E+00
   3.08114E+00  2.88222E+00  2.41611E+00  2.96480E+00  2.78532E+00  2.04829E+00  1.69839E+00  1.51437E+00  1.39945E+00  1.32203E+00
   1.26743E+00  1.22739E+00  1.19673E+00  1.17216E+00  1.15165E+00  1.13406E+00  1.11871E+00  1.10506E+00  1.09262E+00  1.08108E+00
   1.07027E+00  1.06022E+00  1.05090E+00  1.04220E+00  1.03395E+00  1.02606E+00  1.01856E+00  1.01154E+00  1.00499E+00  9.98811E-01
   9.92887E-01  9.87179E-01  9.81738E-01  9.76591E-01  9.71675E-01  9.66844E-01  9.61973E-01  9.57022E-01  9.51995E-01  9.46848E-01
   9.41448E-01  9.35637E-01  9.29316E-01  9.22473E-01  9.15122E-01  9.07220E-01  8.98679E-01  8.89432E-01  8.79503E-01  8.68988E-01
   8.57974E-01  8.46495E-01  8.34556E-01  8.22208E-01  8.09577E-01  7.96810E-01  7.84012E-01  7.71208E-01  7.58418E-01  7.45713E-01
   7.33194E-01  7.20950E-01  7.09001E-01  6.97311E-01  6.85853E-01  6.74663E-01  6.63793E-01  6.53246E-01  6.42978E-01  6.32923E-01
   6.23050E-01  6.13386E-01  6.03954E-01  5.94730E-01  5.85647E-01  5.76658E-01  5.67761E-01  5.58989E-01  5.50357E-01  5.41827E-01
   5.33342E-01  5.24881E-01  5.16471E-01  5.08143E-01  4.99898E-01  4.91694E-01  4.83486E-01  4.75282E-01  4.67121E-01  4.59026E-01
   4.50974E-01  4.42928E-01  4.34865E-01  4.26806E-01  4.18793E-01  4.10828E-01  4.02886E-01  3.94927E-01  3.86949E-01  3.78992E-01
   3.71078E-01  3.63199E-01  3.55318E-01  3.47418E-01  3.39508E-01  3.31624E-01  3.23786E-01  3.15962E-01  3.08123E-01  3.00264E-01
   2.92414E-01  2.84596E-01  2.76810E-01  2.69029E-01  2.61224E-01  2.53408E-01  2.45613E-01  2.37854E-01  2.30115E-01  2.22367E-01
   2.14602E-01  2.06839E-01  1.99107E-01  1.91408E-01  1.83720E-01  1.76019E-01  1.68310E-01  1.60620E-01  1.52969E-01  1.45347E-01
   1.37732E-01  1.30111E-01  1.22502E-01  1.14931E-01  1.07406E-01  9.99154E-02  9.24409E-02  8.49869E-02
 NY background values follow
     5.767E+00    5.743E+00    5.719E+00    5.695E+00    5.671E+00    5.647E+00    5.623E+00    5.598E+00    5.574E+00    5.550E+00
     5.526E+00    5.502E+00    5.478E+00    5.454E+00    5.430E+00    5.406E+00    5.382E+00    5.358E+00    5.335E+00    5.311E+00
     5.287E+00    5.263E+00    5.239E+00    5.215E+00    5.192E+00    5.168E+00    5.144E+00    5.120E+00    5.097E+00    5.073E+00
     5.050E+00    5.026E+00    5.003E+00    4.979E+00    4.956E+00    4.932E+00    4.909E+00    4.886E+00    4.863E+00    4.840E+00
     4.817E+00    4.794E+00    4.771E+00    4.748E+00    4.725E+00    4.702E+00    4.679E+00    4.657E+00    4.634E+00    4.612E+00
     4.589E+00    4.567E+00    4.545E+00    4.523E+00    4.501E+00    4.478E+00    4.457E+00    4.435E+00    4.413E+00    4.391E+00
     4.370E+00    4.348E+00    4.327E+00    4.305E+00    4.284E+00    4.263E+00    4.242E+00    4.221E+00    4.200E+00    4.179E+00
     4.159E+00    4.138E+00    4.118E+00    4.097E+00    4.077E+00    4.057E+00    4.037E+00    4.017E+00    3.997E+00    3.977E+00
     3.958E+00    3.938E+00    3.919E+00    3.900E+00    3.880E+00    3.861E+00    3.843E+00    3.824E+00    3.805E+00    3.787E+00
     3.768E+00    3.750E+00    3.732E+00    3.714E+00    3.696E+00    3.678E+00    3.661E+00    3.643E+00    3.626E+00    3.608E+00
     3.591E+00    3.574E+00    3.557E+00    3.541E+00    3.524E+00    3.508E+00    3.491E+00    3.475E+00    3.459E+00    3.443E+00
     3.427E+00    3.411E+00    3.395E+00    3.380E+00    3.365E+00    3.349E+00    3.334E+00    3.319E+00    3.304E+00    3.289E+00
     3.275E+00    3.260E+00    3.246E+00    3.231E+00    3.217E+00    3.203E+00    3.189E+00    3.175E+00    3.162E+00    3.148E+00
     3.135E+00    3.121E+00    3.108E+00    3.095E+00    3.082E+00    3.069E+00    3.056E+00    3.044E+00    3.031E+00    3.019E+00
     3.006E+00    2.994E+00    2.982E+00    2.970E+00    2.958E+00    2.946E+00    2.934E+00    2.923E+00    2.911E+00    2.900E+00
     2.889E+00    2.878E+00    2.867E+00    2.856E+00    2.845E+00    2.834E+00    2.823E+00    2.813E+00    2.802E+00    2.792E+00
     2.781E+00    2.771E+00    2.761E+00    2.751E+00    2.741E+00    2.731E+00    2.721E+00    2.711E+00    2.702E+00    2.692E+00
     2.683E+00    2.673E+00    2.664E+00    2.654E+00    2.645E+00    2.636E+00    2.627E+00    2.618E+00    2.609E+00    2.600E+00
     2.591E+00    2.583E+00    2.574E+00    2.565E+00    2.557E+00    2.548E+00    2.540E+00    2.532E+00    2.523E+00    2.515E+00
     2.507E+00    2.499E+00    2.491E+00    2.483E+00    2.475E+00    2.467E+00    2.459E+00    2.451E+00    2.443E+00    2.435E+00
     2.428E+00    2.420E+00    2.413E+00    2.405E+00    2.398E+00    2.390E+00    2.383E+00    2.375E+00    2.368E+00    2.361E+00
     2.353E+00    2.346E+00    2.339E+00    2.332E+00    2.325E+00    2.318E+00    2.311E+00    2.304E+00    2.297E+00    2.290E+00
     2.283E+00    2.276E+00    2.269E+00    2.262E+00    2.255E+00    2.248E+00    2.242E+00    2.235E+00    2.228E+00    2.221E+00
     2.215E+00    2.208E+00    2.201E+00    2.195E+00    2.188E+00    2.181E+00    2.175E+00    2.168E+00    2.162E+00    2.155E+00
     2.149E+00    2.142E+00    2.136E+00    2.129E+00    2.123E+00    2.116E+00    2.110E+00    2.103E+00    2.097E+00    2.090E+00
     2.084E+00    2.077E+00    2.071E+00    2.064E+00    2.058E+00    2.051E+00    2.045E+00    2.038E+00    2.032E+00    2.025E+00
     2.019E+00    2.012E+00    2.006E+00    1.999E+00    1.992E+00    1.986E+00    1.979E+00    1.973E+00    1.966E+00    1.959E+00
     1.953E+00    1.946E+00    1.940E+00    1.933E+00    1.926E+00    1.919E+00    1.913E+00    1.906E+00    1.899E+00    1.892E+00
     1.886E+00    1.879E+00    1.872E+00    1.865E+00    1.858E+00    1.851E+00    1.844E+00    1.837E+00    1.830E+00    1.823E+00
     1.816E+00    1.809E+00    1.802E+00    1.795E+00    1.788E+00    1.781E+00    1.774E+00    1.766E+00    1.759E+00    1.752E+00
     1.744E+00    1.737E+00    1.730E+00    1.722E+00    1.715E+00    1.708E+00    1.700E+00    1.693E+00    1.685E+00    1.678E+00
     1.670E+00    1.662E+00    1.655E+00    1.647E+00    1.639E+00    1.631E+00    1.624E+00    1.616E+00    1.608E+00    1.600E+00
     1.592E+00    1.584E+00    1.576E+00    1.568E+00    1.560E+00    1.552E+00    1.544E+00    1.536E+00    1.528E+00    1.519E+00
     1.511E+00    1.503E+00    1.495E+00    1.486E+00    1.478E+00    1.470E+00    1.461E+00    1.453E+00    1.445E+00    1.436E+00
     1.428E+00    1.419E+00    1.411E+00    1.402E+00    1.394E+00    1.385E+00    1.377E+00    1.368E+00    1.360E+00    1.351E+00
     1.342E+00    1.334E+00    1.325E+00    1.316E+00    1.308E+00    1.299E+00    1.290E+00    1.282E+00    1.273E+00    1.264E+00
     1.256E+00    1.247E+00    1.238E+00    1.229E+00    1.221E+00    1.212E+00    1.203E+00    1.194E+00    1.186E+00    1.177E+00
     1.168E+00    1.159E+00    1.150E+00    1.142E+00    1.133E+00    1.124E+00    1.115E+00    1.107E+00    1.098E+00    1.089E+00
     1.080E+00    1.071E+00    1.063E+00    1.054E+00    1.045E+00    1.036E+00    1.028E+00    1.019E+00    1.010E+00    1.001E+00
     9.925E-01    9.838E-01    9.751E-01    9.663E-01    9.576E-01    9.489E-01    9.402E-01    9.315E-01    9.228E-01    9.141E-01
     9.054E-01    8.968E-01    8.881E-01    8.795E-01    8.708E-01    8.622E-01    8.536E-01    8.450E-01    8.364E-01    8.278E-01
     8.193E-01    8.107E-01    8.022E-01    7.937E-01    7.852E-01    7.766E-01    7.682E-01    7.597E-01    7.512E-01    7.428E-01
     7.343E-01    7.259E-01    7.174E-01    7.090E-01    7.006E-01    6.922E-01    6.838E-01    6.755E-01    6.671E-01    6.587E-01
     6.504E-01    6.421E-01    6.337E-01    6.254E-01    6.171E-01    6.088E-01    6.005E-01    5.922E-01    5.840E-01    5.757E-01
     5.674E-01    5.592E-01    5.510E-01    5.427E-01    5.345E-01    5.263E-01    5.181E-01    5.099E-01    5.017E-01    4.935E-01
     4.853E-01    4.771E-01    4.690E-01    4.608E-01    4.527E-01    4.445E-01    4.364E-01    4.282E-01    4.201E-01    4.120E-01
     4.039E-01    3.958E-01    3.876E-01    3.795E-01    3.714E-01    3.633E-01    3.553E-01    3.472E-01    3.391E-01    3.310E-01
     3.229E-01    3.148E-01    3.068E-01    2.987E-01    2.906E-01    2.826E-01    2.745E-01    2.664E-01    2.584E-01    2.503E-01
     2.423E-01    2.342E-01    2.261E-01    2.181E-01    2.100E-01    2.020E-01    1.939E-01    1.858E-01    1.778E-01    1.697E-01
     1.617E-01    1.536E-01    1.455E-01    1.375E-01    1.294E-01    1.213E-01    1.132E-01    1.052E-01
 Ala      Conc. = 1.21E+02
