 LCModel (Version 6.3-1L) Copyright: S.W. Provencher.          Ref.: Magn. Reson. Med. 30:672-679 (1993).                
 Slice#2 Row#12 Col#13  PD_05_press_1_raw_act
 36 lines in following concentration table = NCONC+1
    Conc.  %SD /Cr+PCr  Metabolite                                         
 4.36E+03  15% 203.062 Ala                                                 
    1.135 404% 5.3E-02 Asp                                                 
   21.481 111%   1.000 Cr                                                  
    0.000 999%   0.000 PCr                                                 
    0.676 408% 3.1E-02 GABA                                                
    0.721 384% 3.4E-02 Glc                                                 
    0.000 999%   0.000 Gln                                                 
  612.700  55%  28.522 Glu                                                 
    0.000 999%   0.000 GPC                                                 
    0.869 990% 4.0E-02 PCh                                                 
   18.321 251%   0.853 GSH                                                 
    0.000 999%   0.000 Ins                                                 
 3.65E+03  19% 170.073 Lac                                                 
    0.000 999%   0.000 NAA                                                 
    0.000 999%   0.000 NAAG                                                
    0.251 367% 1.2E-02 Scyllo                                              
    1.201 381% 5.6E-02 Tau                                                 
    2.368 280%   0.110 -CrCH2                                              
    0.869 990% 4.0E-02 GPC+PCh                                             
    0.000 999%   0.000 NAA+NAAG                                            
   21.481 111%   1.000 Cr+PCr                                              
  612.700  55%  28.522 Glu+Gln                                             
 2.06E+03  29%  95.677 Lip13a                                              
    0.000 999%   0.000 Lip13b                                              
  844.361  23%  39.307 Lip09                                               
 1.11E+03  14%  51.720 MM09                                                
    0.000 999%   0.000 Lip20                                               
    0.000 999%   0.000-MM20                                                
  324.477  40%  15.105 MM12                                                
 3.83E+03  12% 178.472+MM14                                                
 2.41E+03  13% 112.356+MM17                                                
 2.06E+03  29%  95.677 Lip13a+Lip13b                                       
 6.21E+03  12% 289.254 MM14+Lip13a+Lip13b+MM12                             
 1.96E+03  12%  91.027 MM09+Lip09                                          
    0.000 999%   0.000 MM20+Lip20                                          
   6 lines in following misc. output table
  FWHM = 0.153 ppm    S/N =  18                                            
  Data shift = 0.153 ppm                                                   
  Ph: 141 deg      17.3 deg/ppm                                            
  alphaB,S = 3.6E+00,   3.6E+02                                            
    7 spline knots.   Ns = 9(2)                                            
  (11) 6 infls.   ( 1) 1 extrs.                                            
  498 points on ppm-axis = NY
      4.000000     3.992357     3.984714     3.977070     3.969427     3.961784     3.954141     3.946497     3.938854     3.931211
      3.923568     3.915925     3.908281     3.900638     3.892995     3.885352     3.877708     3.870065     3.862422     3.854779
      3.847136     3.839492     3.831849     3.824206     3.816563     3.808919     3.801276     3.793633     3.785990     3.778347
      3.770703     3.763060     3.755417     3.747774     3.740130     3.732487     3.724844     3.717201     3.709558     3.701914
      3.694271     3.686628     3.678985     3.671341     3.663698     3.656055     3.648412     3.640769     3.633125     3.625482
      3.617839     3.610196     3.602552     3.594909     3.587266     3.579623     3.571980     3.564336     3.556693     3.549050
      3.541407     3.533763     3.526120     3.518477     3.510834     3.503191     3.495547     3.487904     3.480261     3.472618
      3.464974     3.457331     3.449688     3.442045     3.434402     3.426758     3.419115     3.411472     3.403829     3.396185
      3.388542     3.380899     3.373256     3.365613     3.357969     3.350326     3.342683     3.335040     3.327396     3.319753
      3.312110     3.304467     3.296824     3.289180     3.281537     3.273894     3.266251     3.258607     3.250964     3.243321
      3.235678     3.228034     3.220391     3.212748     3.205105     3.197462     3.189818     3.182175     3.174532     3.166889
      3.159245     3.151602     3.143959     3.136316     3.128673     3.121029     3.113386     3.105743     3.098100     3.090456
      3.082813     3.075170     3.067527     3.059884     3.052240     3.044597     3.036954     3.029311     3.021667     3.014024
      3.006381     2.998738     2.991095     2.983451     2.975808     2.968165     2.960522     2.952878     2.945235     2.937592
      2.929949     2.922306     2.914662     2.907019     2.899376     2.891733     2.884089     2.876446     2.868803     2.861160
      2.853517     2.845873     2.838230     2.830587     2.822944     2.815300     2.807657     2.800014     2.792371     2.784728
      2.777084     2.769441     2.761798     2.754155     2.746511     2.738868     2.731225     2.723582     2.715939     2.708295
      2.700652     2.693009     2.685366     2.677722     2.670079     2.662436     2.654793     2.647150     2.639506     2.631863
      2.624220     2.616577     2.608933     2.601290     2.593647     2.586004     2.578361     2.570717     2.563074     2.555431
      2.547788     2.540144     2.532501     2.524858     2.517215     2.509572     2.501928     2.494285     2.486642     2.478999
      2.471355     2.463712     2.456069     2.448426     2.440783     2.433139     2.425496     2.417853     2.410210     2.402566
      2.394923     2.387280     2.379637     2.371994     2.364350     2.356707     2.349064     2.341421     2.333777     2.326134
      2.318491     2.310848     2.303205     2.295561     2.287918     2.280275     2.272632     2.264988     2.257345     2.249702
      2.242059     2.234416     2.226772     2.219129     2.211486     2.203843     2.196199     2.188556     2.180913     2.173270
      2.165627     2.157983     2.150340     2.142697     2.135054     2.127410     2.119767     2.112124     2.104481     2.096838
      2.089194     2.081551     2.073908     2.066265     2.058621     2.050978     2.043335     2.035692     2.028049     2.020405
      2.012762     2.005119     1.997476     1.989833     1.982190     1.974546     1.966903     1.959260     1.951617     1.943974
      1.936331     1.928688     1.921045     1.913402     1.905759     1.898115     1.890472     1.882829     1.875186     1.867543
      1.859900     1.852257     1.844614     1.836971     1.829327     1.821684     1.814041     1.806398     1.798755     1.791112
      1.783469     1.775826     1.768183     1.760540     1.752896     1.745253     1.737610     1.729967     1.722324     1.714681
      1.707038     1.699395     1.691752     1.684108     1.676465     1.668822     1.661179     1.653536     1.645893     1.638250
      1.630607     1.622964     1.615321     1.607677     1.600034     1.592391     1.584748     1.577105     1.569462     1.561819
      1.554176     1.546533     1.538890     1.531246     1.523603     1.515960     1.508317     1.500674     1.493031     1.485388
      1.477745     1.470102     1.462458     1.454815     1.447172     1.439529     1.431886     1.424243     1.416600     1.408957
      1.401314     1.393671     1.386027     1.378384     1.370741     1.363098     1.355455     1.347812     1.340169     1.332526
      1.324883     1.317240     1.309596     1.301953     1.294310     1.286667     1.279024     1.271381     1.263738     1.256095
      1.248452     1.240808     1.233165     1.225522     1.217879     1.210236     1.202593     1.194950     1.187307     1.179664
      1.172021     1.164377     1.156734     1.149091     1.141448     1.133805     1.126162     1.118519     1.110876     1.103233
      1.095590     1.087946     1.080303     1.072660     1.065017     1.057374     1.049731     1.042088     1.034445     1.026802
      1.019158     1.011515     1.003872     0.996229     0.988586     0.980943     0.973300     0.965657     0.958014     0.950371
      0.942727     0.935084     0.927441     0.919798     0.912155     0.904512     0.896869     0.889226     0.881583     0.873940
      0.866296     0.858653     0.851010     0.843367     0.835724     0.828081     0.820438     0.812795     0.805152     0.797508
      0.789865     0.782222     0.774579     0.766936     0.759293     0.751650     0.744007     0.736364     0.728721     0.721077
      0.713434     0.705791     0.698148     0.690505     0.682862     0.675219     0.667576     0.659933     0.652290     0.644646
      0.637003     0.629360     0.621717     0.614074     0.606431     0.598788     0.591145     0.583502     0.575858     0.568215
      0.560572     0.552929     0.545286     0.537643     0.530000     0.522357     0.514714     0.507071     0.499427     0.491784
      0.484141     0.476498     0.468855     0.461212     0.453569     0.445925     0.438282     0.430639     0.422996     0.415353
      0.407710     0.400067     0.392424     0.384780     0.377137     0.369494     0.361851     0.354208     0.346565     0.338922
      0.331278     0.323635     0.315992     0.308349     0.300706     0.293063     0.285420     0.277777     0.270133     0.262490
      0.254847     0.247204     0.239561     0.231918     0.224275     0.216631     0.208988     0.201345
 NY phased data points follow
  -3.83556E+00 -2.50254E+00 -2.28549E+00 -1.88123E+00 -2.74092E+00 -2.02372E+00 -2.94898E+00 -2.55547E+00 -2.59812E+00 -2.58502E+00
  -2.99424E+00 -1.18995E+00 -3.35436E+00 -1.63704E+00 -6.98747E-01 -1.30402E+00 -3.16379E+00 -1.24568E+00 -2.74867E+00 -2.93970E+00
  -3.51271E+00 -1.66652E+00 -3.32458E+00 -2.58556E+00 -1.15190E+00 -2.71522E+00 -2.74965E+00 -2.79404E+00 -1.76713E+00 -2.55377E+00
  -1.60984E+00 -3.29117E+00 -3.41863E+00 -1.82217E+00 -2.51728E+00 -2.30455E+00 -3.09336E+00 -2.16973E+00 -2.55420E+00 -3.39221E+00
  -3.17335E+00 -3.22999E+00 -2.16095E+00 -1.97088E+00 -1.72187E+00 -3.43656E+00 -1.54585E+00 -2.66391E+00 -3.53702E+00 -2.08205E+00
  -2.32669E+00 -3.29705E+00 -2.90654E+00 -2.59705E+00 -3.25026E+00 -2.84484E+00 -1.66510E+00 -2.26791E+00 -1.66322E+00 -2.09393E+00
  -1.14361E+00 -3.24681E+00 -4.03589E+00 -2.35937E+00 -2.18245E+00 -2.03660E+00 -2.10331E+00 -2.84065E+00 -2.49833E+00 -2.63138E+00
  -1.76874E+00 -2.72890E+00 -9.71398E-01 -3.33256E+00 -1.69960E+00 -3.10720E+00 -9.25886E-01 -2.86166E+00 -1.69878E+00 -2.52436E+00
  -3.59421E+00 -3.23947E+00 -3.62463E+00 -1.88450E+00 -1.79407E+00 -1.40539E+00 -3.23088E+00 -7.57010E-01 -3.34640E+00 -1.98194E+00
  -2.34899E+00 -2.50870E+00 -1.86385E+00 -2.10458E+00 -2.40488E+00 -2.90114E+00 -1.84187E+00 -2.92911E+00 -1.20938E+00 -2.41516E+00
  -2.21730E+00 -1.88687E+00 -3.17994E+00 -3.60706E+00 -2.76006E+00 -2.59848E+00 -1.58207E+00 -2.77463E+00 -2.23736E+00 -2.81376E+00
  -3.30716E+00 -2.86096E+00 -4.11735E-01 -1.54216E+00 -1.97810E+00 -1.69540E+00 -3.03891E+00 -1.81815E+00 -2.97287E+00 -2.92666E+00
  -2.85595E+00 -3.27759E+00 -2.32879E+00 -1.61745E+00 -3.16438E+00 -1.84025E+00 -2.28325E+00 -2.38529E+00 -1.82949E+00 -1.53208E+00
  -2.73958E+00 -1.89031E+00 -2.50226E+00 -2.23467E+00 -2.71664E+00 -2.67148E+00 -2.59251E+00 -1.97592E+00 -1.47892E+00 -2.60516E+00
  -2.42149E+00 -2.08337E+00 -2.24334E+00 -3.15920E+00 -1.11634E+00 -3.06682E+00 -2.34834E+00 -3.59286E+00 -3.09234E+00 -2.43929E+00
  -2.22453E+00 -2.30700E+00 -3.77720E+00 -3.74602E+00 -3.01578E+00 -2.70175E+00 -2.09389E+00 -3.21295E+00 -2.10119E+00 -2.00327E+00
  -2.32489E+00 -2.65893E+00 -3.72707E+00 -2.22102E+00 -3.77834E+00 -1.46746E+00 -2.84973E+00 -2.93910E+00 -2.68514E+00 -1.63851E+00
  -2.48000E+00 -3.43556E+00 -2.58702E+00 -3.20095E+00 -3.29757E+00 -1.57642E+00 -3.13383E+00 -3.08351E+00 -2.66860E+00 -2.88391E+00
  -2.14242E+00 -1.76013E+00 -2.76358E+00 -2.02891E+00 -1.69320E+00 -2.67366E+00 -3.33166E+00 -2.96429E+00 -2.08487E+00 -1.54574E+00
  -2.58490E+00 -1.98018E+00 -3.59953E+00 -3.90494E+00 -3.16397E+00 -3.28577E+00 -5.19532E+00 -2.77919E+00 -3.81707E+00 -3.29135E+00
  -2.44537E+00 -3.91849E+00 -2.91458E+00 -3.05006E+00 -3.16126E+00 -2.68325E+00 -4.34130E+00 -4.41038E+00 -4.07073E+00 -3.46653E+00
  -3.25740E+00 -4.62358E+00 -3.07191E+00 -4.44581E+00 -2.76756E+00 -3.11980E+00 -3.89667E+00 -3.57830E+00 -4.40777E+00 -3.65088E+00
  -3.20652E+00 -2.82423E+00 -4.48604E+00 -4.38479E+00 -2.83314E+00 -3.95829E+00 -3.14384E+00 -3.99815E+00 -2.60032E+00 -3.93798E+00
  -4.29199E+00 -4.02474E+00 -4.57999E+00 -3.07247E+00 -3.39828E+00 -4.41036E+00 -4.53154E+00 -4.32263E+00 -3.81513E+00 -3.46081E+00
  -3.90756E+00 -2.79968E+00 -2.15261E+00 -2.19551E+00 -4.37036E+00 -1.65264E+00 -1.83352E+00 -1.27903E+00 -1.50934E+00 -2.92947E+00
  -3.42973E+00 -2.39667E+00 -1.74733E+00 -2.09085E+00 -1.70971E+00 -2.83190E+00 -1.60853E+00 -1.89409E+00 -2.17338E+00 -1.17219E+00
  -2.30681E+00 -7.12513E-01 -1.25776E+00 -1.45403E+00 -1.17265E+00 -4.10601E-01 -8.10830E-01 -8.21574E-01 -1.13228E+00 -8.10556E-01
  -3.95297E-01 -1.97642E-01 -4.64871E-01  1.36821E+00  1.26849E+00 -1.44109E-02  9.03866E-01  3.92317E-03  1.47007E+00  2.71865E+00
   3.06466E+00  3.31164E+00  4.63765E+00  2.53664E+00  4.51438E+00  4.18823E+00  6.34064E+00  8.37033E+00  5.38560E+00  7.14500E+00
   8.84988E+00  7.53357E+00  1.02973E+01  9.62008E+00  9.53856E+00  1.14541E+01  1.27914E+01  1.40976E+01  1.31538E+01  1.38319E+01
   1.63151E+01  1.63751E+01  1.75202E+01  1.86534E+01  1.95189E+01  2.10969E+01  2.21855E+01  2.37042E+01  2.42755E+01  2.46616E+01
   2.63458E+01  2.70367E+01  2.87263E+01  2.94253E+01  3.10072E+01  2.97686E+01  3.18795E+01  3.25073E+01  3.34095E+01  3.49786E+01
   3.57053E+01  3.47144E+01  3.44777E+01  3.63872E+01  3.66660E+01  3.68935E+01  3.55452E+01  3.55852E+01  3.50209E+01  3.63812E+01
   3.59784E+01  3.57730E+01  3.51053E+01  3.38438E+01  3.33389E+01  3.41518E+01  3.21340E+01  3.06350E+01  3.03141E+01  3.00508E+01
   2.99506E+01  2.79466E+01  2.70145E+01  2.67527E+01  2.50843E+01  2.40439E+01  2.41753E+01  2.21108E+01  2.04799E+01  2.06351E+01
   2.25599E+01  2.03101E+01  1.87513E+01  1.76785E+01  1.81780E+01  1.83938E+01  1.82333E+01  1.74765E+01  1.86486E+01  1.56951E+01
   1.81533E+01  1.64449E+01  1.82681E+01  1.56596E+01  1.48947E+01  1.59212E+01  1.66338E+01  1.63157E+01  1.68811E+01  1.57629E+01
   1.52111E+01  1.39149E+01  1.31106E+01  1.35414E+01  1.52473E+01  1.38493E+01  1.37685E+01  1.42215E+01  1.32897E+01  1.43662E+01
   1.31384E+01  1.14891E+01  1.40595E+01  1.31720E+01  1.35381E+01  1.30855E+01  1.32559E+01  1.12316E+01  1.21669E+01  1.13213E+01
   1.29137E+01  1.15873E+01  1.08771E+01  1.08900E+01  1.02064E+01  1.05595E+01  9.47565E+00  1.01288E+01  1.02554E+01  9.91910E+00
   9.08665E+00  9.74247E+00  8.54264E+00  8.75480E+00  7.97555E+00  8.39039E+00  7.05637E+00  8.27907E+00  7.24075E+00  7.67847E+00
   6.69930E+00  7.89487E+00  7.44879E+00  8.01692E+00  8.43394E+00  6.28769E+00  5.26631E+00  5.44878E+00  7.16717E+00  5.48405E+00
   6.11930E+00  5.05941E+00  6.12877E+00  6.23451E+00  6.06046E+00  5.30426E+00  5.13779E+00  4.82852E+00  5.12995E+00  4.54754E+00
   4.85678E+00  4.81504E+00  3.84216E+00  3.98254E+00  3.94342E+00  4.55591E+00  2.50587E+00  3.79109E+00  2.49189E+00  3.77614E+00
   2.57971E+00  2.64953E+00  3.62609E+00  1.73869E+00  3.73652E+00  3.24060E+00  2.81093E+00  2.33096E+00  2.85774E+00  2.87097E+00
   2.52060E+00  1.74801E+00  2.80014E+00  1.75480E+00  2.25611E+00  1.95033E+00  2.60271E+00  1.79699E+00  1.56867E+00  1.72946E+00
   1.48739E+00  1.73765E+00  2.43027E+00  7.69472E-01  2.59771E+00  6.79329E-01  1.24324E+00  1.44871E+00  1.08230E+00  2.11036E+00
   1.77529E+00  1.69137E+00  2.19545E+00  1.95144E+00  3.99097E-01 -1.63309E-01  1.63266E+00  1.24544E+00  2.16097E+00 -9.51487E-01
  -4.87033E-02  6.34291E-01  8.27885E-01  4.11658E-01  5.92518E-02  1.88859E+00  1.17488E+00  1.89268E-01 -3.17806E-01  5.94799E-01
   9.86398E-01 -1.01416E-01 -9.12238E-02 -3.07945E-01  3.81091E-01  6.70371E-01 -1.17368E+00  4.50422E-01
 NY points of the fit to the data follow
  -3.14655E+00 -2.33270E+00 -3.02955E+00 -2.32207E+00 -2.78297E+00 -2.10196E+00 -2.43294E+00 -1.81602E+00 -2.23250E+00 -1.74144E+00
  -2.26285E+00 -1.91091E+00 -2.48764E+00 -2.07603E+00 -2.71707E+00 -2.13062E+00 -2.70225E+00 -2.01936E+00 -2.59364E+00 -1.96469E+00
  -2.63343E+00 -2.00572E+00 -2.70414E+00 -2.16420E+00 -2.82986E+00 -2.38188E+00 -2.93222E+00 -2.54980E+00 -2.93428E+00 -2.64777E+00
  -2.84963E+00 -2.65100E+00 -2.63342E+00 -2.53270E+00 -2.39719E+00 -2.47744E+00 -2.30398E+00 -2.52893E+00 -2.29597E+00 -2.65880E+00
  -2.41788E+00 -2.76311E+00 -2.41309E+00 -2.68348E+00 -2.31516E+00 -2.58434E+00 -2.21013E+00 -2.41526E+00 -2.18553E+00 -2.45264E+00
  -2.33792E+00 -2.55202E+00 -2.46501E+00 -2.64799E+00 -2.59662E+00 -2.63560E+00 -2.53439E+00 -2.52262E+00 -2.44901E+00 -2.43111E+00
  -2.38168E+00 -2.36058E+00 -2.35894E+00 -2.36037E+00 -2.36473E+00 -2.36722E+00 -2.37172E+00 -2.37342E+00 -2.37704E+00 -2.37796E+00
  -2.38079E+00 -2.38126E+00 -2.38342E+00 -2.38361E+00 -2.38504E+00 -2.38530E+00 -2.38623E+00 -2.38660E+00 -2.38709E+00 -2.38758E+00
  -2.38764E+00 -2.38823E+00 -2.38811E+00 -2.38865E+00 -2.38807E+00 -2.38730E+00 -2.38596E+00 -2.38527E+00 -2.38376E+00 -2.38351E+00
  -2.38186E+00 -2.38178E+00 -2.37995E+00 -2.38040E+00 -2.37847E+00 -2.37952E+00 -2.37751E+00 -2.37939E+00 -2.37753E+00 -2.38065E+00
  -2.37908E+00 -2.38342E+00 -2.38252E+00 -2.38807E+00 -2.38779E+00 -2.39406E+00 -2.39386E+00 -2.39897E+00 -2.39363E+00 -2.38415E+00
  -2.37998E+00 -2.36356E+00 -2.36347E+00 -2.34192E+00 -2.34482E+00 -2.31424E+00 -2.32198E+00 -2.28810E+00 -2.30247E+00 -2.26582E+00
  -2.28782E+00 -2.24939E+00 -2.27859E+00 -2.24301E+00 -2.27775E+00 -2.24680E+00 -2.28707E+00 -2.26622E+00 -2.31065E+00 -2.30138E+00
  -2.34698E+00 -2.34824E+00 -2.39290E+00 -2.40498E+00 -2.44498E+00 -2.46241E+00 -2.49727E+00 -2.51929E+00 -2.54966E+00 -2.57688E+00
  -2.60197E+00 -2.63100E+00 -2.65155E+00 -2.68202E+00 -2.69770E+00 -2.72574E+00 -2.73899E+00 -2.76551E+00 -2.77490E+00 -2.79371E+00
  -2.80289E+00 -2.81994E+00 -2.82991E+00 -2.84609E+00 -2.85691E+00 -2.87150E+00 -2.88288E+00 -2.89709E+00 -2.90943E+00 -2.92299E+00
  -2.93577E+00 -2.94835E+00 -2.96097E+00 -2.97260E+00 -2.98456E+00 -2.99590E+00 -3.00737E+00 -3.01917E+00 -3.03045E+00 -3.04256E+00
  -3.05311E+00 -3.06474E+00 -3.07352E+00 -3.08420E+00 -3.09094E+00 -3.10114E+00 -3.10647E+00 -3.11646E+00 -3.12047E+00 -3.13050E+00
  -3.13303E+00 -3.14025E+00 -3.14058E+00 -3.14426E+00 -3.14215E+00 -3.14126E+00 -3.13519E+00 -3.12600E+00 -3.11615E+00 -3.11300E+00
  -3.09656E+00 -3.10918E+00 -3.09929E+00 -3.12121E+00 -3.11200E+00 -3.13151E+00 -3.09698E+00 -3.08468E+00 -2.98772E+00 -3.00727E+00
  -2.87746E+00 -2.95314E+00 -2.80765E+00 -2.95989E+00 -2.83014E+00 -3.05260E+00 -2.88289E+00 -3.13813E+00 -2.92675E+00 -3.21175E+00
  -2.98274E+00 -3.29435E+00 -3.05167E+00 -3.37983E+00 -3.14045E+00 -3.47181E+00 -3.24028E+00 -3.54539E+00 -3.32312E+00 -3.57868E+00
  -3.37718E+00 -3.56755E+00 -3.38995E+00 -3.49712E+00 -3.33986E+00 -3.38779E+00 -3.24306E+00 -3.24172E+00 -3.12546E+00 -3.09784E+00
  -3.01559E+00 -2.98321E+00 -2.93564E+00 -2.88862E+00 -2.84307E+00 -2.78508E+00 -2.73633E+00 -2.66204E+00 -2.59896E+00 -2.55945E+00
  -2.52477E+00 -2.50494E+00 -2.47366E+00 -2.46121E+00 -2.45029E+00 -2.42281E+00 -2.39585E+00 -2.34609E+00 -2.31539E+00 -2.24057E+00
  -2.21616E+00 -2.11752E+00 -2.09471E+00 -1.98103E+00 -1.95933E+00 -1.82549E+00 -1.79857E+00 -1.65328E+00 -1.62199E+00 -1.47432E+00
  -1.43937E+00 -1.29289E+00 -1.25005E+00 -1.10450E+00 -1.05108E+00 -9.09677E-01 -8.35400E-01 -6.89654E-01 -5.96829E-01 -4.45815E-01
  -3.25443E-01 -1.62580E-01 -1.79449E-02  1.58214E-01  3.38565E-01  5.42853E-01  7.63434E-01  1.01013E+00  1.28282E+00  1.58133E+00
   1.91155E+00  2.28260E+00  2.69280E+00  3.14981E+00  3.65078E+00  4.20473E+00  4.80518E+00  5.45495E+00  6.15349E+00  6.89676E+00
   7.68170E+00  8.50267E+00  9.35258E+00  1.02219E+01  1.11025E+01  1.19854E+01  1.28598E+01  1.37173E+01  1.45495E+01  1.53531E+01
   1.61255E+01  1.68711E+01  1.75965E+01  1.83186E+01  1.90584E+01  1.98509E+01  2.07465E+01  2.18360E+01  2.32978E+01  2.51237E+01
   2.62408E+01  2.79103E+01  2.85826E+01  3.00541E+01  3.03584E+01  3.16029E+01  3.12257E+01  3.29557E+01  3.27948E+01  3.47198E+01
   3.43998E+01  3.59834E+01  3.52252E+01  3.64567E+01  3.55748E+01  3.63784E+01  3.53509E+01  3.58196E+01  3.52609E+01  3.61129E+01
   3.55966E+01  3.56053E+01  3.50578E+01  3.42831E+01  3.40820E+01  3.27194E+01  3.23427E+01  3.11089E+01  3.09658E+01  2.96007E+01
   2.95275E+01  2.77015E+01  2.73551E+01  2.55428E+01  2.54695E+01  2.39222E+01  2.38387E+01  2.22719E+01  2.23499E+01  2.11713E+01
   2.10927E+01  1.97565E+01  1.95147E+01  1.84771E+01  1.85305E+01  1.77808E+01  1.78102E+01  1.74126E+01  1.76586E+01  1.71819E+01
   1.74605E+01  1.68094E+01  1.69325E+01  1.63559E+01  1.65470E+01  1.62777E+01  1.64079E+01  1.59874E+01  1.61069E+01  1.59351E+01
   1.57840E+01  1.51622E+01  1.48132E+01  1.42321E+01  1.39115E+01  1.32598E+01  1.29312E+01  1.27884E+01  1.27390E+01  1.27438E+01
   1.27790E+01  1.28271E+01  1.28741E+01  1.29086E+01  1.29206E+01  1.29024E+01  1.28480E+01  1.27536E+01  1.26171E+01  1.24391E+01
   1.22215E+01  1.19682E+01  1.16844E+01  1.13765E+01  1.10516E+01  1.07171E+01  1.03803E+01  1.00481E+01  9.72653E+00  9.42099E+00
   9.13540E+00  8.87271E+00  8.63438E+00  8.42090E+00  8.23143E+00  8.06442E+00  7.91732E+00  7.78717E+00  7.67037E+00  7.56336E+00
   7.46231E+00  7.36378E+00  7.26435E+00  7.16121E+00  7.05177E+00  6.93421E+00  6.80705E+00  6.66963E+00  6.52155E+00  6.36313E+00
   6.19491E+00  6.01806E+00  5.83380E+00  5.64380E+00  5.44962E+00  5.25309E+00  5.05580E+00  4.85952E+00  4.66568E+00  4.47576E+00
   4.29079E+00  4.11188E+00  3.93967E+00  3.77488E+00  3.61779E+00  3.46874E+00  3.32765E+00  3.19460E+00  3.06929E+00  2.95162E+00
   2.84114E+00  2.73762E+00  2.64052E+00  2.54957E+00  2.46423E+00  2.38424E+00  2.30905E+00  2.23842E+00  2.17183E+00  2.10909E+00
   2.04975E+00  1.99365E+00  1.94038E+00  1.88981E+00  1.84158E+00  1.79561E+00  1.75159E+00  1.70947E+00  1.66895E+00  1.63001E+00
   1.59239E+00  1.55611E+00  1.52094E+00  1.48688E+00  1.45373E+00  1.42151E+00  1.39004E+00  1.35937E+00  1.32931E+00  1.29993E+00
   1.27105E+00  1.24273E+00  1.21481E+00  1.18739E+00  1.16030E+00  1.13361E+00  1.10718E+00  1.08109E+00  1.05521E+00  1.02964E+00
   1.00421E+00  9.79038E-01  9.53970E-01  9.29121E-01  9.04357E-01  8.79784E-01  8.55257E-01  8.30890E-01  8.06551E-01  7.82364E-01
   7.58198E-01  7.34172E-01  7.10152E-01  6.86273E-01  6.62420E-01  6.38739E-01  6.15125E-01  5.91743E-01
 NY background values follow
    -3.521E+00   -3.517E+00   -3.512E+00   -3.507E+00   -3.503E+00   -3.498E+00   -3.493E+00   -3.488E+00   -3.483E+00   -3.478E+00
    -3.473E+00   -3.468E+00   -3.462E+00   -3.457E+00   -3.452E+00   -3.447E+00   -3.441E+00   -3.436E+00   -3.431E+00   -3.426E+00
    -3.420E+00   -3.415E+00   -3.409E+00   -3.404E+00   -3.399E+00   -3.393E+00   -3.388E+00   -3.383E+00   -3.377E+00   -3.372E+00
    -3.366E+00   -3.361E+00   -3.356E+00   -3.351E+00   -3.345E+00   -3.340E+00   -3.335E+00   -3.330E+00   -3.325E+00   -3.320E+00
    -3.315E+00   -3.310E+00   -3.305E+00   -3.300E+00   -3.295E+00   -3.290E+00   -3.286E+00   -3.281E+00   -3.276E+00   -3.272E+00
    -3.268E+00   -3.263E+00   -3.259E+00   -3.255E+00   -3.251E+00   -3.247E+00   -3.243E+00   -3.239E+00   -3.235E+00   -3.232E+00
    -3.228E+00   -3.225E+00   -3.222E+00   -3.218E+00   -3.215E+00   -3.212E+00   -3.210E+00   -3.207E+00   -3.204E+00   -3.202E+00
    -3.200E+00   -3.197E+00   -3.195E+00   -3.193E+00   -3.192E+00   -3.190E+00   -3.189E+00   -3.187E+00   -3.186E+00   -3.185E+00
    -3.184E+00   -3.184E+00   -3.183E+00   -3.183E+00   -3.183E+00   -3.183E+00   -3.183E+00   -3.184E+00   -3.184E+00   -3.185E+00
    -3.186E+00   -3.187E+00   -3.188E+00   -3.190E+00   -3.192E+00   -3.194E+00   -3.196E+00   -3.198E+00   -3.201E+00   -3.204E+00
    -3.207E+00   -3.210E+00   -3.214E+00   -3.217E+00   -3.221E+00   -3.225E+00   -3.230E+00   -3.235E+00   -3.240E+00   -3.245E+00
    -3.250E+00   -3.256E+00   -3.262E+00   -3.268E+00   -3.274E+00   -3.281E+00   -3.288E+00   -3.295E+00   -3.303E+00   -3.311E+00
    -3.319E+00   -3.327E+00   -3.336E+00   -3.345E+00   -3.354E+00   -3.364E+00   -3.374E+00   -3.384E+00   -3.394E+00   -3.405E+00
    -3.416E+00   -3.427E+00   -3.438E+00   -3.450E+00   -3.462E+00   -3.474E+00   -3.486E+00   -3.499E+00   -3.512E+00   -3.524E+00
    -3.537E+00   -3.551E+00   -3.564E+00   -3.578E+00   -3.591E+00   -3.605E+00   -3.619E+00   -3.633E+00   -3.648E+00   -3.662E+00
    -3.676E+00   -3.691E+00   -3.705E+00   -3.720E+00   -3.735E+00   -3.750E+00   -3.765E+00   -3.779E+00   -3.794E+00   -3.809E+00
    -3.824E+00   -3.839E+00   -3.854E+00   -3.869E+00   -3.884E+00   -3.899E+00   -3.914E+00   -3.929E+00   -3.944E+00   -3.959E+00
    -3.974E+00   -3.988E+00   -4.003E+00   -4.017E+00   -4.032E+00   -4.046E+00   -4.060E+00   -4.075E+00   -4.089E+00   -4.102E+00
    -4.116E+00   -4.130E+00   -4.143E+00   -4.156E+00   -4.169E+00   -4.182E+00   -4.195E+00   -4.207E+00   -4.220E+00   -4.232E+00
    -4.244E+00   -4.255E+00   -4.267E+00   -4.278E+00   -4.289E+00   -4.300E+00   -4.310E+00   -4.320E+00   -4.330E+00   -4.339E+00
    -4.349E+00   -4.357E+00   -4.366E+00   -4.374E+00   -4.382E+00   -4.390E+00   -4.397E+00   -4.404E+00   -4.411E+00   -4.417E+00
    -4.423E+00   -4.428E+00   -4.433E+00   -4.438E+00   -4.442E+00   -4.445E+00   -4.449E+00   -4.452E+00   -4.454E+00   -4.456E+00
    -4.458E+00   -4.459E+00   -4.459E+00   -4.459E+00   -4.459E+00   -4.458E+00   -4.457E+00   -4.455E+00   -4.452E+00   -4.449E+00
    -4.446E+00   -4.442E+00   -4.437E+00   -4.432E+00   -4.426E+00   -4.420E+00   -4.413E+00   -4.405E+00   -4.397E+00   -4.388E+00
    -4.379E+00   -4.369E+00   -4.358E+00   -4.347E+00   -4.335E+00   -4.323E+00   -4.309E+00   -4.295E+00   -4.281E+00   -4.265E+00
    -4.249E+00   -4.233E+00   -4.215E+00   -4.197E+00   -4.178E+00   -4.159E+00   -4.139E+00   -4.118E+00   -4.097E+00   -4.075E+00
    -4.053E+00   -4.030E+00   -4.006E+00   -3.982E+00   -3.957E+00   -3.932E+00   -3.906E+00   -3.880E+00   -3.853E+00   -3.826E+00
    -3.798E+00   -3.769E+00   -3.741E+00   -3.711E+00   -3.682E+00   -3.651E+00   -3.621E+00   -3.590E+00   -3.558E+00   -3.526E+00
    -3.494E+00   -3.461E+00   -3.428E+00   -3.394E+00   -3.361E+00   -3.326E+00   -3.292E+00   -3.257E+00   -3.222E+00   -3.186E+00
    -3.150E+00   -3.114E+00   -3.078E+00   -3.041E+00   -3.004E+00   -2.967E+00   -2.930E+00   -2.892E+00   -2.854E+00   -2.816E+00
    -2.778E+00   -2.739E+00   -2.700E+00   -2.662E+00   -2.622E+00   -2.583E+00   -2.544E+00   -2.504E+00   -2.465E+00   -2.425E+00
    -2.385E+00   -2.345E+00   -2.305E+00   -2.265E+00   -2.225E+00   -2.185E+00   -2.144E+00   -2.104E+00   -2.063E+00   -2.023E+00
    -1.983E+00   -1.942E+00   -1.902E+00   -1.861E+00   -1.821E+00   -1.781E+00   -1.740E+00   -1.700E+00   -1.660E+00   -1.620E+00
    -1.580E+00   -1.540E+00   -1.500E+00   -1.461E+00   -1.421E+00   -1.382E+00   -1.342E+00   -1.303E+00   -1.264E+00   -1.226E+00
    -1.187E+00   -1.149E+00   -1.110E+00   -1.073E+00   -1.035E+00   -9.972E-01   -9.600E-01   -9.230E-01   -8.862E-01   -8.497E-01
    -8.135E-01   -7.776E-01   -7.420E-01   -7.067E-01   -6.717E-01   -6.371E-01   -6.028E-01   -5.689E-01   -5.353E-01   -5.021E-01
    -4.692E-01   -4.368E-01   -4.047E-01   -3.731E-01   -3.419E-01   -3.111E-01   -2.808E-01   -2.509E-01   -2.214E-01   -1.925E-01
    -1.640E-01   -1.360E-01   -1.085E-01   -8.147E-02   -5.500E-02   -2.903E-02   -3.573E-03    2.138E-02    4.582E-02    6.976E-02
     9.320E-02    1.161E-01    1.386E-01    1.606E-01    1.820E-01    2.030E-01    2.235E-01    2.435E-01    2.630E-01    2.821E-01
     3.007E-01    3.188E-01    3.364E-01    3.536E-01    3.703E-01    3.865E-01    4.023E-01    4.176E-01    4.325E-01    4.469E-01
     4.609E-01    4.744E-01    4.875E-01    5.001E-01    5.123E-01    5.241E-01    5.354E-01    5.463E-01    5.567E-01    5.667E-01
     5.764E-01    5.855E-01    5.943E-01    6.026E-01    6.106E-01    6.181E-01    6.252E-01    6.319E-01    6.382E-01    6.441E-01
     6.496E-01    6.547E-01    6.594E-01    6.637E-01    6.676E-01    6.711E-01    6.743E-01    6.771E-01    6.794E-01    6.815E-01
     6.831E-01    6.844E-01    6.852E-01    6.858E-01    6.859E-01    6.857E-01    6.852E-01    6.843E-01    6.830E-01    6.814E-01
     6.794E-01    6.771E-01    6.744E-01    6.714E-01    6.681E-01    6.644E-01    6.604E-01    6.560E-01    6.513E-01    6.463E-01
     6.410E-01    6.354E-01    6.294E-01    6.231E-01    6.165E-01    6.096E-01    6.024E-01    5.949E-01    5.870E-01    5.789E-01
     5.705E-01    5.617E-01    5.527E-01    5.434E-01    5.338E-01    5.239E-01    5.138E-01    5.033E-01    4.926E-01    4.816E-01
     4.703E-01    4.587E-01    4.469E-01    4.348E-01    4.225E-01    4.099E-01    3.970E-01    3.839E-01    3.705E-01    3.569E-01
     3.430E-01    3.289E-01    3.145E-01    2.999E-01    2.851E-01    2.700E-01    2.547E-01    2.391E-01    2.234E-01    2.074E-01
     1.912E-01    1.747E-01    1.581E-01    1.412E-01    1.241E-01    1.068E-01    8.931E-02    7.160E-02
 Ala      Conc. = 4.36E+03
