 LCModel (Version 6.3-1L) Copyright: S.W. Provencher.          Ref.: Magn. Reson. Med. 30:672-679 (1993).                
 Slice#2 Row#7 Col#12  PD_05_press_1_raw_act
 36 lines in following concentration table = NCONC+1
    Conc.  %SD /Cr+PCr  Metabolite                                         
  155.329  27%   0.703 Ala                                                 
    0.000 999%   0.000 Asp                                                 
   28.484 249%   0.129 Cr                                                  
  192.394  38%   0.871 PCr                                                 
   13.761 339% 6.2E-02 GABA                                                
   55.197  87%   0.250 Glc                                                 
  142.229  55%   0.644 Gln                                                 
  676.500  15%   3.063 Glu                                                 
   62.344  13%   0.282 GPC                                                 
    0.000 999%   0.000 PCh                                                 
   30.396  94%   0.138 GSH                                                 
    0.000 999%   0.000 Ins                                                 
   90.026  47%   0.408 Lac                                                 
 1.01E+03   5%   4.593 NAA                                                 
  214.760  22%   0.972 NAAG                                                
   23.441  42%   0.106 Scyllo                                              
  115.792  61%   0.524 Tau                                                 
  151.038  26%   0.684 -CrCH2                                              
   62.344  13%   0.282 GPC+PCh                                             
 1.23E+03   4%   5.565 NAA+NAAG                                            
  220.878  11%   1.000 Cr+PCr                                              
  818.729  16%   3.707 Glu+Gln                                             
  897.544  36%   4.064 Lip13a                                              
    0.000 999%   0.000 Lip13b                                              
    0.000 999%   0.000 Lip09                                               
  735.035  18%   3.328 MM09                                                
  148.583  76%   0.673 Lip20                                               
 1.58E+03  15%   7.146 MM20                                                
  235.745  39%   1.067 MM12                                                
 1.79E+03  15%   8.120 MM14                                                
 1.56E+03  13%   7.076+MM17                                                
  897.544  36%   4.064 Lip13a+Lip13b                                       
 2.93E+03  11%  13.250 MM14+Lip13a+Lip13b+MM12                             
  735.035  18%   3.328 MM09+Lip09                                          
 1.73E+03  14%   7.819 MM20+Lip20                                          
   6 lines in following misc. output table
  FWHM = 0.046 ppm    S/N =  13                                            
  Data shift = 0.008 ppm                                                   
  Ph:-107 deg     -41.4 deg/ppm                                            
  alphaB,S = 4.9E-01,   2.6E+01                                            
   14 spline knots.   Ns = 6(1)                                            
  ( 6) 2 infls.   ( 2) 1 extrs.                                            
  498 points on ppm-axis = NY
      4.000000     3.992357     3.984714     3.977070     3.969427     3.961784     3.954141     3.946497     3.938854     3.931211
      3.923568     3.915925     3.908281     3.900638     3.892995     3.885352     3.877708     3.870065     3.862422     3.854779
      3.847136     3.839492     3.831849     3.824206     3.816563     3.808919     3.801276     3.793633     3.785990     3.778347
      3.770703     3.763060     3.755417     3.747774     3.740130     3.732487     3.724844     3.717201     3.709558     3.701914
      3.694271     3.686628     3.678985     3.671341     3.663698     3.656055     3.648412     3.640769     3.633125     3.625482
      3.617839     3.610196     3.602552     3.594909     3.587266     3.579623     3.571980     3.564336     3.556693     3.549050
      3.541407     3.533763     3.526120     3.518477     3.510834     3.503191     3.495547     3.487904     3.480261     3.472618
      3.464974     3.457331     3.449688     3.442045     3.434402     3.426758     3.419115     3.411472     3.403829     3.396185
      3.388542     3.380899     3.373256     3.365613     3.357969     3.350326     3.342683     3.335040     3.327396     3.319753
      3.312110     3.304467     3.296824     3.289180     3.281537     3.273894     3.266251     3.258607     3.250964     3.243321
      3.235678     3.228034     3.220391     3.212748     3.205105     3.197462     3.189818     3.182175     3.174532     3.166889
      3.159245     3.151602     3.143959     3.136316     3.128673     3.121029     3.113386     3.105743     3.098100     3.090456
      3.082813     3.075170     3.067527     3.059884     3.052240     3.044597     3.036954     3.029311     3.021667     3.014024
      3.006381     2.998738     2.991095     2.983451     2.975808     2.968165     2.960522     2.952878     2.945235     2.937592
      2.929949     2.922306     2.914662     2.907019     2.899376     2.891733     2.884089     2.876446     2.868803     2.861160
      2.853517     2.845873     2.838230     2.830587     2.822944     2.815300     2.807657     2.800014     2.792371     2.784728
      2.777084     2.769441     2.761798     2.754155     2.746511     2.738868     2.731225     2.723582     2.715939     2.708295
      2.700652     2.693009     2.685366     2.677722     2.670079     2.662436     2.654793     2.647150     2.639506     2.631863
      2.624220     2.616577     2.608933     2.601290     2.593647     2.586004     2.578361     2.570717     2.563074     2.555431
      2.547788     2.540144     2.532501     2.524858     2.517215     2.509572     2.501928     2.494285     2.486642     2.478999
      2.471355     2.463712     2.456069     2.448426     2.440783     2.433139     2.425496     2.417853     2.410210     2.402566
      2.394923     2.387280     2.379637     2.371994     2.364350     2.356707     2.349064     2.341421     2.333777     2.326134
      2.318491     2.310848     2.303205     2.295561     2.287918     2.280275     2.272632     2.264988     2.257345     2.249702
      2.242059     2.234416     2.226772     2.219129     2.211486     2.203843     2.196199     2.188556     2.180913     2.173270
      2.165627     2.157983     2.150340     2.142697     2.135054     2.127410     2.119767     2.112124     2.104481     2.096838
      2.089194     2.081551     2.073908     2.066265     2.058621     2.050978     2.043335     2.035692     2.028049     2.020405
      2.012762     2.005119     1.997476     1.989833     1.982190     1.974546     1.966903     1.959260     1.951617     1.943974
      1.936331     1.928688     1.921045     1.913402     1.905759     1.898115     1.890472     1.882829     1.875186     1.867543
      1.859900     1.852257     1.844614     1.836971     1.829327     1.821684     1.814041     1.806398     1.798755     1.791112
      1.783469     1.775826     1.768183     1.760540     1.752896     1.745253     1.737610     1.729967     1.722324     1.714681
      1.707038     1.699395     1.691752     1.684108     1.676465     1.668822     1.661179     1.653536     1.645893     1.638250
      1.630607     1.622964     1.615321     1.607677     1.600034     1.592391     1.584748     1.577105     1.569462     1.561819
      1.554176     1.546533     1.538890     1.531246     1.523603     1.515960     1.508317     1.500674     1.493031     1.485388
      1.477745     1.470102     1.462458     1.454815     1.447172     1.439529     1.431886     1.424243     1.416600     1.408957
      1.401314     1.393671     1.386027     1.378384     1.370741     1.363098     1.355455     1.347812     1.340169     1.332526
      1.324883     1.317240     1.309596     1.301953     1.294310     1.286667     1.279024     1.271381     1.263738     1.256095
      1.248452     1.240808     1.233165     1.225522     1.217879     1.210236     1.202593     1.194950     1.187307     1.179664
      1.172021     1.164377     1.156734     1.149091     1.141448     1.133805     1.126162     1.118519     1.110876     1.103233
      1.095590     1.087946     1.080303     1.072660     1.065017     1.057374     1.049731     1.042088     1.034445     1.026802
      1.019158     1.011515     1.003872     0.996229     0.988586     0.980943     0.973300     0.965657     0.958014     0.950371
      0.942727     0.935084     0.927441     0.919798     0.912155     0.904512     0.896869     0.889226     0.881583     0.873940
      0.866296     0.858653     0.851010     0.843367     0.835724     0.828081     0.820438     0.812795     0.805152     0.797508
      0.789865     0.782222     0.774579     0.766936     0.759293     0.751650     0.744007     0.736364     0.728721     0.721077
      0.713434     0.705791     0.698148     0.690505     0.682862     0.675219     0.667576     0.659933     0.652290     0.644646
      0.637003     0.629360     0.621717     0.614074     0.606431     0.598788     0.591145     0.583502     0.575858     0.568215
      0.560572     0.552929     0.545286     0.537643     0.530000     0.522357     0.514714     0.507071     0.499427     0.491784
      0.484141     0.476498     0.468855     0.461212     0.453569     0.445925     0.438282     0.430639     0.422996     0.415353
      0.407710     0.400067     0.392424     0.384780     0.377137     0.369494     0.361851     0.354208     0.346565     0.338922
      0.331278     0.323635     0.315992     0.308349     0.300706     0.293063     0.285420     0.277777     0.270133     0.262490
      0.254847     0.247204     0.239561     0.231918     0.224275     0.216631     0.208988     0.201345
 NY phased data points follow
   8.48356E+00  8.05902E+00  8.29866E+00  7.76832E+00  7.89875E+00  8.71282E+00  9.04865E+00  7.78530E+00  8.34080E+00  9.43909E+00
   9.63235E+00  7.89820E+00  1.03418E+01  6.31028E+00  7.08275E+00  7.56554E+00  8.21106E+00  1.05065E+01  9.13235E+00  8.84900E+00
   7.50126E+00  9.12595E+00  9.12323E+00  8.32616E+00  8.55646E+00  9.11521E+00  8.86991E+00  8.79830E+00  7.14691E+00  8.81797E+00
   7.68896E+00  7.83479E+00  9.00243E+00  1.18784E+01  7.28415E+00  8.58629E+00  1.00081E+01  8.72513E+00  6.77499E+00  7.74353E+00
   7.35783E+00  9.80714E+00  6.68460E+00  8.68436E+00  8.40787E+00  7.39158E+00  6.33886E+00  8.11335E+00  6.01780E+00  5.90513E+00
   6.68382E+00  7.40494E+00  5.78488E+00  7.02545E+00  6.50285E+00  7.43843E+00  1.07150E+01  5.64615E+00  8.01645E+00  9.05407E+00
   5.86815E+00  7.55583E+00  7.01557E+00  8.24927E+00  7.58657E+00  7.94718E+00  8.76090E+00  8.33634E+00  5.42646E+00  6.64219E+00
   7.80472E+00  8.83071E+00  7.07032E+00  7.17143E+00  5.01264E+00  8.86984E+00  6.38897E+00  8.25392E+00  6.47948E+00  6.95200E+00
   7.58626E+00  6.88046E+00  8.04246E+00  8.81180E+00  6.45045E+00  9.98399E+00  8.05357E+00  8.26112E+00  6.34285E+00  1.01672E+01
   8.90508E+00  8.70899E+00  7.15316E+00  7.95047E+00  9.05291E+00  1.10901E+01  6.83319E+00  8.34053E+00  1.26454E+01  1.11577E+01
   1.28925E+01  1.40446E+01  1.46560E+01  1.27518E+01  1.21215E+01  9.12954E+00  5.32131E+00  4.78815E+00  5.22456E+00  6.04334E+00
   6.28982E+00  4.47363E+00  8.25195E+00  9.19746E+00  7.90652E+00  6.08552E+00  6.53620E+00  4.48654E+00  3.55294E+00  9.85329E+00
   8.70109E+00  7.23624E+00  1.00968E+01  1.17232E+01  1.24546E+01  1.69439E+01  1.89498E+01  1.49775E+01  1.54662E+01  9.36823E+00
   5.75476E+00  3.21490E+00  3.29108E+00  4.54804E+00  7.78782E+00  6.13925E+00  7.41200E+00  5.79246E+00  8.27946E+00  6.52398E+00
   6.95365E+00  8.16988E+00  7.85442E+00  7.20922E+00  8.62743E+00  7.20382E+00  6.34351E+00  5.72576E+00  5.23633E+00  8.17024E+00
   5.38105E+00  4.72290E+00  7.24143E+00  5.37293E+00  6.77929E+00  6.33822E+00  8.92785E+00  7.02774E+00  8.04024E+00  7.99685E+00
   6.05759E+00  5.18257E+00  3.30022E+00  3.46165E+00  4.03581E+00  4.83654E+00  6.49204E+00  5.38560E+00  8.45407E-01  4.09041E+00
   4.62144E+00  1.93491E+00  1.94723E+00  3.00343E+00  7.82676E-01  3.23876E+00  1.19917E+00  6.71500E-01  3.14228E+00  4.46731E+00
   5.52231E+00  4.31212E+00  4.34471E+00  3.57631E+00  6.66587E+00  1.69258E+00  4.74107E+00  5.29391E+00  4.40416E+00  7.76398E+00
   7.29177E+00  7.10223E+00  8.29188E+00  7.18619E+00  9.41406E+00  6.58942E+00  5.24862E+00  5.94679E+00  6.47363E+00  9.18274E+00
   6.27419E+00  7.15417E+00  9.51623E+00  9.74755E+00  7.90895E+00  8.56328E+00  7.55911E+00  8.08698E+00  7.68706E+00  7.55795E+00
   7.79544E+00  9.38345E+00  1.27503E+01  1.51557E+01  1.41552E+01  1.61898E+01  1.59190E+01  1.37326E+01  1.11448E+01  9.64915E+00
   6.65297E+00  7.33284E+00  6.73412E+00  9.33180E+00  8.39830E+00  1.18336E+01  1.49901E+01  1.52645E+01  1.66934E+01  1.48376E+01
   1.34835E+01  1.47997E+01  1.44470E+01  1.41042E+01  1.51202E+01  1.37316E+01  1.27053E+01  1.55430E+01  1.47792E+01  1.53987E+01
   1.40461E+01  1.44636E+01  1.88245E+01  1.62376E+01  1.43756E+01  1.79445E+01  1.69694E+01  2.10312E+01  1.99304E+01  1.97205E+01
   2.16235E+01  2.27287E+01  2.73266E+01  2.66957E+01  3.27612E+01  3.54796E+01  4.38614E+01  4.82096E+01  5.53759E+01  6.00758E+01
   6.20235E+01  5.82846E+01  5.02798E+01  3.66134E+01  2.60711E+01  1.85544E+01  1.86659E+01  1.81256E+01  2.00001E+01  1.60960E+01
   1.96584E+01  1.78408E+01  1.83746E+01  1.75261E+01  1.91882E+01  1.86456E+01  1.68773E+01  1.74267E+01  1.84326E+01  1.85470E+01
   1.59843E+01  1.87463E+01  1.52990E+01  1.96893E+01  1.74653E+01  1.74217E+01  1.51328E+01  1.79967E+01  1.77364E+01  1.73851E+01
   1.97166E+01  1.95819E+01  2.16044E+01  1.78411E+01  2.05055E+01  1.94057E+01  2.10493E+01  2.07939E+01  1.98525E+01  2.31571E+01
   2.18941E+01  2.25335E+01  2.47708E+01  2.46736E+01  2.12622E+01  2.08480E+01  2.12425E+01  2.59854E+01  2.52687E+01  2.47762E+01
   2.40389E+01  2.60038E+01  2.74254E+01  2.70144E+01  2.84792E+01  2.68775E+01  2.83877E+01  2.68153E+01  2.88793E+01  2.84237E+01
   2.52115E+01  2.69535E+01  2.57505E+01  2.69777E+01  2.46365E+01  2.29562E+01  2.32743E+01  2.30736E+01  2.31970E+01  2.05684E+01
   2.20937E+01  2.16765E+01  2.35385E+01  2.52097E+01  2.52131E+01  2.43852E+01  2.78110E+01  2.70732E+01  2.90751E+01  2.96861E+01
   2.66226E+01  2.70624E+01  3.04915E+01  3.07727E+01  2.71279E+01  2.98101E+01  2.90054E+01  2.72087E+01  2.25829E+01  2.36547E+01
   2.21265E+01  2.13426E+01  2.07278E+01  2.24460E+01  2.06905E+01  1.98537E+01  1.92560E+01  1.78861E+01  2.10139E+01  1.91462E+01
   1.51543E+01  1.69707E+01  1.64773E+01  1.74895E+01  1.59545E+01  1.64154E+01  1.82290E+01  1.75570E+01  1.77341E+01  1.80231E+01
   1.90734E+01  1.58915E+01  1.55866E+01  1.46787E+01  1.40216E+01  1.61791E+01  1.15282E+01  1.52862E+01  1.35194E+01  1.44767E+01
   1.19069E+01  1.23804E+01  1.26524E+01  1.26446E+01  1.45747E+01  1.36922E+01  9.92127E+00  1.22886E+01  1.10000E+01  1.16999E+01
   1.24105E+01  1.28172E+01  1.30468E+01  1.22061E+01  1.19716E+01  1.20411E+01  1.21323E+01  1.38862E+01  1.47536E+01  1.19529E+01
   1.23815E+01  1.10023E+01  1.33560E+01  1.36468E+01  1.55760E+01  1.09797E+01  1.22668E+01  1.47316E+01  1.23398E+01  1.46417E+01
   1.45781E+01  1.44062E+01  1.09660E+01  1.11088E+01  1.08721E+01  1.05030E+01  1.12891E+01  1.10787E+01  8.40209E+00  1.01940E+01
   8.38582E+00  1.29839E+01  9.83090E+00  9.78074E+00  7.47553E+00  8.90966E+00  8.72972E+00  9.46852E+00  9.88500E+00  9.04818E+00
   7.58851E+00  5.41726E+00  7.23712E+00  7.08499E+00  5.72352E+00  5.96013E+00  1.02406E+01  8.20048E+00  5.39517E+00  4.83520E+00
   6.31674E+00  3.51866E+00  8.93221E+00  5.23414E+00  7.09212E+00  6.30311E+00  7.61592E+00  5.24582E+00  5.95511E+00  5.18710E+00
   4.55168E+00  5.33529E+00  4.31168E+00  5.92465E+00  5.27441E+00  2.73785E+00  3.62649E+00  3.06771E+00  5.48488E+00  2.92609E+00
   5.07362E+00  5.72554E+00  4.36891E+00  3.80242E+00  2.22064E+00  4.10655E+00  2.79695E+00  3.12043E+00  4.54358E+00  5.23550E+00
   5.48633E+00  5.37493E+00  4.61589E+00  2.75931E+00  3.79106E+00  4.77446E+00  6.43848E+00  7.18829E+00  4.95835E+00  5.64260E+00
   5.08648E+00  4.91675E+00  5.23057E+00  1.06172E+00  1.94357E+00  6.36036E+00  4.10402E+00  3.76472E+00  5.33766E+00  5.26434E+00
   5.09795E+00  5.74797E+00  4.19889E+00  5.96022E+00  4.33953E+00  5.88741E+00  3.69910E+00  1.84106E+00
 NY points of the fit to the data follow
   7.65244E+00  7.76455E+00  7.93726E+00  8.20182E+00  8.50548E+00  8.85365E+00  9.24942E+00  9.59199E+00  9.77769E+00  9.77521E+00
   9.58122E+00  9.22409E+00  8.80621E+00  8.44044E+00  8.18984E+00  8.01746E+00  7.91264E+00  7.92867E+00  8.01980E+00  8.20776E+00
   8.49034E+00  8.79554E+00  8.98010E+00  8.91005E+00  8.63007E+00  8.19281E+00  7.64543E+00  7.18698E+00  7.10512E+00  7.53696E+00
   8.39733E+00  9.43237E+00  1.02668E+01  1.05241E+01  1.00412E+01  9.07002E+00  7.94279E+00  6.97874E+00  6.55294E+00  6.77527E+00
   7.40360E+00  8.01563E+00  8.33871E+00  8.37369E+00  8.20308E+00  7.95439E+00  7.78084E+00  7.71893E+00  7.71134E+00  7.71655E+00
   7.71589E+00  7.69475E+00  7.61361E+00  7.48327E+00  7.36859E+00  7.29135E+00  7.22426E+00  7.15920E+00  7.11022E+00  7.08786E+00
   7.10086E+00  7.14126E+00  7.17894E+00  7.21205E+00  7.23446E+00  7.22462E+00  7.17770E+00  7.09789E+00  6.98437E+00  6.90381E+00
   6.93665E+00  7.06181E+00  7.23688E+00  7.42403E+00  7.55347E+00  7.53895E+00  7.35602E+00  7.06094E+00  6.73335E+00  6.50381E+00
   6.56741E+00  6.96480E+00  7.46397E+00  7.91476E+00  8.30012E+00  8.53990E+00  8.54945E+00  8.31046E+00  7.83052E+00  7.20661E+00
   6.64149E+00  6.28869E+00  6.15056E+00  6.10308E+00  6.10056E+00  6.28868E+00  7.03399E+00  8.45204E+00  1.00562E+01  1.15989E+01
   1.30556E+01  1.40727E+01  1.41893E+01  1.32730E+01  1.14683E+01  9.24567E+00  7.41589E+00  6.61930E+00  6.67811E+00  6.77885E+00
   6.66349E+00  6.56886E+00  6.50364E+00  6.47238E+00  6.46104E+00  6.44885E+00  6.44456E+00  6.45003E+00  6.47296E+00  6.56542E+00
   7.02976E+00  8.26103E+00  9.94515E+00  1.17802E+01  1.37442E+01  1.54659E+01  1.62144E+01  1.55934E+01  1.36774E+01  1.09810E+01
   8.50552E+00  7.14490E+00  6.99350E+00  7.14736E+00  7.00247E+00  6.83250E+00  6.73133E+00  6.70453E+00  6.74704E+00  6.82571E+00
   6.88662E+00  6.89443E+00  6.84872E+00  6.76237E+00  6.66292E+00  6.57719E+00  6.51356E+00  6.46772E+00  6.41440E+00  6.34050E+00
   6.26212E+00  6.18831E+00  6.13196E+00  6.11843E+00  6.14776E+00  6.16215E+00  6.10065E+00  5.97188E+00  5.76911E+00  5.51424E+00
   5.29468E+00  5.18675E+00  5.25909E+00  5.50944E+00  5.77558E+00  5.83097E+00  5.56956E+00  5.07382E+00  4.60020E+00  4.34753E+00
   4.29129E+00  4.27624E+00  4.19127E+00  4.04895E+00  3.90933E+00  3.81786E+00  3.86483E+00  4.11710E+00  4.48922E+00  4.79689E+00
   4.90309E+00  4.82333E+00  4.72446E+00  4.88473E+00  5.32883E+00  5.81202E+00  6.24757E+00  6.70953E+00  7.28912E+00  7.96497E+00
   8.52022E+00  8.77868E+00  8.71493E+00  8.46474E+00  8.29884E+00  8.32453E+00  8.44462E+00  8.60918E+00  8.84344E+00  9.15239E+00
   9.53035E+00  9.97737E+00  1.04022E+01  1.06299E+01  1.04265E+01  9.79015E+00  8.85314E+00  7.74850E+00  6.76761E+00  6.37465E+00
   6.85164E+00  8.11435E+00  9.79102E+00  1.15558E+01  1.31285E+01  1.41106E+01  1.40426E+01  1.27471E+01  1.04800E+01  8.01207E+00
   6.21304E+00  5.58799E+00  6.24807E+00  7.86181E+00  9.99530E+00  1.22806E+01  1.41006E+01  1.49950E+01  1.49761E+01  1.45320E+01
   1.41745E+01  1.40445E+01  1.40983E+01  1.43640E+01  1.48141E+01  1.53061E+01  1.56769E+01  1.58296E+01  1.58182E+01  1.57337E+01
   1.56308E+01  1.55909E+01  1.57892E+01  1.63436E+01  1.71547E+01  1.80047E+01  1.86681E+01  1.90464E+01  1.92350E+01  1.96386E+01
   2.08602E+01  2.27485E+01  2.49635E+01  2.75702E+01  3.13183E+01  3.72908E+01  4.38603E+01  4.96120E+01  5.50342E+01  5.97835E+01
   6.15055E+01  5.83962E+01  4.98998E+01  3.74675E+01  2.56091E+01  1.86148E+01  1.74498E+01  1.83922E+01  1.82422E+01  1.78873E+01
   1.77386E+01  1.76459E+01  1.75922E+01  1.75880E+01  1.75628E+01  1.74662E+01  1.72998E+01  1.70965E+01  1.69034E+01  1.67736E+01
   1.67238E+01  1.67194E+01  1.67283E+01  1.67498E+01  1.67807E+01  1.68084E+01  1.68350E+01  1.68810E+01  1.69702E+01  1.71103E+01
   1.72995E+01  1.75370E+01  1.78144E+01  1.81166E+01  1.84385E+01  1.87849E+01  1.91672E+01  1.95995E+01  2.00851E+01  2.06170E+01
   2.11891E+01  2.17913E+01  2.24067E+01  2.30155E+01  2.36008E+01  2.41529E+01  2.46632E+01  2.51187E+01  2.55091E+01  2.58258E+01
   2.60618E+01  2.62135E+01  2.62813E+01  2.62701E+01  2.61884E+01  2.60484E+01  2.58658E+01  2.56602E+01  2.54552E+01  2.52814E+01
   2.51881E+01  2.52541E+01  2.54120E+01  2.54716E+01  2.54007E+01  2.51766E+01  2.46637E+01  2.38098E+01  2.27652E+01  2.18768E+01
   2.16072E+01  2.21174E+01  2.32708E+01  2.47669E+01  2.62371E+01  2.74951E+01  2.84246E+01  2.88248E+01  2.86574E+01  2.81504E+01
   2.76943E+01  2.75714E+01  2.76150E+01  2.74957E+01  2.72021E+01  2.67419E+01  2.60389E+01  2.50436E+01  2.38416E+01  2.26693E+01
   2.17990E+01  2.13492E+01  2.12962E+01  2.14903E+01  2.16676E+01  2.16839E+01  2.15133E+01  2.10706E+01  2.03682E+01  1.95636E+01
   1.88734E+01  1.83926E+01  1.80010E+01  1.76065E+01  1.72308E+01  1.68744E+01  1.65342E+01  1.62083E+01  1.58959E+01  1.55962E+01
   1.53090E+01  1.50342E+01  1.47720E+01  1.45228E+01  1.42871E+01  1.40655E+01  1.38584E+01  1.36665E+01  1.34901E+01  1.33299E+01
   1.31865E+01  1.30604E+01  1.29518E+01  1.28612E+01  1.27890E+01  1.27354E+01  1.27007E+01  1.26849E+01  1.26879E+01  1.27092E+01
   1.27484E+01  1.28045E+01  1.28763E+01  1.29617E+01  1.30585E+01  1.31639E+01  1.32746E+01  1.33868E+01  1.34963E+01  1.35986E+01
   1.36889E+01  1.37625E+01  1.38150E+01  1.38422E+01  1.38405E+01  1.38068E+01  1.37390E+01  1.36361E+01  1.34981E+01  1.33258E+01
   1.31211E+01  1.28866E+01  1.26261E+01  1.23435E+01  1.20436E+01  1.17310E+01  1.14103E+01  1.10860E+01  1.07624E+01  1.04433E+01
   1.01321E+01  9.83114E+00  9.54257E+00  9.26786E+00  9.00799E+00  8.76345E+00  8.53425E+00  8.32002E+00  8.12016E+00  7.93393E+00
   7.76051E+00  7.59894E+00  7.44818E+00  7.30719E+00  7.17500E+00  7.05079E+00  6.93377E+00  6.82317E+00  6.71825E+00  6.61837E+00
   6.52303E+00  6.43180E+00  6.34431E+00  6.26016E+00  6.17898E+00  6.10048E+00  6.02447E+00  5.95081E+00  5.87931E+00  5.80977E+00
   5.74201E+00  5.67594E+00  5.61151E+00  5.54865E+00  5.48724E+00  5.42714E+00  5.36825E+00  5.31053E+00  5.25397E+00  5.19850E+00
   5.14403E+00  5.09046E+00  5.03775E+00  4.98591E+00  4.93493E+00  4.88474E+00  4.83526E+00  4.78643E+00  4.73823E+00  4.69070E+00
   4.64382E+00  4.59751E+00  4.55171E+00  4.50638E+00  4.46155E+00  4.41723E+00  4.37339E+00  4.32994E+00  4.28684E+00  4.24409E+00
   4.20172E+00  4.15973E+00  4.11806E+00  4.07665E+00  4.03547E+00  3.99454E+00  3.95390E+00  3.91352E+00  3.87334E+00  3.83330E+00
   3.79341E+00  3.75371E+00  3.71420E+00  3.67486E+00  3.63561E+00  3.59645E+00  3.55739E+00  3.51848E+00
 NY background values follow
     8.047E+00    8.033E+00    8.020E+00    8.006E+00    7.993E+00    7.979E+00    7.966E+00    7.952E+00    7.939E+00    7.925E+00
     7.912E+00    7.898E+00    7.884E+00    7.871E+00    7.857E+00    7.843E+00    7.829E+00    7.816E+00    7.802E+00    7.788E+00
     7.774E+00    7.760E+00    7.746E+00    7.731E+00    7.717E+00    7.703E+00    7.688E+00    7.674E+00    7.659E+00    7.645E+00
     7.630E+00    7.615E+00    7.600E+00    7.585E+00    7.570E+00    7.555E+00    7.539E+00    7.524E+00    7.508E+00    7.493E+00
     7.477E+00    7.461E+00    7.445E+00    7.428E+00    7.412E+00    7.396E+00    7.379E+00    7.362E+00    7.345E+00    7.328E+00
     7.311E+00    7.293E+00    7.276E+00    7.258E+00    7.240E+00    7.222E+00    7.204E+00    7.186E+00    7.167E+00    7.149E+00
     7.130E+00    7.111E+00    7.092E+00    7.073E+00    7.053E+00    7.033E+00    7.014E+00    6.994E+00    6.974E+00    6.953E+00
     6.933E+00    6.912E+00    6.891E+00    6.870E+00    6.849E+00    6.828E+00    6.806E+00    6.785E+00    6.763E+00    6.741E+00
     6.719E+00    6.696E+00    6.674E+00    6.651E+00    6.628E+00    6.605E+00    6.581E+00    6.558E+00    6.534E+00    6.510E+00
     6.486E+00    6.462E+00    6.437E+00    6.413E+00    6.388E+00    6.363E+00    6.338E+00    6.313E+00    6.288E+00    6.263E+00
     6.238E+00    6.213E+00    6.188E+00    6.163E+00    6.139E+00    6.114E+00    6.090E+00    6.065E+00    6.041E+00    6.017E+00
     5.994E+00    5.971E+00    5.948E+00    5.925E+00    5.903E+00    5.881E+00    5.859E+00    5.838E+00    5.817E+00    5.797E+00
     5.778E+00    5.758E+00    5.740E+00    5.722E+00    5.704E+00    5.688E+00    5.671E+00    5.656E+00    5.641E+00    5.627E+00
     5.614E+00    5.601E+00    5.589E+00    5.578E+00    5.568E+00    5.559E+00    5.551E+00    5.543E+00    5.536E+00    5.531E+00
     5.526E+00    5.523E+00    5.520E+00    5.518E+00    5.518E+00    5.518E+00    5.520E+00    5.522E+00    5.526E+00    5.531E+00
     5.537E+00    5.544E+00    5.552E+00    5.562E+00    5.573E+00    5.585E+00    5.598E+00    5.613E+00    5.629E+00    5.646E+00
     5.664E+00    5.684E+00    5.705E+00    5.728E+00    5.752E+00    5.778E+00    5.805E+00    5.833E+00    5.863E+00    5.894E+00
     5.927E+00    5.962E+00    5.998E+00    6.035E+00    6.074E+00    6.115E+00    6.157E+00    6.201E+00    6.247E+00    6.295E+00
     6.344E+00    6.395E+00    6.447E+00    6.501E+00    6.557E+00    6.615E+00    6.674E+00    6.734E+00    6.797E+00    6.860E+00
     6.925E+00    6.992E+00    7.059E+00    7.128E+00    7.199E+00    7.270E+00    7.343E+00    7.417E+00    7.492E+00    7.568E+00
     7.646E+00    7.724E+00    7.803E+00    7.883E+00    7.964E+00    8.046E+00    8.129E+00    8.213E+00    8.297E+00    8.382E+00
     8.468E+00    8.554E+00    8.641E+00    8.729E+00    8.817E+00    8.905E+00    8.994E+00    9.084E+00    9.174E+00    9.264E+00
     9.354E+00    9.445E+00    9.536E+00    9.627E+00    9.718E+00    9.810E+00    9.901E+00    9.993E+00    1.008E+01    1.018E+01
     1.027E+01    1.036E+01    1.045E+01    1.054E+01    1.063E+01    1.072E+01    1.081E+01    1.090E+01    1.099E+01    1.108E+01
     1.117E+01    1.126E+01    1.135E+01    1.143E+01    1.152E+01    1.161E+01    1.169E+01    1.178E+01    1.186E+01    1.195E+01
     1.203E+01    1.211E+01    1.219E+01    1.227E+01    1.235E+01    1.243E+01    1.251E+01    1.258E+01    1.266E+01    1.273E+01
     1.280E+01    1.288E+01    1.295E+01    1.302E+01    1.308E+01    1.315E+01    1.322E+01    1.328E+01    1.334E+01    1.340E+01
     1.346E+01    1.352E+01    1.358E+01    1.363E+01    1.369E+01    1.374E+01    1.379E+01    1.384E+01    1.388E+01    1.393E+01
     1.397E+01    1.402E+01    1.406E+01    1.410E+01    1.413E+01    1.417E+01    1.420E+01    1.424E+01    1.427E+01    1.430E+01
     1.432E+01    1.435E+01    1.437E+01    1.440E+01    1.442E+01    1.444E+01    1.445E+01    1.447E+01    1.448E+01    1.450E+01
     1.451E+01    1.452E+01    1.453E+01    1.453E+01    1.454E+01    1.454E+01    1.454E+01    1.454E+01    1.453E+01    1.453E+01
     1.452E+01    1.452E+01    1.451E+01    1.449E+01    1.448E+01    1.447E+01    1.445E+01    1.443E+01    1.441E+01    1.439E+01
     1.437E+01    1.434E+01    1.431E+01    1.429E+01    1.426E+01    1.422E+01    1.419E+01    1.416E+01    1.412E+01    1.408E+01
     1.404E+01    1.400E+01    1.396E+01    1.392E+01    1.387E+01    1.383E+01    1.378E+01    1.373E+01    1.368E+01    1.363E+01
     1.358E+01    1.353E+01    1.347E+01    1.342E+01    1.336E+01    1.330E+01    1.324E+01    1.318E+01    1.312E+01    1.306E+01
     1.300E+01    1.293E+01    1.287E+01    1.280E+01    1.274E+01    1.267E+01    1.260E+01    1.254E+01    1.247E+01    1.240E+01
     1.233E+01    1.225E+01    1.218E+01    1.211E+01    1.204E+01    1.196E+01    1.189E+01    1.182E+01    1.174E+01    1.166E+01
     1.159E+01    1.151E+01    1.143E+01    1.136E+01    1.128E+01    1.120E+01    1.112E+01    1.105E+01    1.097E+01    1.089E+01
     1.081E+01    1.073E+01    1.065E+01    1.057E+01    1.049E+01    1.041E+01    1.033E+01    1.025E+01    1.017E+01    1.009E+01
     1.001E+01    9.929E+00    9.849E+00    9.769E+00    9.689E+00    9.609E+00    9.530E+00    9.450E+00    9.371E+00    9.292E+00
     9.213E+00    9.135E+00    9.057E+00    8.979E+00    8.901E+00    8.824E+00    8.747E+00    8.671E+00    8.595E+00    8.519E+00
     8.444E+00    8.369E+00    8.295E+00    8.221E+00    8.148E+00    8.075E+00    8.003E+00    7.931E+00    7.859E+00    7.788E+00
     7.718E+00    7.647E+00    7.578E+00    7.509E+00    7.440E+00    7.372E+00    7.304E+00    7.237E+00    7.171E+00    7.105E+00
     7.039E+00    6.974E+00    6.910E+00    6.846E+00    6.783E+00    6.720E+00    6.658E+00    6.596E+00    6.535E+00    6.474E+00
     6.414E+00    6.355E+00    6.296E+00    6.238E+00    6.181E+00    6.124E+00    6.067E+00    6.011E+00    5.956E+00    5.902E+00
     5.848E+00    5.795E+00    5.742E+00    5.690E+00    5.638E+00    5.588E+00    5.538E+00    5.488E+00    5.439E+00    5.390E+00
     5.342E+00    5.295E+00    5.248E+00    5.201E+00    5.155E+00    5.110E+00    5.065E+00    5.020E+00    4.976E+00    4.932E+00
     4.888E+00    4.845E+00    4.802E+00    4.760E+00    4.717E+00    4.675E+00    4.634E+00    4.592E+00    4.551E+00    4.510E+00
     4.469E+00    4.429E+00    4.389E+00    4.348E+00    4.308E+00    4.269E+00    4.229E+00    4.189E+00    4.150E+00    4.110E+00
     4.071E+00    4.031E+00    3.992E+00    3.953E+00    3.913E+00    3.874E+00    3.835E+00    3.795E+00
 Ala      Conc. = 1.55E+02
