 LCModel (Version 6.3-1L) Copyright: S.W. Provencher.          Ref.: Magn. Reson. Med. 30:672-679 (1993).                
 Slice#2 Row#11 Col#9  PD_05_press_1_raw_act
 36 lines in following concentration table = NCONC+1
    Conc.  %SD /Cr+PCr  Metabolite                                         
   22.401 366% 1.7E-02 Ala                                                 
    0.000 999%   0.000 Asp                                                 
    0.000 999%   0.000 Cr                                                  
 1.32E+03   3%   1.000 PCr                                                 
    0.000 999%   0.000 GABA                                                
    0.624 999% 4.7E-04 Glc                                                 
  730.736  24%   0.553 Gln                                                 
 1.07E+03  18%   0.806 Glu                                                 
  477.219   4%   0.361 GPC                                                 
    0.000 999%   0.000 PCh                                                 
  328.003  16%   0.248 GSH                                                 
 1.24E+03  15%   0.939 Ins                                                 
   79.755 116% 6.0E-02 Lac                                                 
 2.30E+03   5%   1.737 NAA                                                 
   77.684 146% 5.9E-02 NAAG                                                
  149.307  14%   0.113 Scyllo                                              
   99.223 160% 7.5E-02 Tau                                                 
  189.607  38%   0.143 -CrCH2                                              
  477.219   4%   0.361 GPC+PCh                                             
 2.37E+03   3%   1.796 NAA+NAAG                                            
 1.32E+03   3%   1.000 Cr+PCr                                              
 1.80E+03  16%   1.358 Glu+Gln                                             
  768.208  44%   0.581 Lip13a                                              
    0.000 999%   0.000 Lip13b                                              
   58.161 318% 4.4E-02 Lip09                                               
 1.07E+03  20%   0.806 MM09                                                
   92.145 136% 7.0E-02 Lip20                                               
 2.59E+03  11%   1.955 MM20                                                
  344.865  48%   0.261 MM12                                                
  899.751  29%   0.680 MM14                                                
  367.277  41%   0.278 MM17                                                
  768.208  44%   0.581 Lip13a+Lip13b                                       
 2.01E+03  14%   1.522 MM14+Lip13a+Lip13b+MM12                             
 1.12E+03  13%   0.850 MM09+Lip09                                          
 2.68E+03  11%   2.025 MM20+Lip20                                          
   6 lines in following misc. output table
  FWHM = 0.069 ppm    S/N =  18                                            
  Data shift = 0.031 ppm                                                   
  Ph: -48 deg     -14.3 deg/ppm                                            
  alphaB,S = 1.7E+00,   1.1E+02                                            
   14 spline knots.   Ns = 8(1)                                            
  (13) 4 infls.   ( 5) 1 extrs.                                            
  498 points on ppm-axis = NY
      4.000000     3.992357     3.984714     3.977070     3.969427     3.961784     3.954141     3.946497     3.938854     3.931211
      3.923568     3.915925     3.908281     3.900638     3.892995     3.885352     3.877708     3.870065     3.862422     3.854779
      3.847136     3.839492     3.831849     3.824206     3.816563     3.808919     3.801276     3.793633     3.785990     3.778347
      3.770703     3.763060     3.755417     3.747774     3.740130     3.732487     3.724844     3.717201     3.709558     3.701914
      3.694271     3.686628     3.678985     3.671341     3.663698     3.656055     3.648412     3.640769     3.633125     3.625482
      3.617839     3.610196     3.602552     3.594909     3.587266     3.579623     3.571980     3.564336     3.556693     3.549050
      3.541407     3.533763     3.526120     3.518477     3.510834     3.503191     3.495547     3.487904     3.480261     3.472618
      3.464974     3.457331     3.449688     3.442045     3.434402     3.426758     3.419115     3.411472     3.403829     3.396185
      3.388542     3.380899     3.373256     3.365613     3.357969     3.350326     3.342683     3.335040     3.327396     3.319753
      3.312110     3.304467     3.296824     3.289180     3.281537     3.273894     3.266251     3.258607     3.250964     3.243321
      3.235678     3.228034     3.220391     3.212748     3.205105     3.197462     3.189818     3.182175     3.174532     3.166889
      3.159245     3.151602     3.143959     3.136316     3.128673     3.121029     3.113386     3.105743     3.098100     3.090456
      3.082813     3.075170     3.067527     3.059884     3.052240     3.044597     3.036954     3.029311     3.021667     3.014024
      3.006381     2.998738     2.991095     2.983451     2.975808     2.968165     2.960522     2.952878     2.945235     2.937592
      2.929949     2.922306     2.914662     2.907019     2.899376     2.891733     2.884089     2.876446     2.868803     2.861160
      2.853517     2.845873     2.838230     2.830587     2.822944     2.815300     2.807657     2.800014     2.792371     2.784728
      2.777084     2.769441     2.761798     2.754155     2.746511     2.738868     2.731225     2.723582     2.715939     2.708295
      2.700652     2.693009     2.685366     2.677722     2.670079     2.662436     2.654793     2.647150     2.639506     2.631863
      2.624220     2.616577     2.608933     2.601290     2.593647     2.586004     2.578361     2.570717     2.563074     2.555431
      2.547788     2.540144     2.532501     2.524858     2.517215     2.509572     2.501928     2.494285     2.486642     2.478999
      2.471355     2.463712     2.456069     2.448426     2.440783     2.433139     2.425496     2.417853     2.410210     2.402566
      2.394923     2.387280     2.379637     2.371994     2.364350     2.356707     2.349064     2.341421     2.333777     2.326134
      2.318491     2.310848     2.303205     2.295561     2.287918     2.280275     2.272632     2.264988     2.257345     2.249702
      2.242059     2.234416     2.226772     2.219129     2.211486     2.203843     2.196199     2.188556     2.180913     2.173270
      2.165627     2.157983     2.150340     2.142697     2.135054     2.127410     2.119767     2.112124     2.104481     2.096838
      2.089194     2.081551     2.073908     2.066265     2.058621     2.050978     2.043335     2.035692     2.028049     2.020405
      2.012762     2.005119     1.997476     1.989833     1.982190     1.974546     1.966903     1.959260     1.951617     1.943974
      1.936331     1.928688     1.921045     1.913402     1.905759     1.898115     1.890472     1.882829     1.875186     1.867543
      1.859900     1.852257     1.844614     1.836971     1.829327     1.821684     1.814041     1.806398     1.798755     1.791112
      1.783469     1.775826     1.768183     1.760540     1.752896     1.745253     1.737610     1.729967     1.722324     1.714681
      1.707038     1.699395     1.691752     1.684108     1.676465     1.668822     1.661179     1.653536     1.645893     1.638250
      1.630607     1.622964     1.615321     1.607677     1.600034     1.592391     1.584748     1.577105     1.569462     1.561819
      1.554176     1.546533     1.538890     1.531246     1.523603     1.515960     1.508317     1.500674     1.493031     1.485388
      1.477745     1.470102     1.462458     1.454815     1.447172     1.439529     1.431886     1.424243     1.416600     1.408957
      1.401314     1.393671     1.386027     1.378384     1.370741     1.363098     1.355455     1.347812     1.340169     1.332526
      1.324883     1.317240     1.309596     1.301953     1.294310     1.286667     1.279024     1.271381     1.263738     1.256095
      1.248452     1.240808     1.233165     1.225522     1.217879     1.210236     1.202593     1.194950     1.187307     1.179664
      1.172021     1.164377     1.156734     1.149091     1.141448     1.133805     1.126162     1.118519     1.110876     1.103233
      1.095590     1.087946     1.080303     1.072660     1.065017     1.057374     1.049731     1.042088     1.034445     1.026802
      1.019158     1.011515     1.003872     0.996229     0.988586     0.980943     0.973300     0.965657     0.958014     0.950371
      0.942727     0.935084     0.927441     0.919798     0.912155     0.904512     0.896869     0.889226     0.881583     0.873940
      0.866296     0.858653     0.851010     0.843367     0.835724     0.828081     0.820438     0.812795     0.805152     0.797508
      0.789865     0.782222     0.774579     0.766936     0.759293     0.751650     0.744007     0.736364     0.728721     0.721077
      0.713434     0.705791     0.698148     0.690505     0.682862     0.675219     0.667576     0.659933     0.652290     0.644646
      0.637003     0.629360     0.621717     0.614074     0.606431     0.598788     0.591145     0.583502     0.575858     0.568215
      0.560572     0.552929     0.545286     0.537643     0.530000     0.522357     0.514714     0.507071     0.499427     0.491784
      0.484141     0.476498     0.468855     0.461212     0.453569     0.445925     0.438282     0.430639     0.422996     0.415353
      0.407710     0.400067     0.392424     0.384780     0.377137     0.369494     0.361851     0.354208     0.346565     0.338922
      0.331278     0.323635     0.315992     0.308349     0.300706     0.293063     0.285420     0.277777     0.270133     0.262490
      0.254847     0.247204     0.239561     0.231918     0.224275     0.216631     0.208988     0.201345
 NY phased data points follow
  -3.53582E+01 -3.66964E+01 -3.40771E+01 -3.31104E+01 -2.82888E+01 -2.29433E+01 -1.92840E+01 -1.74562E+01 -1.41436E+01 -8.32074E+00
  -7.62986E+00 -1.07413E+01 -1.06954E+01 -1.34748E+01 -2.07972E+01 -2.20583E+01 -2.67824E+01 -2.55733E+01 -2.92131E+01 -2.92786E+01
  -3.35185E+01 -3.11803E+01 -3.19536E+01 -3.05242E+01 -2.87880E+01 -2.81996E+01 -2.57658E+01 -2.42650E+01 -2.31185E+01 -2.19619E+01
  -2.42043E+01 -2.26442E+01 -2.23905E+01 -2.25781E+01 -2.19449E+01 -2.49337E+01 -2.36411E+01 -2.39247E+01 -2.42798E+01 -2.13147E+01
  -2.36038E+01 -2.33993E+01 -2.23271E+01 -2.05241E+01 -2.11109E+01 -1.81989E+01 -1.57594E+01 -1.46795E+01 -1.76790E+01 -1.92304E+01
  -1.94966E+01 -2.04467E+01 -2.12538E+01 -2.18677E+01 -2.02092E+01 -2.12134E+01 -2.05376E+01 -2.19290E+01 -1.99986E+01 -1.90224E+01
  -2.40981E+01 -2.17419E+01 -2.48767E+01 -2.43312E+01 -2.52771E+01 -2.63334E+01 -2.66419E+01 -2.79195E+01 -2.40363E+01 -2.25232E+01
  -2.38822E+01 -2.09755E+01 -2.25430E+01 -2.01461E+01 -2.07370E+01 -2.37496E+01 -2.24239E+01 -2.11984E+01 -2.05857E+01 -1.82315E+01
  -2.06708E+01 -1.83437E+01 -1.65463E+01 -1.76270E+01 -1.91593E+01 -1.94968E+01 -1.62548E+01 -1.59649E+01 -1.66715E+01 -1.56793E+01
  -1.54374E+01 -1.36003E+01 -1.29760E+01 -1.35670E+01 -1.27757E+01 -1.33016E+01 -1.36721E+01 -9.89358E+00 -3.83009E+00  1.29734E+00
   5.72401E+00  1.18801E+01  1.60175E+01  1.80653E+01  1.38411E+01  1.07409E+01  8.87562E+00  4.73216E+00 -2.17870E+00 -3.44481E+00
  -7.42536E+00 -8.79393E+00 -1.29413E+01 -1.22334E+01 -1.34009E+01 -1.14940E+01 -1.15199E+01 -1.15286E+01 -1.37139E+01 -1.26047E+01
  -1.18089E+01 -9.82481E+00 -5.26113E+00 -3.86822E-01  7.36832E+00  1.49419E+01  1.98730E+01  2.50412E+01  2.12874E+01  1.79570E+01
   1.58898E+01  1.29307E+01  5.27429E+00 -7.17855E-01 -3.85646E+00 -6.65511E+00 -1.01068E+01 -1.15352E+01 -1.28492E+01 -1.37646E+01
  -1.23699E+01 -1.48520E+01 -1.06454E+01 -1.16934E+01 -1.39716E+01 -1.40267E+01 -1.11470E+01 -9.45771E+00 -1.09454E+01 -1.22083E+01
  -1.33828E+01 -1.38540E+01 -1.22071E+01 -1.23521E+01 -1.17922E+01 -1.12791E+01 -1.21244E+01 -1.33643E+01 -1.38569E+01 -1.33193E+01
  -1.58570E+01 -1.48852E+01 -1.51464E+01 -1.52028E+01 -1.49642E+01 -1.16337E+01 -1.47508E+01 -1.37623E+01 -1.45582E+01 -1.47587E+01
  -1.49574E+01 -1.61302E+01 -1.63510E+01 -1.75677E+01 -1.46896E+01 -1.84584E+01 -2.04139E+01 -1.68956E+01 -1.93490E+01 -1.65559E+01
  -1.65868E+01 -1.84002E+01 -1.66529E+01 -1.56779E+01 -1.70568E+01 -1.38682E+01 -1.43940E+01 -1.37735E+01 -1.15637E+01 -1.02446E+01
  -7.45466E+00 -3.82237E+00 -5.15765E+00 -1.45740E+00 -3.57601E+00 -5.32942E+00 -4.08292E+00 -6.43146E+00 -9.83391E+00 -4.20008E+00
  -6.82829E+00 -6.84537E+00 -5.63484E+00 -4.66459E+00 -5.35799E+00 -6.06960E+00 -5.42264E+00 -9.89785E+00 -9.42018E+00 -1.11692E+01
  -1.14024E+01 -8.53353E+00 -6.49489E+00 -2.30370E+00 -1.03116E+00  4.99751E-01 -2.72620E-01  6.25023E-01  8.41332E-01 -9.39206E-01
  -6.44445E+00 -5.01589E+00 -4.91523E+00 -3.75012E+00 -3.92351E+00 -3.88624E+00 -2.12091E+00 -1.54230E+00  7.11362E-01  6.94931E-01
   1.08618E+00  1.47011E+00  2.46239E+00  6.30285E-01  2.29155E+00  1.55704E+00  5.32401E-01  1.41610E+00  4.36100E+00  4.80306E-01
  -3.69162E-01 -1.38725E+00 -3.19349E+00  3.98936E-02 -9.51475E-02  3.12178E+00  3.60839E+00  5.62577E+00  4.58296E+00  6.65520E+00
   8.66048E+00  1.10768E+01  1.06251E+01  1.13249E+01  1.49741E+01  2.32529E+01  3.63021E+01  4.30058E+01  5.92819E+01  6.41861E+01
   6.91021E+01  6.62841E+01  6.11436E+01  5.79611E+01  4.97553E+01  3.82198E+01  3.17923E+01  2.43808E+01  1.77438E+01  1.42520E+01
   8.89471E+00  5.16605E+00  4.40338E+00  3.49160E+00  1.57824E+00  1.90573E+00  3.10863E+00  4.24265E+00  2.23022E+00  4.37235E+00
   1.23065E+00  2.57632E+00 -3.57632E-01  1.50621E+00 -1.68211E+00  9.35106E-01  1.88997E+00 -9.35975E-01  7.77784E-01  1.95922E-01
   7.51496E-01  2.30808E+00  9.73719E-01  1.08758E+00  1.00329E+00  2.57569E+00  3.15705E+00  2.89452E+00  4.40450E-01 -7.79987E-01
  -4.07643E-01  3.04691E+00  1.61359E+00  4.72660E-01  1.47723E+00  2.10167E+00  3.40355E+00  2.95609E+00  3.01932E+00  4.88374E+00
   2.78093E+00  1.73455E+00  3.62557E+00  2.76904E+00  5.07899E+00  4.63443E+00  5.01896E+00  3.44991E+00  2.24820E+00  1.03753E+00
   4.78135E+00  5.22748E+00  4.53515E+00  1.38786E+00  2.80487E+00  3.40377E+00  5.44278E+00  3.96035E+00  4.52872E+00  4.72371E+00
   3.38987E+00  6.31530E+00  4.35912E+00  5.19556E+00  5.97234E+00  5.70221E+00  8.64713E+00  8.90843E+00  6.29926E+00  4.72117E+00
   8.11224E+00  5.79565E+00  9.11298E+00  9.93641E+00  8.20423E+00  1.11192E+01  1.01180E+01  8.20270E+00  6.47691E+00  8.43650E+00
   7.18400E+00  9.74599E+00  7.03010E+00  8.20285E+00  9.36313E+00  8.18764E+00  1.02720E+01  7.52525E+00  7.65835E+00  5.67027E+00
   7.74509E+00  9.36188E+00  7.25695E+00  7.89754E+00  6.77271E+00  8.11169E+00  4.21884E+00  8.30929E+00  9.20090E+00  5.75242E+00
   7.18068E+00  7.08145E+00  5.12293E+00  6.67453E+00  3.73737E+00  8.02535E+00  3.02553E+00  6.26228E+00  7.54795E+00  3.72736E+00
   3.91635E+00  3.67505E+00  4.70698E+00  7.31308E+00  4.76855E+00  5.09853E+00  5.47290E+00  6.23605E+00  5.79452E+00  7.50365E+00
   7.62936E+00  7.27719E+00  7.64469E+00  7.52872E+00  5.24024E+00  7.75794E+00  5.23667E+00  9.02259E+00  9.47051E+00  8.64240E+00
   9.49898E+00  7.77928E+00  6.81981E+00  9.05742E+00  6.41620E+00  1.13123E+01  9.51446E+00  1.07977E+01  1.09144E+01  1.16508E+01
   1.25552E+01  1.11792E+01  1.26672E+01  1.13089E+01  1.03242E+01  1.15307E+01  9.06956E+00  1.09027E+01  9.65026E+00  6.54883E+00
   7.31371E+00  7.91627E+00  8.16274E+00  9.08024E+00  8.31347E+00  6.38642E+00  7.41477E+00  5.95775E+00  8.31588E+00  5.99516E+00
   3.21321E+00  4.57139E+00  4.24089E+00  2.81109E+00  7.25455E+00  4.46579E+00  4.07089E+00  5.47795E+00  5.87426E+00  5.86010E+00
   7.33664E+00  7.04737E+00  4.13079E+00  5.33365E+00  5.92422E+00  5.80329E+00  5.00539E+00  3.41599E+00  5.95879E+00  3.36572E+00
   4.97349E+00  3.55913E+00  4.36963E+00  5.99056E+00  3.63784E+00  3.98281E+00  4.76606E+00  2.57225E+00  4.74196E+00  4.74304E+00
   3.55175E+00  4.93736E+00  5.52679E+00  4.73233E+00  4.65245E+00  3.84483E+00  2.70434E+00  2.13770E+00  4.17150E+00  2.07707E+00
   9.97976E-01  5.15259E+00  2.26247E+00  2.72110E+00  4.31102E+00  3.96655E+00  6.16465E+00  2.18081E+00  1.29268E+00  6.26893E+00
   5.11568E+00  3.95533E+00  4.52649E+00  6.48918E+00  3.67734E+00  5.79561E+00  2.51110E+00  6.46300E+00  6.65460E+00  4.63660E+00
   4.72247E+00  4.22224E+00  5.29934E+00  3.50726E+00  3.02543E+00  4.97593E+00  2.59497E+00  6.99971E+00
 NY points of the fit to the data follow
  -3.28637E+01 -3.28095E+01 -3.19863E+01 -3.03860E+01 -2.76576E+01 -2.39340E+01 -1.97583E+01 -1.55608E+01 -1.20626E+01 -1.01209E+01
  -1.01365E+01 -1.13573E+01 -1.30169E+01 -1.53450E+01 -1.82977E+01 -2.09920E+01 -2.29325E+01 -2.44907E+01 -2.63694E+01 -2.81748E+01
  -2.88342E+01 -2.91217E+01 -2.92830E+01 -2.93240E+01 -2.90751E+01 -2.83328E+01 -2.71530E+01 -2.56473E+01 -2.39602E+01 -2.23528E+01
  -2.12579E+01 -2.08588E+01 -2.08648E+01 -2.11951E+01 -2.19813E+01 -2.30585E+01 -2.40364E+01 -2.46927E+01 -2.52107E+01 -2.56217E+01
  -2.54254E+01 -2.45027E+01 -2.31615E+01 -2.16347E+01 -2.00694E+01 -1.86934E+01 -1.79626E+01 -1.80329E+01 -1.86126E+01 -1.94567E+01
  -2.04776E+01 -2.16395E+01 -2.26795E+01 -2.32322E+01 -2.33716E+01 -2.34133E+01 -2.33621E+01 -2.30207E+01 -2.25230E+01 -2.22126E+01
  -2.21815E+01 -2.23127E+01 -2.25233E+01 -2.27407E+01 -2.28975E+01 -2.29077E+01 -2.27169E+01 -2.24256E+01 -2.21085E+01 -2.17453E+01
  -2.13763E+01 -2.10447E+01 -2.08061E+01 -2.06548E+01 -2.05704E+01 -2.05904E+01 -2.06973E+01 -2.07922E+01 -2.08274E+01 -2.07304E+01
  -2.05206E+01 -2.01215E+01 -1.93782E+01 -1.84244E+01 -1.74254E+01 -1.64596E+01 -1.56774E+01 -1.52907E+01 -1.53245E+01 -1.55375E+01
  -1.57796E+01 -1.61728E+01 -1.66838E+01 -1.70230E+01 -1.68934E+01 -1.59974E+01 -1.43191E+01 -1.10137E+01 -5.71728E+00  5.83819E-01
   7.08690E+00  1.28197E+01  1.64823E+01  1.71846E+01  1.54701E+01  1.25600E+01  8.68856E+00  3.77438E+00 -1.18281E+00 -5.13599E+00
  -8.22035E+00 -1.13077E+01 -1.43806E+01 -1.59775E+01 -1.63696E+01 -1.64084E+01 -1.63153E+01 -1.61307E+01 -1.57784E+01 -1.48465E+01
  -1.29929E+01 -9.94216E+00 -4.98078E+00  1.37795E+00  8.25947E+00  1.49360E+01  2.01280E+01  2.24653E+01  2.17163E+01  1.92574E+01
   1.59327E+01  1.12995E+01  5.77510E+00  8.31146E-01 -2.91759E+00 -6.19419E+00 -9.77983E+00 -1.24810E+01 -1.31114E+01 -1.30467E+01
  -1.28136E+01 -1.25852E+01 -1.24514E+01 -1.23814E+01 -1.23041E+01 -1.22677E+01 -1.22995E+01 -1.23671E+01 -1.24690E+01 -1.25992E+01
  -1.27268E+01 -1.28297E+01 -1.28619E+01 -1.28659E+01 -1.28629E+01 -1.28853E+01 -1.29804E+01 -1.31265E+01 -1.32910E+01 -1.34192E+01
  -1.34475E+01 -1.33645E+01 -1.32002E+01 -1.30540E+01 -1.30147E+01 -1.30888E+01 -1.32362E+01 -1.34306E+01 -1.36948E+01 -1.40188E+01
  -1.43089E+01 -1.46049E+01 -1.49264E+01 -1.52315E+01 -1.54797E+01 -1.55388E+01 -1.54111E+01 -1.52102E+01 -1.50278E+01 -1.49107E+01
  -1.47812E+01 -1.45917E+01 -1.44075E+01 -1.42046E+01 -1.38466E+01 -1.32056E+01 -1.23199E+01 -1.13651E+01 -1.03788E+01 -9.45094E+00
  -8.67983E+00 -8.12877E+00 -7.86768E+00 -7.83049E+00 -7.84497E+00 -7.76033E+00 -7.47706E+00 -7.05907E+00 -6.47605E+00 -5.67393E+00
  -4.87575E+00 -4.24168E+00 -3.83607E+00 -3.83218E+00 -4.38335E+00 -5.41301E+00 -6.61232E+00 -7.69948E+00 -8.56186E+00 -8.97185E+00
  -8.79751E+00 -8.01403E+00 -6.75657E+00 -5.24133E+00 -3.69543E+00 -2.58720E+00 -2.15119E+00 -2.31541E+00 -2.97174E+00 -4.02042E+00
  -5.23671E+00 -6.18667E+00 -6.46791E+00 -6.08423E+00 -5.33554E+00 -4.49587E+00 -3.59370E+00 -2.53522E+00 -1.63007E+00 -1.07871E+00
  -7.53200E-01 -3.53429E-01  2.20274E-01  7.80663E-01  1.31761E+00  1.98192E+00  2.60001E+00  2.90312E+00  2.86101E+00  2.59491E+00
   2.24950E+00  1.90781E+00  1.69912E+00  1.81957E+00  2.27290E+00  2.86011E+00  3.49847E+00  4.21915E+00  5.03316E+00  5.84460E+00
   6.72540E+00  7.83844E+00  9.66106E+00  1.27873E+01  1.74401E+01  2.48686E+01  3.47069E+01  4.55355E+01  5.62128E+01  6.48179E+01
   6.90159E+01  6.78947E+01  6.33748E+01  5.73101E+01  4.92604E+01  3.95853E+01  3.07365E+01  2.40341E+01  1.83834E+01  1.21898E+01
   6.70841E+00  4.45060E+00  3.62705E+00  3.14960E+00  2.81611E+00  2.57028E+00  2.34240E+00  2.12758E+00  1.92398E+00  1.72270E+00
   1.53728E+00  1.38488E+00  1.25474E+00  1.12950E+00  1.02018E+00  9.43619E-01  8.96037E-01  8.66820E-01  8.54649E-01  8.65273E-01
   9.00490E-01  9.51189E-01  1.01415E+00  1.09176E+00  1.18393E+00  1.28765E+00  1.40076E+00  1.52210E+00  1.65111E+00  1.78553E+00
   1.92210E+00  2.05746E+00  2.18999E+00  2.31719E+00  2.43630E+00  2.54499E+00  2.64212E+00  2.72739E+00  2.80073E+00  2.86204E+00
   2.91312E+00  2.95625E+00  2.99367E+00  3.02806E+00  3.06300E+00  3.10197E+00  3.14842E+00  3.20584E+00  3.27836E+00  3.37073E+00
   3.48381E+00  3.61928E+00  3.77469E+00  3.93948E+00  4.10640E+00  4.26895E+00  4.42006E+00  4.56207E+00  4.70804E+00  4.87293E+00
   5.06478E+00  5.28290E+00  5.53275E+00  5.81646E+00  6.11794E+00  6.41157E+00  6.68547E+00  6.95416E+00  7.21985E+00  7.47417E+00
   7.71402E+00  7.95028E+00  8.18591E+00  8.38090E+00  8.49825E+00  8.52402E+00  8.44971E+00  8.28506E+00  8.07480E+00  7.89307E+00
   7.77913E+00  7.72875E+00  7.76758E+00  7.91166E+00  8.10709E+00  8.26280E+00  8.34535E+00  8.41435E+00  8.46643E+00  8.43168E+00
   8.31620E+00  8.16366E+00  8.00157E+00  7.81540E+00  7.57901E+00  7.33686E+00  7.12007E+00  6.91519E+00  6.71684E+00  6.52424E+00
   6.33811E+00  6.15976E+00  5.99073E+00  5.83252E+00  5.68665E+00  5.55449E+00  5.43738E+00  5.33649E+00  5.25292E+00  5.18763E+00
   5.14155E+00  5.11557E+00  5.11061E+00  5.12754E+00  5.16729E+00  5.23073E+00  5.31882E+00  5.43244E+00  5.57246E+00  5.73958E+00
   5.93426E+00  6.15662E+00  6.40639E+00  6.68275E+00  6.98421E+00  7.30846E+00  7.65233E+00  8.01173E+00  8.38165E+00  8.75621E+00
   9.12871E+00  9.49181E+00  9.83774E+00  1.01586E+01  1.04467E+01  1.06947E+01  1.08962E+01  1.10459E+01  1.11398E+01  1.11754E+01
   1.11520E+01  1.10707E+01  1.09341E+01  1.07463E+01  1.05128E+01  1.02400E+01  9.93518E+00  9.60585E+00  9.25962E+00  8.90382E+00
   8.54534E+00  8.19035E+00  7.84420E+00  7.51128E+00  7.19502E+00  6.89793E+00  6.62167E+00  6.36711E+00  6.13447E+00  5.92336E+00
   5.73301E+00  5.56232E+00  5.41000E+00  5.27462E+00  5.15472E+00  5.04880E+00  4.95543E+00  4.87327E+00  4.80110E+00  4.73779E+00
   4.68231E+00  4.63373E+00  4.59123E+00  4.55412E+00  4.52178E+00  4.49366E+00  4.46928E+00  4.44820E+00  4.43006E+00  4.41458E+00
   4.40147E+00  4.39048E+00  4.38140E+00  4.37404E+00  4.36823E+00  4.36385E+00  4.36078E+00  4.35888E+00  4.35804E+00  4.35817E+00
   4.35921E+00  4.36110E+00  4.36376E+00  4.36711E+00  4.37111E+00  4.37571E+00  4.38089E+00  4.38659E+00  4.39279E+00  4.39942E+00
   4.40647E+00  4.41393E+00  4.42177E+00  4.42997E+00  4.43850E+00  4.44733E+00  4.45645E+00  4.46586E+00  4.47555E+00  4.48549E+00
   4.49566E+00  4.50605E+00  4.51666E+00  4.52749E+00  4.53853E+00  4.54976E+00  4.56116E+00  4.57273E+00  4.58449E+00  4.59643E+00
   4.60853E+00  4.62078E+00  4.63318E+00  4.64573E+00  4.65844E+00  4.67131E+00  4.68433E+00  4.69749E+00
 NY background values follow
    -3.731E+01   -3.714E+01   -3.696E+01   -3.679E+01   -3.661E+01   -3.644E+01   -3.627E+01   -3.609E+01   -3.592E+01   -3.574E+01
    -3.557E+01   -3.539E+01   -3.522E+01   -3.505E+01   -3.487E+01   -3.470E+01   -3.452E+01   -3.435E+01   -3.418E+01   -3.400E+01
    -3.383E+01   -3.366E+01   -3.348E+01   -3.331E+01   -3.314E+01   -3.296E+01   -3.279E+01   -3.262E+01   -3.245E+01   -3.227E+01
    -3.210E+01   -3.193E+01   -3.176E+01   -3.159E+01   -3.141E+01   -3.124E+01   -3.107E+01   -3.090E+01   -3.073E+01   -3.056E+01
    -3.039E+01   -3.022E+01   -3.005E+01   -2.988E+01   -2.971E+01   -2.954E+01   -2.937E+01   -2.920E+01   -2.904E+01   -2.887E+01
    -2.870E+01   -2.853E+01   -2.837E+01   -2.820E+01   -2.803E+01   -2.787E+01   -2.770E+01   -2.754E+01   -2.737E+01   -2.721E+01
    -2.704E+01   -2.688E+01   -2.671E+01   -2.655E+01   -2.639E+01   -2.623E+01   -2.606E+01   -2.590E+01   -2.574E+01   -2.558E+01
    -2.542E+01   -2.526E+01   -2.510E+01   -2.494E+01   -2.478E+01   -2.463E+01   -2.447E+01   -2.431E+01   -2.415E+01   -2.400E+01
    -2.384E+01   -2.369E+01   -2.353E+01   -2.338E+01   -2.323E+01   -2.307E+01   -2.292E+01   -2.277E+01   -2.262E+01   -2.247E+01
    -2.232E+01   -2.217E+01   -2.202E+01   -2.187E+01   -2.172E+01   -2.157E+01   -2.143E+01   -2.128E+01   -2.114E+01   -2.099E+01
    -2.085E+01   -2.070E+01   -2.056E+01   -2.042E+01   -2.028E+01   -2.013E+01   -1.999E+01   -1.985E+01   -1.971E+01   -1.957E+01
    -1.943E+01   -1.930E+01   -1.916E+01   -1.902E+01   -1.889E+01   -1.875E+01   -1.861E+01   -1.848E+01   -1.835E+01   -1.821E+01
    -1.808E+01   -1.795E+01   -1.782E+01   -1.768E+01   -1.755E+01   -1.742E+01   -1.729E+01   -1.716E+01   -1.704E+01   -1.691E+01
    -1.678E+01   -1.665E+01   -1.653E+01   -1.640E+01   -1.628E+01   -1.615E+01   -1.603E+01   -1.590E+01   -1.578E+01   -1.566E+01
    -1.554E+01   -1.541E+01   -1.529E+01   -1.517E+01   -1.505E+01   -1.493E+01   -1.481E+01   -1.470E+01   -1.458E+01   -1.446E+01
    -1.434E+01   -1.423E+01   -1.411E+01   -1.400E+01   -1.388E+01   -1.377E+01   -1.365E+01   -1.354E+01   -1.342E+01   -1.331E+01
    -1.320E+01   -1.309E+01   -1.297E+01   -1.286E+01   -1.275E+01   -1.264E+01   -1.253E+01   -1.242E+01   -1.231E+01   -1.220E+01
    -1.209E+01   -1.198E+01   -1.188E+01   -1.177E+01   -1.166E+01   -1.155E+01   -1.145E+01   -1.134E+01   -1.123E+01   -1.113E+01
    -1.102E+01   -1.092E+01   -1.081E+01   -1.071E+01   -1.060E+01   -1.050E+01   -1.039E+01   -1.029E+01   -1.019E+01   -1.008E+01
    -9.981E+00   -9.879E+00   -9.777E+00   -9.676E+00   -9.574E+00   -9.474E+00   -9.373E+00   -9.273E+00   -9.173E+00   -9.074E+00
    -8.975E+00   -8.876E+00   -8.778E+00   -8.680E+00   -8.583E+00   -8.486E+00   -8.389E+00   -8.293E+00   -8.198E+00   -8.102E+00
    -8.008E+00   -7.913E+00   -7.819E+00   -7.726E+00   -7.633E+00   -7.540E+00   -7.448E+00   -7.357E+00   -7.265E+00   -7.175E+00
    -7.085E+00   -6.995E+00   -6.906E+00   -6.817E+00   -6.729E+00   -6.642E+00   -6.554E+00   -6.468E+00   -6.382E+00   -6.296E+00
    -6.212E+00   -6.127E+00   -6.043E+00   -5.960E+00   -5.877E+00   -5.794E+00   -5.713E+00   -5.631E+00   -5.550E+00   -5.470E+00
    -5.390E+00   -5.311E+00   -5.232E+00   -5.153E+00   -5.075E+00   -4.998E+00   -4.921E+00   -4.845E+00   -4.769E+00   -4.693E+00
    -4.618E+00   -4.543E+00   -4.469E+00   -4.396E+00   -4.322E+00   -4.250E+00   -4.177E+00   -4.106E+00   -4.034E+00   -3.963E+00
    -3.893E+00   -3.823E+00   -3.753E+00   -3.684E+00   -3.615E+00   -3.547E+00   -3.479E+00   -3.412E+00   -3.345E+00   -3.278E+00
    -3.212E+00   -3.146E+00   -3.081E+00   -3.016E+00   -2.951E+00   -2.887E+00   -2.823E+00   -2.760E+00   -2.697E+00   -2.635E+00
    -2.573E+00   -2.511E+00   -2.450E+00   -2.389E+00   -2.328E+00   -2.268E+00   -2.208E+00   -2.149E+00   -2.090E+00   -2.032E+00
    -1.973E+00   -1.916E+00   -1.858E+00   -1.801E+00   -1.745E+00   -1.689E+00   -1.633E+00   -1.577E+00   -1.522E+00   -1.467E+00
    -1.413E+00   -1.359E+00   -1.305E+00   -1.252E+00   -1.199E+00   -1.147E+00   -1.095E+00   -1.043E+00   -9.914E-01   -9.404E-01
    -8.897E-01   -8.393E-01   -7.894E-01   -7.397E-01   -6.904E-01   -6.415E-01   -5.929E-01   -5.447E-01   -4.968E-01   -4.493E-01
    -4.021E-01   -3.552E-01   -3.087E-01   -2.626E-01   -2.167E-01   -1.712E-01   -1.260E-01   -8.121E-02   -3.670E-02    7.479E-03
     5.133E-02    9.486E-02    1.381E-01    1.809E-01    2.235E-01    2.657E-01    3.077E-01    3.493E-01    3.906E-01    4.316E-01
     4.722E-01    5.126E-01    5.527E-01    5.924E-01    6.319E-01    6.710E-01    7.098E-01    7.484E-01    7.866E-01    8.246E-01
     8.623E-01    8.996E-01    9.367E-01    9.735E-01    1.010E+00    1.046E+00    1.082E+00    1.118E+00    1.153E+00    1.188E+00
     1.223E+00    1.258E+00    1.292E+00    1.326E+00    1.360E+00    1.393E+00    1.426E+00    1.459E+00    1.492E+00    1.524E+00
     1.556E+00    1.588E+00    1.620E+00    1.651E+00    1.682E+00    1.713E+00    1.744E+00    1.774E+00    1.805E+00    1.835E+00
     1.864E+00    1.894E+00    1.923E+00    1.952E+00    1.981E+00    2.009E+00    2.038E+00    2.066E+00    2.094E+00    2.121E+00
     2.149E+00    2.176E+00    2.203E+00    2.230E+00    2.256E+00    2.283E+00    2.309E+00    2.335E+00    2.361E+00    2.387E+00
     2.412E+00    2.437E+00    2.462E+00    2.487E+00    2.512E+00    2.536E+00    2.561E+00    2.585E+00    2.609E+00    2.633E+00
     2.656E+00    2.680E+00    2.703E+00    2.726E+00    2.749E+00    2.772E+00    2.794E+00    2.817E+00    2.839E+00    2.861E+00
     2.884E+00    2.905E+00    2.927E+00    2.949E+00    2.970E+00    2.992E+00    3.013E+00    3.034E+00    3.055E+00    3.076E+00
     3.096E+00    3.117E+00    3.137E+00    3.158E+00    3.178E+00    3.198E+00    3.218E+00    3.238E+00    3.258E+00    3.278E+00
     3.297E+00    3.317E+00    3.336E+00    3.355E+00    3.375E+00    3.394E+00    3.413E+00    3.432E+00    3.451E+00    3.470E+00
     3.488E+00    3.507E+00    3.526E+00    3.544E+00    3.563E+00    3.581E+00    3.599E+00    3.618E+00    3.636E+00    3.654E+00
     3.672E+00    3.690E+00    3.708E+00    3.726E+00    3.744E+00    3.762E+00    3.780E+00    3.798E+00    3.815E+00    3.833E+00
     3.851E+00    3.868E+00    3.886E+00    3.904E+00    3.921E+00    3.939E+00    3.956E+00    3.974E+00    3.992E+00    4.009E+00
     4.027E+00    4.044E+00    4.062E+00    4.079E+00    4.097E+00    4.114E+00    4.132E+00    4.149E+00    4.167E+00    4.184E+00
     4.202E+00    4.219E+00    4.237E+00    4.254E+00    4.272E+00    4.289E+00    4.307E+00    4.325E+00
 Ala      Conc. = 2.24E+01
