 LCModel (Version 6.3-1L) Copyright: S.W. Provencher.          Ref.: Magn. Reson. Med. 30:672-679 (1993).                
 Slice#3 Row#3 Col#12  PD_05_press_1_raw_act
 36 lines in following concentration table = NCONC+1
    Conc.  %SD /Cr+PCr  Metabolite                                         
    0.000 999%   0.000 Ala                                                 
    4.905  82%   0.137 Asp                                                 
    0.000 999%   0.000 Cr                                                  
   35.775  77%   1.000 PCr                                                 
    2.867  84% 8.0E-02 GABA                                                
    2.900  83% 8.1E-02 Glc                                                 
    0.000 999%   0.000 Gln                                                 
  305.714  48%   8.545 Glu                                                 
    0.000 999%   0.000 GPC                                                 
   19.646  52%   0.549 PCh                                                 
    4.612 842%   0.129 GSH                                                 
   14.469 999%   0.404 Ins                                                 
    0.000 999%   0.000 Lac                                                 
    0.000 999%   0.000 NAA                                                 
    0.000 999%   0.000 NAAG                                                
    0.939  86% 2.6E-02 Scyllo                                              
    4.923  82%   0.138 Tau                                                 
    3.584  79%   0.100 -CrCH2                                              
   19.646  52%   0.549 GPC+PCh                                             
    0.000 999%   0.000 NAA+NAAG                                            
   35.775  77%   1.000 Cr+PCr                                              
  305.714  48%   8.545 Glu+Gln                                             
 1.03E+05   3% 2.9E+03 Lip13a                                              
 2.18E+04  14% 609.454 Lip13b                                              
    0.000 999%   0.000-Lip09                                               
 2.19E+03  13%  61.327 MM09                                                
 1.39E+04  15% 388.098 Lip20                                               
 3.29E+03  13%  92.057 MM20                                                
  658.180  13%  18.398 MM12                                                
 1.65E+03  13%  46.044 MM14                                                
  821.945  14%  22.975 MM17                                                
 1.25E+05   2% 3.5E+03 Lip13a+Lip13b                                       
 1.28E+05   2% 3.6E+03 MM14+Lip13a+Lip13b+MM12                             
 2.19E+03  13%  61.327 MM09+Lip09                                          
 1.72E+04  11% 480.155 MM20+Lip20                                          
   6 lines in following misc. output table
  FWHM = 0.069 ppm    S/N = 105                                            
  Data shift = 0.023 ppm                                                   
  Ph: -94 deg     -48.4 deg/ppm                                            
  alphaB,S = 1.9E+00,   2.9E+01                                            
   14 spline knots.   Ns = 5(1)                                            
  ( 9) 3 infls.   (11) 1 extrs.                                            
  498 points on ppm-axis = NY
      4.000000     3.992357     3.984714     3.977070     3.969427     3.961784     3.954141     3.946497     3.938854     3.931211
      3.923568     3.915925     3.908281     3.900638     3.892995     3.885352     3.877708     3.870065     3.862422     3.854779
      3.847136     3.839492     3.831849     3.824206     3.816563     3.808919     3.801276     3.793633     3.785990     3.778347
      3.770703     3.763060     3.755417     3.747774     3.740130     3.732487     3.724844     3.717201     3.709558     3.701914
      3.694271     3.686628     3.678985     3.671341     3.663698     3.656055     3.648412     3.640769     3.633125     3.625482
      3.617839     3.610196     3.602552     3.594909     3.587266     3.579623     3.571980     3.564336     3.556693     3.549050
      3.541407     3.533763     3.526120     3.518477     3.510834     3.503191     3.495547     3.487904     3.480261     3.472618
      3.464974     3.457331     3.449688     3.442045     3.434402     3.426758     3.419115     3.411472     3.403829     3.396185
      3.388542     3.380899     3.373256     3.365613     3.357969     3.350326     3.342683     3.335040     3.327396     3.319753
      3.312110     3.304467     3.296824     3.289180     3.281537     3.273894     3.266251     3.258607     3.250964     3.243321
      3.235678     3.228034     3.220391     3.212748     3.205105     3.197462     3.189818     3.182175     3.174532     3.166889
      3.159245     3.151602     3.143959     3.136316     3.128673     3.121029     3.113386     3.105743     3.098100     3.090456
      3.082813     3.075170     3.067527     3.059884     3.052240     3.044597     3.036954     3.029311     3.021667     3.014024
      3.006381     2.998738     2.991095     2.983451     2.975808     2.968165     2.960522     2.952878     2.945235     2.937592
      2.929949     2.922306     2.914662     2.907019     2.899376     2.891733     2.884089     2.876446     2.868803     2.861160
      2.853517     2.845873     2.838230     2.830587     2.822944     2.815300     2.807657     2.800014     2.792371     2.784728
      2.777084     2.769441     2.761798     2.754155     2.746511     2.738868     2.731225     2.723582     2.715939     2.708295
      2.700652     2.693009     2.685366     2.677722     2.670079     2.662436     2.654793     2.647150     2.639506     2.631863
      2.624220     2.616577     2.608933     2.601290     2.593647     2.586004     2.578361     2.570717     2.563074     2.555431
      2.547788     2.540144     2.532501     2.524858     2.517215     2.509572     2.501928     2.494285     2.486642     2.478999
      2.471355     2.463712     2.456069     2.448426     2.440783     2.433139     2.425496     2.417853     2.410210     2.402566
      2.394923     2.387280     2.379637     2.371994     2.364350     2.356707     2.349064     2.341421     2.333777     2.326134
      2.318491     2.310848     2.303205     2.295561     2.287918     2.280275     2.272632     2.264988     2.257345     2.249702
      2.242059     2.234416     2.226772     2.219129     2.211486     2.203843     2.196199     2.188556     2.180913     2.173270
      2.165627     2.157983     2.150340     2.142697     2.135054     2.127410     2.119767     2.112124     2.104481     2.096838
      2.089194     2.081551     2.073908     2.066265     2.058621     2.050978     2.043335     2.035692     2.028049     2.020405
      2.012762     2.005119     1.997476     1.989833     1.982190     1.974546     1.966903     1.959260     1.951617     1.943974
      1.936331     1.928688     1.921045     1.913402     1.905759     1.898115     1.890472     1.882829     1.875186     1.867543
      1.859900     1.852257     1.844614     1.836971     1.829327     1.821684     1.814041     1.806398     1.798755     1.791112
      1.783469     1.775826     1.768183     1.760540     1.752896     1.745253     1.737610     1.729967     1.722324     1.714681
      1.707038     1.699395     1.691752     1.684108     1.676465     1.668822     1.661179     1.653536     1.645893     1.638250
      1.630607     1.622964     1.615321     1.607677     1.600034     1.592391     1.584748     1.577105     1.569462     1.561819
      1.554176     1.546533     1.538890     1.531246     1.523603     1.515960     1.508317     1.500674     1.493031     1.485388
      1.477745     1.470102     1.462458     1.454815     1.447172     1.439529     1.431886     1.424243     1.416600     1.408957
      1.401314     1.393671     1.386027     1.378384     1.370741     1.363098     1.355455     1.347812     1.340169     1.332526
      1.324883     1.317240     1.309596     1.301953     1.294310     1.286667     1.279024     1.271381     1.263738     1.256095
      1.248452     1.240808     1.233165     1.225522     1.217879     1.210236     1.202593     1.194950     1.187307     1.179664
      1.172021     1.164377     1.156734     1.149091     1.141448     1.133805     1.126162     1.118519     1.110876     1.103233
      1.095590     1.087946     1.080303     1.072660     1.065017     1.057374     1.049731     1.042088     1.034445     1.026802
      1.019158     1.011515     1.003872     0.996229     0.988586     0.980943     0.973300     0.965657     0.958014     0.950371
      0.942727     0.935084     0.927441     0.919798     0.912155     0.904512     0.896869     0.889226     0.881583     0.873940
      0.866296     0.858653     0.851010     0.843367     0.835724     0.828081     0.820438     0.812795     0.805152     0.797508
      0.789865     0.782222     0.774579     0.766936     0.759293     0.751650     0.744007     0.736364     0.728721     0.721077
      0.713434     0.705791     0.698148     0.690505     0.682862     0.675219     0.667576     0.659933     0.652290     0.644646
      0.637003     0.629360     0.621717     0.614074     0.606431     0.598788     0.591145     0.583502     0.575858     0.568215
      0.560572     0.552929     0.545286     0.537643     0.530000     0.522357     0.514714     0.507071     0.499427     0.491784
      0.484141     0.476498     0.468855     0.461212     0.453569     0.445925     0.438282     0.430639     0.422996     0.415353
      0.407710     0.400067     0.392424     0.384780     0.377137     0.369494     0.361851     0.354208     0.346565     0.338922
      0.331278     0.323635     0.315992     0.308349     0.300706     0.293063     0.285420     0.277777     0.270133     0.262490
      0.254847     0.247204     0.239561     0.231918     0.224275     0.216631     0.208988     0.201345
 NY phased data points follow
   2.80018E+01  3.05926E+01  2.95365E+01  3.23114E+01  3.16911E+01  3.17657E+01  3.12919E+01  3.07062E+01  3.41767E+01  3.28827E+01
   3.15167E+01  3.17684E+01  3.19916E+01  3.47250E+01  3.13054E+01  3.54060E+01  3.26955E+01  3.34529E+01  3.64441E+01  3.36399E+01
   3.69935E+01  3.51846E+01  3.45620E+01  3.52933E+01  3.70281E+01  3.80910E+01  3.88026E+01  3.81729E+01  3.65846E+01  3.74842E+01
   3.85978E+01  3.97758E+01  3.75750E+01  3.81215E+01  3.81556E+01  4.02684E+01  3.96540E+01  3.83464E+01  4.03135E+01  3.91433E+01
   3.90125E+01  4.01967E+01  4.25497E+01  4.16590E+01  4.04039E+01  4.19814E+01  4.12673E+01  4.18683E+01  4.23015E+01  4.33288E+01
   4.25515E+01  4.38297E+01  4.28354E+01  4.30441E+01  4.28781E+01  4.16560E+01  4.54488E+01  4.42506E+01  4.32209E+01  4.21554E+01
   4.32835E+01  4.64896E+01  4.66119E+01  4.80525E+01  4.55358E+01  4.73021E+01  4.53131E+01  4.73971E+01  4.78799E+01  4.63294E+01
   5.05629E+01  4.92001E+01  4.74696E+01  5.12452E+01  4.99724E+01  5.15569E+01  5.20250E+01  5.23149E+01  5.11774E+01  5.04328E+01
   5.07164E+01  5.11953E+01  5.18938E+01  5.17609E+01  5.14406E+01  5.00636E+01  5.11827E+01  5.29128E+01  5.28291E+01  5.18017E+01
   5.21384E+01  5.35272E+01  5.31417E+01  5.50894E+01  5.47222E+01  5.46795E+01  5.53533E+01  5.68895E+01  5.59186E+01  5.61706E+01
   5.45188E+01  5.56667E+01  5.74805E+01  5.55282E+01  5.69076E+01  5.79515E+01  5.64123E+01  5.84224E+01  5.78707E+01  5.99763E+01
   5.93546E+01  5.80172E+01  5.88584E+01  5.87570E+01  6.04582E+01  5.90204E+01  5.97244E+01  5.98826E+01  5.98853E+01  6.30775E+01
   6.21729E+01  6.20078E+01  6.21760E+01  6.24475E+01  6.34869E+01  6.12487E+01  6.33802E+01  6.23465E+01  6.37258E+01  6.37463E+01
   6.48293E+01  6.23349E+01  6.49759E+01  6.41675E+01  6.38737E+01  6.35936E+01  6.58600E+01  6.55803E+01  6.76014E+01  6.51566E+01
   6.58333E+01  6.56723E+01  6.80909E+01  6.82041E+01  6.59601E+01  6.81546E+01  6.85150E+01  6.84952E+01  7.00523E+01  7.14475E+01
   6.99421E+01  6.80529E+01  7.00102E+01  7.10636E+01  6.90887E+01  7.12522E+01  7.19590E+01  7.27843E+01  7.45157E+01  7.46408E+01
   7.36610E+01  7.59325E+01  7.45868E+01  7.58388E+01  7.37368E+01  7.57829E+01  7.60513E+01  7.74958E+01  7.81990E+01  7.56467E+01
   7.59974E+01  7.49435E+01  7.86711E+01  7.87477E+01  7.72588E+01  7.70610E+01  7.79537E+01  8.07701E+01  7.65124E+01  7.81169E+01
   7.99856E+01  7.90330E+01  7.92585E+01  7.89193E+01  8.03351E+01  8.01210E+01  8.00049E+01  7.91264E+01  8.11181E+01  8.05097E+01
   8.10923E+01  8.16540E+01  8.13459E+01  8.13377E+01  8.12464E+01  8.54083E+01  8.25691E+01  8.34419E+01  8.45538E+01  8.64223E+01
   8.38864E+01  8.45647E+01  8.59978E+01  8.64184E+01  8.81397E+01  8.80651E+01  8.96842E+01  9.26415E+01  9.06712E+01  9.19086E+01
   9.32981E+01  9.42521E+01  9.36336E+01  9.48924E+01  9.61866E+01  9.56889E+01  9.75976E+01  9.77729E+01  1.00410E+02  1.01786E+02
   1.01473E+02  1.02234E+02  1.04736E+02  1.07485E+02  1.06585E+02  1.09996E+02  1.11121E+02  1.14047E+02  1.16031E+02  1.15981E+02
   1.17893E+02  1.20582E+02  1.23357E+02  1.24527E+02  1.25716E+02  1.28086E+02  1.30514E+02  1.28697E+02  1.32641E+02  1.33252E+02
   1.35437E+02  1.34973E+02  1.37958E+02  1.36333E+02  1.36915E+02  1.37494E+02  1.39845E+02  1.40189E+02  1.39914E+02  1.43104E+02
   1.42532E+02  1.41729E+02  1.43260E+02  1.42742E+02  1.44577E+02  1.43202E+02  1.46594E+02  1.43274E+02  1.45893E+02  1.45162E+02
   1.44428E+02  1.48420E+02  1.48555E+02  1.49815E+02  1.49882E+02  1.50592E+02  1.49023E+02  1.49293E+02  1.49424E+02  1.50448E+02
   1.50446E+02  1.49033E+02  1.50139E+02  1.48828E+02  1.48876E+02  1.49682E+02  1.46522E+02  1.47428E+02  1.48393E+02  1.45366E+02
   1.45070E+02  1.46117E+02  1.47003E+02  1.46009E+02  1.44458E+02  1.44893E+02  1.45656E+02  1.44978E+02  1.44121E+02  1.46150E+02
   1.46991E+02  1.46376E+02  1.47425E+02  1.47782E+02  1.48942E+02  1.47693E+02  1.51269E+02  1.51924E+02  1.52727E+02  1.54322E+02
   1.56309E+02  1.57682E+02  1.59604E+02  1.61022E+02  1.61322E+02  1.63613E+02  1.66935E+02  1.67894E+02  1.70577E+02  1.73554E+02
   1.75480E+02  1.79913E+02  1.80900E+02  1.85020E+02  1.87574E+02  1.91187E+02  1.95375E+02  1.98429E+02  2.00206E+02  2.03157E+02
   2.09252E+02  2.13664E+02  2.20204E+02  2.24158E+02  2.32058E+02  2.38259E+02  2.43717E+02  2.52084E+02  2.60498E+02  2.66951E+02
   2.72524E+02  2.81951E+02  2.91472E+02  3.00467E+02  3.06922E+02  3.14741E+02  3.24784E+02  3.34677E+02  3.41264E+02  3.52213E+02
   3.60148E+02  3.68046E+02  3.79273E+02  3.86597E+02  3.95974E+02  4.05587E+02  4.15096E+02  4.22467E+02  4.36105E+02  4.47996E+02
   4.57466E+02  4.65211E+02  4.74920E+02  4.84511E+02  4.94119E+02  5.02162E+02  5.10317E+02  5.13216E+02  5.15316E+02  5.17757E+02
   5.16724E+02  5.13731E+02  5.06456E+02  4.98379E+02  4.84529E+02  4.71833E+02  4.54381E+02  4.32309E+02  4.13635E+02  3.92818E+02
   3.73705E+02  3.54700E+02  3.37998E+02  3.20222E+02  3.04688E+02  2.94661E+02  2.81327E+02  2.68182E+02  2.59123E+02  2.47441E+02
   2.40157E+02  2.32420E+02  2.23053E+02  2.19372E+02  2.10772E+02  2.04195E+02  2.02313E+02  1.97025E+02  1.90614E+02  1.85743E+02
   1.82523E+02  1.78983E+02  1.74738E+02  1.70370E+02  1.68809E+02  1.68124E+02  1.63530E+02  1.61615E+02  1.57247E+02  1.58270E+02
   1.53327E+02  1.53508E+02  1.51988E+02  1.50485E+02  1.48504E+02  1.46928E+02  1.44871E+02  1.43376E+02  1.40187E+02  1.40329E+02
   1.39755E+02  1.37424E+02  1.35251E+02  1.33989E+02  1.33512E+02  1.33886E+02  1.32312E+02  1.30761E+02  1.29278E+02  1.27472E+02
   1.25707E+02  1.28431E+02  1.25403E+02  1.25098E+02  1.23488E+02  1.20425E+02  1.22668E+02  1.19136E+02  1.20650E+02  1.18973E+02
   1.16986E+02  1.17149E+02  1.14005E+02  1.17216E+02  1.12123E+02  1.13095E+02  1.09627E+02  1.09061E+02  1.08451E+02  1.08189E+02
   1.07486E+02  1.05422E+02  1.04783E+02  1.02909E+02  1.02433E+02  1.03538E+02  1.03872E+02  1.02877E+02  1.00229E+02  9.86483E+01
   9.78804E+01  9.77848E+01  9.75550E+01  9.71141E+01  9.59976E+01  9.51138E+01  9.37379E+01  9.27666E+01  9.45436E+01  9.30322E+01
   9.06600E+01  9.25520E+01  9.01313E+01  9.02856E+01  8.68009E+01  8.80887E+01  8.63943E+01  8.76533E+01  8.76096E+01  8.48197E+01
   8.44711E+01  8.29427E+01  8.47939E+01  8.28736E+01  8.26243E+01  8.16627E+01  8.20838E+01  8.15296E+01  8.21174E+01  8.07066E+01
   8.13981E+01  7.83851E+01  7.94252E+01  7.74668E+01  7.80334E+01  7.66890E+01  7.75695E+01  7.59030E+01  7.66929E+01  7.34939E+01
   7.42216E+01  7.52795E+01  7.36928E+01  7.35107E+01  7.48392E+01  7.28573E+01  7.28755E+01  7.20322E+01
 NY points of the fit to the data follow
   2.97071E+01  2.99716E+01  3.02459E+01  3.05671E+01  3.09794E+01  3.13975E+01  3.17622E+01  3.20764E+01  3.23634E+01  3.26463E+01
   3.29280E+01  3.31860E+01  3.33910E+01  3.35298E+01  3.36274E+01  3.37549E+01  3.39755E+01  3.42428E+01  3.45267E+01  3.48227E+01
   3.51360E+01  3.54762E+01  3.57806E+01  3.59802E+01  3.61286E+01  3.62965E+01  3.65184E+01  3.68259E+01  3.72043E+01  3.76076E+01
   3.79501E+01  3.82187E+01  3.84751E+01  3.87567E+01  3.90445E+01  3.93238E+01  3.95606E+01  3.97131E+01  3.97852E+01  3.98682E+01
   4.00569E+01  4.03897E+01  4.08123E+01  4.12504E+01  4.16292E+01  4.18998E+01  4.20976E+01  4.23044E+01  4.25393E+01  4.27934E+01
   4.30503E+01  4.33012E+01  4.35423E+01  4.37785E+01  4.40283E+01  4.43002E+01  4.45838E+01  4.48677E+01  4.51434E+01  4.54111E+01
   4.56766E+01  4.59415E+01  4.62066E+01  4.64696E+01  4.67293E+01  4.69836E+01  4.72355E+01  4.74909E+01  4.77499E+01  4.80098E+01
   4.82705E+01  4.85315E+01  4.87880E+01  4.90381E+01  4.92825E+01  4.95217E+01  4.97580E+01  4.99923E+01  5.02239E+01  5.04526E+01
   5.06780E+01  5.09050E+01  5.11339E+01  5.13592E+01  5.15779E+01  5.17920E+01  5.20040E+01  5.22143E+01  5.24203E+01  5.26197E+01
   5.28121E+01  5.30011E+01  5.31928E+01  5.33944E+01  5.36043E+01  5.38147E+01  5.40282E+01  5.42689E+01  5.46514E+01  5.52745E+01
   5.58923E+01  5.63585E+01  5.66871E+01  5.69523E+01  5.72178E+01  5.74833E+01  5.76794E+01  5.77227E+01  5.75869E+01  5.73558E+01
   5.72344E+01  5.73614E+01  5.75912E+01  5.78478E+01  5.81177E+01  5.83975E+01  5.86856E+01  5.89819E+01  5.92864E+01  5.96014E+01
   5.99405E+01  6.03752E+01  6.09579E+01  6.15333E+01  6.20168E+01  6.24202E+01  6.27882E+01  6.31572E+01  6.35253E+01  6.38473E+01
   6.40690E+01  6.41758E+01  6.42242E+01  6.43448E+01  6.46202E+01  6.49602E+01  6.53200E+01  6.56920E+01  6.60733E+01  6.64653E+01
   6.68712E+01  6.72923E+01  6.77235E+01  6.81603E+01  6.86004E+01  6.90423E+01  6.94871E+01  6.99360E+01  7.03880E+01  7.08414E+01
   7.12928E+01  7.17408E+01  7.21843E+01  7.26214E+01  7.30488E+01  7.34628E+01  7.38626E+01  7.42470E+01  7.46138E+01  7.49611E+01
   7.52869E+01  7.55908E+01  7.58737E+01  7.61360E+01  7.63772E+01  7.65968E+01  7.67945E+01  7.69711E+01  7.71291E+01  7.72708E+01
   7.73977E+01  7.75103E+01  7.76099E+01  7.76996E+01  7.77837E+01  7.78650E+01  7.79463E+01  7.80305E+01  7.81200E+01  7.82181E+01
   7.83274E+01  7.84495E+01  7.85871E+01  7.87429E+01  7.89192E+01  7.91184E+01  7.93416E+01  7.95883E+01  7.98573E+01  8.01502E+01
   8.04691E+01  8.08160E+01  8.11909E+01  8.15935E+01  8.20273E+01  8.24933E+01  8.29920E+01  8.35256E+01  8.40972E+01  8.47106E+01
   8.53707E+01  8.60720E+01  8.67733E+01  8.74858E+01  8.81988E+01  8.88907E+01  8.95961E+01  9.03453E+01  9.11686E+01  9.21088E+01
   9.32155E+01  9.45423E+01  9.58833E+01  9.71294E+01  9.82813E+01  9.93909E+01  1.00412E+02  1.01226E+02  1.01885E+02  1.02560E+02
   1.03327E+02  1.04206E+02  1.05289E+02  1.06650E+02  1.08185E+02  1.09872E+02  1.11689E+02  1.13554E+02  1.15322E+02  1.16848E+02
   1.18182E+02  1.19475E+02  1.20779E+02  1.22089E+02  1.23423E+02  1.24763E+02  1.26114E+02  1.27466E+02  1.28791E+02  1.30131E+02
   1.31507E+02  1.32880E+02  1.34226E+02  1.35563E+02  1.36882E+02  1.38153E+02  1.39359E+02  1.40498E+02  1.41586E+02  1.42592E+02
   1.43486E+02  1.44289E+02  1.45010E+02  1.45629E+02  1.46204E+02  1.46795E+02  1.47374E+02  1.47862E+02  1.48221E+02  1.48479E+02
   1.48651E+02  1.48763E+02  1.48848E+02  1.48897E+02  1.48873E+02  1.48736E+02  1.48507E+02  1.48220E+02  1.47918E+02  1.47621E+02
   1.47338E+02  1.47068E+02  1.46785E+02  1.46497E+02  1.46226E+02  1.45973E+02  1.45737E+02  1.45517E+02  1.45310E+02  1.45119E+02
   1.44964E+02  1.44862E+02  1.44817E+02  1.44831E+02  1.44911E+02  1.45059E+02  1.45276E+02  1.45559E+02  1.45909E+02  1.46330E+02
   1.46825E+02  1.47398E+02  1.48049E+02  1.48783E+02  1.49601E+02  1.50505E+02  1.51495E+02  1.52575E+02  1.53746E+02  1.55008E+02
   1.56364E+02  1.57815E+02  1.59361E+02  1.61005E+02  1.62748E+02  1.64594E+02  1.66546E+02  1.68608E+02  1.70786E+02  1.73088E+02
   1.75524E+02  1.78104E+02  1.80843E+02  1.83754E+02  1.86854E+02  1.90160E+02  1.93691E+02  1.97464E+02  2.01497E+02  2.05806E+02
   2.10407E+02  2.15312E+02  2.20530E+02  2.26068E+02  2.31928E+02  2.38111E+02  2.44613E+02  2.51425E+02  2.58537E+02  2.65936E+02
   2.73605E+02  2.81529E+02  2.89686E+02  2.98056E+02  3.06616E+02  3.15344E+02  3.24215E+02  3.33205E+02  3.42289E+02  3.51444E+02
   3.60648E+02  3.69882E+02  3.79132E+02  3.88392E+02  3.97661E+02  4.06951E+02  4.16280E+02  4.25674E+02  4.35160E+02  4.44759E+02
   4.54472E+02  4.64263E+02  4.74047E+02  4.83671E+02  4.92904E+02  5.01432E+02  5.08868E+02  5.14771E+02  5.18684E+02  5.20175E+02
   5.18888E+02  5.14586E+02  5.07187E+02  4.96783E+02  4.83634E+02  4.68146E+02  4.50833E+02  4.32265E+02  4.13019E+02  3.93631E+02
   3.74565E+02  3.56186E+02  3.38758E+02  3.22445E+02  3.07329E+02  2.93420E+02  2.80682E+02  2.69045E+02  2.58425E+02  2.48728E+02
   2.39863E+02  2.31746E+02  2.24297E+02  2.17449E+02  2.11140E+02  2.05318E+02  1.99936E+02  1.94954E+02  1.90337E+02  1.86053E+02
   1.82074E+02  1.78376E+02  1.74937E+02  1.71735E+02  1.68754E+02  1.65976E+02  1.63385E+02  1.60968E+02  1.58712E+02  1.56602E+02
   1.54628E+02  1.52778E+02  1.51040E+02  1.49404E+02  1.47859E+02  1.46395E+02  1.45002E+02  1.43670E+02  1.42389E+02  1.41150E+02
   1.39945E+02  1.38766E+02  1.37604E+02  1.36454E+02  1.35310E+02  1.34166E+02  1.33019E+02  1.31866E+02  1.30705E+02  1.29536E+02
   1.28358E+02  1.27171E+02  1.25978E+02  1.24781E+02  1.23582E+02  1.22384E+02  1.21190E+02  1.20004E+02  1.18828E+02  1.17665E+02
   1.16519E+02  1.15390E+02  1.14282E+02  1.13197E+02  1.12134E+02  1.11096E+02  1.10083E+02  1.09095E+02  1.08131E+02  1.07193E+02
   1.06278E+02  1.05387E+02  1.04518E+02  1.03671E+02  1.02844E+02  1.02037E+02  1.01249E+02  1.00477E+02  9.97222E+01  9.89823E+01
   9.82567E+01  9.75443E+01  9.68442E+01  9.61557E+01  9.54779E+01  9.48102E+01  9.41520E+01  9.35027E+01  9.28618E+01  9.22287E+01
   9.16031E+01  9.09845E+01  9.03725E+01  8.97668E+01  8.91671E+01  8.85731E+01  8.79844E+01  8.74009E+01  8.68224E+01  8.62485E+01
   8.56792E+01  8.51143E+01  8.45536E+01  8.39970E+01  8.34443E+01  8.28955E+01  8.23504E+01  8.18090E+01  8.12711E+01  8.07367E+01
   8.02057E+01  7.96781E+01  7.91538E+01  7.86328E+01  7.81150E+01  7.76004E+01  7.70890E+01  7.65807E+01  7.60757E+01  7.55737E+01
   7.50749E+01  7.45792E+01  7.40867E+01  7.35972E+01  7.31110E+01  7.26279E+01  7.21480E+01  7.16713E+01
 NY background values follow
     2.806E+01    2.832E+01    2.857E+01    2.882E+01    2.907E+01    2.933E+01    2.958E+01    2.983E+01    3.008E+01    3.033E+01
     3.058E+01    3.083E+01    3.108E+01    3.132E+01    3.157E+01    3.182E+01    3.207E+01    3.232E+01    3.257E+01    3.281E+01
     3.306E+01    3.331E+01    3.355E+01    3.380E+01    3.405E+01    3.430E+01    3.454E+01    3.479E+01    3.504E+01    3.528E+01
     3.553E+01    3.578E+01    3.602E+01    3.627E+01    3.652E+01    3.677E+01    3.701E+01    3.726E+01    3.751E+01    3.776E+01
     3.801E+01    3.826E+01    3.851E+01    3.875E+01    3.900E+01    3.925E+01    3.950E+01    3.975E+01    4.001E+01    4.026E+01
     4.051E+01    4.076E+01    4.101E+01    4.125E+01    4.150E+01    4.175E+01    4.200E+01    4.224E+01    4.249E+01    4.273E+01
     4.297E+01    4.321E+01    4.345E+01    4.368E+01    4.392E+01    4.415E+01    4.438E+01    4.460E+01    4.483E+01    4.505E+01
     4.527E+01    4.548E+01    4.569E+01    4.590E+01    4.611E+01    4.631E+01    4.651E+01    4.670E+01    4.689E+01    4.708E+01
     4.726E+01    4.743E+01    4.761E+01    4.778E+01    4.794E+01    4.810E+01    4.825E+01    4.840E+01    4.854E+01    4.868E+01
     4.881E+01    4.894E+01    4.906E+01    4.917E+01    4.928E+01    4.939E+01    4.949E+01    4.958E+01    4.967E+01    4.976E+01
     4.984E+01    4.992E+01    5.000E+01    5.007E+01    5.014E+01    5.020E+01    5.027E+01    5.033E+01    5.039E+01    5.044E+01
     5.050E+01    5.055E+01    5.060E+01    5.065E+01    5.070E+01    5.075E+01    5.080E+01    5.085E+01    5.090E+01    5.095E+01
     5.100E+01    5.105E+01    5.110E+01    5.115E+01    5.120E+01    5.125E+01    5.131E+01    5.137E+01    5.142E+01    5.149E+01
     5.155E+01    5.162E+01    5.169E+01    5.176E+01    5.184E+01    5.191E+01    5.200E+01    5.209E+01    5.218E+01    5.227E+01
     5.237E+01    5.248E+01    5.258E+01    5.270E+01    5.281E+01    5.294E+01    5.306E+01    5.319E+01    5.333E+01    5.347E+01
     5.361E+01    5.377E+01    5.392E+01    5.408E+01    5.425E+01    5.442E+01    5.460E+01    5.478E+01    5.497E+01    5.516E+01
     5.536E+01    5.556E+01    5.578E+01    5.599E+01    5.622E+01    5.644E+01    5.668E+01    5.692E+01    5.717E+01    5.742E+01
     5.768E+01    5.795E+01    5.823E+01    5.851E+01    5.879E+01    5.909E+01    5.939E+01    5.970E+01    6.001E+01    6.034E+01
     6.067E+01    6.100E+01    6.135E+01    6.170E+01    6.206E+01    6.243E+01    6.280E+01    6.318E+01    6.356E+01    6.395E+01
     6.435E+01    6.476E+01    6.516E+01    6.558E+01    6.600E+01    6.642E+01    6.685E+01    6.729E+01    6.773E+01    6.817E+01
     6.862E+01    6.907E+01    6.952E+01    6.998E+01    7.044E+01    7.091E+01    7.138E+01    7.185E+01    7.233E+01    7.280E+01
     7.328E+01    7.377E+01    7.425E+01    7.474E+01    7.522E+01    7.571E+01    7.620E+01    7.670E+01    7.719E+01    7.768E+01
     7.818E+01    7.867E+01    7.917E+01    7.967E+01    8.016E+01    8.066E+01    8.115E+01    8.165E+01    8.214E+01    8.263E+01
     8.313E+01    8.362E+01    8.411E+01    8.460E+01    8.508E+01    8.557E+01    8.605E+01    8.653E+01    8.701E+01    8.749E+01
     8.796E+01    8.843E+01    8.890E+01    8.937E+01    8.983E+01    9.029E+01    9.075E+01    9.120E+01    9.165E+01    9.209E+01
     9.253E+01    9.297E+01    9.340E+01    9.383E+01    9.425E+01    9.467E+01    9.508E+01    9.549E+01    9.589E+01    9.629E+01
     9.668E+01    9.706E+01    9.744E+01    9.782E+01    9.819E+01    9.855E+01    9.890E+01    9.925E+01    9.959E+01    9.993E+01
     1.003E+02    1.006E+02    1.009E+02    1.012E+02    1.015E+02    1.018E+02    1.021E+02    1.023E+02    1.026E+02    1.029E+02
     1.031E+02    1.034E+02    1.036E+02    1.039E+02    1.041E+02    1.043E+02    1.045E+02    1.047E+02    1.049E+02    1.051E+02
     1.053E+02    1.055E+02    1.057E+02    1.058E+02    1.060E+02    1.062E+02    1.063E+02    1.065E+02    1.066E+02    1.067E+02
     1.069E+02    1.070E+02    1.071E+02    1.072E+02    1.073E+02    1.074E+02    1.075E+02    1.076E+02    1.077E+02    1.078E+02
     1.079E+02    1.080E+02    1.080E+02    1.081E+02    1.081E+02    1.082E+02    1.082E+02    1.083E+02    1.083E+02    1.084E+02
     1.084E+02    1.084E+02    1.084E+02    1.085E+02    1.085E+02    1.085E+02    1.085E+02    1.085E+02    1.085E+02    1.085E+02
     1.085E+02    1.084E+02    1.084E+02    1.084E+02    1.084E+02    1.083E+02    1.083E+02    1.083E+02    1.082E+02    1.082E+02
     1.081E+02    1.080E+02    1.080E+02    1.079E+02    1.078E+02    1.078E+02    1.077E+02    1.076E+02    1.075E+02    1.074E+02
     1.073E+02    1.072E+02    1.071E+02    1.070E+02    1.069E+02    1.068E+02    1.067E+02    1.066E+02    1.064E+02    1.063E+02
     1.062E+02    1.061E+02    1.059E+02    1.058E+02    1.056E+02    1.055E+02    1.053E+02    1.052E+02    1.050E+02    1.048E+02
     1.047E+02    1.045E+02    1.043E+02    1.042E+02    1.040E+02    1.038E+02    1.036E+02    1.034E+02    1.032E+02    1.030E+02
     1.028E+02    1.026E+02    1.024E+02    1.022E+02    1.020E+02    1.018E+02    1.016E+02    1.014E+02    1.012E+02    1.009E+02
     1.007E+02    1.005E+02    1.002E+02    1.000E+02    9.978E+01    9.955E+01    9.931E+01    9.907E+01    9.883E+01    9.858E+01
     9.834E+01    9.809E+01    9.784E+01    9.759E+01    9.733E+01    9.707E+01    9.682E+01    9.656E+01    9.630E+01    9.603E+01
     9.577E+01    9.550E+01    9.523E+01    9.496E+01    9.469E+01    9.442E+01    9.414E+01    9.386E+01    9.358E+01    9.330E+01
     9.302E+01    9.273E+01    9.244E+01    9.215E+01    9.186E+01    9.157E+01    9.127E+01    9.097E+01    9.067E+01    9.037E+01
     9.007E+01    8.976E+01    8.945E+01    8.914E+01    8.883E+01    8.851E+01    8.819E+01    8.787E+01    8.755E+01    8.723E+01
     8.690E+01    8.657E+01    8.624E+01    8.591E+01    8.557E+01    8.523E+01    8.489E+01    8.454E+01    8.420E+01    8.385E+01
     8.350E+01    8.314E+01    8.279E+01    8.243E+01    8.207E+01    8.170E+01    8.134E+01    8.097E+01    8.060E+01    8.023E+01
     7.985E+01    7.947E+01    7.910E+01    7.872E+01    7.834E+01    7.795E+01    7.757E+01    7.718E+01    7.679E+01    7.641E+01
     7.602E+01    7.563E+01    7.523E+01    7.484E+01    7.445E+01    7.405E+01    7.366E+01    7.326E+01    7.287E+01    7.247E+01
     7.208E+01    7.168E+01    7.128E+01    7.089E+01    7.049E+01    7.009E+01    6.970E+01    6.930E+01    6.891E+01    6.851E+01
     6.812E+01    6.773E+01    6.733E+01    6.694E+01    6.655E+01    6.616E+01    6.577E+01    6.538E+01
 Asp      Conc. = 4.91E+00
