 LCModel (Version 6.3-1L) Copyright: S.W. Provencher.          Ref.: Magn. Reson. Med. 30:672-679 (1993).                
 Slice#1 Row#10 Col#2  PD_05_press_1_raw_act
 36 lines in following concentration table = NCONC+1
    Conc.  %SD /Cr+PCr  Metabolite                                         
    0.000 999%   0.000 Ala                                                 
   13.452  29%   0.229 Asp                                                 
   13.674 220%   0.233 Cr                                                  
   45.014  68%   0.767 PCr                                                 
    8.096  29%   0.138 GABA                                                
    7.916  29%   0.135 Glc                                                 
  118.536  40%   2.020 Gln                                                 
   62.483  78%   1.065 Glu                                                 
   10.471  46%   0.178 GPC                                                 
    0.000 999%   0.000 PCh                                                 
   14.281 115%   0.243 GSH                                                 
  128.237  43%   2.185 Ins                                                 
    0.000 999%   0.000 Lac                                                 
  126.331  15%   2.153 NAA                                                 
   51.644  35%   0.880 NAAG                                                
    2.561  30% 4.4E-02 Scyllo                                              
   12.487  31%   0.213 Tau                                                 
    4.857  67% 8.3E-02 -CrCH2                                              
   10.471  46%   0.178 GPC+PCh                                             
  177.975  10%   3.033 NAA+NAAG                                            
   58.688  23%   1.000 Cr+PCr                                              
  181.019  37%   3.084 Glu+Gln                                             
   46.484 306%   0.792 Lip13a                                              
   13.562 463%   0.231 Lip13b                                              
    8.208 336%   0.140 Lip09                                               
    0.000 999%   0.000 MM09                                                
    9.760 169%   0.166 Lip20                                               
 1.06E-02 999% 1.8E-04 MM20                                                
 4.81E-04 999% 8.2E-06 MM12                                                
 5.70E-02 999% 9.7E-04 MM14                                                
 8.58E-03 999% 1.5E-04 MM17                                                
   60.045 162%   1.023 Lip13a+Lip13b                                       
   60.103 162%   1.024 MM14+Lip13a+Lip13b+MM12                             
    8.208 336%   0.140 MM09+Lip09                                          
    9.770 169%   0.166 MM20+Lip20                                          
   6 lines in following misc. output table
  FWHM = 0.031 ppm    S/N =   3                                            
  Data shift =-0.015 ppm                                                   
  Ph:  45 deg      13.3 deg/ppm                                            
  alphaB,S = 1.7E+00,   1.2E+01                                            
   14 spline knots.   Ns = 5(1)                                            
  ( 9) 2 infls.   ( 9) 1 extrs.                                            
  498 points on ppm-axis = NY
      4.000000     3.992357     3.984714     3.977070     3.969427     3.961784     3.954141     3.946497     3.938854     3.931211
      3.923568     3.915925     3.908281     3.900638     3.892995     3.885352     3.877708     3.870065     3.862422     3.854779
      3.847136     3.839492     3.831849     3.824206     3.816563     3.808919     3.801276     3.793633     3.785990     3.778347
      3.770703     3.763060     3.755417     3.747774     3.740130     3.732487     3.724844     3.717201     3.709558     3.701914
      3.694271     3.686628     3.678985     3.671341     3.663698     3.656055     3.648412     3.640769     3.633125     3.625482
      3.617839     3.610196     3.602552     3.594909     3.587266     3.579623     3.571980     3.564336     3.556693     3.549050
      3.541407     3.533763     3.526120     3.518477     3.510834     3.503191     3.495547     3.487904     3.480261     3.472618
      3.464974     3.457331     3.449688     3.442045     3.434402     3.426758     3.419115     3.411472     3.403829     3.396185
      3.388542     3.380899     3.373256     3.365613     3.357969     3.350326     3.342683     3.335040     3.327396     3.319753
      3.312110     3.304467     3.296824     3.289180     3.281537     3.273894     3.266251     3.258607     3.250964     3.243321
      3.235678     3.228034     3.220391     3.212748     3.205105     3.197462     3.189818     3.182175     3.174532     3.166889
      3.159245     3.151602     3.143959     3.136316     3.128673     3.121029     3.113386     3.105743     3.098100     3.090456
      3.082813     3.075170     3.067527     3.059884     3.052240     3.044597     3.036954     3.029311     3.021667     3.014024
      3.006381     2.998738     2.991095     2.983451     2.975808     2.968165     2.960522     2.952878     2.945235     2.937592
      2.929949     2.922306     2.914662     2.907019     2.899376     2.891733     2.884089     2.876446     2.868803     2.861160
      2.853517     2.845873     2.838230     2.830587     2.822944     2.815300     2.807657     2.800014     2.792371     2.784728
      2.777084     2.769441     2.761798     2.754155     2.746511     2.738868     2.731225     2.723582     2.715939     2.708295
      2.700652     2.693009     2.685366     2.677722     2.670079     2.662436     2.654793     2.647150     2.639506     2.631863
      2.624220     2.616577     2.608933     2.601290     2.593647     2.586004     2.578361     2.570717     2.563074     2.555431
      2.547788     2.540144     2.532501     2.524858     2.517215     2.509572     2.501928     2.494285     2.486642     2.478999
      2.471355     2.463712     2.456069     2.448426     2.440783     2.433139     2.425496     2.417853     2.410210     2.402566
      2.394923     2.387280     2.379637     2.371994     2.364350     2.356707     2.349064     2.341421     2.333777     2.326134
      2.318491     2.310848     2.303205     2.295561     2.287918     2.280275     2.272632     2.264988     2.257345     2.249702
      2.242059     2.234416     2.226772     2.219129     2.211486     2.203843     2.196199     2.188556     2.180913     2.173270
      2.165627     2.157983     2.150340     2.142697     2.135054     2.127410     2.119767     2.112124     2.104481     2.096838
      2.089194     2.081551     2.073908     2.066265     2.058621     2.050978     2.043335     2.035692     2.028049     2.020405
      2.012762     2.005119     1.997476     1.989833     1.982190     1.974546     1.966903     1.959260     1.951617     1.943974
      1.936331     1.928688     1.921045     1.913402     1.905759     1.898115     1.890472     1.882829     1.875186     1.867543
      1.859900     1.852257     1.844614     1.836971     1.829327     1.821684     1.814041     1.806398     1.798755     1.791112
      1.783469     1.775826     1.768183     1.760540     1.752896     1.745253     1.737610     1.729967     1.722324     1.714681
      1.707038     1.699395     1.691752     1.684108     1.676465     1.668822     1.661179     1.653536     1.645893     1.638250
      1.630607     1.622964     1.615321     1.607677     1.600034     1.592391     1.584748     1.577105     1.569462     1.561819
      1.554176     1.546533     1.538890     1.531246     1.523603     1.515960     1.508317     1.500674     1.493031     1.485388
      1.477745     1.470102     1.462458     1.454815     1.447172     1.439529     1.431886     1.424243     1.416600     1.408957
      1.401314     1.393671     1.386027     1.378384     1.370741     1.363098     1.355455     1.347812     1.340169     1.332526
      1.324883     1.317240     1.309596     1.301953     1.294310     1.286667     1.279024     1.271381     1.263738     1.256095
      1.248452     1.240808     1.233165     1.225522     1.217879     1.210236     1.202593     1.194950     1.187307     1.179664
      1.172021     1.164377     1.156734     1.149091     1.141448     1.133805     1.126162     1.118519     1.110876     1.103233
      1.095590     1.087946     1.080303     1.072660     1.065017     1.057374     1.049731     1.042088     1.034445     1.026802
      1.019158     1.011515     1.003872     0.996229     0.988586     0.980943     0.973300     0.965657     0.958014     0.950371
      0.942727     0.935084     0.927441     0.919798     0.912155     0.904512     0.896869     0.889226     0.881583     0.873940
      0.866296     0.858653     0.851010     0.843367     0.835724     0.828081     0.820438     0.812795     0.805152     0.797508
      0.789865     0.782222     0.774579     0.766936     0.759293     0.751650     0.744007     0.736364     0.728721     0.721077
      0.713434     0.705791     0.698148     0.690505     0.682862     0.675219     0.667576     0.659933     0.652290     0.644646
      0.637003     0.629360     0.621717     0.614074     0.606431     0.598788     0.591145     0.583502     0.575858     0.568215
      0.560572     0.552929     0.545286     0.537643     0.530000     0.522357     0.514714     0.507071     0.499427     0.491784
      0.484141     0.476498     0.468855     0.461212     0.453569     0.445925     0.438282     0.430639     0.422996     0.415353
      0.407710     0.400067     0.392424     0.384780     0.377137     0.369494     0.361851     0.354208     0.346565     0.338922
      0.331278     0.323635     0.315992     0.308349     0.300706     0.293063     0.285420     0.277777     0.270133     0.262490
      0.254847     0.247204     0.239561     0.231918     0.224275     0.216631     0.208988     0.201345
 NY phased data points follow
   1.04788E+01  1.08023E+01  1.09489E+01  9.55944E+00  8.69971E+00  8.50778E+00  8.17700E+00  9.86170E+00  1.02927E+01  9.68228E+00
   9.32341E+00  1.02166E+01  8.99835E+00  7.57252E+00  9.56732E+00  7.52468E+00  7.70099E+00  9.55611E+00  7.63620E+00  6.95464E+00
   6.93034E+00  6.70395E+00  7.10574E+00  6.77785E+00  6.37269E+00  6.26596E+00  5.50868E+00  3.00079E+00  7.70555E+00  7.47752E+00
   5.85105E+00  4.40783E+00  8.19856E+00  7.58066E+00  6.59110E+00  5.02703E+00  5.10588E+00  7.16693E+00  8.61585E+00  6.84998E+00
   4.99015E+00  5.74286E+00  6.89257E+00  4.76457E+00  4.67365E+00  6.61484E+00  6.44343E+00  6.57045E+00  4.10939E+00  5.45611E+00
   5.34189E+00  3.96767E+00  1.49396E+00  3.97273E+00  4.08501E+00  3.36294E+00  2.72430E+00  3.84376E+00  5.83757E+00  4.25603E+00
   4.16321E+00  4.07255E+00  4.21240E+00  3.09574E+00  2.44949E+00  1.36663E+00  3.92818E+00  3.09101E+00  3.74864E+00  3.65306E+00
   3.05072E+00  3.99574E+00  2.82785E+00  3.70350E+00  4.22404E+00  3.05659E+00  2.60195E+00  2.63393E+00  2.96258E+00  2.80197E+00
   3.69077E+00  3.65727E+00  3.23170E+00  2.88027E+00  2.57424E+00  9.79631E-01  2.86708E+00  1.72223E+00 -1.15591E-01  3.15270E+00
   1.98043E+00  1.97346E+00 -5.46947E-01  9.72340E-01  1.52937E+00  1.79220E+00  3.03385E+00  3.09944E+00 -7.77692E-01  1.86881E+00
   1.90426E+00  3.11383E+00  1.92200E+00  4.67876E+00  2.63221E+00  2.07803E+00  2.09878E+00  1.50359E+00  1.54174E+00 -4.63199E-01
   7.00629E-01 -8.50534E-01  1.42835E+00  6.95426E-01 -1.34795E-01  1.00793E+00  7.96673E-01  2.08767E+00  2.47934E+00  1.75097E+00
   2.10544E-02  2.34637E+00  5.18794E-01  2.13986E+00 -5.03789E-01  2.36899E+00  3.01646E+00  4.27266E+00  2.14694E+00  1.55676E+00
   1.54268E+00  5.05043E-01  1.75494E+00  1.63188E+00  2.83704E+00  7.43142E-01  6.32567E-01  1.37076E-02  7.11740E-01 -5.10038E-01
   1.45674E+00  1.93072E+00  2.88852E+00  8.24580E-01 -4.36265E-01  1.95750E+00 -4.18518E-01  3.38076E-01  8.61611E-01 -9.71144E-01
   2.44156E-01 -4.18209E-02 -1.09891E+00 -5.47368E-02  4.03481E-01 -1.11513E+00  1.52571E+00 -5.22101E-01 -1.00018E+00  1.08619E+00
  -1.33433E+00  7.88821E-01 -7.88019E-01 -7.63538E-01  1.31603E+00 -1.14573E+00  6.59936E-01  2.34908E-01  1.08652E+00  5.64382E-01
   4.65746E-01 -4.06718E-01  3.75180E-01  1.72199E-01 -2.49475E+00 -1.45158E-01 -4.01080E-01 -2.44167E+00 -9.71829E-01 -8.28717E-01
   3.01430E-01 -1.43943E-01 -1.24622E+00 -1.20259E+00 -9.96120E-01 -4.46361E-01 -4.73779E-01  1.19594E+00 -2.38717E+00 -1.39335E+00
  -9.89159E-01 -1.69078E+00 -2.19604E-01 -1.90370E+00 -2.07758E+00 -1.17150E+00 -1.61998E+00 -3.56639E+00 -1.93412E+00  9.34333E-01
  -1.39067E+00 -5.45841E-01 -2.89856E+00 -1.49262E+00 -1.18814E+00 -1.03598E+00  6.51394E-01 -3.09532E+00 -3.50324E+00 -3.60679E+00
  -3.22301E+00 -3.18855E+00 -1.30700E+00 -9.68979E-01  1.19519E+00 -7.53647E-01 -6.14251E-01 -2.66774E+00 -2.57163E+00 -1.03369E+00
  -9.00228E-01 -1.43491E+00 -1.71456E+00 -2.84714E+00 -6.15948E-01  8.82454E-01  2.23568E-01 -2.57517E+00 -2.07635E+00 -1.37274E+00
  -5.11391E-01 -1.79192E+00 -1.51422E+00 -1.42433E+00  3.36086E-02 -1.19413E+00 -1.53517E+00 -2.35671E+00  5.37291E-01 -9.56163E-01
  -1.18113E+00 -2.30549E+00  1.15809E-02 -2.97380E+00 -1.76038E-01 -3.53161E+00 -2.36983E+00  2.20900E+00 -6.65354E-01  4.87871E-01
   2.45997E-01 -1.49916E+00 -6.51693E-01 -6.05451E-01 -1.50587E+00  3.18231E+00  1.75394E+00  2.76107E+00  2.86256E+00  4.84438E+00
   4.88905E+00  5.36669E+00  1.04024E+00  2.01838E+00  1.73605E+00 -2.93436E+00 -1.93174E+00 -2.32933E+00 -1.43694E+00 -5.43589E-02
  -4.40944E-01 -2.31778E+00  7.67250E-01 -2.36739E+00 -2.71175E+00 -1.06022E+00 -1.42016E+00 -1.42528E+00 -1.94023E+00 -1.86483E+00
   1.30445E-01 -1.01091E+00 -2.70119E+00 -1.25525E+00 -2.41441E+00 -3.16812E+00 -1.12431E+00 -2.04865E+00 -1.03243E+00 -2.79106E+00
  -1.35474E+00 -6.82056E-01 -2.15804E+00 -2.24700E-01 -3.46814E-01 -2.29239E+00 -8.59445E-01 -1.54766E+00 -3.07638E+00 -2.03116E+00
  -2.36232E+00 -2.04031E+00 -1.75567E+00 -1.91544E+00 -2.76992E+00 -2.35280E+00 -1.92974E+00 -2.69792E+00 -2.32931E+00 -3.40943E-01
  -1.25891E+00 -4.15742E-01 -1.68465E+00 -8.64090E-01 -1.33227E+00 -1.58915E+00 -1.81087E+00 -4.18344E+00 -7.52193E-01 -2.07444E+00
  -2.95001E+00 -2.10725E+00 -7.39897E-01 -3.09645E+00 -5.14770E-01 -8.21758E-01 -2.82498E+00 -3.59432E-01 -1.10624E+00 -5.89479E-01
  -1.34324E+00 -4.01931E-01  6.86475E-01  1.46783E-01 -1.33979E+00 -2.76442E+00 -1.88013E+00 -3.07767E-01 -2.49913E+00 -2.41580E-01
  -3.26893E+00 -2.15533E+00 -1.11849E+00 -2.18676E+00 -3.40131E+00 -1.27976E+00 -1.64053E+00 -3.05695E+00 -1.81777E+00 -2.21752E+00
  -1.98108E+00 -1.40202E+00 -1.05506E+00 -2.08995E+00 -2.24699E+00  6.19625E-01 -1.63143E+00 -2.31572E+00 -2.79331E+00 -2.99609E+00
  -3.08057E+00 -1.74199E+00 -2.01775E+00 -9.04295E-01 -3.18611E+00 -1.80538E+00 -1.71885E+00 -7.27786E-01 -3.79828E+00 -2.86296E+00
  -6.31199E-01 -2.45464E+00 -2.59417E+00 -1.00843E+00 -1.84292E+00 -4.53925E+00 -2.11678E+00 -3.98059E+00 -2.26328E+00 -4.27887E+00
  -2.44731E+00 -3.07749E+00 -1.94127E+00 -1.95867E+00 -4.23578E+00 -2.59124E+00 -1.76751E+00 -1.92434E+00 -2.39115E+00 -3.75566E+00
  -1.49255E+00 -2.30596E+00 -1.32568E+00 -2.30899E+00 -3.56073E+00 -2.14531E+00 -1.09887E+00 -3.35960E+00 -4.07273E+00 -4.73874E+00
  -4.07638E+00 -5.08273E+00 -3.03906E+00 -3.87854E+00 -1.63661E+00 -4.96870E+00 -4.15184E+00 -3.15657E+00 -3.62541E+00 -4.29300E+00
  -4.50473E+00 -4.07765E+00 -2.07199E+00 -4.22339E+00 -1.33906E+00 -2.92543E+00 -1.35690E+00 -3.88390E+00 -4.66582E+00 -4.08138E+00
  -2.50866E+00 -4.72940E+00 -4.35564E+00 -3.12208E+00 -4.47440E+00 -2.72137E+00 -2.63304E+00 -2.12965E+00 -4.02968E+00 -1.96672E+00
  -2.68301E+00 -2.59966E+00 -3.42457E+00 -3.18508E+00 -3.13196E+00 -2.28414E+00 -2.66139E+00 -2.40190E+00 -3.15065E+00 -2.78960E+00
  -5.26142E+00 -3.22771E+00 -3.20613E+00 -2.53799E+00 -1.35588E+00 -3.83673E+00 -3.10496E+00 -3.91641E+00 -1.00551E+00 -4.18475E+00
  -3.30216E+00 -1.80017E+00 -1.36358E+00 -3.24631E+00 -2.78530E+00 -3.34570E+00 -3.53907E+00 -3.64937E+00 -2.89514E+00 -2.96900E+00
  -2.53881E+00 -3.03291E+00 -1.45472E+00 -1.51964E+00 -4.04236E+00 -3.13147E+00 -4.16463E+00 -4.35934E+00 -3.72291E+00 -1.99571E+00
  -3.05609E+00 -3.08596E+00 -3.77153E+00 -2.14938E+00 -3.40148E+00 -2.65908E+00 -1.96266E+00 -4.46712E+00 -2.78091E+00 -2.62474E+00
  -2.85731E+00 -3.03144E+00 -3.26017E+00 -3.67675E+00 -4.49333E+00 -2.09719E+00 -3.88624E+00 -4.02109E+00 -1.65396E+00 -5.09988E+00
  -3.27942E+00 -3.57844E+00 -2.37452E+00 -3.00158E+00 -1.62312E+00 -2.64755E+00 -2.31463E+00 -3.61617E+00
 NY points of the fit to the data follow
   7.98894E+00  7.88141E+00  7.81887E+00  7.78469E+00  7.79785E+00  7.86267E+00  8.04036E+00  8.37556E+00  8.73667E+00  8.91120E+00
   8.78792E+00  8.45366E+00  8.02910E+00  7.58469E+00  7.25231E+00  7.07486E+00  6.95958E+00  6.87053E+00  6.80224E+00  6.75142E+00
   6.72861E+00  6.71886E+00  6.70308E+00  6.64035E+00  6.49036E+00  6.26582E+00  6.05183E+00  5.99493E+00  6.15668E+00  6.50255E+00
   6.89857E+00  7.12872E+00  7.05856E+00  6.71357E+00  6.23629E+00  5.78934E+00  5.47573E+00  5.34827E+00  5.35669E+00  5.38327E+00
   5.38709E+00  5.38092E+00  5.38237E+00  5.41496E+00  5.54630E+00  5.84051E+00  6.20233E+00  6.37442E+00  6.17857E+00  5.70072E+00
   5.16621E+00  4.71860E+00  4.41780E+00  4.29959E+00  4.32121E+00  4.37943E+00  4.43180E+00  4.50868E+00  4.61964E+00  4.71418E+00
   4.71143E+00  4.58522E+00  4.37547E+00  4.13252E+00  3.92956E+00  3.81900E+00  3.79578E+00  3.82833E+00  3.86610E+00  3.89094E+00
   3.91252E+00  3.91748E+00  3.88253E+00  3.80891E+00  3.72723E+00  3.63900E+00  3.52175E+00  3.39788E+00  3.29387E+00  3.20613E+00
   3.13890E+00  3.09892E+00  3.06654E+00  3.02871E+00  2.97502E+00  2.86681E+00  2.67876E+00  2.46012E+00  2.30427E+00  2.25134E+00
   2.27261E+00  2.33648E+00  2.40498E+00  2.43842E+00  2.43146E+00  2.38819E+00  2.31501E+00  2.23150E+00  2.18761E+00  2.21301E+00
   2.39652E+00  2.77626E+00  3.14657E+00  3.22341E+00  2.95434E+00  2.55631E+00  2.18709E+00  1.86097E+00  1.65804E+00  1.59756E+00
   1.56811E+00  1.53094E+00  1.49321E+00  1.45451E+00  1.41539E+00  1.37367E+00  1.33080E+00  1.28644E+00  1.24058E+00  1.20076E+00
   1.17842E+00  1.19752E+00  1.31474E+00  1.55348E+00  2.06988E+00  2.90779E+00  3.66448E+00  3.82120E+00  3.29419E+00  2.51431E+00
   1.80639E+00  1.20436E+00  8.43837E-01  7.38652E-01  6.63108E-01  5.54037E-01  4.64245E-01  4.15962E-01  4.11811E-01  4.43459E-01
   4.77323E-01  4.85302E-01  4.67368E-01  4.32049E-01  3.91322E-01  3.49760E-01  3.04409E-01  2.58083E-01  2.14409E-01  1.71696E-01
   1.28850E-01  8.56082E-02  3.73607E-02 -1.42169E-02 -5.21026E-02 -6.53482E-02 -6.33786E-02 -6.88742E-02 -1.11262E-01 -2.04618E-01
  -3.16332E-01 -3.87329E-01 -3.86215E-01 -3.42834E-01 -3.09166E-01 -3.20083E-01 -3.84264E-01 -4.74954E-01 -5.60255E-01 -6.20411E-01
  -6.37996E-01 -6.29755E-01 -6.41306E-01 -6.95733E-01 -7.85211E-01 -8.65952E-01 -8.87523E-01 -8.45780E-01 -8.05674E-01 -8.20539E-01
  -8.70814E-01 -9.11226E-01 -9.12620E-01 -8.73756E-01 -8.34858E-01 -8.24181E-01 -8.10523E-01 -7.55680E-01 -6.64763E-01 -5.75518E-01
  -5.22128E-01 -5.44756E-01 -6.60150E-01 -8.39962E-01 -1.01046E+00 -1.12794E+00 -1.18529E+00 -1.15484E+00 -1.01509E+00 -7.75874E-01
  -4.91988E-01 -2.59429E-01 -1.31839E-01 -1.20939E-01 -2.72238E-01 -6.13219E-01 -1.09373E+00 -1.66394E+00 -2.20039E+00 -2.45217E+00
  -2.26921E+00 -1.79770E+00 -1.31325E+00 -8.70312E-01 -4.81699E-01 -3.23142E-01 -4.29742E-01 -6.57527E-01 -9.19986E-01 -1.19946E+00
  -1.46174E+00 -1.60422E+00 -1.55549E+00 -1.36379E+00 -1.13545E+00 -9.59386E-01 -8.62316E-01 -8.50822E-01 -9.29764E-01 -1.06472E+00
  -1.20451E+00 -1.30995E+00 -1.35935E+00 -1.40858E+00 -1.47730E+00 -1.46952E+00 -1.31765E+00 -1.09587E+00 -9.06819E-01 -8.01708E-01
  -8.67909E-01 -1.15467E+00 -1.51919E+00 -1.76296E+00 -1.86477E+00 -1.87956E+00 -1.80172E+00 -1.66308E+00 -1.53591E+00 -1.40057E+00
  -1.20662E+00 -9.42740E-01 -6.24038E-01 -1.14203E-01  6.57582E-01  1.46761E+00  1.96814E+00  2.28178E+00  3.16194E+00  4.48098E+00
   5.06580E+00  4.30289E+00  2.75115E+00  1.19432E+00 -1.91023E-01 -1.22932E+00 -1.58768E+00 -1.57995E+00 -1.60822E+00 -1.64117E+00
  -1.65154E+00 -1.64276E+00 -1.61949E+00 -1.59319E+00 -1.58062E+00 -1.59251E+00 -1.62498E+00 -1.66337E+00 -1.69623E+00 -1.72033E+00
  -1.73449E+00 -1.73600E+00 -1.72962E+00 -1.72448E+00 -1.72399E+00 -1.72793E+00 -1.73666E+00 -1.75020E+00 -1.76572E+00 -1.77796E+00
  -1.78372E+00 -1.78247E+00 -1.77819E+00 -1.77831E+00 -1.78410E+00 -1.79312E+00 -1.80682E+00 -1.82433E+00 -1.84053E+00 -1.85232E+00
  -1.85918E+00 -1.86317E+00 -1.86634E+00 -1.86929E+00 -1.87358E+00 -1.87989E+00 -1.88695E+00 -1.89425E+00 -1.90164E+00 -1.90896E+00
  -1.91623E+00 -1.92348E+00 -1.93080E+00 -1.93823E+00 -1.94571E+00 -1.95317E+00 -1.96057E+00 -1.96793E+00 -1.97519E+00 -1.98235E+00
  -1.98943E+00 -1.99644E+00 -2.00337E+00 -2.01021E+00 -2.01691E+00 -2.02343E+00 -2.02975E+00 -2.03587E+00 -2.04178E+00 -2.04744E+00
  -2.05280E+00 -2.05779E+00 -2.06240E+00 -2.06662E+00 -2.07041E+00 -2.07372E+00 -2.07649E+00 -2.07868E+00 -2.08026E+00 -2.08116E+00
  -2.08129E+00 -2.08052E+00 -2.07864E+00 -2.07545E+00 -2.07071E+00 -2.06416E+00 -2.05553E+00 -2.04471E+00 -2.03178E+00 -2.01716E+00
  -2.00165E+00 -1.98642E+00 -1.97295E+00 -1.96291E+00 -1.95792E+00 -1.95937E+00 -1.96808E+00 -1.98423E+00 -2.00728E+00 -2.03609E+00
  -2.06911E+00 -2.10462E+00 -2.14097E+00 -2.17675E+00 -2.21091E+00 -2.24284E+00 -2.27232E+00 -2.29938E+00 -2.32422E+00 -2.34713E+00
  -2.36839E+00 -2.38830E+00 -2.40708E+00 -2.42490E+00 -2.44187E+00 -2.45806E+00 -2.47353E+00 -2.48834E+00 -2.50253E+00 -2.51614E+00
  -2.52917E+00 -2.54165E+00 -2.55362E+00 -2.56510E+00 -2.57614E+00 -2.58674E+00 -2.59691E+00 -2.60667E+00 -2.61605E+00 -2.62508E+00
  -2.63377E+00 -2.64214E+00 -2.65020E+00 -2.65798E+00 -2.66553E+00 -2.67288E+00 -2.68008E+00 -2.68715E+00 -2.69414E+00 -2.70110E+00
  -2.70810E+00 -2.71518E+00 -2.72240E+00 -2.72976E+00 -2.73733E+00 -2.74513E+00 -2.75320E+00 -2.76154E+00 -2.77013E+00 -2.77898E+00
  -2.78806E+00 -2.79735E+00 -2.80684E+00 -2.81646E+00 -2.82617E+00 -2.83592E+00 -2.84567E+00 -2.85538E+00 -2.86502E+00 -2.87453E+00
  -2.88388E+00 -2.89304E+00 -2.90201E+00 -2.91078E+00 -2.91933E+00 -2.92765E+00 -2.93573E+00 -2.94360E+00 -2.95126E+00 -2.95873E+00
  -2.96600E+00 -2.97308E+00 -2.97998E+00 -2.98673E+00 -2.99333E+00 -2.99980E+00 -3.00614E+00 -3.01235E+00 -3.01845E+00 -3.02445E+00
  -3.03036E+00 -3.03618E+00 -3.04192E+00 -3.04756E+00 -3.05314E+00 -3.05865E+00 -3.06411E+00 -3.06950E+00 -3.07483E+00 -3.08010E+00
  -3.08532E+00 -3.09051E+00 -3.09565E+00 -3.10074E+00 -3.10578E+00 -3.11079E+00 -3.11576E+00 -3.12070E+00 -3.12561E+00 -3.13048E+00
  -3.13530E+00 -3.14010E+00 -3.14488E+00 -3.14963E+00 -3.15435E+00 -3.15903E+00 -3.16369E+00 -3.16833E+00 -3.17295E+00 -3.17755E+00
  -3.18212E+00 -3.18666E+00 -3.19118E+00 -3.19570E+00 -3.20019E+00 -3.20467E+00 -3.20912E+00 -3.21356E+00 -3.21798E+00 -3.22240E+00
  -3.22680E+00 -3.23119E+00 -3.23555E+00 -3.23991E+00 -3.24426E+00 -3.24861E+00 -3.25294E+00 -3.25726E+00 -3.26156E+00 -3.26586E+00
  -3.27016E+00 -3.27446E+00 -3.27874E+00 -3.28301E+00 -3.28727E+00 -3.29154E+00 -3.29580E+00 -3.30005E+00
 NY background values follow
     7.739E+00    7.674E+00    7.610E+00    7.546E+00    7.481E+00    7.417E+00    7.353E+00    7.288E+00    7.224E+00    7.160E+00
     7.095E+00    7.031E+00    6.967E+00    6.902E+00    6.838E+00    6.774E+00    6.710E+00    6.646E+00    6.582E+00    6.518E+00
     6.454E+00    6.390E+00    6.327E+00    6.263E+00    6.199E+00    6.136E+00    6.072E+00    6.009E+00    5.946E+00    5.883E+00
     5.820E+00    5.757E+00    5.694E+00    5.632E+00    5.569E+00    5.507E+00    5.445E+00    5.383E+00    5.321E+00    5.260E+00
     5.198E+00    5.137E+00    5.076E+00    5.015E+00    4.954E+00    4.893E+00    4.833E+00    4.773E+00    4.713E+00    4.653E+00
     4.593E+00    4.534E+00    4.475E+00    4.416E+00    4.357E+00    4.299E+00    4.240E+00    4.182E+00    4.125E+00    4.067E+00
     4.010E+00    3.953E+00    3.896E+00    3.840E+00    3.783E+00    3.727E+00    3.672E+00    3.616E+00    3.561E+00    3.506E+00
     3.452E+00    3.397E+00    3.344E+00    3.290E+00    3.236E+00    3.183E+00    3.131E+00    3.078E+00    3.026E+00    2.974E+00
     2.923E+00    2.872E+00    2.821E+00    2.770E+00    2.720E+00    2.670E+00    2.621E+00    2.572E+00    2.523E+00    2.475E+00
     2.427E+00    2.379E+00    2.332E+00    2.285E+00    2.238E+00    2.192E+00    2.146E+00    2.101E+00    2.056E+00    2.011E+00
     1.967E+00    1.923E+00    1.879E+00    1.836E+00    1.793E+00    1.750E+00    1.708E+00    1.666E+00    1.624E+00    1.583E+00
     1.542E+00    1.501E+00    1.461E+00    1.421E+00    1.381E+00    1.342E+00    1.303E+00    1.264E+00    1.226E+00    1.188E+00
     1.150E+00    1.113E+00    1.076E+00    1.039E+00    1.003E+00    9.667E-01    9.309E-01    8.954E-01    8.602E-01    8.253E-01
     7.907E-01    7.564E-01    7.224E-01    6.887E-01    6.553E-01    6.222E-01    5.894E-01    5.569E-01    5.247E-01    4.927E-01
     4.611E-01    4.297E-01    3.986E-01    3.679E-01    3.373E-01    3.071E-01    2.772E-01    2.475E-01    2.181E-01    1.890E-01
     1.602E-01    1.316E-01    1.034E-01    7.536E-02    4.763E-02    2.018E-02   -6.996E-03   -3.390E-02   -6.054E-02   -8.690E-02
    -1.130E-01   -1.388E-01   -1.644E-01   -1.897E-01   -2.147E-01   -2.395E-01   -2.640E-01   -2.882E-01   -3.122E-01   -3.359E-01
    -3.594E-01   -3.826E-01   -4.055E-01   -4.282E-01   -4.506E-01   -4.728E-01   -4.947E-01   -5.164E-01   -5.378E-01   -5.589E-01
    -5.798E-01   -6.005E-01   -6.209E-01   -6.411E-01   -6.610E-01   -6.807E-01   -7.001E-01   -7.193E-01   -7.383E-01   -7.570E-01
    -7.755E-01   -7.937E-01   -8.118E-01   -8.295E-01   -8.471E-01   -8.645E-01   -8.816E-01   -8.985E-01   -9.151E-01   -9.316E-01
    -9.478E-01   -9.639E-01   -9.797E-01   -9.953E-01   -1.011E+00   -1.026E+00   -1.041E+00   -1.056E+00   -1.070E+00   -1.084E+00
    -1.099E+00   -1.113E+00   -1.126E+00   -1.140E+00   -1.153E+00   -1.167E+00   -1.180E+00   -1.192E+00   -1.205E+00   -1.217E+00
    -1.230E+00   -1.242E+00   -1.254E+00   -1.265E+00   -1.277E+00   -1.288E+00   -1.299E+00   -1.311E+00   -1.321E+00   -1.332E+00
    -1.343E+00   -1.353E+00   -1.363E+00   -1.373E+00   -1.383E+00   -1.393E+00   -1.403E+00   -1.412E+00   -1.422E+00   -1.431E+00
    -1.440E+00   -1.449E+00   -1.458E+00   -1.467E+00   -1.475E+00   -1.484E+00   -1.492E+00   -1.501E+00   -1.509E+00   -1.517E+00
    -1.525E+00   -1.533E+00   -1.541E+00   -1.549E+00   -1.557E+00   -1.564E+00   -1.572E+00   -1.579E+00   -1.587E+00   -1.594E+00
    -1.602E+00   -1.609E+00   -1.616E+00   -1.623E+00   -1.630E+00   -1.637E+00   -1.645E+00   -1.652E+00   -1.659E+00   -1.665E+00
    -1.672E+00   -1.679E+00   -1.686E+00   -1.693E+00   -1.700E+00   -1.707E+00   -1.714E+00   -1.721E+00   -1.727E+00   -1.734E+00
    -1.741E+00   -1.748E+00   -1.755E+00   -1.762E+00   -1.768E+00   -1.775E+00   -1.782E+00   -1.789E+00   -1.796E+00   -1.803E+00
    -1.810E+00   -1.817E+00   -1.824E+00   -1.830E+00   -1.837E+00   -1.844E+00   -1.851E+00   -1.859E+00   -1.866E+00   -1.873E+00
    -1.880E+00   -1.887E+00   -1.894E+00   -1.902E+00   -1.909E+00   -1.916E+00   -1.924E+00   -1.931E+00   -1.938E+00   -1.946E+00
    -1.953E+00   -1.961E+00   -1.969E+00   -1.976E+00   -1.984E+00   -1.992E+00   -2.000E+00   -2.008E+00   -2.016E+00   -2.024E+00
    -2.032E+00   -2.040E+00   -2.049E+00   -2.057E+00   -2.065E+00   -2.074E+00   -2.082E+00   -2.091E+00   -2.099E+00   -2.108E+00
    -2.117E+00   -2.125E+00   -2.134E+00   -2.143E+00   -2.152E+00   -2.161E+00   -2.170E+00   -2.179E+00   -2.188E+00   -2.197E+00
    -2.206E+00   -2.215E+00   -2.224E+00   -2.233E+00   -2.243E+00   -2.252E+00   -2.261E+00   -2.270E+00   -2.280E+00   -2.289E+00
    -2.299E+00   -2.308E+00   -2.318E+00   -2.327E+00   -2.337E+00   -2.346E+00   -2.356E+00   -2.365E+00   -2.375E+00   -2.385E+00
    -2.394E+00   -2.404E+00   -2.414E+00   -2.423E+00   -2.433E+00   -2.443E+00   -2.453E+00   -2.462E+00   -2.472E+00   -2.482E+00
    -2.492E+00   -2.501E+00   -2.511E+00   -2.521E+00   -2.530E+00   -2.540E+00   -2.550E+00   -2.559E+00   -2.569E+00   -2.579E+00
    -2.588E+00   -2.598E+00   -2.607E+00   -2.617E+00   -2.626E+00   -2.636E+00   -2.645E+00   -2.654E+00   -2.663E+00   -2.673E+00
    -2.682E+00   -2.691E+00   -2.700E+00   -2.709E+00   -2.718E+00   -2.727E+00   -2.735E+00   -2.744E+00   -2.753E+00   -2.761E+00
    -2.770E+00   -2.778E+00   -2.786E+00   -2.794E+00   -2.803E+00   -2.811E+00   -2.819E+00   -2.826E+00   -2.834E+00   -2.842E+00
    -2.849E+00   -2.857E+00   -2.864E+00   -2.871E+00   -2.879E+00   -2.886E+00   -2.893E+00   -2.900E+00   -2.907E+00   -2.913E+00
    -2.920E+00   -2.927E+00   -2.933E+00   -2.940E+00   -2.946E+00   -2.952E+00   -2.959E+00   -2.965E+00   -2.971E+00   -2.977E+00
    -2.983E+00   -2.989E+00   -2.995E+00   -3.000E+00   -3.006E+00   -3.012E+00   -3.018E+00   -3.023E+00   -3.029E+00   -3.034E+00
    -3.039E+00   -3.045E+00   -3.050E+00   -3.055E+00   -3.061E+00   -3.066E+00   -3.071E+00   -3.076E+00   -3.081E+00   -3.086E+00
    -3.091E+00   -3.096E+00   -3.101E+00   -3.106E+00   -3.111E+00   -3.116E+00   -3.120E+00   -3.125E+00   -3.130E+00   -3.135E+00
    -3.139E+00   -3.144E+00   -3.149E+00   -3.153E+00   -3.158E+00   -3.163E+00   -3.167E+00   -3.172E+00   -3.176E+00   -3.181E+00
    -3.185E+00   -3.190E+00   -3.194E+00   -3.199E+00   -3.203E+00   -3.207E+00   -3.212E+00   -3.216E+00   -3.221E+00   -3.225E+00
    -3.229E+00   -3.234E+00   -3.238E+00   -3.242E+00   -3.247E+00   -3.251E+00   -3.255E+00   -3.259E+00   -3.264E+00   -3.268E+00
    -3.272E+00   -3.277E+00   -3.281E+00   -3.285E+00   -3.290E+00   -3.294E+00   -3.298E+00   -3.302E+00
 Asp      Conc. = 1.35E+01
