 LCModel (Version 6.3-1L) Copyright: S.W. Provencher.          Ref.: Magn. Reson. Med. 30:672-679 (1993).                
 Slice#1 Row#6 Col#2  PD_05_press_1_raw_act
 36 lines in following concentration table = NCONC+1
    Conc.  %SD /Cr+PCr  Metabolite                                         
    7.382 345%   0.131 Ala                                                 
    8.516  93%   0.151 Asp                                                 
   40.470  90%   0.716 Cr                                                  
   16.017 228%   0.284 PCr                                                 
    4.688 102% 8.3E-02 GABA                                                
    4.889  98% 8.7E-02 Glc                                                 
   79.909  67%   1.415 Gln                                                 
   96.561  60%   1.709 Glu                                                 
    0.000 999%   0.000 GPC                                                 
    6.093  92%   0.108 PCh                                                 
   35.982  57%   0.637 GSH                                                 
   93.158  67%   1.649 Ins                                                 
  101.952  34%   1.805 Lac                                                 
   83.003  23%   1.469 NAA                                                 
    0.000 999%   0.000 NAAG                                                
    1.302 121% 2.3E-02 Scyllo                                              
    7.406 107%   0.131 Tau                                                 
    6.928 215%   0.123 -CrCH2                                              
    6.093  92%   0.108 GPC+PCh                                             
   83.003  23%   1.469 NAA+NAAG                                            
   56.487  29%   1.000 Cr+PCr                                              
  176.470  44%   3.124 Glu+Gln                                             
    0.000 999%   0.000 Lip13a                                              
    0.000 999%   0.000 Lip13b                                              
    0.000 999%   0.000 Lip09                                               
  153.365  32%   2.715 MM09                                                
 9.77E-04 999% 1.7E-05 Lip20                                               
  328.351  24%   5.813 MM20                                                
   32.548  64%   0.576 MM12                                                
  118.880  51%   2.105 MM14                                                
  156.550  27%   2.771 MM17                                                
    0.000 999%   0.000 Lip13a+Lip13b                                       
  151.428  46%   2.681 MM14+Lip13a+Lip13b+MM12                             
  153.365  32%   2.715 MM09+Lip09                                          
  328.352  24%   5.813 MM20+Lip20                                          
   6 lines in following misc. output table
  FWHM = 0.038 ppm    S/N =   2                                            
  Data shift = 0.023 ppm                                                   
  Ph: -58 deg     -25.4 deg/ppm                                            
  alphaB,S = 1.0E+01,   1.4E+01                                            
   14 spline knots.   Ns = 5(1)                                            
  ( 4) 2 infls.   ( 4) 1 extrs.                                            
  498 points on ppm-axis = NY
      4.000000     3.992357     3.984714     3.977070     3.969427     3.961784     3.954141     3.946497     3.938854     3.931211
      3.923568     3.915925     3.908281     3.900638     3.892995     3.885352     3.877708     3.870065     3.862422     3.854779
      3.847136     3.839492     3.831849     3.824206     3.816563     3.808919     3.801276     3.793633     3.785990     3.778347
      3.770703     3.763060     3.755417     3.747774     3.740130     3.732487     3.724844     3.717201     3.709558     3.701914
      3.694271     3.686628     3.678985     3.671341     3.663698     3.656055     3.648412     3.640769     3.633125     3.625482
      3.617839     3.610196     3.602552     3.594909     3.587266     3.579623     3.571980     3.564336     3.556693     3.549050
      3.541407     3.533763     3.526120     3.518477     3.510834     3.503191     3.495547     3.487904     3.480261     3.472618
      3.464974     3.457331     3.449688     3.442045     3.434402     3.426758     3.419115     3.411472     3.403829     3.396185
      3.388542     3.380899     3.373256     3.365613     3.357969     3.350326     3.342683     3.335040     3.327396     3.319753
      3.312110     3.304467     3.296824     3.289180     3.281537     3.273894     3.266251     3.258607     3.250964     3.243321
      3.235678     3.228034     3.220391     3.212748     3.205105     3.197462     3.189818     3.182175     3.174532     3.166889
      3.159245     3.151602     3.143959     3.136316     3.128673     3.121029     3.113386     3.105743     3.098100     3.090456
      3.082813     3.075170     3.067527     3.059884     3.052240     3.044597     3.036954     3.029311     3.021667     3.014024
      3.006381     2.998738     2.991095     2.983451     2.975808     2.968165     2.960522     2.952878     2.945235     2.937592
      2.929949     2.922306     2.914662     2.907019     2.899376     2.891733     2.884089     2.876446     2.868803     2.861160
      2.853517     2.845873     2.838230     2.830587     2.822944     2.815300     2.807657     2.800014     2.792371     2.784728
      2.777084     2.769441     2.761798     2.754155     2.746511     2.738868     2.731225     2.723582     2.715939     2.708295
      2.700652     2.693009     2.685366     2.677722     2.670079     2.662436     2.654793     2.647150     2.639506     2.631863
      2.624220     2.616577     2.608933     2.601290     2.593647     2.586004     2.578361     2.570717     2.563074     2.555431
      2.547788     2.540144     2.532501     2.524858     2.517215     2.509572     2.501928     2.494285     2.486642     2.478999
      2.471355     2.463712     2.456069     2.448426     2.440783     2.433139     2.425496     2.417853     2.410210     2.402566
      2.394923     2.387280     2.379637     2.371994     2.364350     2.356707     2.349064     2.341421     2.333777     2.326134
      2.318491     2.310848     2.303205     2.295561     2.287918     2.280275     2.272632     2.264988     2.257345     2.249702
      2.242059     2.234416     2.226772     2.219129     2.211486     2.203843     2.196199     2.188556     2.180913     2.173270
      2.165627     2.157983     2.150340     2.142697     2.135054     2.127410     2.119767     2.112124     2.104481     2.096838
      2.089194     2.081551     2.073908     2.066265     2.058621     2.050978     2.043335     2.035692     2.028049     2.020405
      2.012762     2.005119     1.997476     1.989833     1.982190     1.974546     1.966903     1.959260     1.951617     1.943974
      1.936331     1.928688     1.921045     1.913402     1.905759     1.898115     1.890472     1.882829     1.875186     1.867543
      1.859900     1.852257     1.844614     1.836971     1.829327     1.821684     1.814041     1.806398     1.798755     1.791112
      1.783469     1.775826     1.768183     1.760540     1.752896     1.745253     1.737610     1.729967     1.722324     1.714681
      1.707038     1.699395     1.691752     1.684108     1.676465     1.668822     1.661179     1.653536     1.645893     1.638250
      1.630607     1.622964     1.615321     1.607677     1.600034     1.592391     1.584748     1.577105     1.569462     1.561819
      1.554176     1.546533     1.538890     1.531246     1.523603     1.515960     1.508317     1.500674     1.493031     1.485388
      1.477745     1.470102     1.462458     1.454815     1.447172     1.439529     1.431886     1.424243     1.416600     1.408957
      1.401314     1.393671     1.386027     1.378384     1.370741     1.363098     1.355455     1.347812     1.340169     1.332526
      1.324883     1.317240     1.309596     1.301953     1.294310     1.286667     1.279024     1.271381     1.263738     1.256095
      1.248452     1.240808     1.233165     1.225522     1.217879     1.210236     1.202593     1.194950     1.187307     1.179664
      1.172021     1.164377     1.156734     1.149091     1.141448     1.133805     1.126162     1.118519     1.110876     1.103233
      1.095590     1.087946     1.080303     1.072660     1.065017     1.057374     1.049731     1.042088     1.034445     1.026802
      1.019158     1.011515     1.003872     0.996229     0.988586     0.980943     0.973300     0.965657     0.958014     0.950371
      0.942727     0.935084     0.927441     0.919798     0.912155     0.904512     0.896869     0.889226     0.881583     0.873940
      0.866296     0.858653     0.851010     0.843367     0.835724     0.828081     0.820438     0.812795     0.805152     0.797508
      0.789865     0.782222     0.774579     0.766936     0.759293     0.751650     0.744007     0.736364     0.728721     0.721077
      0.713434     0.705791     0.698148     0.690505     0.682862     0.675219     0.667576     0.659933     0.652290     0.644646
      0.637003     0.629360     0.621717     0.614074     0.606431     0.598788     0.591145     0.583502     0.575858     0.568215
      0.560572     0.552929     0.545286     0.537643     0.530000     0.522357     0.514714     0.507071     0.499427     0.491784
      0.484141     0.476498     0.468855     0.461212     0.453569     0.445925     0.438282     0.430639     0.422996     0.415353
      0.407710     0.400067     0.392424     0.384780     0.377137     0.369494     0.361851     0.354208     0.346565     0.338922
      0.331278     0.323635     0.315992     0.308349     0.300706     0.293063     0.285420     0.277777     0.270133     0.262490
      0.254847     0.247204     0.239561     0.231918     0.224275     0.216631     0.208988     0.201345
 NY phased data points follow
   6.76298E+00  7.34956E+00  4.78051E+00  4.73784E+00  5.35886E+00  2.55340E+00  4.56509E+00  6.60731E+00  4.90736E+00  4.43322E+00
   2.42566E+00  5.77615E+00  5.93185E+00  6.76947E+00  4.54227E+00  7.47258E+00  6.00877E+00  6.93554E+00  5.28807E+00  3.93776E+00
   5.52819E+00  3.37502E+00  3.81334E+00  5.14088E+00  5.52880E+00  4.32515E+00  1.60390E+00  5.48383E+00  5.18895E+00  5.28554E+00
   5.38329E+00  4.98999E+00  2.31802E+00  8.12015E+00  4.59351E+00  7.43039E+00  6.61371E+00  2.96039E+00  5.85021E+00  4.94051E+00
   2.70702E+00  6.26577E+00  1.99924E+00  6.12589E+00  6.63011E+00  5.44920E+00  4.69899E+00  6.21906E+00  6.81989E+00  6.40206E+00
   6.85405E+00  7.55954E+00  3.43667E+00  6.76642E+00  5.88499E+00  4.93575E+00  7.05366E+00  4.71521E+00  4.35806E+00  6.63050E+00
   4.55352E+00  6.13711E+00  4.66460E+00  4.76703E+00  5.78418E+00  3.04774E+00  5.64486E+00  2.71468E+00  5.13948E+00  4.21103E+00
   4.68122E+00  3.31934E+00  3.41102E+00  6.06804E+00  4.02017E+00  5.73329E+00  4.36843E+00  4.12679E+00  4.99633E+00  6.29818E+00
   6.73820E+00  4.35813E+00  5.51083E+00  7.08190E+00  5.72747E+00  5.55996E+00  3.71071E+00  6.51221E+00  2.11626E+00  5.43454E+00
   5.08370E+00  3.69025E+00  2.92055E+00  5.17024E+00  4.99737E+00  4.68901E+00  6.21150E+00  7.28454E+00  6.20048E+00  3.22797E+00
   3.19022E+00  4.50840E+00  2.41916E+00  5.85949E+00  4.98026E+00  7.46073E+00  4.07024E+00  3.99757E+00  4.04902E+00  6.00207E+00
   4.64005E+00  6.32298E+00  7.25218E+00  6.88643E+00  3.09000E+00  3.93114E+00  4.06433E+00  4.43306E+00  7.87300E+00  7.60433E+00
   6.42416E+00  4.60656E+00  3.71541E+00  3.97932E+00  3.99480E+00  4.61933E+00  6.12102E+00  3.89739E+00  5.58346E+00  5.11964E+00
   8.90880E+00  8.07097E+00  9.87990E+00  5.14498E+00  5.57972E+00  5.65185E+00  7.10061E+00  7.42795E+00  5.56170E+00  6.10092E+00
   5.38652E+00  3.54837E+00  4.85061E+00  7.59965E+00  6.70223E+00  5.25114E+00  5.66199E+00  6.13134E+00  3.98252E+00  5.41859E+00
   7.80879E+00  3.08167E+00  6.91343E+00  4.49265E+00  5.93637E+00  6.13763E+00  5.07717E+00  6.51753E+00  7.94561E+00  4.02882E+00
   6.61283E+00  5.83745E+00  4.40448E+00  9.08603E-01  3.88712E+00  3.65116E+00  4.98704E+00  2.18676E+00  4.20669E+00  3.24856E+00
   6.18979E+00  4.64584E+00  2.19676E+00  5.10592E+00  2.92062E+00  4.19614E+00  3.28606E+00  4.71587E+00  5.12653E+00  4.65665E+00
   5.46143E+00  4.54324E+00  5.96972E+00  4.73699E+00  5.42973E+00  2.78874E+00  2.23470E+00  3.50797E+00  3.00144E+00  4.48502E+00
   2.85694E+00  2.67221E+00  2.73107E+00  5.85436E+00  3.02034E+00  4.89539E+00  6.56464E+00  2.80334E+00  4.35847E+00  3.95798E+00
   4.54953E+00  4.39673E+00  3.83660E+00  3.23135E+00  4.48145E+00  5.95113E+00  5.94546E+00  5.13083E+00  4.27953E+00  4.52001E+00
   3.86753E+00  5.34032E+00  3.00447E+00  2.40059E+00  2.48281E+00  3.10838E+00  5.30704E+00  4.73821E+00  6.61694E+00  4.75437E+00
   5.11512E+00  6.40149E+00  3.39690E+00  1.84314E+00  5.00373E+00  4.30253E+00  5.36775E+00  4.04591E+00  5.15551E+00  4.66282E+00
   3.74874E+00  4.73319E+00  6.03737E+00  7.37190E+00  5.10622E+00  2.62632E+00  4.63781E+00  5.14647E+00  4.44030E+00  5.23896E+00
   5.41555E+00  4.82527E+00  6.76101E+00  5.58549E+00  3.53356E+00  4.64835E+00  4.82134E+00  3.06455E+00  3.60680E+00  7.67639E+00
   5.27708E+00  9.26725E+00  9.30254E+00  5.28006E+00  5.03913E+00  1.05587E+01  5.59728E+00  3.09278E+00  2.34658E+00  2.34670E+00
   6.12509E+00  9.00112E+00  5.96448E+00  6.07631E+00  1.03874E+01  8.96403E+00  7.01519E+00  7.94063E+00  6.67936E+00  4.72087E+00
   6.84458E+00  1.10100E+01  5.91025E+00  5.77053E+00  1.01616E+01  6.11713E+00  5.34452E+00  8.13139E+00  3.12870E+00  5.34161E+00
   6.33339E+00  5.12718E+00  6.56569E+00  6.39736E+00  5.75579E+00  5.75546E+00  4.52805E+00  5.53604E+00  7.61673E+00  6.16017E+00
   5.58209E+00  4.52065E+00  4.06861E+00  5.40787E+00  5.64991E+00  5.30070E+00  7.32114E+00  4.49985E+00  6.45792E+00  6.36671E+00
   6.84150E+00  4.11763E+00  6.71407E+00  6.73611E+00  6.69291E+00  7.30764E+00  7.16496E+00  5.80733E+00  7.48738E+00  5.64912E+00
   8.07635E+00  7.39465E+00  2.53515E+00  5.93907E+00  6.23761E+00  4.57044E+00  6.94904E+00  4.70750E+00  7.19807E+00  5.08212E+00
   6.06743E+00  6.89023E+00  4.16031E+00  3.49042E+00  5.77914E+00  6.33673E+00  6.17083E+00  5.33264E+00  5.44374E+00  4.79373E+00
   3.79872E+00  6.03702E+00  3.69924E+00  2.45960E+00  6.46758E+00  6.90168E+00  6.34501E+00  6.34761E+00  5.13621E+00  6.61674E+00
   5.75703E+00  4.36430E+00  5.86223E+00  5.86776E+00  8.38397E+00  4.87933E+00  5.17514E+00  7.20447E+00  4.94421E+00  6.04183E+00
   2.90919E+00  3.17451E+00 -1.38277E+00  1.25350E+00  3.12952E+00  1.02915E+00  1.36342E+00  3.33251E-01  3.45238E+00  4.51980E+00
   6.29717E+00  5.14046E+00  3.58931E+00  2.91396E+00  3.30039E+00  2.09227E+00  2.79746E+00  9.55158E-01  2.14311E+00  3.83004E+00
   2.60709E+00  2.75846E+00  2.43447E+00  2.53279E+00  4.47529E+00  2.51950E+00  3.98443E+00  4.82141E+00  4.64641E+00  6.51821E+00
   3.41184E+00  5.35812E+00  1.53073E+00  2.14482E+00  4.36490E+00  3.15237E+00  2.78640E+00  4.22235E-01  4.22636E+00  2.12806E+00
   3.94169E+00  3.54173E+00  3.18560E+00  5.13431E-01  4.74266E+00  2.79914E+00  2.35486E+00  2.10715E+00  4.92275E+00  3.67849E+00
   3.07155E+00  2.98101E+00  4.51071E+00  4.62922E+00  3.15088E+00  2.79855E+00  5.63807E+00  3.11642E+00  3.95300E+00  3.73277E+00
   3.49187E+00  3.15691E+00  4.11234E+00  4.19997E+00  2.79541E+00  4.35482E+00  4.28130E+00  5.27558E+00  4.67041E+00  4.68166E+00
   4.80369E+00  2.85086E+00  5.29859E+00  2.27420E+00  5.32466E+00  4.58009E+00  4.35399E+00  4.15676E+00  1.31329E+00  3.61099E+00
   2.29516E+00  3.02266E+00  3.49160E+00  4.60048E+00  1.11149E+00  3.09712E+00  5.58549E+00  2.11136E+00  2.41498E+00  1.80714E+00
   3.44879E+00  1.17045E+00  3.00167E+00  1.67058E+00  3.52569E+00  1.85921E+00  7.01800E-01  1.09403E+00  2.44046E+00  1.50405E+00
   3.17191E+00  2.98053E+00  5.05051E+00  3.15716E+00  4.80427E+00  2.73700E+00  3.48037E+00  3.96267E+00  3.72481E+00  3.88429E+00
   4.12307E+00  4.63409E+00  3.25163E+00  1.41926E+00  9.98237E-01  2.80230E+00  3.17325E+00  3.14788E+00  4.18323E+00  4.24158E+00
   3.38810E+00  5.50690E+00  4.64075E+00  2.87137E+00  2.56898E+00  3.19290E+00  3.88583E+00  2.74428E+00  3.58426E+00  2.25953E+00
   1.10691E+00  4.26497E+00  2.36730E+00  2.94463E+00  3.68140E+00  3.41653E+00  2.74408E+00  4.46613E+00  3.73036E+00  1.87400E+00
   4.56544E+00  3.95318E+00  2.50336E+00  3.16274E+00  3.43430E+00  2.17931E+00  2.61059E+00  2.84771E+00
 NY points of the fit to the data follow
   5.06961E+00  4.90515E+00  4.75718E+00  4.69193E+00  4.66345E+00  4.60679E+00  4.49615E+00  4.29857E+00  4.14773E+00  4.19442E+00
   4.46111E+00  4.84905E+00  5.22459E+00  5.56143E+00  5.89666E+00  6.13314E+00  6.09030E+00  5.75677E+00  5.36875E+00  5.15244E+00
   5.04275E+00  4.98787E+00  4.98311E+00  5.03878E+00  5.13118E+00  5.11577E+00  4.90322E+00  4.60665E+00  4.40035E+00  4.39317E+00
   4.54548E+00  4.81046E+00  5.25687E+00  5.88103E+00  6.45145E+00  6.67034E+00  6.48505E+00  6.12221E+00  5.73787E+00  5.37734E+00
   5.11917E+00  4.97942E+00  4.90541E+00  4.81054E+00  4.72863E+00  4.76006E+00  4.94197E+00  5.21628E+00  5.48348E+00  5.71185E+00
   5.93424E+00  6.09340E+00  6.03891E+00  5.73952E+00  5.36637E+00  5.09746E+00  4.95855E+00  4.90180E+00  4.92042E+00  5.01114E+00
   5.13523E+00  5.25539E+00  5.35842E+00  5.43420E+00  5.44980E+00  5.38025E+00  5.25997E+00  5.13140E+00  5.02990E+00  4.99390E+00
   5.02286E+00  5.08937E+00  5.15625E+00  5.20422E+00  5.24890E+00  5.29950E+00  5.33561E+00  5.33139E+00  5.29654E+00  5.26816E+00
   5.24337E+00  5.20631E+00  5.17407E+00  5.17691E+00  5.21376E+00  5.25027E+00  5.24830E+00  5.19452E+00  5.10923E+00  5.01291E+00
   4.90542E+00  4.79115E+00  4.71040E+00  4.71310E+00  4.78382E+00  4.87156E+00  4.93771E+00  4.96750E+00  4.93681E+00  4.80794E+00
   4.65615E+00  4.59277E+00  4.66724E+00  4.83762E+00  5.01566E+00  5.18375E+00  5.39054E+00  5.57498E+00  5.59041E+00  5.40933E+00
   5.18275E+00  5.06066E+00  5.00222E+00  4.96756E+00  4.94213E+00  4.92760E+00  4.92076E+00  4.91334E+00  4.90006E+00  4.88056E+00
   4.85531E+00  4.80351E+00  4.57228E+00  4.15896E+00  3.92331E+00  4.14847E+00  4.79163E+00  5.54925E+00  6.18742E+00  6.79118E+00
   7.45516E+00  7.87346E+00  7.68185E+00  7.02877E+00  6.46688E+00  6.18614E+00  5.99655E+00  5.80655E+00  5.58502E+00  5.36339E+00
   5.21654E+00  5.19138E+00  5.25541E+00  5.36060E+00  5.46760E+00  5.53028E+00  5.52675E+00  5.47748E+00  5.41166E+00  5.36340E+00
   5.32479E+00  5.28702E+00  5.24741E+00  5.20637E+00  5.16490E+00  5.12791E+00  5.10698E+00  5.10375E+00  5.10141E+00  5.08648E+00
   5.05109E+00  4.99958E+00  4.95346E+00  4.92174E+00  4.89843E+00  4.88281E+00  4.88666E+00  4.91389E+00  4.94216E+00  4.93979E+00
   4.90583E+00  4.86479E+00  4.84766E+00  4.83991E+00  4.80803E+00  4.75612E+00  4.71030E+00  4.68973E+00  4.67419E+00  4.63603E+00
   4.59196E+00  4.58455E+00  4.61683E+00  4.63978E+00  4.59788E+00  4.50933E+00  4.42416E+00  4.37214E+00  4.35690E+00  4.38266E+00
   4.45568E+00  4.58024E+00  4.73887E+00  4.89038E+00  4.96964E+00  4.91511E+00  4.72644E+00  4.46347E+00  4.23214E+00  4.10469E+00
   4.07578E+00  4.13771E+00  4.32645E+00  4.63447E+00  4.99127E+00  5.32318E+00  5.51101E+00  5.45795E+00  5.19326E+00  4.80625E+00
   4.38179E+00  3.95996E+00  3.60070E+00  3.45705E+00  3.68124E+00  4.21751E+00  4.79438E+00  5.19982E+00  5.50536E+00  5.68985E+00
   5.55272E+00  5.08384E+00  4.52779E+00  4.14419E+00  3.94796E+00  3.85315E+00  3.91654E+00  4.21592E+00  4.63807E+00  4.94158E+00
   5.03127E+00  5.02381E+00  4.98909E+00  4.87712E+00  4.70465E+00  4.58336E+00  4.61356E+00  4.77642E+00  4.97998E+00  5.16080E+00
   5.34159E+00  5.47932E+00  5.47675E+00  5.32964E+00  5.16234E+00  5.02659E+00  4.90913E+00  4.87053E+00  4.96085E+00  5.11178E+00
   5.21307E+00  5.27374E+00  5.32021E+00  5.36905E+00  5.41055E+00  5.31843E+00  4.86654E+00  4.41077E+00  4.48766E+00  5.22001E+00
   6.27530E+00  7.20319E+00  7.96876E+00  8.82529E+00  9.51263E+00  9.34110E+00  8.22993E+00  6.97545E+00  6.30405E+00  5.97148E+00
   5.74278E+00  5.57815E+00  5.45410E+00  5.35122E+00  5.27332E+00  5.21868E+00  5.18645E+00  5.16833E+00  5.14724E+00  5.10889E+00
   5.05649E+00  5.00138E+00  4.94910E+00  4.90237E+00  4.86514E+00  4.84033E+00  4.82809E+00  4.82591E+00  4.83077E+00  4.84297E+00
   4.86150E+00  4.88479E+00  4.91339E+00  4.94831E+00  4.98873E+00  5.03301E+00  5.08019E+00  5.12939E+00  5.17878E+00  5.22647E+00
   5.27109E+00  5.31079E+00  5.34398E+00  5.36931E+00  5.38576E+00  5.39278E+00  5.39018E+00  5.37800E+00  5.35659E+00  5.32681E+00
   5.29002E+00  5.24775E+00  5.20147E+00  5.15278E+00  5.10324E+00  5.05436E+00  5.00752E+00  4.96384E+00  4.92416E+00  4.88903E+00
   4.85852E+00  4.83130E+00  4.80440E+00  4.79099E+00  4.80787E+00  4.84720E+00  4.88526E+00  4.90278E+00  4.90147E+00  4.89500E+00
   4.86774E+00  4.78990E+00  4.68445E+00  4.61300E+00  4.61158E+00  4.65048E+00  4.68931E+00  4.72855E+00  4.78073E+00  4.83017E+00
   4.83445E+00  4.74948E+00  4.58647E+00  4.63677E+00  5.07332E+00  5.70856E+00  6.19872E+00  6.33449E+00  6.22880E+00  5.99587E+00
   5.27011E+00  3.91228E+00  2.50865E+00  1.86530E+00  2.16958E+00  2.78062E+00  3.36722E+00  4.10049E+00  4.97313E+00  5.56421E+00
   5.54202E+00  5.11733E+00  4.78729E+00  4.60163E+00  4.48130E+00  4.39445E+00  4.32740E+00  4.27311E+00  4.22746E+00  4.18782E+00
   4.15247E+00  4.12037E+00  4.09095E+00  4.06381E+00  4.03864E+00  4.01516E+00  3.99326E+00  3.97297E+00  3.95445E+00  3.93783E+00
   3.92321E+00  3.91067E+00  3.90041E+00  3.89276E+00  3.88803E+00  3.88652E+00  3.88848E+00  3.89418E+00  3.90395E+00  3.91814E+00
   3.93705E+00  3.96085E+00  3.98957E+00  4.02318E+00  4.06155E+00  4.10442E+00  4.15128E+00  4.20136E+00  4.25372E+00  4.30724E+00
   4.36070E+00  4.41273E+00  4.46183E+00  4.50645E+00  4.54511E+00  4.57648E+00  4.59943E+00  4.61306E+00  4.61669E+00  4.60995E+00
   4.59285E+00  4.56576E+00  4.52934E+00  4.48449E+00  4.43229E+00  4.37397E+00  4.31089E+00  4.24446E+00  4.17602E+00  4.10680E+00
   4.03788E+00  3.97020E+00  3.90457E+00  3.84164E+00  3.78184E+00  3.72542E+00  3.67250E+00  3.62308E+00  3.57714E+00  3.53454E+00
   3.49508E+00  3.45848E+00  3.42449E+00  3.39288E+00  3.36344E+00  3.33592E+00  3.31010E+00  3.28575E+00  3.26270E+00  3.24080E+00
   3.21994E+00  3.20000E+00  3.18084E+00  3.16235E+00  3.14446E+00  3.12713E+00  3.11032E+00  3.09395E+00  3.07796E+00  3.06229E+00
   3.04694E+00  3.03189E+00  3.01712E+00  3.00258E+00  2.98824E+00  2.97408E+00  2.96011E+00  2.94633E+00  2.93272E+00  2.91923E+00
   2.90585E+00  2.89259E+00  2.87946E+00  2.86645E+00  2.85353E+00  2.84069E+00  2.82792E+00  2.81524E+00  2.80264E+00  2.79013E+00
   2.77768E+00  2.76526E+00  2.75289E+00  2.74059E+00  2.72836E+00  2.71618E+00  2.70404E+00  2.69191E+00  2.67983E+00  2.66781E+00
   2.65584E+00  2.64389E+00  2.63196E+00  2.62005E+00  2.60817E+00  2.59634E+00  2.58455E+00  2.57277E+00  2.56100E+00  2.54924E+00
   2.53753E+00  2.52585E+00  2.51419E+00  2.50253E+00  2.49088E+00  2.47925E+00  2.46766E+00  2.45609E+00
 NY background values follow
     5.051E+00    5.054E+00    5.057E+00    5.060E+00    5.062E+00    5.065E+00    5.067E+00    5.070E+00    5.072E+00    5.075E+00
     5.077E+00    5.080E+00    5.082E+00    5.084E+00    5.087E+00    5.089E+00    5.091E+00    5.093E+00    5.095E+00    5.097E+00
     5.099E+00    5.101E+00    5.103E+00    5.105E+00    5.107E+00    5.109E+00    5.110E+00    5.112E+00    5.114E+00    5.115E+00
     5.117E+00    5.119E+00    5.120E+00    5.122E+00    5.123E+00    5.124E+00    5.126E+00    5.127E+00    5.128E+00    5.130E+00
     5.131E+00    5.132E+00    5.133E+00    5.134E+00    5.135E+00    5.136E+00    5.137E+00    5.138E+00    5.139E+00    5.140E+00
     5.141E+00    5.142E+00    5.142E+00    5.143E+00    5.144E+00    5.144E+00    5.145E+00    5.145E+00    5.146E+00    5.146E+00
     5.147E+00    5.147E+00    5.148E+00    5.148E+00    5.148E+00    5.148E+00    5.149E+00    5.149E+00    5.149E+00    5.149E+00
     5.149E+00    5.149E+00    5.149E+00    5.149E+00    5.149E+00    5.149E+00    5.149E+00    5.148E+00    5.148E+00    5.148E+00
     5.147E+00    5.147E+00    5.147E+00    5.146E+00    5.146E+00    5.145E+00    5.145E+00    5.144E+00    5.144E+00    5.143E+00
     5.142E+00    5.141E+00    5.141E+00    5.140E+00    5.139E+00    5.138E+00    5.137E+00    5.136E+00    5.135E+00    5.134E+00
     5.133E+00    5.132E+00    5.131E+00    5.130E+00    5.128E+00    5.127E+00    5.126E+00    5.125E+00    5.123E+00    5.122E+00
     5.120E+00    5.119E+00    5.117E+00    5.116E+00    5.114E+00    5.113E+00    5.111E+00    5.109E+00    5.108E+00    5.106E+00
     5.104E+00    5.102E+00    5.100E+00    5.099E+00    5.097E+00    5.095E+00    5.093E+00    5.091E+00    5.089E+00    5.086E+00
     5.084E+00    5.082E+00    5.080E+00    5.078E+00    5.075E+00    5.073E+00    5.071E+00    5.068E+00    5.066E+00    5.063E+00
     5.061E+00    5.058E+00    5.056E+00    5.053E+00    5.050E+00    5.048E+00    5.045E+00    5.042E+00    5.040E+00    5.037E+00
     5.034E+00    5.031E+00    5.028E+00    5.025E+00    5.022E+00    5.019E+00    5.016E+00    5.013E+00    5.010E+00    5.007E+00
     5.004E+00    5.000E+00    4.997E+00    4.994E+00    4.991E+00    4.987E+00    4.984E+00    4.980E+00    4.977E+00    4.973E+00
     4.970E+00    4.966E+00    4.963E+00    4.959E+00    4.956E+00    4.952E+00    4.948E+00    4.944E+00    4.941E+00    4.937E+00
     4.933E+00    4.929E+00    4.925E+00    4.921E+00    4.917E+00    4.913E+00    4.909E+00    4.905E+00    4.901E+00    4.897E+00
     4.893E+00    4.889E+00    4.884E+00    4.880E+00    4.876E+00    4.871E+00    4.867E+00    4.863E+00    4.858E+00    4.854E+00
     4.849E+00    4.845E+00    4.840E+00    4.836E+00    4.831E+00    4.827E+00    4.822E+00    4.817E+00    4.812E+00    4.808E+00
     4.803E+00    4.798E+00    4.793E+00    4.788E+00    4.783E+00    4.778E+00    4.773E+00    4.768E+00    4.763E+00    4.758E+00
     4.753E+00    4.748E+00    4.743E+00    4.738E+00    4.732E+00    4.727E+00    4.722E+00    4.717E+00    4.711E+00    4.706E+00
     4.700E+00    4.695E+00    4.690E+00    4.684E+00    4.679E+00    4.673E+00    4.667E+00    4.662E+00    4.656E+00    4.650E+00
     4.645E+00    4.639E+00    4.633E+00    4.627E+00    4.622E+00    4.616E+00    4.610E+00    4.604E+00    4.598E+00    4.592E+00
     4.586E+00    4.580E+00    4.574E+00    4.568E+00    4.562E+00    4.555E+00    4.549E+00    4.543E+00    4.537E+00    4.530E+00
     4.524E+00    4.518E+00    4.511E+00    4.505E+00    4.499E+00    4.492E+00    4.486E+00    4.479E+00    4.473E+00    4.466E+00
     4.459E+00    4.453E+00    4.446E+00    4.439E+00    4.433E+00    4.426E+00    4.419E+00    4.412E+00    4.406E+00    4.399E+00
     4.392E+00    4.385E+00    4.378E+00    4.371E+00    4.364E+00    4.357E+00    4.350E+00    4.343E+00    4.336E+00    4.329E+00
     4.321E+00    4.314E+00    4.307E+00    4.300E+00    4.292E+00    4.285E+00    4.278E+00    4.270E+00    4.263E+00    4.256E+00
     4.248E+00    4.241E+00    4.233E+00    4.226E+00    4.218E+00    4.211E+00    4.203E+00    4.195E+00    4.188E+00    4.180E+00
     4.172E+00    4.165E+00    4.157E+00    4.149E+00    4.141E+00    4.133E+00    4.126E+00    4.118E+00    4.110E+00    4.102E+00
     4.094E+00    4.086E+00    4.078E+00    4.070E+00    4.062E+00    4.054E+00    4.046E+00    4.038E+00    4.029E+00    4.021E+00
     4.013E+00    4.005E+00    3.997E+00    3.988E+00    3.980E+00    3.972E+00    3.963E+00    3.955E+00    3.947E+00    3.938E+00
     3.930E+00    3.921E+00    3.913E+00    3.905E+00    3.896E+00    3.887E+00    3.879E+00    3.870E+00    3.862E+00    3.853E+00
     3.845E+00    3.836E+00    3.827E+00    3.819E+00    3.810E+00    3.801E+00    3.792E+00    3.784E+00    3.775E+00    3.766E+00
     3.757E+00    3.749E+00    3.740E+00    3.731E+00    3.722E+00    3.713E+00    3.704E+00    3.695E+00    3.686E+00    3.677E+00
     3.668E+00    3.659E+00    3.650E+00    3.641E+00    3.632E+00    3.623E+00    3.614E+00    3.605E+00    3.596E+00    3.587E+00
     3.578E+00    3.568E+00    3.559E+00    3.550E+00    3.541E+00    3.532E+00    3.522E+00    3.513E+00    3.504E+00    3.495E+00
     3.485E+00    3.476E+00    3.467E+00    3.457E+00    3.448E+00    3.439E+00    3.429E+00    3.420E+00    3.410E+00    3.401E+00
     3.391E+00    3.382E+00    3.373E+00    3.363E+00    3.354E+00    3.344E+00    3.335E+00    3.325E+00    3.315E+00    3.306E+00
     3.296E+00    3.287E+00    3.277E+00    3.268E+00    3.258E+00    3.248E+00    3.239E+00    3.229E+00    3.219E+00    3.210E+00
     3.200E+00    3.190E+00    3.180E+00    3.171E+00    3.161E+00    3.151E+00    3.141E+00    3.132E+00    3.122E+00    3.112E+00
     3.102E+00    3.092E+00    3.083E+00    3.073E+00    3.063E+00    3.053E+00    3.043E+00    3.033E+00    3.023E+00    3.013E+00
     3.003E+00    2.993E+00    2.984E+00    2.974E+00    2.964E+00    2.954E+00    2.944E+00    2.934E+00    2.924E+00    2.914E+00
     2.903E+00    2.893E+00    2.883E+00    2.873E+00    2.863E+00    2.853E+00    2.843E+00    2.833E+00    2.823E+00    2.813E+00
     2.802E+00    2.792E+00    2.782E+00    2.772E+00    2.762E+00    2.752E+00    2.741E+00    2.731E+00    2.721E+00    2.711E+00
     2.700E+00    2.690E+00    2.680E+00    2.670E+00    2.659E+00    2.649E+00    2.639E+00    2.628E+00    2.618E+00    2.608E+00
     2.597E+00    2.587E+00    2.577E+00    2.566E+00    2.556E+00    2.545E+00    2.535E+00    2.525E+00    2.514E+00    2.504E+00
     2.493E+00    2.483E+00    2.472E+00    2.462E+00    2.451E+00    2.441E+00    2.430E+00    2.420E+00
 Ala      Conc. = 7.38E+00
