 LCModel (Version 6.3-1L) Copyright: S.W. Provencher.          Ref.: Magn. Reson. Med. 30:672-679 (1993).                
 Slice#3 Row#4 Col#6  PD_05_press_1_raw_act
 36 lines in following concentration table = NCONC+1
    Conc.  %SD /Cr+PCr  Metabolite                                         
   56.848 235% 2.9E-02 Ala                                                 
    0.000 999%   0.000 Asp                                                 
  778.526  35%   0.398 Cr                                                  
 1.18E+03  23%   0.602 PCr                                                 
  135.993 137% 7.0E-02 GABA                                                
    0.000 999%   0.000 Glc                                                 
 1.46E+03  20%   0.746 Gln                                                 
 1.18E+03  29%   0.602 Glu                                                 
  692.409   4%   0.354 GPC                                                 
    0.000 999%   0.000 PCh                                                 
  544.163  15%   0.278 GSH                                                 
 1.38E+03  23%   0.706 Ins                                                 
  243.536  61%   0.125 Lac                                                 
 2.56E+03   3%   1.312 NAA                                                 
    0.000 999%   0.000 NAAG                                                
  168.777  18% 8.6E-02 Scyllo                                              
    0.000 999%   0.000 Tau                                                 
  449.954  30%   0.230 -CrCH2                                              
  692.409   4%   0.354 GPC+PCh                                             
 2.56E+03   3%   1.312 NAA+NAAG                                            
 1.96E+03   3%   1.000 Cr+PCr                                              
 2.64E+03  20%   1.348 Glu+Gln                                             
  747.975  57%   0.383 Lip13a                                              
    0.000 999%   0.000 Lip13b                                              
   27.950 732% 1.4E-02 Lip09                                               
 1.00E+03  23%   0.512 MM09                                                
   89.363 151% 4.6E-02 Lip20                                               
 1.94E+03  19%   0.993 MM20                                                
  410.902  35%   0.210 MM12                                                
  777.097  36%   0.397 MM14                                                
  448.393  40%   0.229 MM17                                                
  747.975  57%   0.383 Lip13a+Lip13b                                       
 1.94E+03  23%   0.990 MM14+Lip13a+Lip13b+MM12                             
 1.03E+03  19%   0.526 MM09+Lip09                                          
 2.03E+03  17%   1.038 MM20+Lip20                                          
   6 lines in following misc. output table
  FWHM = 0.069 ppm    S/N =  14                                            
  Data shift =-0.046 ppm                                                   
  Ph: -15 deg     -10.7 deg/ppm                                            
  alphaB,S = 5.2E-01,   4.8E+01                                            
   14 spline knots.   Ns = 9(1)                                            
  (17) 5 infls.   (15) 1 extrs.                                            
  498 points on ppm-axis = NY
      4.000000     3.992357     3.984714     3.977070     3.969427     3.961784     3.954141     3.946497     3.938854     3.931211
      3.923568     3.915925     3.908281     3.900638     3.892995     3.885352     3.877708     3.870065     3.862422     3.854779
      3.847136     3.839492     3.831849     3.824206     3.816563     3.808919     3.801276     3.793633     3.785990     3.778347
      3.770703     3.763060     3.755417     3.747774     3.740130     3.732487     3.724844     3.717201     3.709558     3.701914
      3.694271     3.686628     3.678985     3.671341     3.663698     3.656055     3.648412     3.640769     3.633125     3.625482
      3.617839     3.610196     3.602552     3.594909     3.587266     3.579623     3.571980     3.564336     3.556693     3.549050
      3.541407     3.533763     3.526120     3.518477     3.510834     3.503191     3.495547     3.487904     3.480261     3.472618
      3.464974     3.457331     3.449688     3.442045     3.434402     3.426758     3.419115     3.411472     3.403829     3.396185
      3.388542     3.380899     3.373256     3.365613     3.357969     3.350326     3.342683     3.335040     3.327396     3.319753
      3.312110     3.304467     3.296824     3.289180     3.281537     3.273894     3.266251     3.258607     3.250964     3.243321
      3.235678     3.228034     3.220391     3.212748     3.205105     3.197462     3.189818     3.182175     3.174532     3.166889
      3.159245     3.151602     3.143959     3.136316     3.128673     3.121029     3.113386     3.105743     3.098100     3.090456
      3.082813     3.075170     3.067527     3.059884     3.052240     3.044597     3.036954     3.029311     3.021667     3.014024
      3.006381     2.998738     2.991095     2.983451     2.975808     2.968165     2.960522     2.952878     2.945235     2.937592
      2.929949     2.922306     2.914662     2.907019     2.899376     2.891733     2.884089     2.876446     2.868803     2.861160
      2.853517     2.845873     2.838230     2.830587     2.822944     2.815300     2.807657     2.800014     2.792371     2.784728
      2.777084     2.769441     2.761798     2.754155     2.746511     2.738868     2.731225     2.723582     2.715939     2.708295
      2.700652     2.693009     2.685366     2.677722     2.670079     2.662436     2.654793     2.647150     2.639506     2.631863
      2.624220     2.616577     2.608933     2.601290     2.593647     2.586004     2.578361     2.570717     2.563074     2.555431
      2.547788     2.540144     2.532501     2.524858     2.517215     2.509572     2.501928     2.494285     2.486642     2.478999
      2.471355     2.463712     2.456069     2.448426     2.440783     2.433139     2.425496     2.417853     2.410210     2.402566
      2.394923     2.387280     2.379637     2.371994     2.364350     2.356707     2.349064     2.341421     2.333777     2.326134
      2.318491     2.310848     2.303205     2.295561     2.287918     2.280275     2.272632     2.264988     2.257345     2.249702
      2.242059     2.234416     2.226772     2.219129     2.211486     2.203843     2.196199     2.188556     2.180913     2.173270
      2.165627     2.157983     2.150340     2.142697     2.135054     2.127410     2.119767     2.112124     2.104481     2.096838
      2.089194     2.081551     2.073908     2.066265     2.058621     2.050978     2.043335     2.035692     2.028049     2.020405
      2.012762     2.005119     1.997476     1.989833     1.982190     1.974546     1.966903     1.959260     1.951617     1.943974
      1.936331     1.928688     1.921045     1.913402     1.905759     1.898115     1.890472     1.882829     1.875186     1.867543
      1.859900     1.852257     1.844614     1.836971     1.829327     1.821684     1.814041     1.806398     1.798755     1.791112
      1.783469     1.775826     1.768183     1.760540     1.752896     1.745253     1.737610     1.729967     1.722324     1.714681
      1.707038     1.699395     1.691752     1.684108     1.676465     1.668822     1.661179     1.653536     1.645893     1.638250
      1.630607     1.622964     1.615321     1.607677     1.600034     1.592391     1.584748     1.577105     1.569462     1.561819
      1.554176     1.546533     1.538890     1.531246     1.523603     1.515960     1.508317     1.500674     1.493031     1.485388
      1.477745     1.470102     1.462458     1.454815     1.447172     1.439529     1.431886     1.424243     1.416600     1.408957
      1.401314     1.393671     1.386027     1.378384     1.370741     1.363098     1.355455     1.347812     1.340169     1.332526
      1.324883     1.317240     1.309596     1.301953     1.294310     1.286667     1.279024     1.271381     1.263738     1.256095
      1.248452     1.240808     1.233165     1.225522     1.217879     1.210236     1.202593     1.194950     1.187307     1.179664
      1.172021     1.164377     1.156734     1.149091     1.141448     1.133805     1.126162     1.118519     1.110876     1.103233
      1.095590     1.087946     1.080303     1.072660     1.065017     1.057374     1.049731     1.042088     1.034445     1.026802
      1.019158     1.011515     1.003872     0.996229     0.988586     0.980943     0.973300     0.965657     0.958014     0.950371
      0.942727     0.935084     0.927441     0.919798     0.912155     0.904512     0.896869     0.889226     0.881583     0.873940
      0.866296     0.858653     0.851010     0.843367     0.835724     0.828081     0.820438     0.812795     0.805152     0.797508
      0.789865     0.782222     0.774579     0.766936     0.759293     0.751650     0.744007     0.736364     0.728721     0.721077
      0.713434     0.705791     0.698148     0.690505     0.682862     0.675219     0.667576     0.659933     0.652290     0.644646
      0.637003     0.629360     0.621717     0.614074     0.606431     0.598788     0.591145     0.583502     0.575858     0.568215
      0.560572     0.552929     0.545286     0.537643     0.530000     0.522357     0.514714     0.507071     0.499427     0.491784
      0.484141     0.476498     0.468855     0.461212     0.453569     0.445925     0.438282     0.430639     0.422996     0.415353
      0.407710     0.400067     0.392424     0.384780     0.377137     0.369494     0.361851     0.354208     0.346565     0.338922
      0.331278     0.323635     0.315992     0.308349     0.300706     0.293063     0.285420     0.277777     0.270133     0.262490
      0.254847     0.247204     0.239561     0.231918     0.224275     0.216631     0.208988     0.201345
 NY phased data points follow
  -1.62048E+01 -1.41845E+01 -9.55523E+00 -1.14011E+01 -2.23349E+00 -2.63802E+00  6.08165E+00  1.09437E+01  1.71990E+01  1.67026E+01
   1.61997E+01  1.47545E+01  1.65065E+01  1.40512E+01  1.21374E+01  7.68600E+00  5.24156E-01  2.50257E+00  1.30281E+00  3.28530E+00
  -8.40042E-01 -9.72755E-01 -2.86270E-01 -4.05951E+00 -7.99990E-02 -2.20416E+00  3.93745E+00 -8.24651E-01  4.59482E+00 -6.39187E-01
   5.57634E+00  9.14067E-01 -1.41242E-01 -6.60543E-01 -8.12080E-01 -7.44907E-01 -1.93606E+00 -1.82233E+00  2.40252E+00  4.50577E-01
   1.43395E+00  1.19747E+00  2.42795E+00  4.87655E+00  3.37221E+00  3.46232E+00  4.15715E+00  3.38114E+00  6.61074E+00  1.29109E+00
   2.87326E+00  6.71773E-01  8.59363E-01 -2.95256E+00 -1.29641E-01 -2.29801E+00 -2.39672E-01  1.22104E+00 -2.55038E+00 -3.14574E+00
  -3.42799E+00 -8.01194E+00 -8.40382E+00 -3.99235E+00 -8.54295E+00 -6.13786E+00 -8.98717E+00 -7.29475E+00 -8.13098E+00 -7.46290E+00
  -7.37932E+00 -1.00790E+01 -5.60786E+00 -7.69766E+00 -7.85056E+00 -6.40779E+00 -4.23021E+00 -7.19990E+00 -6.45847E+00 -5.66118E+00
  -5.67315E+00 -1.06297E+00 -1.49764E+00 -2.18935E+00 -1.94084E+00 -1.88496E+00 -2.91877E+00  4.40649E-01 -3.20286E+00 -4.72814E-01
  -4.22573E+00 -2.68949E+00 -5.82996E+00 -4.49519E+00 -3.01873E+00 -1.71090E+00  5.21414E+00  7.69877E+00  1.10586E+01  1.70892E+01
   2.41681E+01  3.13371E+01  3.85082E+01  3.70896E+01  3.75326E+01  3.25705E+01  3.17087E+01  2.71958E+01  1.82551E+01  1.74278E+01
   1.28102E+01  1.03709E+01  7.54246E+00  5.33286E+00  2.94337E+00 -1.08286E-01 -2.41497E+00  1.35202E+00 -1.19068E+00  2.79053E+00
   5.44916E+00  1.17934E+01  1.49090E+01  1.88096E+01  3.16129E+01  3.66784E+01  4.21379E+01  4.17330E+01  4.11917E+01  3.69925E+01
   3.23278E+01  2.51666E+01  1.67374E+01  1.55614E+01  9.35012E+00  8.82040E+00  5.81314E+00  3.27639E+00  2.44196E+00  1.04248E-01
  -3.80829E+00 -5.69701E+00 -3.72423E+00 -8.08605E+00 -6.81761E+00 -5.57991E+00 -5.37158E+00 -6.31340E+00 -7.01970E+00 -6.75854E+00
  -6.42453E+00 -4.57621E+00 -5.04016E+00 -4.88717E+00 -5.52022E+00 -2.12437E+00 -7.24758E+00 -5.99972E+00 -4.19592E+00 -5.72806E+00
  -9.05028E+00 -8.83670E+00 -8.40165E+00 -3.87304E+00 -6.27038E+00 -8.52974E+00 -3.79305E+00 -6.19617E+00 -5.93854E+00 -8.33747E+00
  -8.51878E+00 -9.66908E+00 -9.59198E+00 -7.84051E+00 -7.98924E+00 -1.21636E+01 -1.06856E+01 -1.07794E+01 -8.92546E+00 -1.39313E+01
  -1.17351E+01 -1.11820E+01 -1.21347E+01 -1.24607E+01 -1.22116E+01 -1.10914E+01 -8.88787E+00 -7.74322E+00 -3.80868E+00 -4.36090E+00
   5.03971E-01 -1.81711E+00  3.64893E+00  9.03176E-01  3.87807E+00  1.16712E+00  2.36337E-01 -3.56987E-01  2.35135E+00  4.54120E+00
   3.13244E+00 -7.57891E-01 -5.28745E-02  3.46035E+00  2.12481E+00  1.01472E+00 -1.07648E+00 -1.05298E+00 -1.09243E+00 -3.12419E+00
   2.42128E-01 -9.47317E-02  2.86632E+00  6.19555E+00  7.57217E+00  7.73432E+00  6.68666E+00  8.09674E+00  4.79173E+00  6.07366E+00
   5.75022E+00  3.01647E+00  5.40983E+00  7.37164E+00  4.60547E+00  7.58598E+00  6.46436E+00  8.79423E+00  5.68466E+00  8.81065E+00
   9.04090E+00  5.20605E+00  7.60010E+00  8.08780E+00  4.41707E+00  7.97500E+00  8.60290E+00  1.02349E+01  9.21051E+00  1.10062E+01
   1.23566E+01  1.11873E+01  1.19230E+01  8.19086E+00  1.14032E+01  9.76586E+00  7.41419E+00  6.12684E+00  9.14087E+00  8.98128E+00
   4.30919E+00  7.67724E+00  1.02545E+01  1.71369E+01  2.09979E+01  3.24628E+01  4.14677E+01  5.35676E+01  5.93084E+01  6.70615E+01
   7.16998E+01  7.08568E+01  6.80323E+01  6.18755E+01  5.20754E+01  4.31202E+01  3.32018E+01  2.89070E+01  2.79878E+01  2.43649E+01
   1.87873E+01  1.71440E+01  1.35473E+01  1.02222E+01  1.14371E+01  9.87723E+00  7.65829E+00  3.73658E+00  5.03105E+00  1.98956E+00
   3.59863E+00  1.77088E+00  3.43330E+00  2.98176E+00  4.03917E+00  3.10622E+00  2.72612E+00  3.46433E+00  5.61864E+00  3.32063E+00
   2.68498E+00  4.26829E+00  4.77990E+00  4.83277E+00  2.64419E+00  3.92934E+00  1.50742E+00  2.43474E+00  2.72333E+00  5.41470E+00
   3.55180E+00  5.19894E+00  6.24766E+00  4.69643E+00  2.52778E+00  5.62858E+00  6.96239E+00  5.11672E+00  7.85930E+00  8.36818E+00
   9.74973E+00  5.74953E+00  7.88074E+00  7.26187E+00  9.31760E+00  9.63970E+00  1.02491E+01  9.82510E+00  9.73228E+00  7.36154E+00
   7.20216E+00  7.18385E+00  4.38038E+00  6.80248E+00  4.59227E+00  7.53471E+00  6.11585E+00  6.06248E+00  6.07251E+00  9.21742E+00
   8.02885E+00  6.37218E+00  6.80960E+00  1.29670E+01  7.95811E+00  8.72603E+00  1.10632E+01  1.01521E+01  1.20566E+01  1.13157E+01
   1.02665E+01  9.04023E+00  1.05707E+01  1.30506E+01  1.22258E+01  1.52403E+01  1.22207E+01  1.12142E+01  9.84141E+00  1.10918E+01
   1.18763E+01  9.75943E+00  9.51055E+00  7.67665E+00  8.88783E+00  6.23114E+00  8.09826E+00  1.27392E+01  9.47647E+00  1.04557E+01
   1.05707E+01  8.91477E+00  1.25516E+01  1.31301E+01  1.04472E+01  1.10543E+01  1.17515E+01  1.06558E+01  8.13040E+00  1.23597E+01
   1.22972E+01  1.12056E+01  9.75613E+00  1.29809E+01  1.15994E+01  9.09046E+00  1.12262E+01  7.94810E+00  9.67152E+00  9.24602E+00
   1.38837E+01  8.21154E+00  1.08544E+01  8.40562E+00  6.91120E+00  7.68460E+00  8.39051E+00  7.09546E+00  1.26951E+01  8.35983E+00
   6.42465E+00  7.20037E+00  7.85139E+00  1.03324E+01  9.77030E+00  8.04627E+00  9.21616E+00  1.00939E+01  9.80546E+00  1.03942E+01
   1.31283E+01  1.05682E+01  1.09629E+01  1.16395E+01  1.21585E+01  1.47295E+01  1.50371E+01  1.60140E+01  1.56257E+01  1.19210E+01
   1.35576E+01  1.64777E+01  1.31188E+01  1.49405E+01  1.15293E+01  1.21470E+01  1.17311E+01  1.00583E+01  1.16163E+01  1.19704E+01
   9.67781E+00  7.82721E+00  8.76445E+00  9.79639E+00  7.65750E+00  8.61334E+00  7.99653E+00  8.51321E+00  9.05346E+00  6.51161E+00
   5.09623E+00  8.22984E+00  5.89273E+00  8.41414E+00  1.01292E+01  8.35880E+00  5.94158E+00  7.07616E+00  5.90325E+00  5.29059E+00
   4.58035E+00  9.43704E+00  5.94785E+00  5.85474E+00  5.31682E+00  9.68018E+00  9.28851E+00  6.65682E+00  7.96574E+00  6.46337E+00
   7.02043E+00  5.54670E+00  7.70970E+00  7.76804E+00  4.81338E+00  7.30554E+00  6.16909E+00  7.50827E+00  5.35619E+00  5.40286E+00
   6.82474E+00  7.60910E+00  6.78076E+00  6.37890E+00  3.36976E+00  5.89668E+00  7.89308E+00  7.12124E+00  7.14119E+00  7.99717E+00
   7.21062E+00  5.92768E+00  8.99992E+00  8.02754E+00  5.14230E+00  6.42557E+00  7.98520E+00  4.45712E+00  8.66944E+00  8.17788E+00
   6.40268E+00  4.10938E+00  5.64799E+00  5.79850E+00  3.54493E+00  7.35312E+00  8.73352E+00  7.74054E+00  6.46928E+00  6.49145E+00
   5.09128E+00  5.06158E+00  4.74593E+00  9.79080E+00  8.54163E+00  7.60251E+00  5.03479E+00  8.61645E+00
 NY points of the fit to the data follow
  -1.02430E+01 -9.72806E+00 -8.28450E+00 -6.27050E+00 -3.51422E+00 -7.98601E-02  4.10184E+00  8.90009E+00  1.33394E+01  1.60491E+01
   1.69448E+01  1.68766E+01  1.61065E+01  1.40115E+01  1.05805E+01  7.05171E+00  4.83817E+00  3.65762E+00  3.22356E+00  2.66488E+00
  -6.56644E-02 -3.00818E+00 -4.00135E+00 -3.89780E+00 -3.20990E+00 -2.03134E+00 -5.10641E-01  1.10464E+00  2.36905E+00  3.18690E+00
   3.66532E+00  3.66667E+00  2.95051E+00  1.62028E+00  7.98226E-02 -1.25664E+00 -2.10198E+00 -2.46273E+00 -2.17108E+00 -1.91316E+00
  -1.78845E+00 -8.46970E-01  3.26585E-02  8.60436E-01  1.72770E+00  2.32475E+00  2.49485E+00  2.15861E+00  1.65033E+00  9.96548E-01
  -7.27810E-02 -1.32946E+00 -2.10641E+00 -2.31513E+00 -2.30870E+00 -2.18985E+00 -2.19427E+00 -2.77590E+00 -3.46457E+00 -3.74612E+00
  -3.88322E+00 -4.24103E+00 -4.65499E+00 -4.99591E+00 -5.21569E+00 -5.27780E+00 -5.22763E+00 -4.99338E+00 -4.71598E+00 -4.62627E+00
  -4.66222E+00 -4.81323E+00 -4.95753E+00 -5.02891E+00 -5.09351E+00 -5.17323E+00 -5.25393E+00 -5.24051E+00 -4.93495E+00 -4.49704E+00
  -4.00946E+00 -3.45582E+00 -2.84885E+00 -2.13282E+00 -1.53407E+00 -1.27052E+00 -1.45041E+00 -1.77594E+00 -2.15639E+00 -2.70991E+00
  -3.46791E+00 -4.18786E+00 -4.54281E+00 -4.50080E+00 -3.89344E+00 -1.81460E+00  1.58947E+00  5.30774E+00  1.07158E+01  1.75162E+01
   2.50702E+01  3.22721E+01  3.74848E+01  3.93031E+01  3.85016E+01  3.61910E+01  3.22135E+01  2.63252E+01  1.95297E+01  1.40691E+01
   1.09133E+01  9.09315E+00  7.55282E+00  5.14702E+00 -2.38474E-01 -3.93243E+00 -4.88054E+00 -4.74143E+00 -3.29417E+00 -1.08699E-01
   4.33190E+00  9.63588E+00  1.60739E+01  2.34754E+01  3.10984E+01  3.74863E+01  4.10948E+01  4.16288E+01  4.00906E+01  3.69470E+01
   3.19131E+01  2.52265E+01  1.85801E+01  1.38464E+01  1.10796E+01  9.25409E+00  7.15825E+00  3.45064E+00 -9.42375E-01 -2.86496E+00
  -3.11556E+00 -3.16825E+00 -3.33260E+00 -3.72037E+00 -4.06094E+00 -4.21189E+00 -4.33145E+00 -4.37738E+00 -4.39411E+00 -4.56506E+00
  -4.73625E+00 -4.99121E+00 -5.18156E+00 -5.32415E+00 -5.46499E+00 -5.58675E+00 -5.71361E+00 -5.82117E+00 -5.97089E+00 -6.16341E+00
  -6.27673E+00 -6.25688E+00 -6.17233E+00 -6.12272E+00 -6.14059E+00 -6.21883E+00 -6.32859E+00 -6.53019E+00 -6.92928E+00 -7.47299E+00
  -7.97431E+00 -8.29308E+00 -8.34661E+00 -8.50648E+00 -8.74905E+00 -8.93951E+00 -9.12768E+00 -9.07607E+00 -8.99545E+00 -8.96495E+00
  -8.83597E+00 -8.51611E+00 -8.18871E+00 -7.86856E+00 -7.37529E+00 -6.58055E+00 -5.51196E+00 -4.27038E+00 -3.35757E+00 -2.90386E+00
  -2.61559E+00 -2.45515E+00 -2.27475E+00 -2.31759E+00 -2.40955E+00 -2.16361E+00 -1.41679E+00 -2.06815E-01  1.35027E+00  2.71992E+00
   3.73840E+00  4.26347E+00  4.19588E+00  3.76544E+00  2.87298E+00  1.44120E+00 -6.86045E-02 -1.19350E+00 -1.96039E+00 -2.00472E+00
  -1.37278E+00 -3.25657E-01  1.03394E+00  2.69130E+00  4.05045E+00  4.35408E+00  4.03594E+00  3.59643E+00  3.16712E+00  2.71450E+00
   2.81624E+00  3.02247E+00  3.26106E+00  3.88326E+00  4.76095E+00  5.44767E+00  5.77477E+00  5.81612E+00  5.90688E+00  5.93940E+00
   6.02921E+00  6.30600E+00  6.87503E+00  7.69988E+00  8.37102E+00  8.76825E+00  9.06807E+00  9.11551E+00  8.93012E+00  8.63181E+00
   8.25685E+00  7.89971E+00  7.63211E+00  7.39784E+00  7.21985E+00  7.31236E+00  7.97093E+00  8.60893E+00  9.15914E+00  9.71809E+00
   1.02413E+01  1.10894E+01  1.39061E+01  1.94722E+01  2.57095E+01  3.27818E+01  4.13896E+01  5.11618E+01  6.07888E+01  6.81178E+01
   7.08732E+01  6.97216E+01  6.66543E+01  6.15903E+01  5.36013E+01  4.36424E+01  3.51007E+01  3.00666E+01  2.73360E+01  2.52762E+01
   2.27454E+01  1.54077E+01  9.03571E+00  7.44669E+00  6.85977E+00  6.45790E+00  6.19203E+00  5.90502E+00  5.59449E+00  5.30829E+00
   5.07397E+00  4.87520E+00  4.73036E+00  4.61601E+00  4.49693E+00  4.39001E+00  4.30092E+00  4.22595E+00  4.17478E+00  4.14058E+00
   4.11632E+00  4.12472E+00  4.15285E+00  4.19726E+00  4.26346E+00  4.34724E+00  4.44653E+00  4.57046E+00  4.72162E+00  4.89558E+00
   5.08559E+00  5.29413E+00  5.51764E+00  5.74883E+00  5.98664E+00  6.22346E+00  6.45178E+00  6.66697E+00  6.86403E+00  7.03971E+00
   7.19002E+00  7.31322E+00  7.40831E+00  7.47701E+00  7.52162E+00  7.54792E+00  7.56125E+00  7.57195E+00  7.59311E+00  7.62213E+00
   7.64541E+00  7.67248E+00  7.70461E+00  7.73307E+00  7.74345E+00  7.72279E+00  7.68345E+00  7.67266E+00  7.70510E+00  7.77379E+00
   7.88655E+00  8.06775E+00  8.34212E+00  8.68839E+00  9.04171E+00  9.36372E+00  9.66142E+00  9.93518E+00  1.02684E+01  1.06640E+01
   1.10054E+01  1.12767E+01  1.15304E+01  1.17168E+01  1.17820E+01  1.15861E+01  1.11173E+01  1.05770E+01  1.01115E+01  9.72073E+00
   9.42855E+00  9.28713E+00  9.43409E+00  9.90262E+00  1.04913E+01  1.09479E+01  1.12515E+01  1.13832E+01  1.13364E+01  1.13926E+01
   1.13478E+01  1.12366E+01  1.11640E+01  1.11252E+01  1.11223E+01  1.10142E+01  1.06360E+01  1.03262E+01  1.00912E+01  9.88452E+00
   9.69121E+00  9.50681E+00  9.32942E+00  9.15977E+00  8.99864E+00  8.84809E+00  8.70930E+00  8.58429E+00  8.47423E+00  8.38130E+00
   8.30685E+00  8.25299E+00  8.22071E+00  8.21177E+00  8.22712E+00  8.26874E+00  8.33772E+00  8.43581E+00  8.56357E+00  8.72222E+00
   8.91193E+00  9.13342E+00  9.38593E+00  9.66863E+00  9.97882E+00  1.03138E+01  1.06689E+01  1.10396E+01  1.14188E+01  1.17995E+01
   1.21728E+01  1.25301E+01  1.28619E+01  1.31596E+01  1.34142E+01  1.36181E+01  1.37645E+01  1.38489E+01  1.38681E+01  1.38219E+01
   1.37107E+01  1.35382E+01  1.33089E+01  1.30300E+01  1.27090E+01  1.23549E+01  1.19763E+01  1.15824E+01  1.11814E+01  1.07818E+01
   1.03902E+01  1.00127E+01  9.65360E+00  9.31657E+00  9.00367E+00  8.71674E+00  8.45580E+00  8.22078E+00  8.01023E+00  7.82317E+00
   7.65767E+00  7.51240E+00  7.38502E+00  7.27391E+00  7.17680E+00  7.09245E+00  7.01905E+00  6.95562E+00  6.90045E+00  6.85269E+00
   6.81098E+00  6.77500E+00  6.74374E+00  6.71696E+00  6.69363E+00  6.67357E+00  6.65606E+00  6.64129E+00  6.62864E+00  6.61817E+00
   6.60916E+00  6.60178E+00  6.59558E+00  6.59090E+00  6.58727E+00  6.58482E+00  6.58301E+00  6.58213E+00  6.58189E+00  6.58265E+00
   6.58393E+00  6.58592E+00  6.58818E+00  6.59110E+00  6.59441E+00  6.59843E+00  6.60270E+00  6.60742E+00  6.61225E+00  6.61761E+00
   6.62322E+00  6.62938E+00  6.63561E+00  6.64218E+00  6.64879E+00  6.65590E+00  6.66317E+00  6.67087E+00  6.67854E+00  6.68649E+00
   6.69450E+00  6.70297E+00  6.71155E+00  6.72048E+00  6.72932E+00  6.73847E+00  6.74769E+00  6.75737E+00  6.76712E+00  6.77716E+00
   6.78713E+00  6.79745E+00  6.80790E+00  6.81882E+00  6.82978E+00  6.84104E+00  6.85231E+00  6.86404E+00
 NY background values follow
    -1.411E+01   -1.399E+01   -1.387E+01   -1.375E+01   -1.363E+01   -1.352E+01   -1.340E+01   -1.328E+01   -1.317E+01   -1.305E+01
    -1.294E+01   -1.283E+01   -1.271E+01   -1.260E+01   -1.249E+01   -1.238E+01   -1.227E+01   -1.217E+01   -1.206E+01   -1.196E+01
    -1.185E+01   -1.175E+01   -1.165E+01   -1.155E+01   -1.145E+01   -1.135E+01   -1.126E+01   -1.116E+01   -1.107E+01   -1.098E+01
    -1.089E+01   -1.080E+01   -1.071E+01   -1.063E+01   -1.054E+01   -1.046E+01   -1.038E+01   -1.030E+01   -1.023E+01   -1.015E+01
    -1.008E+01   -1.001E+01   -9.941E+00   -9.875E+00   -9.810E+00   -9.748E+00   -9.688E+00   -9.629E+00   -9.573E+00   -9.519E+00
    -9.467E+00   -9.416E+00   -9.368E+00   -9.321E+00   -9.276E+00   -9.233E+00   -9.192E+00   -9.152E+00   -9.113E+00   -9.077E+00
    -9.041E+00   -9.008E+00   -8.975E+00   -8.944E+00   -8.914E+00   -8.885E+00   -8.858E+00   -8.832E+00   -8.807E+00   -8.783E+00
    -8.760E+00   -8.737E+00   -8.716E+00   -8.696E+00   -8.677E+00   -8.658E+00   -8.640E+00   -8.623E+00   -8.606E+00   -8.590E+00
    -8.575E+00   -8.560E+00   -8.545E+00   -8.531E+00   -8.517E+00   -8.504E+00   -8.491E+00   -8.478E+00   -8.465E+00   -8.452E+00
    -8.440E+00   -8.427E+00   -8.415E+00   -8.402E+00   -8.390E+00   -8.377E+00   -8.364E+00   -8.351E+00   -8.338E+00   -8.325E+00
    -8.312E+00   -8.298E+00   -8.284E+00   -8.270E+00   -8.255E+00   -8.240E+00   -8.225E+00   -8.209E+00   -8.193E+00   -8.176E+00
    -8.159E+00   -8.142E+00   -8.123E+00   -8.105E+00   -8.085E+00   -8.066E+00   -8.045E+00   -8.024E+00   -8.002E+00   -7.979E+00
    -7.956E+00   -7.932E+00   -7.907E+00   -7.881E+00   -7.854E+00   -7.827E+00   -7.798E+00   -7.769E+00   -7.738E+00   -7.707E+00
    -7.675E+00   -7.641E+00   -7.607E+00   -7.571E+00   -7.534E+00   -7.496E+00   -7.457E+00   -7.417E+00   -7.375E+00   -7.333E+00
    -7.289E+00   -7.243E+00   -7.196E+00   -7.148E+00   -7.099E+00   -7.048E+00   -6.996E+00   -6.942E+00   -6.886E+00   -6.829E+00
    -6.771E+00   -6.711E+00   -6.649E+00   -6.586E+00   -6.521E+00   -6.455E+00   -6.386E+00   -6.316E+00   -6.244E+00   -6.171E+00
    -6.095E+00   -6.018E+00   -5.939E+00   -5.858E+00   -5.774E+00   -5.690E+00   -5.603E+00   -5.514E+00   -5.423E+00   -5.329E+00
    -5.234E+00   -5.137E+00   -5.038E+00   -4.936E+00   -4.832E+00   -4.726E+00   -4.618E+00   -4.507E+00   -4.394E+00   -4.279E+00
    -4.162E+00   -4.042E+00   -3.920E+00   -3.795E+00   -3.668E+00   -3.540E+00   -3.410E+00   -3.278E+00   -3.145E+00   -3.010E+00
    -2.875E+00   -2.738E+00   -2.600E+00   -2.462E+00   -2.324E+00   -2.185E+00   -2.045E+00   -1.906E+00   -1.767E+00   -1.628E+00
    -1.489E+00   -1.351E+00   -1.214E+00   -1.077E+00   -9.416E-01   -8.072E-01   -6.742E-01   -5.426E-01   -4.127E-01   -2.845E-01
    -1.582E-01   -3.404E-02    8.791E-02    2.075E-01    3.245E-01    4.389E-01    5.504E-01    6.589E-01    7.642E-01    8.662E-01
     9.648E-01    1.060E+00    1.151E+00    1.238E+00    1.322E+00    1.401E+00    1.475E+00    1.545E+00    1.611E+00    1.673E+00
     1.730E+00    1.783E+00    1.833E+00    1.878E+00    1.920E+00    1.959E+00    1.994E+00    2.025E+00    2.054E+00    2.079E+00
     2.102E+00    2.121E+00    2.138E+00    2.152E+00    2.164E+00    2.174E+00    2.181E+00    2.186E+00    2.189E+00    2.190E+00
     2.189E+00    2.187E+00    2.183E+00    2.178E+00    2.171E+00    2.164E+00    2.155E+00    2.145E+00    2.134E+00    2.123E+00
     2.111E+00    2.099E+00    2.086E+00    2.073E+00    2.060E+00    2.047E+00    2.035E+00    2.022E+00    2.010E+00    1.998E+00
     1.987E+00    1.976E+00    1.967E+00    1.958E+00    1.950E+00    1.943E+00    1.937E+00    1.931E+00    1.927E+00    1.924E+00
     1.921E+00    1.919E+00    1.918E+00    1.919E+00    1.920E+00    1.922E+00    1.924E+00    1.928E+00    1.933E+00    1.939E+00
     1.945E+00    1.953E+00    1.962E+00    1.971E+00    1.982E+00    1.994E+00    2.006E+00    2.020E+00    2.034E+00    2.050E+00
     2.067E+00    2.084E+00    2.103E+00    2.123E+00    2.143E+00    2.165E+00    2.188E+00    2.212E+00    2.237E+00    2.263E+00
     2.290E+00    2.318E+00    2.348E+00    2.378E+00    2.410E+00    2.442E+00    2.476E+00    2.511E+00    2.547E+00    2.584E+00
     2.622E+00    2.661E+00    2.701E+00    2.742E+00    2.783E+00    2.825E+00    2.868E+00    2.912E+00    2.956E+00    3.001E+00
     3.046E+00    3.092E+00    3.139E+00    3.185E+00    3.232E+00    3.279E+00    3.327E+00    3.375E+00    3.422E+00    3.470E+00
     3.518E+00    3.566E+00    3.614E+00    3.662E+00    3.710E+00    3.757E+00    3.804E+00    3.851E+00    3.898E+00    3.944E+00
     3.990E+00    4.035E+00    4.080E+00    4.124E+00    4.168E+00    4.211E+00    4.253E+00    4.295E+00    4.335E+00    4.375E+00
     4.414E+00    4.452E+00    4.489E+00    4.525E+00    4.560E+00    4.594E+00    4.627E+00    4.659E+00    4.690E+00    4.721E+00
     4.750E+00    4.779E+00    4.807E+00    4.834E+00    4.861E+00    4.886E+00    4.911E+00    4.936E+00    4.959E+00    4.982E+00
     5.005E+00    5.026E+00    5.048E+00    5.068E+00    5.089E+00    5.108E+00    5.128E+00    5.146E+00    5.165E+00    5.183E+00
     5.200E+00    5.217E+00    5.234E+00    5.251E+00    5.267E+00    5.283E+00    5.299E+00    5.314E+00    5.330E+00    5.345E+00
     5.360E+00    5.375E+00    5.390E+00    5.404E+00    5.419E+00    5.434E+00    5.448E+00    5.463E+00    5.477E+00    5.492E+00
     5.507E+00    5.522E+00    5.536E+00    5.551E+00    5.566E+00    5.581E+00    5.595E+00    5.610E+00    5.625E+00    5.640E+00
     5.655E+00    5.670E+00    5.684E+00    5.699E+00    5.714E+00    5.729E+00    5.744E+00    5.759E+00    5.773E+00    5.788E+00
     5.803E+00    5.818E+00    5.832E+00    5.847E+00    5.862E+00    5.876E+00    5.891E+00    5.906E+00    5.920E+00    5.935E+00
     5.949E+00    5.964E+00    5.978E+00    5.992E+00    6.007E+00    6.021E+00    6.035E+00    6.049E+00    6.064E+00    6.078E+00
     6.092E+00    6.106E+00    6.120E+00    6.133E+00    6.147E+00    6.161E+00    6.175E+00    6.188E+00    6.202E+00    6.215E+00
     6.229E+00    6.242E+00    6.256E+00    6.269E+00    6.282E+00    6.295E+00    6.309E+00    6.322E+00    6.335E+00    6.348E+00
     6.362E+00    6.375E+00    6.388E+00    6.401E+00    6.414E+00    6.427E+00    6.441E+00    6.454E+00    6.467E+00    6.480E+00
     6.493E+00    6.506E+00    6.519E+00    6.533E+00    6.546E+00    6.559E+00    6.572E+00    6.586E+00    6.599E+00    6.612E+00
     6.626E+00    6.639E+00    6.653E+00    6.666E+00    6.680E+00    6.694E+00    6.707E+00    6.721E+00
 Ala      Conc. = 5.68E+01
