 LCModel (Version 6.3-1L) Copyright: S.W. Provencher.          Ref.: Magn. Reson. Med. 30:672-679 (1993).                
 Slice#2 Row#12 Col#11  PD_05_press_1_raw_act
 36 lines in following concentration table = NCONC+1
    Conc.  %SD /Cr+PCr  Metabolite                                         
  144.879  42%   0.499 Ala                                                 
    4.216 999% 1.5E-02 Asp                                                 
    0.000 999%   0.000 Cr                                                  
  290.452   8%   1.000 PCr                                                 
   43.074  88%   0.148 GABA                                                
    5.161 721% 1.8E-02 Glc                                                 
  338.853  40%   1.167 Gln                                                 
  603.122  25%   2.076 Glu                                                 
   77.881  11%   0.268 GPC                                                 
    0.000 999%   0.000 PCh                                                 
   85.187  39%   0.293 GSH                                                 
  104.877  96%   0.361 Ins                                                 
  321.165  24%   1.106 Lac                                                 
  546.927   9%   1.883 NAA                                                 
   54.622 104%   0.188 NAAG                                                
    9.581  95% 3.3E-02 Scyllo                                              
   15.766 358% 5.4E-02 Tau                                                 
   86.643  46%   0.298 -CrCH2                                              
   77.881  11%   0.268 GPC+PCh                                             
  601.549   5%   2.071 NAA+NAAG                                            
  290.452   8%   1.000 Cr+PCr                                              
  941.975  25%   3.243 Glu+Gln                                             
    0.000 999%   0.000 Lip13a                                              
  126.743  32%   0.436 Lip13b                                              
   28.890  45% 9.9E-02 Lip09                                               
  266.177  21%   0.916 MM09                                                
   19.597  40% 6.7E-02 Lip20                                               
  406.017  21%   1.398 MM20                                                
   79.634  22%   0.274 MM12                                                
  218.572  20%   0.753 MM14                                                
  109.140  22%   0.376 MM17                                                
  126.743  32%   0.436 Lip13a+Lip13b                                       
  424.948  15%   1.463 MM14+Lip13a+Lip13b+MM12                             
  295.068  18%   1.016 MM09+Lip09                                          
  425.614  20%   1.465 MM20+Lip20                                          
   6 lines in following misc. output table
  FWHM = 0.069 ppm    S/N =   6                                            
  Data shift = 0.023 ppm                                                   
  Ph: -60 deg     -30.5 deg/ppm                                            
  alphaB,S = 2.7E+00,   9.6E+01                                            
   14 spline knots.   Ns = 8(1)                                            
  ( 7) 4 infls.   ( 1) 1 extrs.                                            
  498 points on ppm-axis = NY
      4.000000     3.992357     3.984714     3.977070     3.969427     3.961784     3.954141     3.946497     3.938854     3.931211
      3.923568     3.915925     3.908281     3.900638     3.892995     3.885352     3.877708     3.870065     3.862422     3.854779
      3.847136     3.839492     3.831849     3.824206     3.816563     3.808919     3.801276     3.793633     3.785990     3.778347
      3.770703     3.763060     3.755417     3.747774     3.740130     3.732487     3.724844     3.717201     3.709558     3.701914
      3.694271     3.686628     3.678985     3.671341     3.663698     3.656055     3.648412     3.640769     3.633125     3.625482
      3.617839     3.610196     3.602552     3.594909     3.587266     3.579623     3.571980     3.564336     3.556693     3.549050
      3.541407     3.533763     3.526120     3.518477     3.510834     3.503191     3.495547     3.487904     3.480261     3.472618
      3.464974     3.457331     3.449688     3.442045     3.434402     3.426758     3.419115     3.411472     3.403829     3.396185
      3.388542     3.380899     3.373256     3.365613     3.357969     3.350326     3.342683     3.335040     3.327396     3.319753
      3.312110     3.304467     3.296824     3.289180     3.281537     3.273894     3.266251     3.258607     3.250964     3.243321
      3.235678     3.228034     3.220391     3.212748     3.205105     3.197462     3.189818     3.182175     3.174532     3.166889
      3.159245     3.151602     3.143959     3.136316     3.128673     3.121029     3.113386     3.105743     3.098100     3.090456
      3.082813     3.075170     3.067527     3.059884     3.052240     3.044597     3.036954     3.029311     3.021667     3.014024
      3.006381     2.998738     2.991095     2.983451     2.975808     2.968165     2.960522     2.952878     2.945235     2.937592
      2.929949     2.922306     2.914662     2.907019     2.899376     2.891733     2.884089     2.876446     2.868803     2.861160
      2.853517     2.845873     2.838230     2.830587     2.822944     2.815300     2.807657     2.800014     2.792371     2.784728
      2.777084     2.769441     2.761798     2.754155     2.746511     2.738868     2.731225     2.723582     2.715939     2.708295
      2.700652     2.693009     2.685366     2.677722     2.670079     2.662436     2.654793     2.647150     2.639506     2.631863
      2.624220     2.616577     2.608933     2.601290     2.593647     2.586004     2.578361     2.570717     2.563074     2.555431
      2.547788     2.540144     2.532501     2.524858     2.517215     2.509572     2.501928     2.494285     2.486642     2.478999
      2.471355     2.463712     2.456069     2.448426     2.440783     2.433139     2.425496     2.417853     2.410210     2.402566
      2.394923     2.387280     2.379637     2.371994     2.364350     2.356707     2.349064     2.341421     2.333777     2.326134
      2.318491     2.310848     2.303205     2.295561     2.287918     2.280275     2.272632     2.264988     2.257345     2.249702
      2.242059     2.234416     2.226772     2.219129     2.211486     2.203843     2.196199     2.188556     2.180913     2.173270
      2.165627     2.157983     2.150340     2.142697     2.135054     2.127410     2.119767     2.112124     2.104481     2.096838
      2.089194     2.081551     2.073908     2.066265     2.058621     2.050978     2.043335     2.035692     2.028049     2.020405
      2.012762     2.005119     1.997476     1.989833     1.982190     1.974546     1.966903     1.959260     1.951617     1.943974
      1.936331     1.928688     1.921045     1.913402     1.905759     1.898115     1.890472     1.882829     1.875186     1.867543
      1.859900     1.852257     1.844614     1.836971     1.829327     1.821684     1.814041     1.806398     1.798755     1.791112
      1.783469     1.775826     1.768183     1.760540     1.752896     1.745253     1.737610     1.729967     1.722324     1.714681
      1.707038     1.699395     1.691752     1.684108     1.676465     1.668822     1.661179     1.653536     1.645893     1.638250
      1.630607     1.622964     1.615321     1.607677     1.600034     1.592391     1.584748     1.577105     1.569462     1.561819
      1.554176     1.546533     1.538890     1.531246     1.523603     1.515960     1.508317     1.500674     1.493031     1.485388
      1.477745     1.470102     1.462458     1.454815     1.447172     1.439529     1.431886     1.424243     1.416600     1.408957
      1.401314     1.393671     1.386027     1.378384     1.370741     1.363098     1.355455     1.347812     1.340169     1.332526
      1.324883     1.317240     1.309596     1.301953     1.294310     1.286667     1.279024     1.271381     1.263738     1.256095
      1.248452     1.240808     1.233165     1.225522     1.217879     1.210236     1.202593     1.194950     1.187307     1.179664
      1.172021     1.164377     1.156734     1.149091     1.141448     1.133805     1.126162     1.118519     1.110876     1.103233
      1.095590     1.087946     1.080303     1.072660     1.065017     1.057374     1.049731     1.042088     1.034445     1.026802
      1.019158     1.011515     1.003872     0.996229     0.988586     0.980943     0.973300     0.965657     0.958014     0.950371
      0.942727     0.935084     0.927441     0.919798     0.912155     0.904512     0.896869     0.889226     0.881583     0.873940
      0.866296     0.858653     0.851010     0.843367     0.835724     0.828081     0.820438     0.812795     0.805152     0.797508
      0.789865     0.782222     0.774579     0.766936     0.759293     0.751650     0.744007     0.736364     0.728721     0.721077
      0.713434     0.705791     0.698148     0.690505     0.682862     0.675219     0.667576     0.659933     0.652290     0.644646
      0.637003     0.629360     0.621717     0.614074     0.606431     0.598788     0.591145     0.583502     0.575858     0.568215
      0.560572     0.552929     0.545286     0.537643     0.530000     0.522357     0.514714     0.507071     0.499427     0.491784
      0.484141     0.476498     0.468855     0.461212     0.453569     0.445925     0.438282     0.430639     0.422996     0.415353
      0.407710     0.400067     0.392424     0.384780     0.377137     0.369494     0.361851     0.354208     0.346565     0.338922
      0.331278     0.323635     0.315992     0.308349     0.300706     0.293063     0.285420     0.277777     0.270133     0.262490
      0.254847     0.247204     0.239561     0.231918     0.224275     0.216631     0.208988     0.201345
 NY phased data points follow
   4.10439E+00  4.34635E+00  4.46555E+00  4.70493E+00  5.09305E+00  4.65388E+00  6.41444E+00  4.30487E+00  9.00710E+00  6.21840E+00
   5.95115E+00  6.19398E+00  7.16941E+00  7.62838E+00  4.62306E+00  2.96439E+00  3.38004E+00  3.28422E+00  3.57900E+00  2.89512E+00
   3.89113E+00  3.44651E+00  3.67450E+00  4.70373E+00  3.53320E+00  4.58892E+00  4.09776E+00  4.33820E+00  4.28245E+00  4.62726E+00
   4.11492E+00  6.22489E+00  4.49656E+00  2.95643E+00  3.84258E+00  2.73160E+00  4.91755E+00  2.95348E+00  3.42708E+00  3.70631E+00
   2.84313E+00  3.91962E+00  4.30552E+00  4.70668E+00  6.23391E+00  3.99526E+00  3.57031E+00  6.10976E+00  5.63813E+00  6.08866E+00
   4.21171E+00  2.40069E+00  3.88512E+00  2.67688E+00  3.69842E+00  2.50086E+00  2.70019E+00  3.71514E+00  1.38733E+00  2.23716E+00
   2.49990E+00  2.28470E+00  1.54729E+00  2.32454E+00  1.48978E+00  5.65124E-01  9.00394E-01  2.34982E+00  3.14379E+00  1.25896E-02
   3.85270E+00  2.64576E+00  1.40282E+00  2.97850E+00  2.58917E+00  3.63662E+00  1.22552E+00  3.18096E+00  3.23033E+00  3.34197E+00
   1.72570E+00  2.91769E+00  1.13826E+00  1.80611E+00  3.40315E+00  2.18520E+00  2.58647E+00  2.42743E+00  2.90109E+00  2.98399E+00
   3.18968E+00  3.12905E+00  5.07795E+00  3.32985E+00  4.00963E+00  3.56848E+00  5.99709E+00  6.81650E+00  7.45622E+00  6.49761E+00
   6.39070E+00  6.65795E+00  8.09562E+00  8.94837E+00  8.51771E+00  6.36417E+00  5.66029E+00  5.86403E+00  2.93681E+00  3.47223E+00
   3.73105E+00  2.63956E+00  2.58967E+00  2.39956E+00  5.70672E+00  3.13966E+00  3.97307E+00  5.96202E+00  5.47414E+00  3.69050E+00
   5.43007E+00  5.04131E+00  5.28895E+00  7.62529E+00  9.32933E+00  9.81929E+00  9.86816E+00  1.11057E+01  1.09274E+01  9.49472E+00
   8.17944E+00  6.47943E+00  2.59933E+00  4.80991E+00  1.33482E+00  2.58899E+00  2.29677E+00  1.48438E+00  3.30921E+00  1.67359E+00
   2.18036E+00  3.18179E+00  1.22047E+00  1.30966E+00  5.47150E+00  2.23518E+00  3.62985E+00  3.83451E+00  4.61985E+00  3.90579E+00
   4.23840E+00  2.96264E+00  2.04205E+00  3.17494E+00  3.22215E+00  2.71661E+00  1.88245E+00  6.16378E-01  1.69542E+00  3.28888E+00
   2.87500E+00  3.99987E+00  1.05095E+00  2.40095E+00  1.93235E+00  2.22268E+00 -1.38871E+00  4.40978E-01  5.18263E-01  1.24873E+00
  -4.29285E-01 -9.15031E-01 -6.73964E-01  2.05747E-01 -3.70755E-01 -7.31303E-02 -2.84686E+00 -1.30090E-02  3.15995E-02  3.29329E-01
  -1.35533E+00  2.76889E+00  1.49725E+00  1.49117E+00  1.14428E+00  1.02820E+00  3.83512E-01  5.61958E-01 -6.42014E-01  1.28627E-01
   6.71228E-01  1.09285E+00  1.02479E+00 -5.76038E-01  3.29999E+00  1.82107E+00 -3.00666E-01  7.07059E-01 -2.26519E+00  1.68453E+00
  -2.29319E-01  9.77100E-01  2.72443E+00  2.51173E+00  1.39315E+00  4.81684E+00  1.32642E+00  2.00167E+00  1.83734E+00  3.48267E+00
   1.95640E+00  2.11368E+00  3.52169E+00  3.12758E+00  1.21668E+00  4.22235E+00  3.97433E+00  5.29424E+00  4.51501E+00  2.04922E+00
   2.61756E+00  1.59098E+00  2.36367E+00  2.60972E+00  1.25550E+00  2.24959E-01  3.49463E+00  2.17310E+00  3.12896E+00  5.02491E+00
   1.66473E+00  3.88054E+00  4.32803E+00  3.60317E+00  3.69401E+00  4.06005E+00  3.35391E+00  4.02726E+00  4.32347E+00  3.12324E+00
   2.01615E+00  1.01015E+00  3.58149E+00  1.67492E+00  2.06786E+00  5.47923E-01  2.23778E+00  4.18516E+00  4.12419E+00  4.32066E+00
   6.40747E+00  5.74028E+00  7.38548E+00  7.27542E+00  9.76797E+00  1.02195E+01  1.06557E+01  1.14290E+01  1.64204E+01  1.64984E+01
   1.86280E+01  1.95701E+01  1.71374E+01  1.77128E+01  1.28847E+01  1.01351E+01  7.79587E+00  7.97222E+00  4.73972E+00  3.15356E+00
   4.33249E+00  6.40280E+00  3.84372E+00  5.93058E+00  5.25931E+00  2.51081E+00  4.87150E+00  4.39714E+00  3.66893E+00  4.04110E+00
   5.71879E+00  4.28649E+00  3.60500E+00  2.88721E+00  3.27325E+00  3.23093E+00  2.94450E+00 -6.98639E-02  3.00528E+00  3.39062E+00
   2.71511E+00  3.06060E+00  3.28468E+00  3.25041E+00  3.93291E+00  2.16509E+00  3.73485E+00  3.94754E+00  4.58376E+00  2.81193E+00
   1.43159E+00  3.21286E+00  3.26167E+00  2.25372E+00  3.92557E+00  3.73135E+00  3.96211E+00  2.86516E+00  2.43477E+00  5.31851E+00
   2.57671E+00  1.78376E+00  1.59024E+00  1.57720E+00  2.63410E+00  2.31877E+00  3.11956E+00  2.99402E+00  1.39992E+00  3.80209E+00
   2.41241E+00  3.66051E+00  1.99951E+00  4.35594E+00  3.01511E+00  7.53220E-01  1.34305E+00  1.90543E+00  1.87477E+00  2.28024E+00
   2.33155E+00  2.77428E+00  4.38213E+00  4.69875E+00  3.97337E+00  3.73338E+00  6.07332E+00  5.26011E+00  4.96572E+00  6.57623E+00
   6.15142E+00  5.72402E+00  6.56320E+00  5.48219E+00  5.93738E+00  5.63839E+00  4.06129E+00  3.95664E+00  3.57631E+00  1.36253E+00
   2.63988E+00  3.89217E+00  3.90142E+00  3.05325E+00  3.17701E+00  4.96854E+00  2.80759E+00  3.38673E+00  4.46665E+00  5.83103E+00
   2.94786E+00  3.40738E+00  2.57384E+00  2.28940E+00  1.50632E+00  3.26478E+00  2.68804E+00  2.28504E+00  1.55301E+00  2.00566E+00
   9.43228E-01  3.43800E+00  1.72805E+00  1.88439E+00  6.11149E-01  2.61131E-01  1.45824E+00  9.94160E-01  4.61286E-01 -2.49568E-01
   1.37050E+00 -1.55347E-04  2.54495E+00  1.70209E+00  7.20794E-01 -1.19168E+00  6.56715E-01 -3.84907E-01  8.51067E-02  1.11861E+00
  -1.13726E+00 -1.97560E-01 -1.44109E-01  5.17527E-02 -1.78280E-01 -1.33454E-01 -1.81305E-01  2.02887E+00  1.69338E+00  2.76668E+00
   2.11614E+00  1.30182E+00  1.56613E+00  2.64689E+00  1.86422E+00  1.03139E+00  6.52642E-01  1.03729E+00 -6.68469E-01  4.20626E+00
   2.81270E+00  2.44936E+00  5.84075E-01 -4.96679E-01  1.98898E+00  1.98777E+00 -6.43320E-02  1.75054E+00  5.81728E-01  9.25553E-01
   2.33377E-01  1.24994E+00  2.82039E-01  1.92367E+00  8.09995E-01  1.34160E+00 -2.44092E-01  2.91684E-01  1.54049E+00 -1.01961E+00
   2.35639E+00 -1.25748E+00  1.67081E+00  7.51144E-01  1.73107E+00  1.43962E+00  1.16993E+00  1.56186E+00  9.28513E-01  1.70894E+00
   2.02635E+00  7.55203E-01  3.35527E-01  1.31591E-01  8.42566E-01  1.45651E+00 -3.06471E-02  1.88462E+00  7.75396E-01  1.67769E+00
   5.69839E-01  9.37822E-01  1.07970E+00  9.80958E-01  2.91655E-01 -5.38682E-01  1.21609E+00  1.22601E-01 -2.75845E-01  5.20766E-01
   1.31076E+00  4.58845E-01  2.57452E-01  3.46697E-01  6.29847E-01  2.92778E-02 -1.37465E-01  5.63365E-01 -2.79506E-01  2.28201E-02
   1.82042E+00  1.67742E-01  8.84419E-01 -3.54104E-01 -1.23685E+00 -1.14843E+00  1.27545E-01 -1.59376E+00  1.09177E+00 -5.40875E-02
   1.84824E+00 -4.05148E-01  4.54539E-01  5.51197E-01 -1.20347E-01 -1.49687E-01  3.07555E-01  2.75336E+00  8.87917E-02 -6.63014E-01
   1.65010E+00  5.50120E-01 -6.73871E-01 -3.20406E-01 -8.52002E-01  1.51037E+00 -2.66129E-01  6.20750E-01
 NY points of the fit to the data follow
   3.45910E+00  3.92374E+00  4.38632E+00  4.78837E+00  5.20888E+00  5.69657E+00  6.20347E+00  6.64325E+00  6.94783E+00  7.02853E+00
   6.83044E+00  6.40208E+00  5.84613E+00  5.27123E+00  4.76494E+00  4.37013E+00  4.09154E+00  3.94016E+00  3.87117E+00  3.85509E+00
   3.81098E+00  3.75060E+00  3.77929E+00  3.84841E+00  3.93288E+00  4.03885E+00  4.16264E+00  4.31367E+00  4.46369E+00  4.63952E+00
   4.86284E+00  5.09390E+00  5.25298E+00  5.29391E+00  5.17545E+00  4.88288E+00  4.44946E+00  3.97894E+00  3.58669E+00  3.35291E+00
   3.30381E+00  3.39606E+00  3.56167E+00  3.74145E+00  3.89757E+00  4.00906E+00  4.06014E+00  4.04970E+00  3.98032E+00  3.85660E+00
   3.69124E+00  3.51728E+00  3.35947E+00  3.22514E+00  3.11702E+00  3.03524E+00  2.98009E+00  2.94935E+00  2.93824E+00  2.93837E+00
   2.93596E+00  2.92289E+00  2.89416E+00  2.85222E+00  2.81145E+00  2.77804E+00  2.75313E+00  2.74080E+00  2.74431E+00  2.75767E+00
   2.77281E+00  2.78538E+00  2.79265E+00  2.79176E+00  2.78278E+00  2.76657E+00  2.74446E+00  2.72350E+00  2.72666E+00  2.74763E+00
   2.75698E+00  2.75580E+00  2.76277E+00  2.78411E+00  2.81062E+00  2.82971E+00  2.83226E+00  2.81006E+00  2.76529E+00  2.70789E+00
   2.65189E+00  2.61562E+00  2.61688E+00  2.72354E+00  3.19403E+00  3.96572E+00  4.66453E+00  5.23538E+00  5.82282E+00  6.51461E+00
   7.23968E+00  7.87155E+00  8.28996E+00  8.35336E+00  7.98528E+00  7.24717E+00  6.29794E+00  5.31389E+00  4.43457E+00  3.71423E+00
   3.15682E+00  2.78680E+00  2.61286E+00  2.56413E+00  2.55639E+00  2.56711E+00  2.60503E+00  2.74593E+00  3.30544E+00  4.28544E+00
   5.19883E+00  5.94536E+00  6.71126E+00  7.62968E+00  8.62148E+00  9.52730E+00  1.01851E+01  1.03802E+01  9.99313E+00  9.09236E+00
   7.87560E+00  6.58202E+00  5.39707E+00  4.39684E+00  3.58507E+00  2.98870E+00  2.64733E+00  2.50349E+00  2.45322E+00  2.46494E+00
   2.51717E+00  2.58481E+00  2.64336E+00  2.67606E+00  2.67487E+00  2.64073E+00  2.58141E+00  2.50654E+00  2.43156E+00  2.36663E+00
   2.31397E+00  2.27322E+00  2.23662E+00  2.18041E+00  2.10703E+00  2.04587E+00  2.00939E+00  1.99869E+00  1.98467E+00  1.93851E+00
   1.87110E+00  1.80513E+00  1.75579E+00  1.72697E+00  1.71262E+00  1.69673E+00  1.65852E+00  1.58238E+00  1.46563E+00  1.32831E+00
   1.22014E+00  1.14626E+00  1.08211E+00  1.00140E+00  9.13211E-01  8.56970E-01  8.42243E-01  8.50707E-01  8.67269E-01  8.75056E-01
   8.83309E-01  9.25801E-01  1.00563E+00  1.11393E+00  1.24401E+00  1.37929E+00  1.50440E+00  1.63625E+00  1.77788E+00  1.92693E+00
   2.04620E+00  2.11431E+00  2.13474E+00  2.13261E+00  2.12699E+00  2.12778E+00  2.17430E+00  2.30373E+00  2.50597E+00  2.74580E+00
   2.96527E+00  3.11576E+00  3.09950E+00  2.98146E+00  2.80370E+00  2.50243E+00  2.07194E+00  1.61873E+00  1.30708E+00  1.20857E+00
   1.23443E+00  1.41748E+00  1.79935E+00  2.32725E+00  2.82976E+00  3.14141E+00  3.25824E+00  3.22631E+00  2.96781E+00  2.44994E+00
   1.79111E+00  1.18993E+00  7.87421E-01  6.35509E-01  7.57483E-01  1.16387E+00  1.76132E+00  2.35782E+00  2.78849E+00  3.07952E+00
   3.27255E+00  3.36137E+00  3.35812E+00  3.31774E+00  3.27655E+00  3.21978E+00  3.18482E+00  3.21541E+00  3.28342E+00  3.30627E+00
   3.24531E+00  3.10902E+00  2.92798E+00  2.75276E+00  2.63265E+00  2.61904E+00  2.73263E+00  2.97074E+00  3.33931E+00  3.75042E+00
   4.13312E+00  4.56609E+00  5.56959E+00  7.49299E+00  9.47002E+00  1.10630E+01  1.24895E+01  1.40271E+01  1.56023E+01  1.69768E+01
   1.79400E+01  1.82029E+01  1.75056E+01  1.58723E+01  1.35993E+01  1.11040E+01  8.76347E+00  6.77839E+00  5.15930E+00  3.95518E+00
   3.24061E+00  2.93681E+00  2.80231E+00  2.73430E+00  2.70476E+00  2.69311E+00  2.67733E+00  2.64782E+00  2.60159E+00  2.54039E+00
   2.47034E+00  2.39969E+00  2.33660E+00  2.28796E+00  2.25843E+00  2.24709E+00  2.24847E+00  2.25710E+00  2.26973E+00  2.28494E+00
   2.30121E+00  2.31688E+00  2.33273E+00  2.34925E+00  2.36558E+00  2.38108E+00  2.39546E+00  2.40784E+00  2.41741E+00  2.42372E+00
   2.42650E+00  2.42561E+00  2.42101E+00  2.41246E+00  2.39973E+00  2.38301E+00  2.36293E+00  2.34051E+00  2.31697E+00  2.29384E+00
   2.27295E+00  2.25624E+00  2.24582E+00  2.24413E+00  2.25415E+00  2.27994E+00  2.32811E+00  2.41259E+00  2.56663E+00  2.77336E+00
   2.89804E+00  2.93744E+00  2.95465E+00  2.96997E+00  2.94154E+00  2.81249E+00  2.59065E+00  2.39254E+00  2.21300E+00  2.02357E+00
   1.87126E+00  1.84405E+00  1.99539E+00  2.31424E+00  2.75895E+00  3.28469E+00  3.82511E+00  4.31603E+00  4.75916E+00  5.22402E+00
   5.49089E+00  5.46244E+00  5.28975E+00  5.09551E+00  4.86587E+00  4.50055E+00  3.98462E+00  3.53820E+00  3.11493E+00  2.61554E+00
   2.13170E+00  1.86214E+00  1.93323E+00  2.32759E+00  2.94340E+00  3.65895E+00  4.32275E+00  4.77829E+00  4.90984E+00  4.73743E+00
   4.36693E+00  3.91091E+00  3.43009E+00  2.96594E+00  2.57427E+00  2.30149E+00  2.11861E+00  1.98796E+00  1.89050E+00  1.81518E+00
   1.75490E+00  1.70508E+00  1.66280E+00  1.62629E+00  1.59451E+00  1.56688E+00  1.54307E+00  1.52302E+00  1.50674E+00  1.49440E+00
   1.48618E+00  1.48227E+00  1.48285E+00  1.48817E+00  1.49845E+00  1.51397E+00  1.53491E+00  1.56144E+00  1.59366E+00  1.63166E+00
   1.67541E+00  1.72482E+00  1.77962E+00  1.83938E+00  1.90352E+00  1.97131E+00  2.04182E+00  2.11393E+00  2.18632E+00  2.25754E+00
   2.32601E+00  2.39014E+00  2.44827E+00  2.49882E+00  2.54026E+00  2.57128E+00  2.59079E+00  2.59802E+00  2.59248E+00  2.57404E+00
   2.54286E+00  2.49952E+00  2.44486E+00  2.38005E+00  2.30640E+00  2.22540E+00  2.13863E+00  2.04769E+00  1.95418E+00  1.85960E+00
   1.76529E+00  1.67243E+00  1.58203E+00  1.49493E+00  1.41176E+00  1.33298E+00  1.25884E+00  1.18947E+00  1.12486E+00  1.06495E+00
   1.00955E+00  9.58429E-01  9.11294E-01  8.67857E-01  8.27807E-01  7.90871E-01  7.56744E-01  7.25152E-01  6.95809E-01  6.68494E-01
   6.42990E-01  6.19125E-01  5.96705E-01  5.75578E-01  5.55583E-01  5.36621E-01  5.18581E-01  5.01388E-01  4.84931E-01  4.69142E-01
   4.53939E-01  4.39291E-01  4.25142E-01  4.11460E-01  3.98176E-01  3.85264E-01  3.72683E-01  3.60431E-01  3.48471E-01  3.36788E-01
   3.25334E-01  3.14104E-01  3.03076E-01  2.92260E-01  2.81625E-01  2.71163E-01  2.60840E-01  2.50665E-01  2.40622E-01  2.30725E-01
   2.20944E-01  2.11276E-01  2.01695E-01  1.92221E-01  1.82841E-01  1.73567E-01  1.64369E-01  1.55248E-01  1.46188E-01  1.37210E-01
   1.28301E-01  1.19469E-01  1.10686E-01  1.01959E-01  9.32783E-02  8.46668E-02  7.61082E-02  6.76091E-02  5.91426E-02  5.07247E-02
   4.23470E-02  3.40327E-02  2.57615E-02  1.75403E-02  9.34778E-03  1.20660E-03 -6.88894E-03 -1.49173E-02
 NY background values follow
     2.672E+00    2.668E+00    2.665E+00    2.661E+00    2.657E+00    2.653E+00    2.649E+00    2.645E+00    2.641E+00    2.638E+00
     2.634E+00    2.630E+00    2.626E+00    2.622E+00    2.618E+00    2.614E+00    2.610E+00    2.607E+00    2.603E+00    2.599E+00
     2.595E+00    2.591E+00    2.587E+00    2.583E+00    2.579E+00    2.576E+00    2.572E+00    2.568E+00    2.564E+00    2.560E+00
     2.556E+00    2.552E+00    2.549E+00    2.545E+00    2.541E+00    2.537E+00    2.533E+00    2.529E+00    2.525E+00    2.521E+00
     2.518E+00    2.514E+00    2.510E+00    2.506E+00    2.502E+00    2.498E+00    2.494E+00    2.490E+00    2.487E+00    2.483E+00
     2.479E+00    2.475E+00    2.471E+00    2.467E+00    2.463E+00    2.459E+00    2.455E+00    2.452E+00    2.448E+00    2.444E+00
     2.440E+00    2.436E+00    2.432E+00    2.428E+00    2.424E+00    2.420E+00    2.417E+00    2.413E+00    2.409E+00    2.405E+00
     2.401E+00    2.397E+00    2.393E+00    2.389E+00    2.385E+00    2.381E+00    2.377E+00    2.374E+00    2.370E+00    2.366E+00
     2.362E+00    2.358E+00    2.354E+00    2.350E+00    2.346E+00    2.342E+00    2.338E+00    2.334E+00    2.330E+00    2.326E+00
     2.322E+00    2.318E+00    2.314E+00    2.310E+00    2.306E+00    2.302E+00    2.298E+00    2.295E+00    2.291E+00    2.287E+00
     2.283E+00    2.279E+00    2.275E+00    2.271E+00    2.266E+00    2.262E+00    2.258E+00    2.254E+00    2.250E+00    2.246E+00
     2.242E+00    2.238E+00    2.234E+00    2.230E+00    2.226E+00    2.222E+00    2.218E+00    2.214E+00    2.210E+00    2.206E+00
     2.202E+00    2.198E+00    2.193E+00    2.189E+00    2.185E+00    2.181E+00    2.177E+00    2.173E+00    2.169E+00    2.165E+00
     2.160E+00    2.156E+00    2.152E+00    2.148E+00    2.144E+00    2.140E+00    2.135E+00    2.131E+00    2.127E+00    2.123E+00
     2.119E+00    2.114E+00    2.110E+00    2.106E+00    2.102E+00    2.097E+00    2.093E+00    2.089E+00    2.085E+00    2.080E+00
     2.076E+00    2.072E+00    2.068E+00    2.063E+00    2.059E+00    2.055E+00    2.050E+00    2.046E+00    2.042E+00    2.037E+00
     2.033E+00    2.029E+00    2.024E+00    2.020E+00    2.016E+00    2.011E+00    2.007E+00    2.003E+00    1.998E+00    1.994E+00
     1.990E+00    1.985E+00    1.981E+00    1.976E+00    1.972E+00    1.968E+00    1.963E+00    1.959E+00    1.954E+00    1.950E+00
     1.945E+00    1.941E+00    1.937E+00    1.932E+00    1.928E+00    1.923E+00    1.919E+00    1.914E+00    1.910E+00    1.905E+00
     1.901E+00    1.896E+00    1.892E+00    1.887E+00    1.883E+00    1.878E+00    1.874E+00    1.869E+00    1.864E+00    1.860E+00
     1.855E+00    1.851E+00    1.846E+00    1.841E+00    1.837E+00    1.832E+00    1.828E+00    1.823E+00    1.818E+00    1.814E+00
     1.809E+00    1.804E+00    1.799E+00    1.795E+00    1.790E+00    1.785E+00    1.781E+00    1.776E+00    1.771E+00    1.766E+00
     1.761E+00    1.757E+00    1.752E+00    1.747E+00    1.742E+00    1.737E+00    1.732E+00    1.727E+00    1.722E+00    1.717E+00
     1.713E+00    1.708E+00    1.703E+00    1.698E+00    1.693E+00    1.688E+00    1.682E+00    1.677E+00    1.672E+00    1.667E+00
     1.662E+00    1.657E+00    1.652E+00    1.647E+00    1.642E+00    1.636E+00    1.631E+00    1.626E+00    1.621E+00    1.615E+00
     1.610E+00    1.605E+00    1.599E+00    1.594E+00    1.589E+00    1.583E+00    1.578E+00    1.572E+00    1.567E+00    1.562E+00
     1.556E+00    1.551E+00    1.545E+00    1.540E+00    1.534E+00    1.528E+00    1.523E+00    1.517E+00    1.511E+00    1.506E+00
     1.500E+00    1.494E+00    1.489E+00    1.483E+00    1.477E+00    1.471E+00    1.465E+00    1.460E+00    1.454E+00    1.448E+00
     1.442E+00    1.436E+00    1.430E+00    1.424E+00    1.418E+00    1.412E+00    1.406E+00    1.400E+00    1.394E+00    1.388E+00
     1.382E+00    1.376E+00    1.369E+00    1.363E+00    1.357E+00    1.351E+00    1.344E+00    1.338E+00    1.332E+00    1.326E+00
     1.319E+00    1.313E+00    1.307E+00    1.300E+00    1.294E+00    1.287E+00    1.281E+00    1.274E+00    1.268E+00    1.261E+00
     1.255E+00    1.248E+00    1.242E+00    1.235E+00    1.229E+00    1.222E+00    1.215E+00    1.209E+00    1.202E+00    1.195E+00
     1.188E+00    1.182E+00    1.175E+00    1.168E+00    1.161E+00    1.155E+00    1.148E+00    1.141E+00    1.134E+00    1.127E+00
     1.120E+00    1.113E+00    1.106E+00    1.100E+00    1.093E+00    1.086E+00    1.079E+00    1.072E+00    1.065E+00    1.058E+00
     1.051E+00    1.044E+00    1.036E+00    1.029E+00    1.022E+00    1.015E+00    1.008E+00    1.001E+00    9.939E-01    9.867E-01
     9.796E-01    9.724E-01    9.653E-01    9.581E-01    9.509E-01    9.437E-01    9.365E-01    9.293E-01    9.221E-01    9.149E-01
     9.076E-01    9.004E-01    8.932E-01    8.859E-01    8.787E-01    8.714E-01    8.641E-01    8.569E-01    8.496E-01    8.423E-01
     8.350E-01    8.277E-01    8.204E-01    8.131E-01    8.058E-01    7.985E-01    7.912E-01    7.839E-01    7.766E-01    7.692E-01
     7.619E-01    7.546E-01    7.473E-01    7.400E-01    7.326E-01    7.253E-01    7.180E-01    7.106E-01    7.033E-01    6.960E-01
     6.887E-01    6.813E-01    6.740E-01    6.667E-01    6.593E-01    6.520E-01    6.447E-01    6.374E-01    6.301E-01    6.227E-01
     6.154E-01    6.081E-01    6.008E-01    5.935E-01    5.862E-01    5.789E-01    5.716E-01    5.643E-01    5.570E-01    5.498E-01
     5.425E-01    5.352E-01    5.279E-01    5.207E-01    5.134E-01    5.062E-01    4.989E-01    4.917E-01    4.844E-01    4.772E-01
     4.700E-01    4.627E-01    4.555E-01    4.483E-01    4.410E-01    4.338E-01    4.266E-01    4.194E-01    4.122E-01    4.050E-01
     3.978E-01    3.906E-01    3.834E-01    3.762E-01    3.690E-01    3.618E-01    3.546E-01    3.474E-01    3.402E-01    3.330E-01
     3.258E-01    3.187E-01    3.115E-01    3.043E-01    2.971E-01    2.899E-01    2.828E-01    2.756E-01    2.684E-01    2.613E-01
     2.541E-01    2.469E-01    2.398E-01    2.326E-01    2.254E-01    2.183E-01    2.111E-01    2.039E-01    1.968E-01    1.896E-01
     1.825E-01    1.753E-01    1.681E-01    1.610E-01    1.538E-01    1.467E-01    1.395E-01    1.324E-01    1.252E-01    1.181E-01
     1.109E-01    1.038E-01    9.660E-02    8.945E-02    8.230E-02    7.515E-02    6.800E-02    6.085E-02    5.370E-02    4.655E-02
     3.940E-02    3.225E-02    2.511E-02    1.796E-02    1.081E-02    3.664E-03   -3.483E-03   -1.063E-02   -1.778E-02   -2.492E-02
    -3.207E-02   -3.922E-02   -4.636E-02   -5.351E-02   -6.065E-02   -6.780E-02   -7.495E-02   -8.209E-02
 Ala      Conc. = 1.45E+02
