 LCModel (Version 6.3-1L) Copyright: S.W. Provencher.          Ref.: Magn. Reson. Med. 30:672-679 (1993).                
 Slice#1 Row#10 Col#4  PD_05_press_1_raw_act
 36 lines in following concentration table = NCONC+1
    Conc.  %SD /Cr+PCr  Metabolite                                         
   92.219  79%   0.149 Ala                                                 
    3.136 999% 5.1E-03 Asp                                                 
   52.543 281% 8.5E-02 Cr                                                  
  568.242  27%   0.915 PCr                                                 
    0.000 999%   0.000 GABA                                                
   41.129 199% 6.6E-02 Glc                                                 
  601.271  25%   0.969 Gln                                                 
 1.03E+03  16%   1.666 Glu                                                 
  184.008   7%   0.296 GPC                                                 
    0.000 999%   0.000 PCh                                                 
  245.598  20%   0.396 GSH                                                 
  635.460  25%   1.024 Ins                                                 
   39.461 200% 6.4E-02 Lac                                                 
 1.42E+03   6%   2.293 NAA                                                 
  181.433  48%   0.292 NAAG                                                
   36.531  44% 5.9E-02 Scyllo                                              
   77.080 149%   0.124 Tau                                                 
  157.634  42%   0.254 -CrCH2                                              
  184.008   7%   0.296 GPC+PCh                                             
 1.60E+03   4%   2.585 NAA+NAAG                                            
  620.786   6%   1.000 Cr+PCr                                              
 1.64E+03  15%   2.635 Glu+Gln                                             
 1.47E+03  28%   2.363 Lip13a                                              
    0.000 999%   0.000 Lip13b                                              
   21.736 875% 3.5E-02 Lip09                                               
 1.08E+03  20%   1.739 MM09                                                
  225.706  63%   0.364 Lip20                                               
 2.19E+03  12%   3.522 MM20                                                
  411.895  30%   0.664 MM12                                                
 1.25E+03  22%   2.012 MM14                                                
  450.788  33%   0.726 MM17                                                
 1.47E+03  28%   2.363 Lip13a+Lip13b                                       
 3.13E+03   9%   5.039 MM14+Lip13a+Lip13b+MM12                             
 1.10E+03  12%   1.774 MM09+Lip09                                          
 2.41E+03  10%   3.886 MM20+Lip20                                          
   6 lines in following misc. output table
  FWHM = 0.054 ppm    S/N =  12                                            
  Data shift =-0.008 ppm                                                   
  Ph:   3 deg       7.9 deg/ppm                                            
  alphaB,S = 1.6E+00,   1.5E+02                                            
   14 spline knots.   Ns = 7(1)                                            
  ( 9) 3 infls.   ( 5) 1 extrs.                                            
  498 points on ppm-axis = NY
      4.000000     3.992357     3.984714     3.977070     3.969427     3.961784     3.954141     3.946497     3.938854     3.931211
      3.923568     3.915925     3.908281     3.900638     3.892995     3.885352     3.877708     3.870065     3.862422     3.854779
      3.847136     3.839492     3.831849     3.824206     3.816563     3.808919     3.801276     3.793633     3.785990     3.778347
      3.770703     3.763060     3.755417     3.747774     3.740130     3.732487     3.724844     3.717201     3.709558     3.701914
      3.694271     3.686628     3.678985     3.671341     3.663698     3.656055     3.648412     3.640769     3.633125     3.625482
      3.617839     3.610196     3.602552     3.594909     3.587266     3.579623     3.571980     3.564336     3.556693     3.549050
      3.541407     3.533763     3.526120     3.518477     3.510834     3.503191     3.495547     3.487904     3.480261     3.472618
      3.464974     3.457331     3.449688     3.442045     3.434402     3.426758     3.419115     3.411472     3.403829     3.396185
      3.388542     3.380899     3.373256     3.365613     3.357969     3.350326     3.342683     3.335040     3.327396     3.319753
      3.312110     3.304467     3.296824     3.289180     3.281537     3.273894     3.266251     3.258607     3.250964     3.243321
      3.235678     3.228034     3.220391     3.212748     3.205105     3.197462     3.189818     3.182175     3.174532     3.166889
      3.159245     3.151602     3.143959     3.136316     3.128673     3.121029     3.113386     3.105743     3.098100     3.090456
      3.082813     3.075170     3.067527     3.059884     3.052240     3.044597     3.036954     3.029311     3.021667     3.014024
      3.006381     2.998738     2.991095     2.983451     2.975808     2.968165     2.960522     2.952878     2.945235     2.937592
      2.929949     2.922306     2.914662     2.907019     2.899376     2.891733     2.884089     2.876446     2.868803     2.861160
      2.853517     2.845873     2.838230     2.830587     2.822944     2.815300     2.807657     2.800014     2.792371     2.784728
      2.777084     2.769441     2.761798     2.754155     2.746511     2.738868     2.731225     2.723582     2.715939     2.708295
      2.700652     2.693009     2.685366     2.677722     2.670079     2.662436     2.654793     2.647150     2.639506     2.631863
      2.624220     2.616577     2.608933     2.601290     2.593647     2.586004     2.578361     2.570717     2.563074     2.555431
      2.547788     2.540144     2.532501     2.524858     2.517215     2.509572     2.501928     2.494285     2.486642     2.478999
      2.471355     2.463712     2.456069     2.448426     2.440783     2.433139     2.425496     2.417853     2.410210     2.402566
      2.394923     2.387280     2.379637     2.371994     2.364350     2.356707     2.349064     2.341421     2.333777     2.326134
      2.318491     2.310848     2.303205     2.295561     2.287918     2.280275     2.272632     2.264988     2.257345     2.249702
      2.242059     2.234416     2.226772     2.219129     2.211486     2.203843     2.196199     2.188556     2.180913     2.173270
      2.165627     2.157983     2.150340     2.142697     2.135054     2.127410     2.119767     2.112124     2.104481     2.096838
      2.089194     2.081551     2.073908     2.066265     2.058621     2.050978     2.043335     2.035692     2.028049     2.020405
      2.012762     2.005119     1.997476     1.989833     1.982190     1.974546     1.966903     1.959260     1.951617     1.943974
      1.936331     1.928688     1.921045     1.913402     1.905759     1.898115     1.890472     1.882829     1.875186     1.867543
      1.859900     1.852257     1.844614     1.836971     1.829327     1.821684     1.814041     1.806398     1.798755     1.791112
      1.783469     1.775826     1.768183     1.760540     1.752896     1.745253     1.737610     1.729967     1.722324     1.714681
      1.707038     1.699395     1.691752     1.684108     1.676465     1.668822     1.661179     1.653536     1.645893     1.638250
      1.630607     1.622964     1.615321     1.607677     1.600034     1.592391     1.584748     1.577105     1.569462     1.561819
      1.554176     1.546533     1.538890     1.531246     1.523603     1.515960     1.508317     1.500674     1.493031     1.485388
      1.477745     1.470102     1.462458     1.454815     1.447172     1.439529     1.431886     1.424243     1.416600     1.408957
      1.401314     1.393671     1.386027     1.378384     1.370741     1.363098     1.355455     1.347812     1.340169     1.332526
      1.324883     1.317240     1.309596     1.301953     1.294310     1.286667     1.279024     1.271381     1.263738     1.256095
      1.248452     1.240808     1.233165     1.225522     1.217879     1.210236     1.202593     1.194950     1.187307     1.179664
      1.172021     1.164377     1.156734     1.149091     1.141448     1.133805     1.126162     1.118519     1.110876     1.103233
      1.095590     1.087946     1.080303     1.072660     1.065017     1.057374     1.049731     1.042088     1.034445     1.026802
      1.019158     1.011515     1.003872     0.996229     0.988586     0.980943     0.973300     0.965657     0.958014     0.950371
      0.942727     0.935084     0.927441     0.919798     0.912155     0.904512     0.896869     0.889226     0.881583     0.873940
      0.866296     0.858653     0.851010     0.843367     0.835724     0.828081     0.820438     0.812795     0.805152     0.797508
      0.789865     0.782222     0.774579     0.766936     0.759293     0.751650     0.744007     0.736364     0.728721     0.721077
      0.713434     0.705791     0.698148     0.690505     0.682862     0.675219     0.667576     0.659933     0.652290     0.644646
      0.637003     0.629360     0.621717     0.614074     0.606431     0.598788     0.591145     0.583502     0.575858     0.568215
      0.560572     0.552929     0.545286     0.537643     0.530000     0.522357     0.514714     0.507071     0.499427     0.491784
      0.484141     0.476498     0.468855     0.461212     0.453569     0.445925     0.438282     0.430639     0.422996     0.415353
      0.407710     0.400067     0.392424     0.384780     0.377137     0.369494     0.361851     0.354208     0.346565     0.338922
      0.331278     0.323635     0.315992     0.308349     0.300706     0.293063     0.285420     0.277777     0.270133     0.262490
      0.254847     0.247204     0.239561     0.231918     0.224275     0.216631     0.208988     0.201345
 NY phased data points follow
   9.89564E+00  7.16258E+00  7.88502E+00  1.24687E+01  8.70332E+00  1.13582E+01  1.21985E+01  1.86823E+01  1.52326E+01  1.72467E+01
   1.89195E+01  1.87309E+01  1.48566E+01  1.66024E+01  1.30264E+01  1.26664E+01  1.18123E+01  1.10535E+01  1.13102E+01  8.57256E+00
   1.08676E+01  1.11844E+01  1.16871E+01  1.46080E+01  8.45635E+00  1.09176E+01  1.01344E+01  9.98236E+00  1.31479E+01  1.55753E+01
   1.14340E+01  1.25946E+01  1.15176E+01  1.18401E+01  1.04807E+01  8.23095E+00  1.21422E+01  8.28004E+00  8.79155E+00  9.21853E+00
   6.79844E+00  1.06488E+01  1.08867E+01  8.41736E+00  1.22223E+01  1.16175E+01  9.91693E+00  1.17102E+01  1.03296E+01  1.09971E+01
   1.02829E+01  9.72573E+00  9.37003E+00  7.87544E+00  1.16497E+01  1.33950E+01  1.08947E+01  1.06098E+01  7.51260E+00  6.10346E+00
   7.49051E+00  8.15083E+00  7.96413E+00  6.10677E+00  4.88595E+00  4.52558E+00  4.95772E+00  6.29533E+00  5.09813E+00  2.50709E+00
   6.68054E+00  8.00535E+00  6.50015E+00  8.49667E+00  6.13683E+00  4.12060E+00  1.89980E+00  5.07148E+00  5.84430E+00  2.72040E+00
   3.39371E+00  4.31181E+00  3.73550E+00  5.60781E+00  7.30761E+00  5.42237E+00  5.08429E+00  3.37132E+00  4.86484E+00  6.85276E+00
   6.27659E+00  3.43062E+00  7.00858E+00  8.73577E+00  5.60091E+00  7.19234E+00  4.41584E+00  5.98852E+00  6.28802E+00  1.08928E+01
   1.21282E+01  1.76199E+01  1.93201E+01  2.13619E+01  2.07354E+01  1.64808E+01  1.32799E+01  9.52767E+00  9.41457E+00  9.96543E+00
   5.86932E+00  7.36579E+00  4.69730E+00  7.58448E+00  7.47817E+00  5.04820E+00  4.77572E+00  7.40445E+00  6.35423E+00  5.43660E+00
   5.27452E+00  5.08930E+00  7.84102E+00  9.95254E+00  1.56513E+01  2.13853E+01  2.26709E+01  2.55228E+01  2.34791E+01  2.22798E+01
   1.82295E+01  1.40324E+01  1.31055E+01  8.88535E+00  8.27467E+00  6.90305E+00  7.36992E+00  3.34455E+00  3.43707E+00  5.27316E+00
   7.18396E+00  3.96294E+00  1.12779E+00  1.21491E+00  2.63712E+00  7.69182E+00  4.22408E+00  6.07126E+00  1.84545E+00  4.39550E+00
   4.57578E+00  1.67663E+00 -1.10602E-01  7.81081E-01  3.40077E+00  6.12059E+00  1.64822E+00  1.91450E+00  1.29385E+00  6.89968E-02
   4.65196E-01  1.58960E+00  5.79424E-01  1.71771E+00  7.92710E-01  1.83593E-02  2.66769E+00  1.39023E+00 -4.39966E-01 -1.18757E+00
  -3.27744E+00 -4.42253E+00 -5.81579E+00 -5.70098E+00 -4.81992E+00 -6.55319E+00 -5.84118E+00 -8.46741E+00 -6.47063E+00 -6.42255E+00
  -6.23983E+00 -5.01251E+00 -4.53370E+00 -3.19373E+00 -2.62566E+00 -3.30969E+00 -5.26398E-01  1.30383E-02 -1.11651E+00 -1.89983E+00
  -3.11222E+00  2.69253E+00 -2.87890E+00 -2.66405E+00 -2.19485E+00 -3.81186E+00 -4.43625E+00 -3.62319E+00 -4.93392E+00 -4.66405E+00
  -1.16367E+00  2.70855E+00 -2.99699E-01  1.59512E+00  4.64941E-01  1.93456E+00 -6.89776E-03 -3.50225E+00  4.60326E-01 -2.91669E-01
   6.37704E-01  4.94764E+00  5.56614E+00  6.62574E+00  8.22373E+00  9.36621E+00  6.95516E+00  6.94567E+00  4.96633E+00  3.25584E+00
   4.00368E-01  8.78656E-01 -2.42146E+00  1.92466E+00 -1.19483E+00  7.57023E-01  3.07211E+00  6.42504E+00  6.31017E+00  7.04182E+00
   7.00726E+00  5.28907E+00  5.56329E+00  4.39555E+00  5.87256E+00  8.64719E+00  5.46291E+00  6.21008E+00  3.00609E+00  6.98000E+00
   7.51943E+00  6.31397E+00  4.20552E+00  8.02772E+00  4.08752E+00  5.86840E+00  7.67882E+00  7.39838E+00  1.22710E+01  8.12422E+00
   1.17277E+01  1.46027E+01  1.54429E+01  1.75232E+01  2.13247E+01  2.61829E+01  3.55426E+01  4.30942E+01  4.76353E+01  5.50671E+01
   5.40629E+01  5.43632E+01  5.14873E+01  4.11677E+01  2.56787E+01  1.31840E+01  1.05111E+01  1.12863E+01  8.65021E+00  7.16905E+00
   3.42758E+00  5.99047E+00  2.69052E+00  2.03243E+00  6.19846E+00  2.92990E+00  7.18279E-01  3.55035E-01 -1.29570E+00  1.39658E+00
   1.37833E+00  7.41872E-01  7.33465E-01  2.12343E-02 -1.52468E+00  3.44301E+00  2.44804E-01  1.46158E+00  7.23340E-02  3.90503E-03
   8.04060E-01 -1.67597E+00  3.69592E-01  7.63819E-01  6.96042E-01  5.25247E-02 -2.39407E+00  1.44872E+00 -8.74999E-02 -7.66975E-01
   3.00286E+00  4.22003E+00  4.06099E+00  3.57359E+00  5.28902E+00  3.85286E+00  2.43959E+00  2.02683E+00  5.35937E+00  3.32802E-02
   2.21713E+00  4.54356E+00  4.07693E+00  4.99210E+00  4.24198E+00  3.38706E+00  4.19924E+00  4.93666E+00  3.72187E+00  4.29698E+00
   4.41889E+00  6.06789E+00  5.80710E+00  3.36727E+00  7.98534E+00  5.06624E+00  8.29256E+00  3.60700E+00  2.87047E+00  5.99377E+00
   5.26653E+00  9.61984E+00  8.82810E+00  5.46576E+00  3.91658E+00  5.37756E+00  9.20281E+00  9.39171E+00  6.68217E+00  1.04084E+01
   7.94721E+00  8.82728E+00  8.98667E+00  1.06934E+01  1.12566E+01  8.67180E+00  9.19742E+00  7.52146E+00  8.37320E+00  9.09555E+00
   9.54876E+00  6.80963E+00  6.52104E+00  7.35219E+00  7.31149E+00  8.38819E+00  9.02310E+00  8.13324E+00  5.39363E+00  8.06856E+00
   4.97498E+00  4.05024E+00  7.06742E+00  7.60048E+00  9.51238E+00  6.61495E+00  5.15963E+00  1.12112E+01  9.19527E+00  8.33044E+00
   6.65098E+00  6.91168E+00  5.93847E+00  6.43473E+00  7.93500E+00  6.48076E+00  4.54382E+00  4.18881E+00  2.44148E+00  4.75808E+00
   4.70811E+00  2.98325E+00  4.65819E+00  3.91121E+00  1.48241E+00  6.23349E+00  3.81618E+00  1.35266E+00  3.15657E+00  4.65796E+00
   4.40363E+00  4.52079E+00  5.34993E+00  6.42149E+00  2.11826E+00  5.05459E+00  6.12565E+00  6.10806E+00  5.55040E+00  7.79322E+00
   4.50452E+00  7.43774E+00  3.10579E+00  8.37366E+00  6.87895E+00  7.67349E+00  7.18799E+00  3.80089E+00  5.38321E+00  7.15717E+00
   5.05987E+00  6.61012E+00  5.77891E+00  4.36703E+00  5.29931E+00  2.00478E+00  2.32929E+00  3.37682E+00  9.53937E-01  1.17557E+00
   3.70643E+00  2.90846E+00  7.68218E-01  1.08540E+00  2.48626E-01 -3.53619E-01  8.08391E-01  1.07825E+00 -1.18824E+00  5.31262E-01
   1.88661E+00  1.82678E+00  2.03954E+00  2.54413E+00 -3.00521E-02  2.05843E+00  1.16884E+00  6.70824E-01  1.26704E+00 -8.18751E-01
   1.29569E+00  1.36229E+00  8.78522E-01 -7.97518E-01  1.04437E+00  5.19029E-02  6.35375E-01 -6.69047E-01 -1.71892E+00 -4.26816E-01
   2.74802E+00  2.21348E+00 -3.02385E+00 -1.37621E+00 -7.71540E-01 -2.15296E-02  4.01508E-01 -2.02931E+00 -1.69228E+00  2.27985E+00
  -8.79405E-01  3.33111E-01  2.57691E+00 -5.33896E-01  4.73011E-01  1.00241E+00 -1.73150E+00 -4.34343E-01 -5.00423E-01  3.90059E+00
   3.60855E+00 -1.82207E+00  3.46538E+00  1.70503E+00 -8.35855E-01  1.55673E+00 -7.27968E-01  8.53504E-01 -2.96175E-01 -3.16693E-01
  -2.09696E-01  1.50653E+00  1.86417E+00  1.58053E+00 -9.03622E-01  1.87462E+00  7.08674E-01  6.89166E-01 -2.10930E+00  2.06510E+00
  -7.16568E-02  2.98015E+00  1.97902E+00 -1.40010E+00 -3.06223E-01 -1.67049E+00 -5.53433E-01 -1.48358E-01
 NY points of the fit to the data follow
   8.97381E+00  8.78370E+00  8.80343E+00  9.26686E+00  1.02555E+01  1.17298E+01  1.35240E+01  1.53777E+01  1.70149E+01  1.81789E+01
   1.86659E+01  1.83218E+01  1.70985E+01  1.52361E+01  1.32949E+01  1.18338E+01  1.09748E+01  1.03978E+01  9.87414E+00  9.59552E+00
   9.46996E+00  9.32006E+00  9.17519E+00  9.15791E+00  9.31248E+00  9.73213E+00  1.04519E+01  1.14360E+01  1.25664E+01  1.36313E+01
   1.43941E+01  1.46052E+01  1.40873E+01  1.29502E+01  1.15179E+01  1.00968E+01  8.88124E+00  7.91048E+00  7.33909E+00  7.28528E+00
   7.65438E+00  8.35246E+00  9.21082E+00  1.00954E+01  1.08907E+01  1.14635E+01  1.17354E+01  1.16358E+01  1.11069E+01  1.02104E+01
   9.08419E+00  7.97872E+00  7.19881E+00  6.84157E+00  6.75757E+00  6.81120E+00  6.99583E+00  7.26180E+00  7.47264E+00  7.53911E+00
   7.45456E+00  7.22199E+00  6.87588E+00  6.47990E+00  6.14798E+00  5.98432E+00  5.98762E+00  6.09713E+00  6.26497E+00  6.44269E+00
   6.59105E+00  6.68821E+00  6.71746E+00  6.66844E+00  6.53346E+00  6.33027E+00  6.10209E+00  5.87959E+00  5.68725E+00  5.54969E+00
   5.51736E+00  5.58200E+00  5.68179E+00  5.74441E+00  5.72855E+00  5.62484E+00  5.43075E+00  5.16281E+00  4.84772E+00  4.53916E+00
   4.31182E+00  4.22789E+00  4.26759E+00  4.32514E+00  4.33473E+00  4.40426E+00  4.94658E+00  6.33080E+00  8.48927E+00  1.12370E+01
   1.42241E+01  1.70037E+01  1.91177E+01  2.01578E+01  1.98258E+01  1.80127E+01  1.49907E+01  1.15830E+01  8.78144E+00  7.01094E+00
   5.90418E+00  4.94635E+00  4.25049E+00  4.02618E+00  3.96516E+00  3.94638E+00  3.95006E+00  3.98948E+00  4.08700E+00  4.31096E+00
   4.98115E+00  6.61465E+00  9.20151E+00  1.25163E+01  1.61622E+01  1.96233E+01  2.23994E+01  2.40224E+01  2.41007E+01  2.24171E+01
   1.91387E+01  1.50547E+01  1.13171E+01  8.63294E+00  6.81602E+00  5.29534E+00  4.10521E+00  3.67174E+00  3.70858E+00  3.92727E+00
   4.14392E+00  4.24867E+00  4.22598E+00  4.07986E+00  3.83583E+00  3.56096E+00  3.29917E+00  3.05290E+00  2.81995E+00  2.59053E+00
   2.38587E+00  2.21615E+00  2.08720E+00  1.99753E+00  1.90260E+00  1.76401E+00  1.57418E+00  1.34652E+00  1.12795E+00  9.35160E-01
   7.71167E-01  6.54887E-01  5.96100E-01  5.82459E-01  5.74753E-01  4.98413E-01  2.73677E-01 -9.89951E-02 -5.21012E-01 -9.02014E-01
  -1.24675E+00 -1.55224E+00 -1.83229E+00 -2.07955E+00 -2.25974E+00 -2.38482E+00 -2.44957E+00 -2.42505E+00 -2.31920E+00 -2.19358E+00
  -2.15423E+00 -2.23134E+00 -2.30684E+00 -2.21178E+00 -1.85422E+00 -1.30131E+00 -6.74194E-01  4.55555E-03  7.07237E-01  1.34419E+00
   1.75624E+00  1.80134E+00  1.49537E+00  9.93068E-01  5.34826E-01  3.13372E-01  3.81230E-01  7.85260E-01  1.51310E+00  2.43240E+00
   3.37002E+00  4.11772E+00  4.43187E+00  4.11934E+00  3.22508E+00  1.88743E+00  3.04132E-01 -1.26081E+00 -2.45306E+00 -2.86505E+00
  -2.28339E+00 -8.44172E-01  1.11241E+00  3.14795E+00  4.77469E+00  5.61713E+00  5.51321E+00  4.50012E+00  2.74030E+00  5.95859E-01
  -1.21556E+00 -2.16894E+00 -2.17857E+00 -1.40158E+00 -6.65464E-02  1.62554E+00  3.29424E+00  4.47588E+00  5.00796E+00  5.07198E+00
   5.00704E+00  4.95794E+00  4.96400E+00  5.15334E+00  5.59511E+00  6.12456E+00  6.53785E+00  6.74352E+00  6.74832E+00  6.57478E+00
   6.23689E+00  5.87587E+00  5.71679E+00  5.88530E+00  6.34433E+00  7.01663E+00  7.83066E+00  8.60657E+00  9.28853E+00  1.00980E+01
   1.11843E+01  1.25007E+01  1.40444E+01  1.66460E+01  2.13906E+01  2.78898E+01  3.54475E+01  4.30464E+01  4.95261E+01  5.38982E+01
   5.54233E+01  5.35144E+01  4.77567E+01  3.86207E+01  2.82928E+01  1.97453E+01  1.42759E+01  1.07745E+01  7.65137E+00  5.22871E+00
   4.28530E+00  3.83850E+00  3.52504E+00  3.29254E+00  3.09752E+00  2.88414E+00  2.64409E+00  2.37623E+00  2.09886E+00  1.84432E+00
   1.63209E+00  1.45358E+00  1.29948E+00  1.17274E+00  1.07281E+00  9.89664E-01  9.14479E-01  8.51790E-01  8.12911E-01  8.02424E-01
   8.16753E-01  8.55369E-01  9.17685E-01  1.00005E+00  1.09620E+00  1.20306E+00  1.32154E+00  1.45470E+00  1.60442E+00  1.76930E+00
   1.94646E+00  2.13407E+00  2.32763E+00  2.52064E+00  2.70685E+00  2.88199E+00  3.04386E+00  3.19061E+00  3.32043E+00  3.43390E+00
   3.53236E+00  3.61737E+00  3.69183E+00  3.75972E+00  3.82594E+00  3.89608E+00  3.97644E+00  4.07407E+00  4.19797E+00  4.36252E+00
   4.59099E+00  4.87222E+00  5.16430E+00  5.43099E+00  5.63629E+00  5.75375E+00  5.76933E+00  5.68157E+00  5.53314E+00  5.41164E+00
   5.40539E+00  5.59414E+00  5.99429E+00  6.53665E+00  7.11697E+00  7.66972E+00  8.17344E+00  8.56433E+00  8.77767E+00  8.83859E+00
   8.83569E+00  8.84330E+00  8.86007E+00  8.84029E+00  8.77576E+00  8.68761E+00  8.56106E+00  8.39103E+00  8.20073E+00  8.02483E+00
   7.90012E+00  7.86078E+00  7.91392E+00  8.02891E+00  8.15719E+00  8.26569E+00  8.34242E+00  8.36057E+00  8.29464E+00  8.15945E+00
   7.98949E+00  7.80926E+00  7.61577E+00  7.39654E+00  7.16264E+00  6.92272E+00  6.67345E+00  6.41489E+00  6.14920E+00  5.87944E+00
   5.60921E+00  5.34226E+00  5.08240E+00  4.83331E+00  4.59865E+00  4.38187E+00  4.18622E+00  4.01450E+00  3.86920E+00  3.75241E+00
   3.66596E+00  3.61129E+00  3.58950E+00  3.60112E+00  3.64629E+00  3.72462E+00  3.83535E+00  3.97708E+00  4.14777E+00  4.34460E+00
   4.56409E+00  4.80202E+00  5.05356E+00  5.31316E+00  5.57464E+00  5.83133E+00  6.07634E+00  6.30272E+00  6.50382E+00  6.67326E+00
   6.80539E+00  6.89538E+00  6.93967E+00  6.93593E+00  6.88332E+00  6.78226E+00  6.63460E+00  6.44341E+00  6.21301E+00  5.94858E+00
   5.65600E+00  5.34143E+00  5.01120E+00  4.67153E+00  4.32842E+00  3.98728E+00  3.65292E+00  3.32929E+00  3.01965E+00  2.72647E+00
   2.45155E+00  2.19596E+00  1.96015E+00  1.74398E+00  1.54701E+00  1.36845E+00  1.20737E+00  1.06256E+00  9.32768E-01  8.16642E-01
   7.12965E-01  6.20532E-01  5.38259E-01  4.65025E-01  3.99842E-01  3.41775E-01  2.90094E-01  2.44104E-01  2.03220E-01  1.66820E-01
   1.34414E-01  1.05543E-01  7.99076E-02  5.71742E-02  3.70727E-02  1.92696E-02  3.54972E-03 -1.02972E-02 -2.23703E-02 -3.28456E-02
  -4.18578E-02 -4.96020E-02 -5.61559E-02 -6.16150E-02 -6.59996E-02 -6.94304E-02 -7.19848E-02 -7.37890E-02 -7.48508E-02 -7.52169E-02
  -7.48835E-02 -7.39527E-02 -7.24683E-02 -7.05091E-02 -6.80435E-02 -6.51024E-02 -6.16822E-02 -5.78796E-02 -5.37141E-02 -4.92306E-02
  -4.43757E-02 -3.91795E-02 -3.36442E-02 -2.78575E-02 -2.18136E-02 -1.55345E-02 -8.96347E-03 -2.14269E-03  4.91802E-03  1.21420E-02
   1.95595E-02  2.71643E-02  3.50079E-02  4.30351E-02  5.12367E-02  5.95549E-02  6.80401E-02  7.66897E-02  8.55431E-02  9.45348E-02
   1.03663E-01  1.12892E-01  1.22287E-01  1.31842E-01  1.41587E-01  1.51452E-01  1.61455E-01  1.71584E-01
 NY background values follow
     7.355E+00    7.312E+00    7.268E+00    7.225E+00    7.181E+00    7.137E+00    7.094E+00    7.050E+00    7.007E+00    6.963E+00
     6.920E+00    6.876E+00    6.833E+00    6.789E+00    6.745E+00    6.702E+00    6.658E+00    6.615E+00    6.571E+00    6.528E+00
     6.484E+00    6.441E+00    6.397E+00    6.353E+00    6.310E+00    6.266E+00    6.223E+00    6.179E+00    6.136E+00    6.092E+00
     6.049E+00    6.005E+00    5.962E+00    5.918E+00    5.875E+00    5.831E+00    5.788E+00    5.744E+00    5.701E+00    5.657E+00
     5.614E+00    5.570E+00    5.527E+00    5.484E+00    5.440E+00    5.397E+00    5.353E+00    5.310E+00    5.267E+00    5.223E+00
     5.180E+00    5.136E+00    5.093E+00    5.050E+00    5.007E+00    4.963E+00    4.920E+00    4.877E+00    4.834E+00    4.790E+00
     4.747E+00    4.704E+00    4.661E+00    4.618E+00    4.575E+00    4.532E+00    4.489E+00    4.446E+00    4.403E+00    4.360E+00
     4.318E+00    4.275E+00    4.232E+00    4.189E+00    4.147E+00    4.104E+00    4.062E+00    4.019E+00    3.977E+00    3.934E+00
     3.892E+00    3.850E+00    3.807E+00    3.765E+00    3.723E+00    3.681E+00    3.639E+00    3.597E+00    3.555E+00    3.513E+00
     3.472E+00    3.430E+00    3.388E+00    3.347E+00    3.305E+00    3.264E+00    3.222E+00    3.181E+00    3.140E+00    3.099E+00
     3.058E+00    3.017E+00    2.976E+00    2.935E+00    2.895E+00    2.854E+00    2.813E+00    2.773E+00    2.733E+00    2.692E+00
     2.652E+00    2.612E+00    2.572E+00    2.532E+00    2.493E+00    2.453E+00    2.413E+00    2.374E+00    2.335E+00    2.295E+00
     2.256E+00    2.217E+00    2.178E+00    2.140E+00    2.101E+00    2.062E+00    2.024E+00    1.986E+00    1.947E+00    1.909E+00
     1.871E+00    1.834E+00    1.796E+00    1.758E+00    1.721E+00    1.684E+00    1.647E+00    1.610E+00    1.573E+00    1.536E+00
     1.499E+00    1.463E+00    1.427E+00    1.390E+00    1.354E+00    1.319E+00    1.283E+00    1.248E+00    1.212E+00    1.177E+00
     1.142E+00    1.107E+00    1.073E+00    1.038E+00    1.004E+00    9.700E-01    9.362E-01    9.025E-01    8.691E-01    8.358E-01
     8.028E-01    7.700E-01    7.374E-01    7.050E-01    6.728E-01    6.408E-01    6.091E-01    5.776E-01    5.463E-01    5.153E-01
     4.845E-01    4.539E-01    4.236E-01    3.935E-01    3.637E-01    3.341E-01    3.048E-01    2.758E-01    2.470E-01    2.185E-01
     1.902E-01    1.622E-01    1.345E-01    1.070E-01    7.985E-02    5.294E-02    2.630E-02   -7.347E-05   -2.618E-02   -5.203E-02
    -7.762E-02   -1.029E-01   -1.280E-01   -1.528E-01   -1.774E-01   -2.017E-01   -2.257E-01   -2.495E-01   -2.730E-01   -2.963E-01
    -3.193E-01   -3.421E-01   -3.647E-01   -3.870E-01   -4.090E-01   -4.308E-01   -4.524E-01   -4.737E-01   -4.948E-01   -5.157E-01
    -5.363E-01   -5.567E-01   -5.768E-01   -5.968E-01   -6.164E-01   -6.359E-01   -6.551E-01   -6.741E-01   -6.929E-01   -7.115E-01
    -7.298E-01   -7.479E-01   -7.658E-01   -7.835E-01   -8.009E-01   -8.182E-01   -8.352E-01   -8.520E-01   -8.686E-01   -8.850E-01
    -9.011E-01   -9.171E-01   -9.328E-01   -9.483E-01   -9.637E-01   -9.788E-01   -9.937E-01   -1.008E+00   -1.023E+00   -1.037E+00
    -1.051E+00   -1.065E+00   -1.079E+00   -1.092E+00   -1.105E+00   -1.118E+00   -1.131E+00   -1.144E+00   -1.156E+00   -1.168E+00
    -1.180E+00   -1.192E+00   -1.203E+00   -1.215E+00   -1.226E+00   -1.237E+00   -1.247E+00   -1.258E+00   -1.268E+00   -1.278E+00
    -1.288E+00   -1.298E+00   -1.307E+00   -1.317E+00   -1.326E+00   -1.334E+00   -1.343E+00   -1.352E+00   -1.360E+00   -1.368E+00
    -1.376E+00   -1.383E+00   -1.391E+00   -1.398E+00   -1.405E+00   -1.412E+00   -1.418E+00   -1.425E+00   -1.431E+00   -1.437E+00
    -1.443E+00   -1.448E+00   -1.454E+00   -1.459E+00   -1.464E+00   -1.469E+00   -1.474E+00   -1.478E+00   -1.482E+00   -1.487E+00
    -1.491E+00   -1.494E+00   -1.498E+00   -1.501E+00   -1.504E+00   -1.507E+00   -1.510E+00   -1.513E+00   -1.515E+00   -1.518E+00
    -1.520E+00   -1.522E+00   -1.524E+00   -1.525E+00   -1.527E+00   -1.528E+00   -1.529E+00   -1.530E+00   -1.531E+00   -1.532E+00
    -1.532E+00   -1.532E+00   -1.533E+00   -1.532E+00   -1.532E+00   -1.532E+00   -1.532E+00   -1.531E+00   -1.530E+00   -1.529E+00
    -1.528E+00   -1.527E+00   -1.525E+00   -1.524E+00   -1.522E+00   -1.520E+00   -1.518E+00   -1.516E+00   -1.514E+00   -1.512E+00
    -1.509E+00   -1.506E+00   -1.503E+00   -1.501E+00   -1.497E+00   -1.494E+00   -1.491E+00   -1.487E+00   -1.484E+00   -1.480E+00
    -1.476E+00   -1.472E+00   -1.468E+00   -1.464E+00   -1.459E+00   -1.455E+00   -1.450E+00   -1.446E+00   -1.441E+00   -1.436E+00
    -1.431E+00   -1.426E+00   -1.420E+00   -1.415E+00   -1.409E+00   -1.404E+00   -1.398E+00   -1.392E+00   -1.386E+00   -1.380E+00
    -1.374E+00   -1.368E+00   -1.362E+00   -1.355E+00   -1.349E+00   -1.342E+00   -1.335E+00   -1.329E+00   -1.322E+00   -1.315E+00
    -1.308E+00   -1.300E+00   -1.293E+00   -1.286E+00   -1.278E+00   -1.271E+00   -1.263E+00   -1.255E+00   -1.248E+00   -1.240E+00
    -1.232E+00   -1.224E+00   -1.215E+00   -1.207E+00   -1.199E+00   -1.190E+00   -1.182E+00   -1.173E+00   -1.165E+00   -1.156E+00
    -1.147E+00   -1.138E+00   -1.129E+00   -1.120E+00   -1.111E+00   -1.102E+00   -1.092E+00   -1.083E+00   -1.074E+00   -1.064E+00
    -1.054E+00   -1.045E+00   -1.035E+00   -1.025E+00   -1.015E+00   -1.005E+00   -9.954E-01   -9.853E-01   -9.751E-01   -9.648E-01
    -9.545E-01   -9.442E-01   -9.337E-01   -9.232E-01   -9.127E-01   -9.021E-01   -8.914E-01   -8.807E-01   -8.699E-01   -8.590E-01
    -8.481E-01   -8.371E-01   -8.261E-01   -8.151E-01   -8.039E-01   -7.928E-01   -7.816E-01   -7.703E-01   -7.590E-01   -7.476E-01
    -7.363E-01   -7.248E-01   -7.133E-01   -7.018E-01   -6.903E-01   -6.787E-01   -6.670E-01   -6.554E-01   -6.436E-01   -6.319E-01
    -6.201E-01   -6.083E-01   -5.965E-01   -5.846E-01   -5.728E-01   -5.608E-01   -5.489E-01   -5.369E-01   -5.249E-01   -5.129E-01
    -5.009E-01   -4.889E-01   -4.768E-01   -4.647E-01   -4.526E-01   -4.405E-01   -4.283E-01   -4.162E-01   -4.040E-01   -3.918E-01
    -3.796E-01   -3.674E-01   -3.552E-01   -3.430E-01   -3.307E-01   -3.185E-01   -3.062E-01   -2.939E-01   -2.816E-01   -2.693E-01
    -2.570E-01   -2.447E-01   -2.324E-01   -2.201E-01   -2.077E-01   -1.954E-01   -1.830E-01   -1.707E-01   -1.583E-01   -1.460E-01
    -1.336E-01   -1.213E-01   -1.089E-01   -9.653E-02   -8.416E-02   -7.179E-02   -5.942E-02   -4.705E-02   -3.469E-02   -2.232E-02
    -9.959E-03    2.401E-03    1.476E-02    2.711E-02    3.946E-02    5.180E-02    6.414E-02    7.647E-02
 Ala      Conc. = 9.22E+01
